20.00000 544.468
20.01000 556.615
20.02000 570.496
20.03000 580.094
20.04000 573.057
20.05000 564.353
20.06000 557.981
20.07000 561.702
20.08000 564.977
20.09000 566.616
20.10000 565.392
20.11000 564.116
20.12000 563.948
20.13000 565.059
20.14000 566.167
20.15000 562.550
20.16000 555.496
20.17000 548.622
20.18000 547.955
20.19000 550.343
20.20000 552.895
20.21000 557.865
20.22000 563.636
20.23000 568.880
20.24000 568.235
20.25000 566.519
20.26000 563.492
20.27000 553.814
20.28000 543.210
20.29000 536.226
20.30000 541.320
20.31000 547.381
20.32000 551.621
20.33000 553.308
20.34000 554.510
20.35000 554.747
20.36000 553.531
20.37000 552.301
20.38000 554.407
20.39000 559.759
20.40000 565.071
20.41000 564.976
20.42000 561.517
20.43000 558.194
20.44000 558.115
20.45000 559.414
20.46000 560.839
20.47000 563.710
20.48000 566.995
20.49000 569.916
20.50000 556.321
20.51000 541.840
20.52000 532.683
20.53000 546.513
20.54000 562.989
20.55000 573.757
20.56000 568.122
20.57000 561.462
20.58000 557.032
20.59000 552.490
20.60000 549.127
20.61000 547.767
20.62000 548.983
20.63000 550.208
20.64000 551.525
20.65000 552.917
20.66000 554.289
20.67000 557.376
20.68000 561.285
20.69000 564.566
20.70000 556.766
20.71000 544.899
20.72000 533.928
20.73000 531.317
20.74000 530.755
20.75000 530.267
20.76000 534.350
20.77000 538.444
20.78000 541.325
20.79000 539.723
20.80000 537.701
20.81000 535.229
20.82000 531.640
20.83000 527.999
20.84000 525.709
20.85000 534.876
20.86000 541.634
20.87000 541.602
20.88000 534.152
20.89000 526.755
20.90000 526.769
20.91000 531.994
20.92000 537.105
20.93000 543.781
20.94000 550.891
20.95000 557.181
20.96000 552.318
20.97000 543.926
20.98000 536.836
20.99000 539.734
21.00000 544.720
21.01000 548.933
21.02000 540.359
21.03000 531.785
21.04000 527.174
21.05000 535.166
21.06000 544.094
21.07000 549.189
21.08000 546.077
21.09000 542.691
21.10000 540.691
21.11000 539.801
21.12000 539.178
21.13000 536.773
21.14000 532.726
21.15000 528.784
21.16000 531.824
21.17000 539.075
21.18000 546.094
21.19000 540.781
21.20000 531.031
21.21000 522.295
21.22000 524.508
21.23000 529.700
21.24000 534.606
21.25000 537.680
21.26000 540.430
21.27000 542.685
21.28000 541.903
21.29000 540.993
21.30000 539.702
21.31000 537.364
21.32000 534.967
21.33000 533.267
21.34000 532.854
21.35000 532.470
21.36000 532.259
21.37000 530.425
21.38000 529.164
21.39000 529.381
21.40000 530.754
21.41000 532.072
21.42000 531.192
21.43000 529.171
21.44000 527.238
21.45000 529.453
21.46000 532.866
21.47000 536.189
21.48000 538.728
21.49000 541.085
21.50000 542.630
21.51000 539.804
21.52000 536.327
21.53000 533.570
21.54000 538.203
21.55000 542.448
21.56000 547.525
21.57000 554.575
21.58000 561.707
21.59000 562.320
21.60000 552.570
21.61000 542.687
21.62000 537.661
21.63000 548.448
21.64000 555.549
21.65000 548.951
21.66000 533.190
21.67000 518.234
21.68000 525.043
21.69000 541.604
21.70000 557.214
21.71000 549.085
21.72000 535.086
21.73000 522.731
21.74000 522.254
21.75000 524.135
21.76000 529.354
21.77000 549.832
21.78000 572.196
21.79000 589.285
21.80000 582.956
21.81000 576.699
21.82000 571.222
21.83000 567.337
21.84000 563.499
21.85000 563.129
21.86000 567.480
21.87000 571.855
21.88000 570.504
21.89000 564.160
21.90000 557.991
21.91000 561.500
21.92000 570.570
21.93000 579.714
21.94000 590.280
21.95000 601.397
21.96000 611.702
21.97000 608.459
21.98000 602.381
21.99000 599.546
22.00000 616.311
22.01000 636.364
22.02000 654.072
22.03000 662.613
22.04000 670.228
22.05000 675.814
22.06000 662.215
22.07000 650.934
22.08000 645.480
22.09000 650.286
22.10000 655.285
22.11000 650.973
22.12000 635.863
22.13000 620.783
22.14000 615.318
22.15000 616.989
22.16000 618.721
22.17000 622.546
22.18000 627.409
22.19000 631.426
22.20000 622.847
22.21000 610.063
22.22000 598.436
22.23000 601.617
22.24000 607.332
22.25000 612.539
22.26000 615.151
22.27000 617.398
22.28000 614.852
22.29000 596.219
22.30000 576.285
22.31000 562.311
22.32000 557.032
22.33000 553.289
22.34000 552.710
22.35000 556.921
22.36000 561.181
22.37000 555.809
22.38000 541.002
22.39000 526.304
22.40000 529.495
22.41000 543.840
22.42000 557.617
22.43000 557.604
22.44000 551.695
22.45000 545.551
22.46000 536.660
22.47000 526.979
22.48000 518.362
22.49000 518.408
22.50000 519.864
22.51000 521.708
22.52000 525.235
22.53000 528.957
22.54000 529.841
22.55000 522.518
22.56000 514.677
22.57000 509.450
22.58000 524.328
22.59000 535.729
22.60000 541.562
22.61000 540.188
22.62000 538.768
22.63000 529.796
22.64000 514.564
22.65000 499.537
22.66000 499.218
22.67000 506.742
22.68000 514.114
22.69000 518.761
22.70000 522.401
22.71000 525.742
22.72000 526.260
22.73000 526.081
22.74000 525.926
22.75000 518.245
22.76000 510.677
22.77000 506.586
22.78000 515.427
22.79000 525.489
22.80000 531.430
22.81000 527.090
22.82000 522.261
22.83000 519.218
22.84000 513.733
22.85000 509.735
22.86000 504.139
22.87000 496.787
22.88000 489.495
22.89000 490.845
22.90000 498.306
22.91000 505.606
22.92000 506.537
22.93000 504.543
22.94000 502.567
22.95000 500.858
22.96000 499.234
22.97000 498.162
22.98000 501.356
22.99000 505.448
23.00000 508.909
23.01000 500.707
23.02000 492.551
23.03000 487.019
23.04000 489.880
23.05000 493.369
23.06000 493.933
23.07000 488.192
23.08000 482.237
23.09000 478.710
23.10000 495.792
23.11000 507.984
23.12000 512.106
23.13000 508.741
23.14000 505.503
23.15000 510.818
23.16000 521.322
23.17000 531.495
23.18000 526.953
23.19000 516.978
23.20000 507.748
23.21000 506.633
23.22000 507.740
23.23000 508.120
23.24000 503.826
23.25000 498.698
23.26000 494.489
23.27000 497.864
23.28000 501.312
23.29000 505.410
23.30000 511.302
23.31000 517.297
23.32000 519.713
23.33000 515.473
23.34000 511.085
23.35000 508.661
23.36000 510.359
23.37000 511.525
23.38000 508.860
23.39000 503.179
23.40000 497.631
23.41000 497.465
23.42000 500.110
23.43000 502.641
23.44000 503.959
23.45000 504.789
23.46000 505.040
23.47000 500.180
23.48000 494.121
23.49000 489.521
23.50000 492.834
23.51000 497.332
23.52000 500.904
23.53000 497.290
23.54000 493.872
23.55000 492.786
23.56000 497.251
23.57000 501.954
23.58000 502.971
23.59000 498.092
23.60000 493.135
23.61000 490.606
23.62000 486.648
23.63000 484.040
23.64000 486.694
23.65000 492.889
23.66000 499.148
23.67000 507.157
23.68000 515.954
23.69000 524.251
23.70000 515.304
23.71000 502.311
23.72000 490.849
23.73000 490.523
23.74000 492.424
23.75000 495.262
23.76000 502.412
23.77000 510.099
23.78000 515.982
23.79000 515.092
23.80000 514.019
23.81000 514.661
23.82000 518.826
23.83000 523.096
23.84000 522.372
23.85000 514.802
23.86000 507.195
23.87000 504.433
23.88000 505.931
23.89000 507.378
23.90000 505.897
23.91000 502.723
23.92000 499.620
23.93000 497.920
23.94000 496.766
23.95000 495.695
23.96000 489.643
23.97000 483.022
23.98000 477.674
23.99000 480.072
24.00000 483.778
24.01000 488.664
24.02000 498.186
24.03000 508.181
24.04000 515.524
24.05000 505.984
24.06000 497.917
24.07000 492.622
24.08000 492.241
24.09000 491.954
24.10000 493.019
24.11000 495.663
24.12000 498.302
24.13000 501.201
24.14000 504.273
24.15000 507.355
24.16000 510.788
24.17000 514.396
24.18000 517.409
24.19000 511.463
24.20000 502.508
24.21000 494.358
24.22000 493.605
24.23000 494.399
24.24000 494.067
24.25000 487.950
24.26000 481.014
24.27000 474.699
24.28000 470.478
24.29000 466.428
24.30000 463.583
24.31000 484.224
24.32000 500.539
24.33000 509.224
24.34000 506.287
24.35000 503.227
24.36000 499.211
24.37000 494.251
24.38000 489.326
24.39000 485.743
24.40000 483.065
24.41000 480.443
24.42000 479.217
24.43000 478.591
24.44000 478.062
24.45000 478.672
24.46000 479.611
24.47000 480.447
24.48000 475.811
24.49000 470.879
24.50000 467.924
24.51000 473.616
24.52000 480.319
24.53000 484.490
24.54000 481.295
24.55000 477.629
24.56000 475.181
24.57000 478.820
24.58000 481.636
24.59000 480.725
24.60000 474.956
24.61000 469.177
24.62000 468.713
24.63000 472.683
24.64000 476.601
24.65000 478.773
24.66000 479.949
24.67000 481.436
24.68000 488.530
24.69000 497.707
24.70000 505.646
24.71000 501.826
24.72000 495.087
24.73000 489.226
24.74000 483.335
24.75000 478.303
24.76000 474.151
24.77000 473.287
24.78000 472.737
24.79000 473.561
24.80000 477.835
24.81000 482.274
24.82000 485.080
24.83000 477.624
24.84000 472.101
24.85000 473.352
24.86000 482.104
24.87000 490.781
24.88000 487.962
24.89000 476.962
24.90000 466.195
24.91000 462.024
24.92000 461.028
24.93000 460.378
24.94000 464.528
24.95000 470.213
24.96000 475.328
24.97000 475.989
24.98000 475.706
24.99000 475.467
25.00000 476.426
25.01000 477.362
25.02000 476.870
25.03000 471.779
25.04000 466.339
25.05000 463.633
25.06000 466.849
25.07000 470.270
25.08000 472.301
25.09000 461.221
25.10000 453.306
25.11000 453.523
25.12000 461.338
25.13000 469.086
25.14000 472.219
25.15000 472.534
25.16000 472.839
25.17000 475.220
25.18000 478.280
25.19000 480.407
25.20000 472.280
25.21000 461.327
25.22000 452.119
25.23000 454.212
25.24000 458.336
25.25000 461.726
25.26000 466.988
25.27000 471.479
25.28000 473.936
25.29000 470.751
25.30000 467.236
25.31000 463.770
25.32000 460.394
25.33000 457.021
25.34000 455.152
25.35000 455.180
25.36000 455.213
25.37000 458.468
25.38000 464.275
25.39000 469.955
25.40000 470.317
25.41000 467.886
25.42000 465.558
25.43000 459.826
25.44000 453.359
25.45000 448.058
25.46000 453.136
25.47000 460.664
25.48000 467.032
25.49000 467.072
25.50000 466.157
25.51000 465.429
25.52000 466.670
25.53000 467.811
25.54000 466.414
25.55000 458.936
25.56000 451.194
25.57000 446.285
25.58000 445.935
25.59000 445.645
25.60000 445.497
25.61000 439.958
25.62000 436.304
25.63000 440.221
25.64000 449.266
25.65000 458.027
25.66000 458.886
25.67000 456.163
25.68000 453.592
25.69000 447.079
25.70000 440.004
25.71000 434.174
25.72000 437.474
25.73000 442.612
25.74000 448.693
25.75000 459.140
25.76000 470.135
25.77000 478.563
25.78000 487.450
25.79000 494.494
25.80000 495.607
25.81000 484.456
25.82000 472.932
25.83000 463.408
25.84000 456.645
25.85000 449.902
25.86000 447.973
25.87000 450.301
25.88000 452.627
25.89000 454.797
25.90000 456.875
25.91000 458.908
25.92000 460.029
25.93000 460.794
25.94000 461.504
25.95000 457.317
25.96000 452.385
25.97000 448.665
25.98000 452.377
25.99000 457.354
26.00000 460.045
26.01000 453.692
26.02000 446.409
26.03000 441.049
26.04000 446.342
26.05000 450.880
26.06000 453.580
26.07000 453.002
26.08000 452.360
26.09000 453.318
26.10000 456.155
26.11000 458.988
26.12000 461.436
26.13000 463.580
26.14000 465.605
26.15000 463.375
26.16000 459.011
26.17000 454.812
26.18000 453.115
26.19000 452.262
26.20000 451.486
26.21000 450.598
26.22000 449.790
26.23000 449.547
26.24000 452.225
26.25000 455.320
26.26000 458.051
26.27000 459.546
26.28000 460.940
26.29000 461.920
26.30000 451.180
26.31000 442.693
26.32000 435.867
26.33000 431.586
26.34000 427.332
26.35000 427.935
26.36000 433.363
26.37000 438.752
26.38000 439.997
26.39000 438.592
26.40000 437.235
26.41000 437.087
26.42000 437.461
26.43000 438.057
26.44000 441.288
26.45000 445.285
26.46000 448.849
26.47000 449.773
26.48000 450.139
26.49000 448.754
26.50000 439.666
26.51000 429.669
26.52000 422.958
26.53000 425.858
26.54000 429.379
26.55000 431.736
26.56000 444.128
26.57000 453.518
26.58000 457.984
26.59000 455.992
26.60000 453.966
26.61000 448.627
26.62000 440.506
26.63000 432.490
26.64000 434.847
26.65000 442.740
26.66000 450.107
26.67000 447.863
26.68000 442.029
26.69000 436.886
26.70000 438.372
26.71000 441.512
26.72000 444.247
26.73000 442.383
26.74000 440.160
26.75000 439.003
26.76000 441.863
26.77000 445.109
26.78000 446.496
26.79000 443.189
26.80000 439.653
26.81000 437.414
26.82000 435.740
26.83000 434.534
26.84000 430.698
26.85000 423.932
26.86000 417.238
26.87000 421.561
26.88000 433.775
26.89000 445.734
26.90000 446.001
26.91000 440.886
26.92000 436.058
26.93000 435.263
26.94000 435.768
26.95000 436.060
26.96000 434.682
26.97000 432.947
26.98000 431.477
26.99000 435.767
27.00000 440.010
27.01000 443.223
27.02000 443.100
27.03000 442.722
27.04000 444.961
27.05000 452.908
27.06000 461.055
27.07000 465.905
27.08000 455.623
27.09000 448.248
27.10000 442.374
27.11000 437.912
27.12000 433.507
27.13000 433.112
27.14000 435.179
27.15000 437.184
27.16000 433.703
27.17000 428.262
27.18000 423.375
27.19000 424.632
27.20000 427.592
27.21000 430.168
27.22000 430.242
27.23000 429.863
27.24000 429.551
27.25000 429.657
27.26000 429.782
27.27000 429.611
27.28000 428.613
27.29000 427.566
27.30000 428.218
27.31000 432.067
27.32000 435.991
27.33000 438.171
27.34000 430.324
27.35000 424.897
27.36000 424.285
27.37000 427.515
27.38000 430.649
27.39000 429.756
27.40000 426.733
27.41000 423.838
27.42000 427.153
27.43000 432.308
27.44000 436.841
27.45000 435.795
27.46000 433.425
27.47000 431.767
27.48000 434.027
27.49000 436.882
27.50000 439.155
27.51000 439.847
27.52000 440.291
27.53000 438.771
27.54000 432.520
27.55000 426.061
27.56000 419.670
27.57000 413.389
27.58000 407.110
27.59000 403.883
27.60000 410.060
27.61000 414.232
27.62000 420.059
27.63000 427.015
27.64000 433.851
27.65000 437.310
27.66000 439.227
27.67000 441.038
27.68000 441.348
27.69000 441.209
27.70000 440.108
27.71000 431.898
27.72000 422.247
27.73000 414.670
27.74000 416.752
27.75000 420.056
27.76000 422.593
27.77000 433.646
27.78000 442.858
27.79000 446.593
27.80000 438.932
27.81000 430.919
27.82000 427.527
27.83000 430.550
27.84000 433.613
27.85000 430.955
27.86000 423.208
27.87000 415.550
27.88000 413.190
27.89000 413.931
27.90000 414.796
27.91000 418.195
27.92000 422.591
27.93000 426.674
27.94000 419.189
27.95000 409.684
27.96000 402.339
27.97000 408.330
27.98000 416.606
27.99000 424.296
28.00000 429.655
28.01000 434.772
28.02000 438.545
28.03000 437.207
28.04000 435.956
28.05000 433.521
28.06000 428.962
28.07000 424.361
28.08000 423.177
28.09000 426.036
28.10000 428.894
28.11000 429.975
28.12000 429.711
28.13000 429.413
28.14000 427.890
28.15000 425.749
28.16000 423.859
28.17000 425.830
28.18000 429.113
28.19000 432.105
28.20000 428.959
28.21000 424.942
28.22000 421.952
28.23000 424.314
28.24000 427.445
28.25000 430.149
28.26000 431.393
28.27000 432.515
28.28000 433.307
28.29000 426.415
28.30000 420.956
28.31000 417.985
28.32000 418.850
28.33000 419.758
28.34000 421.159
28.35000 423.055
28.36000 424.937
28.37000 427.583
28.38000 430.675
28.39000 433.492
28.40000 429.359
28.41000 422.202
28.42000 415.689
28.43000 416.936
28.44000 420.455
28.45000 423.595
28.46000 422.826
28.47000 421.502
28.48000 420.079
28.49000 418.220
28.50000 416.310
28.51000 412.820
28.52000 404.683
28.53000 396.243
28.54000 390.581
28.55000 402.146
28.56000 411.079
28.57000 412.600
28.58000 404.336
28.59000 396.041
28.60000 395.654
28.61000 401.953
28.62000 408.174
28.63000 409.810
28.64000 408.913
28.65000 407.946
28.66000 405.662
28.67000 402.885
28.68000 400.952
28.69000 407.183
28.70000 415.465
28.71000 422.683
28.72000 418.119
28.73000 412.585
28.74000 408.074
28.75000 407.437
28.76000 407.176
28.77000 407.938
28.78000 411.298
28.79000 414.786
28.80000 417.001
28.81000 406.136
28.82000 398.089
28.83000 395.326
28.84000 398.495
28.85000 401.647
28.86000 401.407
28.87000 398.724
28.88000 396.096
28.89000 401.424
28.90000 410.226
28.91000 418.677
28.92000 422.150
28.93000 424.010
28.94000 425.790
28.95000 426.938
28.96000 427.949
28.97000 428.807
28.98000 417.850
28.99000 407.318
29.00000 400.003
29.01000 403.168
29.02000 407.142
29.03000 411.118
29.04000 415.097
29.05000 419.077
29.06000 421.452
29.07000 416.623
29.08000 413.154
29.09000 411.306
29.10000 410.992
29.11000 410.655
29.12000 408.613
29.13000 405.519
29.14000 402.517
29.15000 406.723
29.16000 413.544
29.17000 419.790
29.18000 419.601
29.19000 417.616
29.20000 415.430
29.21000 411.919
29.22000 408.167
29.23000 405.076
29.24000 408.535
29.25000 411.983
29.26000 413.200
29.27000 408.152
29.28000 402.729
29.29000 400.710
29.30000 405.131
29.31000 409.705
29.32000 412.253
29.33000 408.146
29.34000 405.293
29.35000 403.425
29.36000 402.348
29.37000 401.343
29.38000 403.460
29.39000 407.237
29.40000 410.856
29.41000 406.045
29.42000 398.735
29.43000 392.397
29.44000 394.850
29.45000 399.405
29.46000 403.064
29.47000 401.774
29.48000 399.725
29.49000 398.091
29.50000 404.834
29.51000 410.885
29.52000 415.420
29.53000 416.281
29.54000 416.978
29.55000 414.481
29.56000 406.779
29.57000 399.004
29.58000 394.996
29.59000 399.604
29.60000 402.686
29.61000 403.163
29.62000 401.852
29.63000 400.525
29.64000 398.760
29.65000 396.794
29.66000 394.937
29.67000 398.370
29.68000 403.022
29.69000 407.364
29.70000 409.393
29.71000 410.952
29.72000 412.156
29.73000 411.701
29.74000 411.035
29.75000 410.523
29.76000 408.956
29.77000 407.657
29.78000 407.052
29.79000 407.903
29.80000 408.799
29.81000 409.064
29.82000 408.447
29.83000 407.825
29.84000 409.511
29.85000 413.264
29.86000 416.960
29.87000 417.199
29.88000 415.402
29.89000 413.879
29.90000 417.968
29.91000 424.281
29.92000 430.149
29.93000 430.114
29.94000 428.667
29.95000 427.784
29.96000 430.400
29.97000 433.620
29.98000 437.231
29.99000 442.408
30.00000 447.748
30.01000 451.692
30.02000 439.254
30.03000 428.918
30.04000 421.606
30.05000 419.753
30.06000 418.011
30.07000 421.581
30.08000 431.478
30.09000 441.363
30.10000 447.879
30.11000 451.801
30.12000 455.519
30.13000 451.621
30.14000 443.860
30.15000 436.431
30.16000 434.146
30.17000 433.619
30.18000 433.138
30.19000 432.045
30.20000 430.952
30.21000 429.054
30.22000 422.935
30.23000 416.205
30.24000 411.656
30.25000 414.607
30.26000 418.188
30.27000 420.717
30.28000 418.745
30.29000 417.111
30.30000 419.474
30.31000 428.039
30.32000 436.675
30.33000 436.570
30.34000 427.661
30.35000 418.810
30.36000 414.458
30.37000 413.062
30.38000 411.648
30.39000 409.752
30.40000 407.644
30.41000 406.452
30.42000 416.363
30.43000 429.543
30.44000 441.318
30.45000 438.029
30.46000 432.626
30.47000 427.637
30.48000 424.498
30.49000 421.581
30.50000 418.895
30.51000 416.889
30.52000 414.929
30.53000 413.611
30.54000 413.565
30.55000 413.557
30.56000 414.192
30.57000 415.680
30.58000 417.179
30.59000 421.922
30.60000 429.428
30.61000 436.841
30.62000 437.945
30.63000 435.571
30.64000 433.063
30.65000 428.061
30.66000 422.116
30.67000 417.472
30.68000 425.493
30.69000 436.717
30.70000 446.510
30.71000 432.369
30.72000 416.932
30.73000 408.058
30.74000 424.210
30.75000 442.806
30.76000 452.980
30.77000 441.630
30.78000 429.208
30.79000 421.304
30.80000 430.523
30.81000 437.437
30.82000 442.995
30.83000 447.021
30.84000 451.022
30.85000 451.054
30.86000 448.210
30.87000 445.422
30.88000 445.052
30.89000 445.821
30.90000 447.609
30.91000 463.961
30.92000 485.061
30.93000 503.637
30.94000 502.084
30.95000 496.183
30.96000 491.169
30.97000 497.725
30.98000 504.552
30.99000 511.945
31.00000 521.189
31.01000 530.576
31.02000 542.598
31.03000 560.431
31.04000 578.472
31.05000 589.270
31.06000 620.806
31.07000 643.324
31.08000 659.940
31.09000 670.929
31.10000 682.210
31.11000 715.237
31.12000 761.785
31.13000 806.949
31.14000 863.174
31.15000 920.872
31.16000 979.871
31.17000 1053.559
31.18000 1131.368
31.19000 1212.612
31.20000 1316.603
31.21000 1424.766
31.22000 1513.999
31.23000 1622.199
31.24000 1713.055
31.25000 1813.176
31.26000 1939.464
31.27000 2067.336
31.28000 2185.447
31.29000 2284.975
31.30000 2384.055
31.31000 2439.420
31.32000 2592.087
31.33000 2698.000
31.34000 2794.425
31.35000 2883.184
31.36000 2970.855
31.37000 3010.871
31.38000 3025.387
31.39000 3039.305
31.40000 3049.867
31.41000 3058.599
31.42000 3062.999
31.43000 3027.897
31.44000 2983.290
31.45000 2934.311
31.46000 2860.988
31.47000 2783.908
31.48000 2722.362
31.49000 2574.524
31.50000 2448.782
31.51000 2325.077
31.52000 2206.337
31.53000 2087.822
31.54000 1973.456
31.55000 1865.892
31.56000 1758.426
31.57000 1702.841
31.58000 1536.394
31.59000 1424.208
31.60000 1320.350
31.61000 1222.241
31.62000 1124.817
31.63000 1047.337
31.64000 979.062
31.65000 914.513
31.66000 849.446
31.67000 789.521
31.68000 732.663
31.69000 698.805
31.70000 669.666
31.71000 641.729
31.72000 619.460
31.73000 597.919
31.74000 581.331
31.75000 560.214
31.76000 543.237
31.77000 524.488
31.78000 502.009
31.79000 479.411
31.80000 464.799
31.81000 461.411
31.82000 458.103
31.83000 456.860
31.84000 457.482
31.85000 458.087
31.86000 457.682
31.87000 456.679
31.88000 455.300
31.89000 446.106
31.90000 433.797
31.91000 422.348
31.92000 416.710
31.93000 413.021
31.94000 410.037
31.95000 411.469
31.96000 413.667
31.97000 415.279
31.98000 414.526
31.99000 413.524
32.00000 412.783
32.01000 400.698
32.02000 390.835
32.03000 387.355
32.04000 395.463
32.05000 403.811
32.06000 410.031
32.07000 413.699
32.08000 417.352
32.09000 413.829
32.10000 404.851
32.11000 396.124
32.12000 396.938
32.13000 402.622
32.14000 407.968
32.15000 408.022
32.16000 406.255
32.17000 404.642
32.18000 402.717
32.19000 400.945
32.20000 399.201
32.21000 397.605
32.22000 396.031
32.23000 394.891
32.24000 395.257
32.25000 395.750
32.26000 396.099
32.27000 394.145
32.28000 392.588
32.29000 391.788
32.30000 392.170
32.31000 392.566
32.32000 391.073
32.33000 387.663
32.34000 384.275
32.35000 389.150
32.36000 399.305
32.37000 409.094
32.38000 409.382
32.39000 405.486
32.40000 401.069
32.41000 390.271
32.42000 377.584
32.43000 366.239
32.44000 370.901
32.45000 377.682
32.46000 381.975
32.47000 375.105
32.48000 366.887
32.49000 364.876
32.50000 381.352
32.51000 399.059
32.52000 410.988
32.53000 393.765
32.54000 380.347
32.55000 374.006
32.56000 377.125
32.57000 380.287
32.58000 379.625
32.59000 375.684
32.60000 371.792
32.61000 371.910
32.62000 374.234
32.63000 376.359
32.64000 374.741
32.65000 371.699
32.66000 368.986
32.67000 369.507
32.68000 370.851
32.69000 372.025
32.70000 368.745
32.71000 365.310
32.72000 362.112
32.73000 359.819
32.74000 357.616
32.75000 354.209
32.76000 347.707
32.77000 341.049
32.78000 336.802
32.79000 352.560
32.80000 364.277
32.81000 368.089
32.82000 362.910
32.83000 357.741
32.84000 355.718
32.85000 355.991
32.86000 356.258
32.87000 360.732
32.88000 367.008
32.89000 372.636
32.90000 368.893
32.91000 362.076
32.92000 355.899
32.93000 354.871
32.94000 354.962
32.95000 355.039
32.96000 348.742
32.97000 342.717
32.98000 339.420
32.99000 345.113
33.00000 351.513
33.01000 356.519
33.02000 358.429
33.03000 360.226
33.04000 361.304
33.05000 356.218
33.06000 352.564
33.07000 349.552
33.08000 347.157
33.09000 344.841
33.10000 348.585
33.11000 356.119
33.12000 363.433
33.13000 360.770
33.14000 354.267
33.15000 347.742
33.16000 340.974
33.17000 334.139
33.18000 329.052
33.19000 335.639
33.20000 344.382
33.21000 351.603
33.22000 348.820
33.23000 345.592
33.24000 342.774
33.25000 341.119
33.26000 339.535
33.27000 341.329
33.28000 349.592
33.29000 358.014
33.30000 362.734
33.31000 349.847
33.32000 340.888
33.33000 338.396
33.34000 341.164
33.35000 343.857
33.36000 343.192
33.37000 340.721
33.38000 338.350
33.39000 341.341
33.40000 345.952
33.41000 350.077
33.42000 349.730
33.43000 348.301
33.44000 346.233
33.45000 340.584
33.46000 334.378
33.47000 329.416
33.48000 335.935
33.49000 342.057
33.50000 345.114
33.51000 340.655
33.52000 335.852
33.53000 334.052
33.54000 337.202
33.55000 340.425
33.56000 342.098
33.57000 338.551
33.58000 336.165
33.59000 335.019
33.60000 334.734
33.61000 334.343
33.62000 330.817
33.63000 325.836
33.64000 321.123
33.65000 326.046
33.66000 333.342
33.67000 339.227
33.68000 334.441
33.69000 327.453
33.70000 322.554
33.71000 327.587
33.72000 333.907
33.73000 338.780
33.74000 332.379
33.75000 326.656
33.76000 323.160
33.77000 324.377
33.78000 325.748
33.79000 325.299
33.80000 322.277
33.81000 319.238
33.82000 316.330
33.83000 313.544
33.84000 310.894
33.85000 316.789
33.86000 327.777
33.87000 338.252
33.88000 337.918
33.89000 333.251
33.90000 328.907
33.91000 327.346
33.92000 326.612
33.93000 325.466
33.94000 321.723
33.95000 317.525
33.96000 316.014
33.97000 325.401
33.98000 335.945
33.99000 343.759
34.00000 342.373
34.01000 340.897
34.02000 338.388
34.03000 333.991
34.04000 329.553
34.05000 327.246
34.06000 327.510
34.07000 327.778
34.08000 329.316
34.09000 331.820
34.10000 334.321
34.11000 336.733
34.12000 339.099
34.13000 340.955
34.14000 334.713
34.15000 325.670
34.16000 317.406
34.17000 318.894
34.18000 322.210
34.19000 326.162
34.20000 333.497
34.21000 341.329
34.22000 346.316
34.23000 341.401
34.24000 335.640
34.25000 331.555
34.26000 338.986
34.27000 344.998
34.28000 347.078
34.29000 342.980
34.30000 338.808
34.31000 335.050
34.32000 331.715
34.33000 328.400
34.34000 329.798
34.35000 334.247
34.36000 338.576
34.37000 339.766
34.38000 339.564
34.39000 339.225
34.40000 337.190
34.41000 334.650
34.42000 332.376
34.43000 331.862
34.44000 331.713
34.45000 332.644
34.46000 338.448
34.47000 344.846
34.48000 349.111
34.49000 346.987
34.50000 344.435
34.51000 342.711
34.52000 345.591
34.53000 347.832
34.54000 344.791
34.55000 334.644
34.56000 324.469
34.57000 321.066
34.58000 323.507
34.59000 325.918
34.60000 324.145
34.61000 320.097
34.62000 316.353
34.63000 318.435
34.64000 322.744
34.65000 326.589
34.66000 325.833
34.67000 323.899
34.68000 322.208
34.69000 323.475
34.70000 324.979
34.71000 326.539
34.72000 328.313
34.73000 330.108
34.74000 330.111
34.75000 325.478
34.76000 320.609
34.77000 317.496
34.78000 315.638
34.79000 314.301
34.80000 316.077
34.81000 321.416
34.82000 326.717
34.83000 324.688
34.84000 317.277
34.85000 310.009
34.86000 309.818
34.87000 312.970
34.88000 315.908
34.89000 315.720
34.90000 314.499
34.91000 314.038
34.92000 319.726
34.93000 326.760
34.94000 332.749
34.95000 330.504
34.96000 327.659
34.97000 325.831
34.98000 327.378
34.99000 329.193
35.00000 329.379
35.01000 325.931
35.02000 322.348
35.03000 320.192
35.04000 314.391
35.05000 310.240
35.06000 310.720
35.07000 315.677
35.08000 320.595
35.09000 322.503
35.10000 322.518
35.11000 322.533
35.12000 321.501
35.13000 320.103
35.14000 318.390
35.15000 313.070
35.16000 306.724
35.17000 301.887
35.18000 307.188
35.19000 314.374
35.20000 320.317
35.21000 319.052
35.22000 317.329
35.23000 316.265
35.24000 317.081
35.25000 318.014
35.26000 316.176
35.27000 308.999
35.28000 301.688
35.29000 297.579
35.30000 298.074
35.31000 298.430
35.32000 299.131
35.33000 300.115
35.34000 301.140
35.35000 304.056
35.36000 307.994
35.37000 311.774
35.38000 311.571
35.39000 310.022
35.40000 308.139
35.41000 303.157
35.42000 297.419
35.43000 292.915
35.44000 295.370
35.45000 298.914
35.46000 301.752
35.47000 306.135
35.48000 309.795
35.49000 311.012
35.50000 306.202
35.51000 301.112
35.52000 298.638
35.53000 300.504
35.54000 302.436
35.55000 303.441
35.56000 304.664
35.57000 305.465
35.58000 302.861
35.59000 297.879
35.60000 293.090
35.61000 294.076
35.62000 297.758
35.63000 301.244
35.64000 300.876
35.65000 299.423
35.66000 297.817
35.67000 295.050
35.68000 292.042
35.69000 290.685
35.70000 297.223
35.71000 304.790
35.72000 310.636
35.73000 309.022
35.74000 307.307
35.75000 304.640
35.76000 299.949
35.77000 295.190
35.78000 292.648
35.79000 293.262
35.80000 293.899
35.81000 292.668
35.82000 289.729
35.83000 286.862
35.84000 288.722
35.85000 293.415
35.86000 297.946
35.87000 298.994
35.88000 298.637
35.89000 298.305
35.90000 298.442
35.91000 298.680
35.92000 299.304
35.93000 302.377
35.94000 305.881
35.95000 308.122
35.96000 305.209
35.97000 301.744
35.98000 299.172
35.99000 300.258
36.00000 301.263
36.01000 299.812
36.02000 293.849
36.03000 287.787
36.04000 286.659
36.05000 291.524
36.06000 296.392
36.07000 300.349
36.08000 303.581
36.09000 306.761
36.10000 307.861
36.11000 307.888
36.12000 307.827
36.13000 306.358
36.14000 304.399
36.15000 302.607
36.16000 303.077
36.17000 303.960
36.18000 303.863
36.19000 298.529
36.20000 292.420
36.21000 289.118
36.22000 295.643
36.23000 303.016
36.24000 308.254
36.25000 307.111
36.26000 306.037
36.27000 305.182
36.28000 304.672
36.29000 304.167
36.30000 299.401
36.31000 290.253
36.32000 281.160
36.33000 280.372
36.34000 285.044
36.35000 289.744
36.36000 295.207
36.37000 301.011
36.38000 306.081
36.39000 301.987
36.40000 295.146
36.41000 289.018
36.42000 290.828
36.43000 293.776
36.44000 295.310
36.45000 290.421
36.46000 284.743
36.47000 280.133
36.48000 278.738
36.49000 277.561
36.50000 276.765
36.51000 280.223
36.52000 282.891
36.53000 284.949
36.54000 286.181
36.55000 287.411
36.56000 291.024
36.57000 296.705
36.58000 302.320
36.59000 300.342
36.60000 294.176
36.61000 288.034
36.62000 282.328
36.63000 276.790
36.64000 271.494
36.65000 268.618
36.66000 266.366
36.67000 264.395
36.68000 272.201
36.69000 280.289
36.70000 287.813
36.71000 293.145
36.72000 298.258
36.73000 301.582
36.74000 300.251
36.75000 298.679
36.76000 297.672
36.77000 295.566
36.78000 294.017
36.79000 294.002
36.80000 295.756
36.81000 297.524
36.82000 301.575
36.83000 307.313
36.84000 312.941
36.85000 312.554
36.86000 309.326
36.87000 306.310
36.88000 306.410
36.89000 307.544
36.90000 308.391
36.91000 306.893
36.92000 304.877
36.93000 303.159
36.94000 306.066
36.95000 309.053
36.96000 309.879
36.97000 303.490
36.98000 296.522
36.99000 291.291
37.00000 289.962
37.01000 288.779
37.02000 288.065
37.03000 294.177
37.04000 298.576
37.05000 301.969
37.06000 304.382
37.07000 306.768
37.08000 307.006
37.09000 305.884
37.10000 304.793
37.11000 299.782
37.12000 293.439
37.13000 287.591
37.14000 287.495
37.15000 289.043
37.16000 290.702
37.17000 293.115
37.18000 295.669
37.19000 297.783
37.20000 298.803
37.21000 299.540
37.22000 298.835
37.23000 293.983
37.24000 288.872
37.25000 283.426
37.26000 277.331
37.27000 271.220
37.28000 267.775
37.29000 274.696
37.30000 279.528
37.31000 282.582
37.32000 284.172
37.33000 285.830
37.34000 290.636
37.35000 297.157
37.36000 303.418
37.37000 298.853
37.38000 290.863
37.39000 283.297
37.40000 279.701
37.41000 277.078
37.42000 275.755
37.43000 281.818
37.44000 289.045
37.45000 294.839
37.46000 293.711
37.47000 292.273
37.48000 290.142
37.49000 286.289
37.50000 282.356
37.51000 278.354
37.52000 274.236
37.53000 270.116
37.54000 267.964
37.55000 277.260
37.56000 283.553
37.57000 289.765
37.58000 295.920
37.59000 301.726
37.60000 296.892
37.61000 287.059
37.62000 277.746
37.63000 282.173
37.64000 290.252
37.65000 297.332
37.66000 296.748
37.67000 294.559
37.68000 291.962
37.69000 287.399
37.70000 282.576
37.71000 278.845
37.72000 280.651
37.73000 282.411
37.74000 283.384
37.75000 282.670
37.76000 281.899
37.77000 279.500
37.78000 274.770
37.79000 270.022
37.80000 271.780
37.81000 279.530
37.82000 287.144
37.83000 285.671
37.84000 278.716
37.85000 272.114
37.86000 273.129
37.87000 277.233
37.88000 281.059
37.89000 276.040
37.90000 269.318
37.91000 264.384
37.92000 270.880
37.93000 279.404
37.94000 286.229
37.95000 286.074
37.96000 285.166
37.97000 284.490
37.98000 288.219
37.99000 291.316
38.00000 293.298
38.01000 293.220
38.02000 293.097
38.03000 294.801
38.04000 298.740
38.05000 302.677
38.06000 299.861
38.07000 291.802
38.08000 284.000
38.09000 286.464
38.10000 294.262
38.11000 301.567
38.12000 300.886
38.13000 297.408
38.14000 294.224
38.15000 293.009
38.16000 292.337
38.17000 292.996
38.18000 300.822
38.19000 309.716
38.20000 315.856
38.21000 312.291
38.22000 307.882
38.23000 304.743
38.24000 301.663
38.25000 299.319
38.26000 300.424
38.27000 307.013
38.28000 313.672
38.29000 317.524
38.30000 318.468
38.31000 319.406
38.32000 321.169
38.33000 323.455
38.34000 325.793
38.35000 329.572
38.36000 333.996
38.37000 338.457
38.38000 343.377
38.39000 348.436
38.40000 352.971
38.41000 367.951
38.42000 382.851
38.43000 396.576
38.44000 404.929
38.45000 412.617
38.46000 419.845
38.47000 425.676
38.48000 431.412
38.49000 435.300
38.50000 465.839
38.51000 489.197
38.52000 509.239
38.53000 524.763
38.54000 540.270
38.55000 563.657
38.56000 593.933
38.57000 623.866
38.58000 654.070
38.59000 683.708
38.60000 713.227
38.61000 740.399
38.62000 766.662
38.63000 793.701
38.64000 828.547
38.65000 865.417
38.66000 897.712
38.67000 922.592
38.68000 942.867
38.69000 963.743
38.70000 986.970
38.71000 1010.435
38.72000 1032.120
38.73000 1049.146
38.74000 1065.929
38.75000 1076.707
38.76000 1071.154
38.77000 1066.880
38.78000 1056.862
38.79000 1040.180
38.80000 1023.418
38.81000 993.106
38.82000 952.714
38.83000 913.079
38.84000 886.650
38.85000 867.479
38.86000 847.207
38.87000 810.536
38.88000 768.387
38.89000 727.447
38.90000 696.440
38.91000 667.635
38.92000 643.052
38.93000 605.919
38.94000 573.171
38.95000 542.129
38.96000 516.817
38.97000 491.969
38.98000 470.828
38.99000 458.064
39.00000 445.619
39.01000 438.094
39.02000 404.946
39.03000 381.139
39.04000 367.093
39.05000 362.614
39.06000 358.054
39.07000 346.756
39.08000 331.165
39.09000 316.012
39.10000 304.953
39.11000 296.107
39.12000 288.021
39.13000 288.836
39.14000 292.210
39.15000 295.059
39.16000 294.327
39.17000 292.920
39.18000 291.754
39.19000 286.828
39.20000 282.398
39.21000 278.816
39.22000 277.688
39.23000 276.715
39.24000 276.439
39.25000 277.523
39.26000 278.643
39.27000 279.276
39.28000 279.429
39.29000 279.532
39.30000 278.645
39.31000 276.937
39.32000 275.314
39.33000 277.724
39.34000 282.345
39.35000 286.784
39.36000 288.921
39.37000 290.124
39.38000 290.752
39.39000 285.948
39.40000 279.805
39.41000 274.118
39.42000 271.046
39.43000 268.390
39.44000 266.257
39.45000 262.848
39.46000 259.989
39.47000 259.531
39.48000 265.069
39.49000 270.891
39.50000 274.310
39.51000 273.692
39.52000 273.011
39.53000 272.654
39.54000 265.153
39.55000 260.077
39.56000 256.049
39.57000 252.761
39.58000 249.633
39.59000 251.441
39.60000 255.582
39.61000 259.507
39.62000 266.474
39.63000 273.785
39.64000 280.196
39.65000 279.651
39.66000 277.642
39.67000 275.217
39.68000 270.775
39.69000 266.066
39.70000 262.418
39.71000 258.143
39.72000 254.711
39.73000 253.040
39.74000 255.168
39.75000 257.425
39.76000 259.597
39.77000 261.649
39.78000 263.699
39.79000 262.615
39.80000 258.624
39.81000 254.696
39.82000 255.031
39.83000 257.954
39.84000 260.897
39.85000 264.295
39.86000 267.879
39.87000 271.222
39.88000 267.646
39.89000 262.691
39.90000 257.866
39.91000 253.883
39.92000 250.050
39.93000 248.315
39.94000 255.253
39.95000 263.135
39.96000 269.006
39.97000 267.119
39.98000 265.301
39.99000 263.330
40.00000 261.078
40.01000 258.820
40.02000 256.585
40.03000 254.379
40.04000 252.178
40.05000 252.076
40.06000 253.619
40.07000 255.057
40.08000 252.213
40.09000 247.131
40.10000 242.513
40.11000 245.489
40.12000 251.139
40.13000 256.315
40.14000 260.674
40.15000 264.384
40.16000 267.490
40.17000 267.318
40.18000 266.654
40.19000 265.113
40.20000 260.461
40.21000 255.535
40.22000 252.023
40.23000 247.941
40.24000 244.810
40.25000 244.740
40.26000 249.566
40.27000 254.456
40.28000 257.011
40.29000 257.130
40.30000 257.249
40.31000 254.289
40.32000 249.320
40.33000 244.502
40.34000 243.782
40.35000 244.911
40.36000 246.180
40.37000 249.240
40.38000 252.844
40.39000 256.078
40.40000 258.732
40.41000 260.951
40.42000 261.594
40.43000 254.986
40.44000 247.474
40.45000 241.820
40.46000 241.831
40.47000 242.235
40.48000 242.509
40.49000 249.144
40.50000 254.238
40.51000 256.814
40.52000 255.937
40.53000 255.035
40.54000 249.897
40.55000 241.030
40.56000 232.262
40.57000 234.882
40.58000 243.876
40.59000 252.366
40.60000 250.854
40.61000 245.447
40.62000 241.154
40.63000 248.192
40.64000 258.185
40.65000 266.947
40.66000 267.354
40.67000 266.490
40.68000 263.479
40.69000 252.022
40.70000 239.704
40.71000 232.940
40.72000 240.795
40.73000 249.423
40.74000 254.978
40.75000 249.670
40.76000 245.643
40.77000 244.068
40.78000 245.358
40.79000 246.652
40.80000 247.811
40.81000 248.869
40.82000 249.908
40.83000 248.350
40.84000 245.599
40.85000 242.905
40.86000 241.074
40.87000 239.532
40.88000 238.065
40.89000 237.213
40.90000 236.499
40.91000 235.889
40.92000 241.367
40.93000 246.708
40.94000 248.539
40.95000 238.517
40.96000 227.526
40.97000 221.449
40.98000 226.540
40.99000 232.062
41.00000 235.410
41.01000 251.602
41.02000 263.247
41.03000 264.924
41.04000 256.764
41.05000 248.681
41.06000 247.239
41.07000 250.052
41.08000 252.789
41.09000 251.689
41.10000 249.073
41.11000 246.379
41.12000 242.762
41.13000 238.879
41.14000 235.256
41.15000 233.416
41.16000 231.915
41.17000 230.669
41.18000 234.027
41.19000 237.248
41.20000 238.059
41.21000 231.857
41.22000 225.207
41.23000 222.612
41.24000 227.968
41.25000 233.534
41.26000 236.690
41.27000 240.910
41.28000 243.848
41.29000 245.012
41.30000 244.696
41.31000 244.301
41.32000 240.045
41.33000 233.660
41.34000 227.523
41.35000 224.062
41.36000 221.752
41.37000 220.617
41.38000 230.651
41.39000 243.457
41.40000 253.598
41.41000 248.387
41.42000 240.720
41.43000 234.556
41.44000 234.350
41.45000 234.643
41.46000 234.956
41.47000 235.320
41.48000 235.686
41.49000 235.928
41.50000 235.958
41.51000 235.985
41.52000 235.999
41.53000 235.061
41.54000 234.422
41.55000 233.279
41.56000 231.777
41.57000 230.408
41.58000 233.199
41.59000 237.967
41.60000 242.488
41.61000 245.333
41.62000 247.461
41.63000 249.380
41.64000 249.683
41.65000 249.642
41.66000 249.978
41.67000 252.149
41.68000 254.566
41.69000 256.441
41.70000 243.720
41.71000 232.730
41.72000 225.542
41.73000 226.602
41.74000 227.945
41.75000 230.202
41.76000 233.783
41.77000 237.375
41.78000 237.408
41.79000 234.118
41.80000 230.866
41.81000 230.256
41.82000 231.259
41.83000 232.321
41.84000 234.675
41.85000 237.561
41.86000 240.254
41.87000 241.405
41.88000 242.063
41.89000 242.753
41.90000 243.651
41.91000 244.587
41.92000 244.336
41.93000 239.149
41.94000 233.421
41.95000 229.147
41.96000 234.356
41.97000 238.847
41.98000 238.519
41.99000 229.178
42.00000 219.632
42.01000 217.620
42.02000 224.941
42.03000 232.276
42.04000 238.225
42.05000 243.054
42.06000 247.583
42.07000 239.674
42.08000 225.224
42.09000 211.768
42.10000 214.743
42.11000 223.542
42.12000 231.607
42.13000 233.647
42.14000 234.196
42.15000 234.247
42.16000 231.579
42.17000 228.500
42.18000 226.405
42.19000 227.822
42.20000 229.551
42.21000 230.786
42.22000 229.854
42.23000 229.070
42.24000 227.868
42.25000 225.992
42.26000 224.108
42.27000 223.712
42.28000 224.878
42.29000 226.038
42.30000 224.816
42.31000 222.016
42.32000 219.455
42.33000 223.572
42.34000 230.718
42.35000 237.110
42.36000 233.822
42.37000 227.578
42.38000 221.969
42.39000 230.284
42.40000 240.010
42.41000 247.585
42.42000 245.188
42.43000 241.540
42.44000 238.635
42.45000 238.009
42.46000 237.543
42.47000 237.226
42.48000 238.312
42.49000 239.155
42.50000 238.328
42.51000 235.196
42.52000 232.052
42.53000 231.472
42.54000 233.165
42.55000 234.839
42.56000 232.689
42.57000 228.414
42.58000 224.250
42.59000 222.306
42.60000 221.231
42.61000 220.497
42.62000 223.267
42.63000 226.956
42.64000 230.194
42.65000 228.421
42.66000 226.164
42.67000 224.517
42.68000 225.280
42.69000 226.291
42.70000 227.722
42.71000 230.262
42.72000 232.862
42.73000 234.539
42.74000 231.587
42.75000 229.364
42.76000 227.091
42.77000 224.760
42.78000 222.447
42.79000 224.119
42.80000 228.792
42.81000 233.380
42.82000 234.679
42.83000 234.340
42.84000 233.662
42.85000 227.824
42.86000 220.241
42.87000 213.755
42.88000 216.426
42.89000 221.153
42.90000 225.196
42.91000 222.765
42.92000 219.936
42.93000 218.501
42.94000 221.803
42.95000 225.497
42.96000 226.408
42.97000 220.962
42.98000 215.266
42.99000 211.804
43.00000 224.756
43.01000 234.130
43.02000 236.252
43.03000 231.166
43.04000 226.113
43.05000 223.821
43.06000 223.310
43.07000 222.813
43.08000 223.227
43.09000 223.997
43.10000 224.624
43.11000 223.564
43.12000 222.012
43.13000 221.150
43.14000 225.058
43.15000 229.877
43.16000 233.882
43.17000 227.523
43.18000 221.251
43.19000 216.455
43.20000 215.981
43.21000 215.787
43.22000 216.288
43.23000 218.162
43.24000 220.074
43.25000 221.161
43.26000 220.429
43.27000 219.920
43.28000 223.081
43.29000 229.325
43.30000 235.428
43.31000 234.608
43.32000 229.948
43.33000 225.466
43.34000 222.123
43.35000 219.389
43.36000 216.864
43.37000 216.358
43.38000 216.355
43.39000 216.986
43.40000 221.287
43.41000 226.181
43.42000 230.120
43.43000 227.736
43.44000 225.308
43.45000 222.001
43.46000 216.473
43.47000 210.836
43.48000 208.960
43.49000 213.479
43.50000 218.103
43.51000 220.542
43.52000 220.902
43.53000 221.146
43.54000 221.525
43.55000 221.999
43.56000 222.411
43.57000 220.843
43.58000 218.329
43.59000 215.943
43.60000 214.039
43.61000 212.426
43.62000 211.879
43.63000 219.711
43.64000 229.331
43.65000 235.473
43.66000 224.539
43.67000 211.308
43.68000 201.026
43.69000 201.468
43.70000 202.473
43.71000 203.490
43.72000 204.537
43.73000 205.585
43.74000 206.798
43.75000 208.252
43.76000 209.708
43.77000 213.000
43.78000 218.017
43.79000 222.954
43.80000 222.184
43.81000 217.907
43.82000 213.865
43.83000 215.104
43.84000 218.523
43.85000 221.718
43.86000 221.888
43.87000 221.282
43.88000 221.163
43.89000 224.224
43.90000 227.860
43.91000 229.219
43.92000 221.044
43.93000 211.814
43.94000 204.916
43.95000 210.072
43.96000 214.648
43.97000 216.804
43.98000 214.403
43.99000 211.896
44.00000 211.121
44.01000 212.507
44.02000 213.896
44.03000 214.003
44.04000 213.089
44.05000 212.234
44.06000 213.841
44.07000 216.750
44.08000 219.624
44.09000 221.924
44.10000 224.018
44.11000 225.940
44.12000 222.532
44.13000 218.365
44.14000 214.681
44.15000 213.653
44.16000 213.029
44.17000 212.334
44.18000 211.383
44.19000 210.408
44.20000 209.711
44.21000 207.383
44.22000 205.551
44.23000 205.639
44.24000 208.837
44.25000 212.079
44.26000 215.381
44.27000 218.749
44.28000 222.100
44.29000 219.703
44.30000 213.463
44.31000 207.520
44.32000 209.924
44.33000 216.138
44.34000 221.936
44.35000 222.345
44.36000 221.098
44.37000 219.977
44.38000 217.239
44.39000 214.554
44.40000 212.399
44.41000 212.711
44.42000 213.335
44.43000 214.445
44.44000 217.055
44.45000 219.771
44.46000 221.623
44.47000 225.890
44.48000 229.136
44.49000 228.754
44.50000 223.336
44.51000 217.888
44.52000 217.242
44.53000 220.877
44.54000 224.474
44.55000 225.174
44.56000 224.199
44.57000 223.044
44.58000 218.248
44.59000 212.017
44.60000 207.093
44.61000 215.685
44.62000 227.846
44.63000 238.530
44.64000 234.115
44.65000 228.093
44.66000 223.384
44.67000 223.908
44.68000 224.974
44.69000 226.099
44.70000 227.382
44.71000 228.675
44.72000 229.510
44.73000 230.238
44.74000 230.768
44.75000 230.113
44.76000 228.053
44.77000 226.010
44.78000 227.851
44.79000 232.639
44.80000 237.341
44.81000 237.948
44.82000 236.538
44.83000 235.427
44.84000 238.889
44.85000 243.906
44.86000 248.196
44.87000 246.366
44.88000 243.152
44.89000 240.400
44.90000 250.790
44.91000 261.151
44.92000 270.118
44.93000 274.318
44.94000 278.121
44.95000 279.271
44.96000 274.324
44.97000 269.135
44.98000 265.972
44.99000 270.766
45.00000 274.255
45.01000 278.026
45.02000 282.080
45.03000 286.126
45.04000 289.534
45.05000 292.527
45.06000 295.439
45.07000 296.718
45.08000 297.258
45.09000 298.380
45.10000 306.506
45.11000 316.683
45.12000 324.264
45.13000 313.752
45.14000 299.762
45.15000 288.120
45.16000 297.514
45.17000 307.362
45.18000 314.068
45.19000 311.518
45.20000 308.365
45.21000 306.302
45.22000 306.403
45.23000 306.563
45.24000 306.655
45.25000 304.012
45.26000 302.156
45.27000 297.685
45.28000 291.003
45.29000 284.382
45.30000 280.814
45.31000 278.952
45.32000 277.160
45.33000 273.848
45.34000 270.205
45.35000 267.175
45.36000 270.064
45.37000 274.442
45.38000 277.106
45.39000 269.763
45.40000 260.798
45.41000 253.570
45.42000 246.703
45.43000 241.154
45.44000 237.777
45.45000 239.916
45.46000 242.327
45.47000 242.715
45.48000 239.644
45.49000 236.513
45.50000 234.857
45.51000 233.210
45.52000 232.071
45.53000 228.037
45.54000 221.916
45.55000 215.944
45.56000 214.824
45.57000 216.038
45.58000 217.191
45.59000 213.321
45.60000 208.244
45.61000 204.082
45.62000 207.152
45.63000 211.775
45.64000 215.307
45.65000 213.452
45.66000 210.866
45.67000 208.853
45.68000 207.918
45.69000 207.239
45.70000 208.537
45.71000 214.174
45.72000 219.965
45.73000 220.408
45.74000 212.997
45.75000 205.517
45.76000 201.523
45.77000 200.831
45.78000 200.150
45.79000 200.222
45.80000 200.760
45.81000 201.361
45.82000 203.389
45.83000 206.010
45.84000 208.460
45.85000 208.637
45.86000 208.222
45.87000 207.860
45.88000 207.844
45.89000 207.892
45.90000 207.295
45.91000 203.982
45.92000 200.365
45.93000 197.658
45.94000 196.781
45.95000 196.182
45.96000 197.944
45.97000 204.173
45.98000 210.509
45.99000 212.393
46.00000 208.692
46.01000 204.979
46.02000 200.575
46.03000 195.637
46.04000 190.843
46.05000 192.291
46.06000 197.060
46.07000 201.719
46.08000 204.521
46.09000 206.656
46.10000 208.617
46.11000 208.981
46.12000 208.966
46.13000 209.278
46.14000 211.402
46.15000 213.803
46.16000 215.002
46.17000 211.858
46.18000 208.321
46.19000 205.786
46.20000 197.759
46.21000 191.436
46.22000 189.392
46.23000 194.321
46.24000 199.348
46.25000 200.387
46.26000 197.182
46.27000 193.993
46.28000 192.830
46.29000 193.056
46.30000 193.300
46.31000 194.059
46.32000 195.056
46.33000 196.119
46.34000 198.046
46.35000 200.241
46.36000 202.216
46.37000 202.981
46.38000 203.435
46.39000 203.821
46.40000 203.884
46.41000 203.907
46.42000 203.835
46.43000 203.469
46.44000 203.082
46.45000 202.817
46.46000 202.341
46.47000 201.981
46.48000 202.371
46.49000 203.810
46.50000 205.256
46.51000 206.816
46.52000 208.478
46.53000 210.123
46.54000 206.536
46.55000 200.014
46.56000 193.692
46.57000 191.495
46.58000 190.933
46.59000 190.821
46.60000 195.399
46.61000 201.223
46.62000 206.346
46.63000 203.950
46.64000 200.773
46.65000 197.949
46.66000 196.547
46.67000 195.292
46.68000 194.628
46.69000 195.545
46.70000 196.548
46.71000 197.199
46.72000 192.010
46.73000 188.124
46.74000 184.249
46.75000 180.385
46.76000 176.551
46.77000 179.714
46.78000 188.215
46.79000 196.568
46.80000 195.905
46.81000 190.844
46.82000 186.389
46.83000 191.362
46.84000 199.559
46.85000 206.658
46.86000 204.428
46.87000 200.077
46.88000 196.347
46.89000 191.034
46.90000 186.354
46.91000 183.140
46.92000 184.967
46.93000 187.218
46.94000 189.322
46.95000 191.088
46.96000 192.841
46.97000 193.911
46.98000 193.048
46.99000 192.415
47.00000 194.360
47.01000 198.905
47.02000 203.391
47.03000 202.553
47.04000 198.236
47.05000 194.033
47.06000 195.292
47.07000 198.771
47.08000 201.886
47.09000 200.586
47.10000 197.985
47.11000 195.400
47.12000 192.931
47.13000 190.483
47.14000 188.444
47.15000 189.522
47.16000 190.724
47.17000 191.769
47.18000 192.349
47.19000 192.898
47.20000 193.515
47.21000 194.267
47.22000 195.023
47.23000 195.455
47.24000 189.988
47.25000 186.154
47.26000 184.228
47.27000 183.928
47.28000 183.706
47.29000 187.485
47.30000 193.511
47.31000 199.311
47.32000 195.104
47.33000 187.604
47.34000 180.928
47.35000 182.280
47.36000 185.663
47.37000 189.088
47.38000 192.762
47.39000 196.477
47.40000 199.476
47.41000 195.241
47.42000 191.225
47.43000 187.376
47.44000 183.955
47.45000 180.555
47.46000 176.553
47.47000 171.513
47.48000 166.455
47.49000 163.770
47.50000 176.459
47.51000 185.063
47.52000 187.643
47.53000 185.852
47.54000 184.064
47.55000 182.378
47.56000 180.743
47.57000 179.190
47.58000 181.482
47.59000 184.758
47.60000 187.370
47.61000 184.688
47.62000 180.862
47.63000 177.783
47.64000 178.422
47.65000 179.568
47.66000 180.461
47.67000 185.511
47.68000 189.793
47.69000 191.786
47.70000 188.725
47.71000 185.483
47.72000 183.346
47.73000 182.844
47.74000 182.357
47.75000 181.145
47.76000 179.241
47.77000 177.375
47.78000 178.301
47.79000 180.964
47.80000 183.594
47.81000 185.458
47.82000 187.003
47.83000 188.448
47.84000 187.814
47.85000 186.709
47.86000 185.927
47.87000 187.298
47.88000 189.063
47.89000 189.885
47.90000 186.711
47.91000 183.086
47.92000 180.368
47.93000 185.134
47.94000 189.210
47.95000 190.017
47.96000 184.599
47.97000 179.031
47.98000 175.976
47.99000 176.096
48.00000 176.226
48.01000 178.904
48.02000 183.623
48.03000 188.177
48.04000 185.518
48.05000 178.997
48.06000 172.992
48.07000 175.809
48.08000 181.809
48.09000 187.321
48.10000 186.128
48.11000 183.622
48.12000 181.970
48.13000 185.075
48.14000 188.914
48.15000 191.068
48.16000 187.102
48.17000 182.577
48.18000 179.328
48.19000 177.304
48.20000 175.799
48.21000 174.852
48.22000 174.820
48.23000 174.802
48.24000 177.183
48.25000 182.136
48.26000 187.066
48.27000 186.352
48.28000 181.795
48.29000 177.397
48.30000 177.656
48.31000 180.065
48.32000 182.390
48.33000 183.614
48.34000 184.496
48.35000 185.290
48.36000 185.371
48.37000 185.314
48.38000 184.200
48.39000 178.097
48.40000 171.352
48.41000 167.585
48.42000 173.127
48.43000 179.341
48.44000 183.597
48.45000 178.322
48.46000 174.143
48.47000 175.245
48.48000 183.773
48.49000 192.348
48.50000 194.782
48.51000 191.663
48.52000 188.575
48.53000 185.748
48.54000 183.131
48.55000 180.561
48.56000 178.957
48.57000 177.737
48.58000 176.904
48.59000 180.130
48.60000 184.441
48.61000 188.237
48.62000 184.757
48.63000 180.671
48.64000 177.126
48.65000 175.759
48.66000 174.622
48.67000 174.084
48.68000 175.162
48.69000 176.330
48.70000 177.089
48.71000 173.033
48.72000 169.988
48.73000 169.277
48.74000 171.367
48.75000 173.453
48.76000 173.386
48.77000 171.666
48.78000 169.975
48.79000 172.250
48.80000 176.404
48.81000 180.573
48.82000 184.955
48.83000 189.411
48.84000 192.623
48.85000 185.185
48.86000 175.310
48.87000 166.836
48.88000 168.506
48.89000 171.168
48.90000 174.271
48.91000 178.900
48.92000 183.659
48.93000 185.374
48.94000 180.006
48.95000 174.350
48.96000 170.886
48.97000 180.211
48.98000 186.996
48.99000 186.933
49.00000 179.921
49.01000 172.954
49.02000 170.285
49.03000 170.441
49.04000 170.592
49.05000 175.566
49.06000 182.333
49.07000 188.621
49.08000 189.050
49.09000 187.743
49.10000 186.476
49.11000 185.505
49.12000 184.590
49.13000 183.827
49.14000 179.056
49.15000 174.697
49.16000 172.089
49.17000 174.700
49.18000 177.659
49.19000 180.314
49.20000 182.361
49.21000 184.391
49.22000 185.555
49.23000 189.216
49.24000 191.776
49.25000 188.827
49.26000 181.157
49.27000 173.624
49.28000 173.282
49.29000 177.001
49.30000 180.583
49.31000 179.563
49.32000 176.961
49.33000 174.693
49.34000 175.711
49.35000 177.566
49.36000 179.125
49.37000 178.931
49.38000 178.450
49.39000 178.061
49.40000 178.000
49.41000 177.976
49.42000 178.833
49.43000 181.953
49.44000 185.187
49.45000 185.245
49.46000 179.806
49.47000 174.270
49.48000 171.321
49.49000 170.324
49.50000 169.667
49.51000 172.602
49.52000 178.160
49.53000 183.522
49.54000 182.377
49.55000 178.064
49.56000 173.964
49.57000 175.391
49.58000 178.387
49.59000 181.161
49.60000 182.160
49.61000 182.772
49.62000 182.601
49.63000 178.510
49.64000 173.881
49.65000 170.267
49.66000 171.401
49.67000 172.604
49.68000 173.763
49.69000 174.824
49.70000 175.882
49.71000 175.417
49.72000 172.688
49.73000 169.938
49.74000 168.616
49.75000 168.667
49.76000 168.703
49.77000 167.625
49.78000 165.849
49.79000 164.237
49.80000 166.449
49.81000 170.268
49.82000 173.843
49.83000 173.529
49.84000 172.244
49.85000 170.765
49.86000 167.986
49.87000 164.967
49.88000 163.149
49.89000 166.456
49.90000 170.345
49.91000 173.265
49.92000 175.967
49.93000 178.068
49.94000 179.027
49.95000 177.797
49.96000 176.513
49.97000 177.239
49.98000 180.519
49.99000 183.803
50.00000 184.350
50.01000 182.677
50.02000 181.006
50.03000 179.391
50.04000 177.807
50.05000 176.298
50.06000 176.084
50.07000 176.340
50.08000 176.576
50.09000 176.776
50.10000 176.947
50.11000 177.450
50.12000 179.819
50.13000 182.479
50.14000 183.861
50.15000 180.572
50.16000 176.854
50.17000 174.178
50.18000 176.528
50.19000 178.503
50.20000 179.978
50.21000 180.627
50.22000 181.265
50.23000 179.601
50.24000 175.453
50.25000 171.324
50.26000 172.923
50.27000 178.439
50.28000 183.765
50.29000 183.489
50.30000 180.611
50.31000 177.640
50.32000 173.437
50.33000 168.848
50.34000 164.712
50.35000 174.500
50.36000 185.614
50.37000 193.757
50.38000 187.781
50.39000 179.976
50.40000 175.694
50.41000 182.487
50.42000 190.088
50.43000 195.304
50.44000 191.192
50.45000 187.883
50.46000 185.224
50.47000 183.485
50.48000 181.755
50.49000 184.005
50.50000 189.878
50.51000 195.693
50.52000 200.657
50.53000 205.018
50.54000 209.347
50.55000 213.007
50.56000 216.399
50.57000 219.706
50.58000 222.109
50.59000 224.270
50.60000 226.174
50.61000 224.706
50.62000 222.932
50.63000 223.231
50.64000 231.943
50.65000 241.550
50.66000 248.444
50.67000 247.983
50.68000 247.110
50.69000 246.542
50.70000 245.047
50.71000 243.937
50.72000 243.904
50.73000 245.172
50.74000 246.422
50.75000 242.329
50.76000 234.106
50.77000 226.021
50.78000 231.312
50.79000 243.073
50.80000 254.074
50.81000 253.017
50.82000 247.787
50.83000 242.647
50.84000 238.290
50.85000 234.113
50.86000 230.525
50.87000 229.693
50.88000 229.332
50.89000 228.956
50.90000 228.527
50.91000 228.095
50.92000 225.845
50.93000 219.341
50.94000 212.661
50.95000 208.560
50.96000 205.334
50.97000 203.030
50.98000 200.436
50.99000 197.547
51.00000 194.626
51.01000 188.661
51.02000 180.683
51.03000 172.909
51.04000 175.019
51.05000 181.209
51.06000 186.904
51.07000 186.465
51.08000 184.197
51.09000 181.586
51.10000 176.525
51.11000 170.985
51.12000 166.357
51.13000 159.779
51.14000 154.122
51.15000 151.946
51.16000 160.201
51.17000 169.158
51.18000 174.352
51.19000 171.945
51.20000 169.320
51.21000 167.810
51.22000 162.825
51.23000 159.325
51.24000 156.490
51.25000 154.230
51.26000 152.051
51.27000 154.202
51.28000 158.813
51.29000 163.257
51.30000 165.798
51.31000 167.501
51.32000 168.890
51.33000 167.157
51.34000 164.625
51.35000 162.360
51.36000 161.692
51.37000 161.289
51.38000 160.962
51.39000 162.097
51.40000 163.140
51.41000 162.441
51.42000 157.234
51.43000 151.797
51.44000 149.695
51.45000 153.400
51.46000 157.210
51.47000 159.245
51.48000 163.831
51.49000 166.936
51.50000 166.052
51.51000 162.236
51.52000 158.499
51.53000 157.447
51.54000 157.709
51.55000 157.959
51.56000 157.704
51.57000 157.314
51.58000 156.683
51.59000 154.105
51.60000 151.101
51.61000 149.026
51.62000 151.640
51.63000 154.903
51.64000 157.454
51.65000 157.284
51.66000 156.976
51.67000 156.151
51.68000 154.172
51.69000 152.151
51.70000 152.846
51.71000 157.606
51.72000 162.404
51.73000 162.968
51.74000 159.437
51.75000 155.957
51.76000 156.536
51.77000 159.670
51.78000 162.613
51.79000 161.048
51.80000 157.575
51.81000 154.323
51.82000 155.183
51.83000 157.028
51.84000 158.625
51.85000 158.554
51.86000 158.173
51.87000 157.557
51.88000 155.933
51.89000 154.194
51.90000 152.886
51.91000 157.714
51.92000 161.788
51.93000 163.216
51.94000 159.544
51.95000 155.744
51.96000 151.677
51.97000 147.267
51.98000 142.862
51.99000 143.192
52.00000 147.385
52.01000 151.555
52.02000 154.719
52.03000 157.338
52.04000 159.903
52.05000 161.517
52.06000 162.783
52.07000 163.948
52.08000 160.204
52.09000 155.787
52.10000 152.212
52.11000 153.391
52.12000 155.314
52.13000 158.183
52.14000 164.530
52.15000 171.200
52.16000 176.008
52.17000 164.354
52.18000 154.838
52.19000 150.729
52.20000 155.594
52.21000 160.596
52.22000 163.007
52.23000 162.604
52.24000 162.202
52.25000 163.520
52.26000 166.013
52.27000 168.363
52.28000 166.410
52.29000 162.446
52.30000 158.770
52.31000 158.961
52.32000 160.371
52.33000 161.642
52.34000 161.191
52.35000 160.480
52.36000 160.306
52.37000 162.704
52.38000 165.438
52.39000 167.220
52.40000 165.995
52.41000 164.548
52.42000 163.553
52.43000 164.631
52.44000 165.492
52.45000 162.848
52.46000 155.215
52.47000 147.548
52.48000 146.309
52.49000 150.959
52.50000 155.564
52.51000 159.584
52.52000 163.176
52.53000 166.568
52.54000 165.677
52.55000 163.058
52.56000 160.740
52.57000 161.639
52.58000 163.408
52.59000 164.969
52.60000 166.141
52.61000 167.093
52.62000 167.024
52.63000 162.780
52.64000 158.089
52.65000 154.353
52.66000 153.219
52.67000 152.233
52.68000 151.589
52.69000 159.392
52.70000 165.252
52.71000 168.953
52.72000 170.029
52.73000 171.090
52.74000 169.779
52.75000 166.622
52.76000 163.518
52.77000 160.521
52.78000 157.676
52.79000 154.927
52.80000 153.728
52.81000 153.069
52.82000 152.476
52.83000 152.460
52.84000 152.577
52.85000 152.679
52.86000 155.475
52.87000 158.180
52.88000 160.423
52.89000 161.053
52.90000 161.544
52.91000 161.368
52.92000 159.623
52.93000 157.812
52.94000 156.697
52.95000 159.530
52.96000 161.597
52.97000 161.480
52.98000 159.116
52.99000 156.781
53.00000 157.366
53.01000 159.894
53.02000 162.358
53.03000 160.062
53.04000 155.846
53.05000 152.085
53.06000 154.023
53.07000 157.670
53.08000 160.809
53.09000 160.305
53.10000 159.081
53.11000 158.058
53.12000 155.757
53.13000 153.715
53.14000 153.746
53.15000 160.030
53.16000 166.739
53.17000 170.382
53.18000 167.793
53.19000 165.023
53.20000 163.426
53.21000 154.828
53.22000 148.787
53.23000 148.563
53.24000 153.392
53.25000 158.161
53.26000 159.632
53.27000 159.219
53.28000 158.821
53.29000 158.877
53.30000 159.095
53.31000 159.233
53.32000 158.578
53.33000 157.719
53.34000 156.674
53.35000 154.511
53.36000 152.162
53.37000 150.258
53.38000 153.855
53.39000 157.234
53.40000 160.208
53.41000 162.126
53.42000 163.990
53.43000 165.063
53.44000 164.753
53.45000 164.417
53.46000 164.237
53.47000 157.974
53.48000 153.723
53.49000 154.856
53.50000 159.970
53.51000 165.020
53.52000 167.886
53.53000 169.676
53.54000 171.380
53.55000 166.939
53.56000 160.940
53.57000 155.693
53.58000 156.576
53.59000 158.811
53.60000 160.824
53.61000 161.711
53.62000 162.441
53.63000 163.013
53.64000 159.571
53.65000 156.565
53.66000 155.465
53.67000 158.648
53.68000 161.993
53.69000 161.937
53.70000 156.763
53.71000 151.537
53.72000 149.031
53.73000 149.173
53.74000 149.332
53.75000 150.868
53.76000 153.277
53.77000 155.589
53.78000 155.595
53.79000 154.621
53.80000 153.708
53.81000 157.124
53.82000 161.359
53.83000 164.867
53.84000 163.445
53.85000 161.101
53.86000 158.499
53.87000 154.788
53.88000 150.950
53.89000 148.057
53.90000 150.093
53.91000 151.929
53.92000 154.048
53.93000 156.718
53.94000 159.402
53.95000 160.922
53.96000 160.942
53.97000 160.956
53.98000 157.115
53.99000 150.118
54.00000 143.262
54.01000 142.925
54.02000 146.142
54.03000 149.459
54.04000 154.548
54.05000 160.288
54.06000 165.574
54.07000 159.696
54.08000 151.988
54.09000 145.222
54.10000 143.813
54.11000 143.249
54.12000 143.846
54.13000 148.740
54.14000 154.035
54.15000 157.860
54.16000 160.836
54.17000 163.087
54.18000 162.872
54.19000 158.539
54.20000 154.142
54.21000 153.074
54.22000 155.646
54.23000 158.209
54.24000 158.519
54.25000 157.256
54.26000 155.920
54.27000 152.350
54.28000 147.728
54.29000 143.431
54.30000 143.555
54.31000 145.079
54.32000 146.455
54.33000 147.462
54.34000 148.278
54.35000 149.062
54.36000 149.687
54.37000 150.290
54.38000 149.784
54.39000 145.742
54.40000 141.438
54.41000 138.473
54.42000 142.554
54.43000 145.795
54.44000 147.560
54.45000 147.210
54.46000 146.844
54.47000 147.438
54.48000 148.916
54.49000 150.381
54.50000 148.240
54.51000 144.009
54.52000 140.003
54.53000 140.852
54.54000 143.670
54.55000 146.474
54.56000 149.122
54.57000 151.727
54.58000 154.027
54.59000 155.718
54.60000 157.083
54.61000 158.165
54.62000 158.080
54.63000 157.870
54.64000 158.395
54.65000 160.938
54.66000 163.596
54.67000 165.335
54.68000 159.268
54.69000 154.685
54.70000 152.779
54.71000 154.148
54.72000 155.514
54.73000 154.156
54.74000 150.663
54.75000 147.226
54.76000 148.488
54.77000 152.074
54.78000 155.635
54.79000 158.798
54.80000 161.822
54.81000 164.311
54.82000 162.113
54.83000 158.821
54.84000 155.988
54.85000 153.055
54.86000 150.558
54.87000 148.318
54.88000 146.986
54.89000 145.732
54.90000 145.253
54.91000 146.609
54.92000 148.042
54.93000 148.927
54.94000 144.459
54.95000 141.203
54.96000 141.108
54.97000 144.289
54.98000 147.474
54.99000 151.032
55.00000 154.839
55.01000 158.551
55.02000 160.192
55.03000 160.871
55.04000 161.220
55.05000 157.413
55.06000 152.351
55.07000 148.370
55.08000 152.205
55.09000 157.594
55.10000 162.106
55.11000 156.449
55.12000 150.702
55.13000 147.318
55.14000 151.105
55.15000 155.385
55.16000 157.159
55.17000 153.808
55.18000 150.306
55.19000 148.281
55.20000 147.024
55.21000 146.150
55.22000 148.870
55.23000 154.733
55.24000 160.490
55.25000 160.396
55.26000 156.936
55.27000 153.599
55.28000 157.834
55.29000 164.576
55.30000 170.723
55.31000 170.868
55.32000 169.456
55.33000 168.131
55.34000 167.332
55.35000 166.621
55.36000 166.043
55.37000 165.144
55.38000 164.384
55.39000 164.743
55.40000 168.033
55.41000 171.476
55.42000 174.534
55.43000 176.914
55.44000 179.282
55.45000 180.555
55.46000 184.219
55.47000 186.723
55.48000 188.771
55.49000 190.479
55.50000 192.099
55.51000 190.667
55.52000 187.721
55.53000 184.916
55.54000 186.571
55.55000 189.484
55.56000 192.325
55.57000 194.566
55.58000 196.674
55.59000 199.381
55.60000 205.148
55.61000 211.345
55.62000 216.203
55.63000 225.568
55.64000 233.346
55.65000 242.671
55.66000 255.490
55.67000 268.442
55.68000 278.343
55.69000 283.621
55.70000 288.853
55.71000 295.350
55.72000 303.089
55.73000 310.888
55.74000 323.733
55.75000 339.794
55.76000 355.801
55.77000 370.507
55.78000 384.655
55.79000 397.923
55.80000 416.011
55.81000 433.748
55.82000 451.633
55.83000 470.536
55.84000 489.629
55.85000 508.932
55.86000 529.143
55.87000 549.460
55.88000 564.792
55.89000 575.743
55.90000 584.105
55.91000 594.173
55.92000 607.566
55.93000 621.046
55.94000 627.039
55.95000 623.330
55.96000 619.585
55.97000 623.780
55.98000 634.530
55.99000 644.907
56.00000 637.628
56.01000 620.667
56.02000 604.219
56.03000 596.934
56.04000 593.035
56.05000 589.440
56.06000 581.218
56.07000 572.835
56.08000 563.029
56.09000 545.077
56.10000 525.830
56.11000 507.301
56.12000 491.439
56.13000 475.829
56.14000 464.536
56.15000 447.776
56.16000 434.713
56.17000 419.045
56.18000 399.000
56.19000 378.886
56.20000 363.184
56.21000 352.341
56.22000 341.546
56.23000 330.731
56.24000 320.011
56.25000 309.258
56.26000 297.460
56.27000 285.169
56.28000 273.000
56.29000 262.512
56.30000 252.558
56.31000 243.564
56.32000 240.158
56.33000 238.197
56.34000 234.322
56.35000 221.163
56.36000 206.774
56.37000 196.495
56.38000 199.371
56.39000 203.234
56.40000 205.902
56.41000 200.327
56.42000 195.928
56.43000 192.713
56.44000 191.206
56.45000 189.711
56.46000 185.078
56.47000 177.530
56.48000 170.051
56.49000 167.764
56.50000 168.613
56.51000 169.429
56.52000 169.508
56.53000 169.288
56.54000 169.149
56.55000 169.890
56.56000 170.872
56.57000 171.740
56.58000 171.706
56.59000 171.537
56.60000 170.846
56.61000 167.996
56.62000 164.910
56.63000 162.220
56.64000 160.622
56.65000 159.086
56.66000 158.080
56.67000 158.977
56.68000 159.668
56.69000 157.792
56.70000 152.756
56.71000 147.726
56.72000 146.755
56.73000 148.985
56.74000 151.179
56.75000 153.329
56.76000 155.389
56.77000 157.149
56.78000 153.992
56.79000 149.102
56.80000 144.770
56.81000 145.365
56.82000 147.117
56.83000 148.627
56.84000 144.638
56.85000 140.557
56.86000 138.498
56.87000 143.608
56.88000 149.349
56.89000 152.480
56.90000 149.393
56.91000 146.039
56.92000 143.965
56.93000 148.003
56.94000 150.963
56.95000 152.557
56.96000 152.728
56.97000 152.851
56.98000 147.917
56.99000 139.576
57.00000 131.440
57.01000 135.579
57.02000 144.826
57.03000 153.227
57.04000 150.864
57.05000 145.231
57.06000 140.490
57.07000 142.248
57.08000 145.306
57.09000 147.868
57.10000 147.246
57.11000 146.399
57.12000 145.997
57.13000 146.957
57.14000 148.011
57.15000 147.945
57.16000 145.574
57.17000 143.134
57.18000 141.719
57.19000 140.133
57.20000 139.023
57.21000 140.679
57.22000 144.770
57.23000 148.800
57.24000 149.297
57.25000 147.752
57.26000 146.260
57.27000 143.843
57.28000 141.229
57.29000 138.949
57.30000 140.066
57.31000 142.070
57.32000 143.261
57.33000 139.507
57.34000 134.916
57.35000 131.185
57.36000 135.630
57.37000 139.937
57.38000 143.395
57.39000 144.620
57.40000 145.726
57.41000 146.095
57.42000 145.156
57.43000 144.191
57.44000 143.671
57.45000 140.333
57.46000 138.070
57.47000 140.164
57.48000 145.524
57.49000 150.719
57.50000 150.066
57.51000 146.496
57.52000 143.095
57.53000 145.889
57.54000 150.408
57.55000 153.905
57.56000 148.925
57.57000 142.053
57.58000 137.004
57.59000 141.324
57.60000 146.971
57.61000 151.405
57.62000 147.722
57.63000 144.245
57.64000 141.143
57.65000 138.896
57.66000 136.681
57.67000 134.953
57.68000 133.965
57.69000 132.985
57.70000 134.679
57.71000 139.013
57.72000 143.311
57.73000 144.609
57.74000 143.982
57.75000 143.419
57.76000 144.441
57.77000 146.144
57.78000 147.743
57.79000 147.486
57.80000 146.764
57.81000 145.864
57.82000 143.748
57.83000 141.401
57.84000 139.519
57.85000 139.671
57.86000 140.061
57.87000 140.357
57.88000 142.085
57.89000 143.511
57.90000 144.416
57.91000 144.299
57.92000 144.154
57.93000 142.563
57.94000 139.088
57.95000 135.609
57.96000 136.037
57.97000 139.718
57.98000 143.352
57.99000 144.651
58.00000 144.664
58.01000 144.669
58.02000 144.548
58.03000 144.378
58.04000 144.223
58.05000 138.929
58.06000 133.043
58.07000 128.379
58.08000 130.754
58.09000 134.255
58.10000 137.231
58.11000 138.239
58.12000 139.059
58.13000 139.653
58.14000 134.312
58.15000 129.989
58.16000 127.117
58.17000 126.699
58.18000 126.320
58.19000 126.849
58.20000 128.385
58.21000 129.915
58.22000 134.008
58.23000 139.869
58.24000 145.596
58.25000 147.116
58.26000 146.634
58.27000 145.950
58.28000 142.461
58.29000 138.074
58.30000 134.107
58.31000 136.699
58.32000 140.204
58.33000 142.099
58.34000 136.132
58.35000 129.116
58.36000 125.023
58.37000 130.346
58.38000 136.382
58.39000 140.557
58.40000 144.446
58.41000 147.364
58.42000 147.396
58.43000 143.243
58.44000 139.055
58.45000 136.351
58.46000 135.035
58.47000 133.731
58.48000 131.786
58.49000 129.496
58.50000 127.356
58.51000 128.568
58.52000 131.156
58.53000 133.630
58.54000 134.850
58.55000 135.724
58.56000 136.498
58.57000 136.756
58.58000 136.900
58.59000 136.866
58.60000 136.095
58.61000 135.243
58.62000 133.345
58.63000 128.545
58.64000 123.574
58.65000 120.309
58.66000 124.444
58.67000 127.612
58.68000 130.184
58.69000 132.017
58.70000 133.847
58.71000 135.564
58.72000 137.190
58.73000 138.792
58.74000 138.510
58.75000 137.278
58.76000 136.140
58.77000 136.556
58.78000 137.522
58.79000 138.043
58.80000 134.606
58.81000 130.234
58.82000 126.462
58.83000 129.476
58.84000 132.904
58.85000 135.767
58.86000 136.618
58.87000 137.290
58.88000 138.033
58.89000 138.946
58.90000 139.866
58.91000 140.436
58.92000 138.947
58.93000 137.856
58.94000 136.808
58.95000 135.804
58.96000 134.814
58.97000 135.376
58.98000 136.989
58.99000 138.564
59.00000 137.900
59.01000 136.294
59.02000 134.876
59.03000 135.879
59.04000 137.621
59.05000 139.196
59.06000 139.541
59.07000 139.638
59.08000 139.719
59.09000 136.778
59.10000 134.015
59.11000 131.991
59.12000 132.239
59.13000 132.647
59.14000 132.953
59.15000 133.050
59.16000 133.140
59.17000 133.193
59.18000 133.478
59.19000 133.679
59.20000 133.239
59.21000 132.232
59.22000 131.244
59.23000 131.351
59.24000 132.096
59.25000 132.815
59.26000 134.369
59.27000 136.143
59.28000 137.720
59.29000 137.291
59.30000 136.334
59.31000 135.677
59.32000 136.859
59.33000 138.353
59.34000 139.569
59.35000 133.114
59.36000 127.200
59.37000 123.865
59.38000 127.362
59.39000 131.226
59.40000 132.594
59.41000 129.510
59.42000 126.337
59.43000 124.621
59.44000 124.883
59.45000 125.068
59.46000 125.957
59.47000 127.379
59.48000 128.701
59.49000 126.413
59.50000 122.316
59.51000 118.410
59.52000 123.764
59.53000 131.632
59.54000 138.828
59.55000 140.409
59.56000 140.729
59.57000 140.953
59.58000 140.685
59.59000 140.346
59.60000 140.080
59.61000 138.435
59.62000 137.027
59.63000 134.267
59.64000 128.411
59.65000 122.435
59.66000 120.243
59.67000 123.856
59.68000 127.533
59.69000 129.487
59.70000 129.728
59.71000 129.963
59.72000 129.647
59.73000 128.975
59.74000 128.426
59.75000 130.974
59.76000 134.863
59.77000 138.514
59.78000 135.258
59.79000 130.455
59.80000 126.719
59.81000 130.375
59.82000 135.442
59.83000 139.473
59.84000 138.941
59.85000 137.870
59.86000 137.060
59.87000 135.857
59.88000 134.893
59.89000 133.320
59.90000 130.544
59.91000 127.736
59.92000 127.189
59.93000 129.610
59.94000 132.041
59.95000 132.192
59.96000 130.430
59.97000 128.718
59.98000 129.477
59.99000 131.606
60.00000 133.648
60.01000 134.113
60.02000 133.988
60.03000 133.873
60.04000 132.257
60.05000 130.472
60.06000 129.242
60.07000 131.233
60.08000 133.743
60.09000 135.213
60.10000 132.762
60.11000 129.935
60.12000 127.882
60.13000 127.929
60.14000 128.044
60.15000 128.688
60.16000 130.232
60.17000 131.791
60.18000 131.546
60.19000 129.287
60.20000 127.036
60.21000 125.936
60.22000 125.663
60.23000 125.392
60.24000 125.206
60.25000 125.060
60.26000 125.072
60.27000 127.308
60.28000 130.261
60.29000 132.934
60.30000 133.654
60.31000 133.921
60.32000 133.197
60.33000 127.601
60.34000 121.351
60.35000 116.986
60.36000 118.734
60.37000 120.950
60.38000 122.485
60.39000 123.351
60.40000 123.986
60.41000 126.042
60.42000 130.176
60.43000 134.326
60.44000 133.420
60.45000 127.756
60.46000 122.140
60.47000 124.820
60.48000 132.453
60.49000 139.770
60.50000 139.978
60.51000 137.249
60.52000 134.524
60.53000 131.841
60.54000 129.169
60.55000 126.804
60.56000 128.015
60.57000 129.622
60.58000 130.327
60.59000 127.255
60.60000 123.764
60.61000 121.945
60.62000 124.794
60.63000 127.919
60.64000 129.976
60.65000 131.424
60.66000 132.481
60.67000 132.449
60.68000 131.059
60.69000 129.670
60.70000 129.820
60.71000 131.198
60.72000 132.554
60.73000 130.801
60.74000 127.505
60.75000 124.350
60.76000 123.552
60.77000 123.594
60.78000 123.759
60.79000 125.023
60.80000 126.548
60.81000 127.864
60.82000 132.870
60.83000 137.597
60.84000 140.324
60.85000 135.873
60.86000 130.778
60.87000 127.743
60.88000 129.673
60.89000 131.821
60.90000 133.157
60.91000 130.433
60.92000 128.432
60.93000 129.716
60.94000 134.476
60.95000 139.188
60.96000 138.437
60.97000 133.960
60.98000 129.589
60.99000 131.214
61.00000 135.388
61.01000 139.384
61.02000 141.081
61.03000 142.071
61.04000 142.667
61.05000 140.353
61.06000 137.448
61.07000 135.008
61.08000 138.440
61.09000 141.918
61.10000 143.618
61.11000 139.824
61.12000 135.640
61.13000 134.196
61.14000 138.454
61.15000 142.890
61.16000 145.476
61.17000 142.323
61.18000 140.081
61.19000 137.453
61.20000 134.481
61.21000 131.520
61.22000 129.255
61.23000 127.396
61.24000 125.600
61.25000 128.478
61.26000 132.928
61.27000 137.056
61.28000 137.845
61.29000 137.752
61.30000 137.201
61.31000 133.818
61.32000 129.949
61.33000 126.797
61.34000 132.459
61.35000 137.832
61.36000 140.885
61.37000 137.755
61.38000 134.291
61.39000 132.399
61.40000 133.331
61.41000 134.320
61.42000 134.857
61.43000 142.986
61.44000 148.523
61.45000 144.667
61.46000 133.683
61.47000 123.021
61.48000 124.186
61.49000 131.319
61.50000 138.122
61.51000 146.013
61.52000 153.679
61.53000 161.724
61.54000 172.966
61.55000 184.931
61.56000 196.318
61.57000 204.692
61.58000 212.633
61.59000 218.887
61.60000 223.084
61.61000 226.310
61.62000 230.710
61.63000 237.809
61.64000 245.016
61.65000 248.505
61.66000 246.257
61.67000 243.945
61.68000 242.788
61.69000 244.952
61.70000 246.368
61.71000 245.265
61.72000 242.527
61.73000 239.746
61.74000 235.870
61.75000 231.517
61.76000 227.427
61.77000 224.626
61.78000 222.415
61.79000 219.334
61.80000 210.186
61.81000 199.870
61.82000 189.913
61.83000 181.548
61.84000 173.372
61.85000 167.171
61.86000 156.275
61.87000 147.476
61.88000 142.425
61.89000 144.816
61.90000 147.411
61.91000 146.649
61.92000 141.450
61.93000 136.235
61.94000 134.991
61.95000 137.103
61.96000 139.192
61.97000 140.170
61.98000 140.527
61.99000 141.099
62.00000 145.628
62.01000 151.646
62.02000 157.205
62.03000 150.421
62.04000 141.551
62.05000 134.157
62.06000 135.391
62.07000 138.025
62.08000 139.869
62.09000 138.717
62.10000 137.275
62.11000 136.226
62.12000 136.487
62.13000 136.738
62.14000 136.615
62.15000 135.851
62.16000 135.077
62.17000 134.552
62.18000 134.307
62.19000 134.064
62.20000 134.486
62.21000 135.380
62.22000 136.326
62.23000 138.974
62.24000 142.441
62.25000 145.431
62.26000 141.668
62.27000 135.714
62.28000 130.321
62.29000 128.632
62.30000 127.845
62.31000 127.530
62.32000 129.548
62.33000 131.882
62.34000 133.929
62.35000 135.044
62.36000 136.086
62.37000 136.810
62.38000 140.496
62.39000 143.352
62.40000 145.369
62.41000 146.152
62.42000 146.924
62.43000 146.857
62.44000 145.995
62.45000 145.139
62.46000 145.213
62.47000 145.848
62.48000 146.328
62.49000 143.272
62.50000 138.747
62.51000 134.797
62.52000 137.293
62.53000 141.588
62.54000 145.394
62.55000 142.762
62.56000 139.468
62.57000 137.272
62.58000 139.706
62.59000 142.658
62.60000 145.128
62.61000 146.246
62.62000 147.284
62.63000 147.968
62.64000 140.393
62.65000 134.664
62.66000 133.508
62.67000 138.092
62.68000 142.690
62.69000 145.496
62.70000 146.861
62.71000 148.206
62.72000 142.988
62.73000 134.536
62.74000 126.746
62.75000 130.183
62.76000 137.647
62.77000 144.457
62.78000 145.357
62.79000 144.841
62.80000 144.396
62.81000 145.353
62.82000 146.348
62.83000 146.903
62.84000 145.867
62.85000 144.687
62.86000 142.528
62.87000 137.994
62.88000 133.354
62.89000 130.462
62.90000 134.055
62.91000 136.711
62.92000 139.253
62.93000 141.675
62.94000 144.091
62.95000 145.724
62.96000 146.819
62.97000 147.888
62.98000 149.856
62.99000 152.134
63.00000 153.964
63.01000 149.932
63.02000 144.087
63.03000 138.543
63.04000 135.237
63.05000 132.388
63.06000 129.991
63.07000 138.157
63.08000 146.088
63.09000 150.686
63.10000 144.924
63.11000 138.422
63.12000 135.066
63.13000 138.300
63.14000 141.742
63.15000 143.754
63.16000 143.976
63.17000 144.122
63.18000 141.902
63.19000 137.557
63.20000 133.278
63.21000 133.015
63.22000 135.119
63.23000 137.152
63.24000 138.471
63.25000 139.447
63.26000 140.384
63.27000 140.904
63.28000 141.314
63.29000 142.002
63.30000 144.422
63.31000 147.141
63.32000 149.359
63.33000 144.365
63.34000 139.663
63.35000 137.282
63.36000 141.120
63.37000 145.300
63.38000 146.823
63.39000 143.548
63.40000 140.175
63.41000 138.339
63.42000 147.348
63.43000 153.530
63.44000 156.801
63.45000 157.851
63.46000 158.768
63.47000 154.757
63.48000 148.243
63.49000 142.027
63.50000 141.887
63.51000 143.687
63.52000 145.623
63.53000 148.712
63.54000 152.063
63.55000 154.472
63.56000 151.935
63.57000 148.682
63.58000 146.116
63.59000 146.923
63.60000 147.798
63.61000 147.673
63.62000 145.235
63.63000 142.704
63.64000 139.815
63.65000 136.371
63.66000 132.920
63.67000 131.188
63.68000 139.933
63.69000 145.717
63.70000 146.502
63.71000 144.021
63.72000 141.595
63.73000 140.582
63.74000 140.188
63.75000 139.817
63.76000 146.370
63.77000 154.218
63.78000 160.730
63.79000 157.850
63.80000 153.152
63.81000 149.137
63.82000 148.166
63.83000 147.559
63.84000 147.099
63.85000 150.229
63.86000 152.876
63.87000 153.824
63.88000 151.377
63.89000 148.837
63.90000 147.182
63.91000 146.705
63.92000 146.235
63.93000 147.196
63.94000 149.372
63.95000 151.585
63.96000 155.703
63.97000 160.890
63.98000 165.635
63.99000 162.075
64.00000 155.373
64.01000 149.177
64.02000 152.301
64.03000 157.222
64.04000 160.807
64.05000 156.524
64.06000 150.956
64.07000 146.943
64.08000 148.864
64.09000 151.366
64.10000 153.189
64.11000 160.077
64.12000 165.576
64.13000 166.794
64.14000 160.645
64.15000 154.368
64.16000 150.428
64.17000 149.132
64.18000 147.842
64.19000 149.702
64.20000 153.812
64.21000 157.786
64.22000 157.271
64.23000 154.584
64.24000 152.321
64.25000 156.145
64.26000 161.955
64.27000 167.222
64.28000 164.759
64.29000 161.112
64.30000 157.713
64.31000 155.551
64.32000 153.558
64.33000 152.622
64.34000 155.154
64.35000 157.957
64.36000 159.907
64.37000 162.123
64.38000 163.801
64.39000 165.110
64.40000 165.874
64.41000 166.632
64.42000 166.437
64.43000 165.333
64.44000 164.239
64.45000 163.616
64.46000 163.292
64.47000 162.924
64.48000 161.535
64.49000 159.720
64.50000 158.168
64.51000 159.609
64.52000 161.890
64.53000 163.914
64.54000 163.046
64.55000 161.836
64.56000 161.725
64.57000 166.277
64.58000 171.355
64.59000 173.906
64.60000 169.315
64.61000 164.290
64.62000 160.968
64.63000 169.687
64.64000 176.336
64.65000 176.903
64.66000 169.786
64.67000 162.663
64.68000 162.282
64.69000 167.354
64.70000 172.353
64.71000 174.455
64.72000 174.991
64.73000 175.270
64.74000 171.161
64.75000 165.468
64.76000 160.596
64.77000 163.217
64.78000 167.641
64.79000 171.470
64.80000 171.515
64.81000 171.055
64.82000 171.207
64.83000 173.578
64.84000 176.152
64.85000 178.300
64.86000 179.405
64.87000 180.463
64.88000 181.124
64.89000 178.322
64.90000 176.264
64.91000 176.869
64.92000 180.330
64.93000 183.767
64.94000 184.157
64.95000 182.443
64.96000 180.767
64.97000 180.430
64.98000 180.700
64.99000 181.213
65.00000 184.961
65.01000 189.714
65.02000 193.707
65.03000 191.982
65.04000 189.083
65.05000 186.642
65.06000 183.476
65.07000 180.758
65.08000 179.361
65.09000 182.099
65.10000 185.136
65.11000 188.896
65.12000 194.181
65.13000 199.515
65.14000 202.642
65.15000 199.087
65.16000 196.554
65.17000 201.290
65.18000 212.596
65.19000 223.777
65.20000 227.092
65.21000 225.744
65.22000 224.441
65.23000 225.265
65.24000 226.843
65.25000 228.202
65.26000 227.246
65.27000 225.671
65.28000 226.139
65.29000 239.413
65.30000 254.913
65.31000 267.574
65.32000 263.100
65.33000 257.959
65.34000 257.591
65.35000 270.092
65.36000 283.308
65.37000 291.921
65.38000 292.177
65.39000 292.258
65.40000 292.302
65.41000 294.369
65.42000 295.794
65.43000 297.717
65.44000 300.024
65.45000 302.434
65.46000 308.786
65.47000 317.151
65.48000 325.139
65.49000 331.746
65.50000 337.443
65.51000 342.707
65.52000 344.260
65.53000 344.963
65.54000 348.249
65.55000 365.173
65.56000 384.087
65.57000 399.025
65.58000 398.644
65.59000 397.296
65.60000 397.627
65.61000 401.868
65.62000 406.269
65.63000 409.682
65.64000 411.553
65.65000 413.405
65.66000 414.338
65.67000 444.924
65.68000 465.336
65.69000 482.946
65.70000 498.714
65.71000 515.018
65.72000 545.271
65.73000 581.674
65.74000 615.922
65.75000 664.503
65.76000 712.784
65.77000 759.025
65.78000 790.833
65.79000 819.828
65.80000 847.108
65.81000 866.690
65.82000 885.340
65.83000 899.529
65.84000 904.210
65.85000 907.394
65.86000 913.645
65.87000 926.058
65.88000 938.645
65.89000 940.331
65.90000 927.431
65.91000 914.466
65.92000 893.964
65.93000 867.053
65.94000 839.990
65.95000 804.952
65.96000 765.407
65.97000 724.951
65.98000 667.199
65.99000 602.867
66.00000 543.357
66.01000 497.294
66.02000 458.989
66.03000 422.738
66.04000 398.655
66.05000 376.576
66.06000 355.402
66.07000 337.711
66.08000 320.363
66.09000 307.700
66.10000 307.668
66.11000 308.135
66.12000 305.394
66.13000 297.096
66.14000 288.699
66.15000 283.606
66.16000 282.275
66.17000 280.952
66.18000 278.405
66.19000 274.993
66.20000 271.698
66.21000 272.321
66.22000 274.853
66.23000 277.249
66.24000 277.693
66.25000 277.496
66.26000 277.317
66.27000 287.296
66.28000 298.055
66.29000 308.595
66.30000 318.035
66.31000 327.324
66.32000 337.190
66.33000 348.960
66.34000 360.880
66.35000 369.190
66.36000 368.134
66.37000 367.079
66.38000 365.805
66.39000 364.206
66.40000 362.604
66.41000 364.886
66.42000 370.900
66.43000 376.866
66.44000 379.570
66.45000 380.221
66.46000 380.680
66.47000 376.671
66.48000 370.782
66.49000 365.030
66.50000 360.827
66.51000 357.061
66.52000 353.718
66.53000 347.179
66.54000 341.000
66.55000 334.099
66.56000 324.122
66.57000 313.796
66.58000 305.329
66.59000 302.147
66.60000 299.288
66.61000 297.395
66.62000 294.729
66.63000 292.747
66.64000 290.855
66.65000 289.078
66.66000 287.313
66.67000 289.823
66.68000 295.813
66.69000 301.717
66.70000 300.652
66.71000 295.972
66.72000 291.381
66.73000 288.337
66.74000 285.856
66.75000 284.057
66.76000 288.540
66.77000 294.545
66.78000 299.747
66.79000 303.374
66.80000 306.251
66.81000 308.661
66.82000 309.364
66.83000 309.911
66.84000 307.781
66.85000 299.082
66.86000 290.082
66.87000 284.447
66.88000 297.331
66.89000 306.832
66.90000 311.956
66.91000 312.357
66.92000 312.752
66.93000 312.554
66.94000 311.945
66.95000 311.350
66.96000 312.546
66.97000 314.490
66.98000 316.595
66.99000 320.856
67.00000 325.793
67.01000 330.255
67.02000 331.127
67.03000 331.258
67.04000 331.368
67.05000 326.401
67.06000 321.704
67.07000 318.967
67.08000 322.394
67.09000 326.270
67.10000 330.452
67.11000 335.279
67.12000 340.128
67.13000 342.979
67.14000 337.904
67.15000 334.286
67.16000 331.679
67.17000 329.992
67.18000 328.353
67.19000 329.752
67.20000 332.964
67.21000 336.070
67.22000 340.193
67.23000 344.470
67.24000 348.425
67.25000 348.950
67.26000 348.552
67.27000 349.295
67.28000 357.235
67.29000 366.435
67.30000 373.959
67.31000 368.351
67.32000 362.613
67.33000 358.984
67.34000 361.077
67.35000 363.491
67.36000 367.780
67.37000 375.499
67.38000 383.291
67.39000 387.558
67.40000 374.113
67.41000 364.871
67.42000 362.836
67.43000 366.373
67.44000 369.875
67.45000 371.985
67.46000 373.380
67.47000 374.713
67.48000 377.572
67.49000 380.722
67.50000 382.981
67.51000 377.552
67.52000 370.351
67.53000 366.282
67.54000 378.862
67.55000 393.888
67.56000 405.773
67.57000 402.916
67.58000 399.607
67.59000 397.602
67.60000 398.652
67.61000 399.828
67.62000 403.315
67.63000 410.437
67.64000 417.603
67.65000 421.226
67.66000 425.948
67.67000 429.056
67.68000 427.151
67.69000 421.931
67.70000 416.976
67.71000 419.021
67.72000 424.170
67.73000 429.017
67.74000 428.125
67.75000 425.744
67.76000 423.131
67.77000 418.876
67.78000 414.299
67.79000 411.840
67.80000 418.955
67.81000 427.236
67.82000 433.545
67.83000 443.729
67.84000 451.952
67.85000 458.691
67.86000 462.431
67.87000 466.085
67.88000 468.778
67.89000 470.176
67.90000 471.567
67.91000 474.008
67.92000 477.350
67.93000 480.535
67.94000 475.325
67.95000 465.343
67.96000 455.748
67.97000 453.599
67.98000 454.298
67.99000 454.946
68.00000 462.457
68.01000 470.791
68.02000 478.556
68.03000 482.936
68.04000 486.754
68.05000 491.645
68.06000 500.681
68.07000 510.129
68.08000 517.038
68.09000 522.730
68.10000 527.074
68.11000 530.849
68.12000 533.635
68.13000 536.403
68.14000 536.816
68.15000 534.532
68.16000 532.253
68.17000 536.621
68.18000 545.801
68.19000 554.630
68.20000 551.527
68.21000 542.578
68.22000 534.307
68.23000 535.950
68.24000 540.868
68.25000 545.334
68.26000 556.244
68.27000 567.127
68.28000 575.968
68.29000 574.514
68.30000 571.632
68.31000 573.588
68.32000 591.600
68.33000 610.890
68.34000 624.365
68.35000 614.314
68.36000 606.062
68.37000 604.639
68.38000 613.436
68.39000 622.333
68.40000 628.254
68.41000 631.297
68.42000 634.316
68.43000 643.836
68.44000 657.218
68.45000 670.369
68.46000 678.066
68.47000 683.455
68.48000 688.431
68.49000 688.653
68.50000 687.524
68.51000 686.520
68.52000 705.930
68.53000 726.061
68.54000 745.775
68.55000 763.699
68.56000 781.418
68.57000 799.366
68.58000 817.967
68.59000 836.609
68.60000 848.988
68.61000 887.650
68.62000 916.716
68.63000 953.103
68.64000 998.861
68.65000 1044.639
68.66000 1084.743
68.67000 1120.197
68.68000 1155.153
68.69000 1198.241
68.70000 1244.388
68.71000 1290.189
68.72000 1329.952
68.73000 1367.510
68.74000 1405.439
68.75000 1446.826
68.76000 1489.056
68.77000 1525.681
68.78000 1579.210
68.79000 1627.048
68.80000 1678.160
68.81000 1741.317
68.82000 1805.592
68.83000 1870.515
68.84000 1937.035
68.85000 2003.629
68.86000 2045.426
68.87000 2187.573
68.88000 2291.407
68.89000 2494.277
68.90000 2804.774
68.91000 3118.234
68.92000 3811.859
68.93000 4771.352
68.94000 5709.541
68.95000 7680.981
68.96000 10034.330
68.97000 12474.052
68.98000 16079.431
68.99000 20051.869
69.00000 24042.475
69.01000 28171.611
69.02000 32329.570
69.03000 35839.113
69.04000 39266.172
69.05000 42121.008
69.06000 44611.930
69.07000 45951.270
69.08000 47205.777
69.09000 48088.598
69.10000 48179.090
69.11000 48243.414
69.12000 48281.328
69.13000 48586.492
69.14000 48803.422
69.15000 49271.824
69.16000 49970.703
69.17000 50662.668
69.18000 50905.363
69.19000 50878.445
69.20000 50852.391
69.21000 49498.367
69.22000 47712.449
69.23000 45834.855
69.24000 42974.891
69.25000 39848.887
69.26000 36847.926
69.27000 34641.445
69.28000 32575.037
69.29000 30882.725
69.30000 29233.596
69.31000 27885.488
69.32000 26690.865
69.33000 25915.037
69.34000 25162.969
69.35000 24454.357
69.36000 23825.645
69.37000 23198.664
69.38000 22854.295
69.39000 21215.475
69.40000 20083.457
69.41000 18442.320
69.42000 16404.908
69.43000 14367.412
69.44000 12326.568
69.45000 10283.995
69.46000 8331.646
69.47000 6860.224
69.48000 5647.247
69.49000 4481.901
69.50000 3730.927
69.51000 3076.060
69.52000 2477.360
69.53000 2179.314
69.54000 1925.772
69.55000 1724.966
69.56000 1590.509
69.57000 1487.032
69.58000 1397.396
69.59000 1340.367
69.60000 1284.705
69.61000 1235.188
69.62000 1195.390
69.63000 1155.712
69.64000 1135.586
69.65000 1065.272
69.66000 1018.367
69.67000 991.531
69.68000 978.053
69.69000 964.494
69.70000 948.788
69.71000 932.125
69.72000 916.427
69.73000 891.673
69.74000 866.531
69.75000 843.011
69.76000 831.134
69.77000 821.557
69.78000 810.804
69.79000 794.701
69.80000 777.942
69.81000 765.151
69.82000 758.291
69.83000 753.202
69.84000 746.425
69.85000 736.214
69.86000 725.903
69.87000 713.250
69.88000 697.425
69.89000 681.593
69.90000 673.317
69.91000 671.610
69.92000 669.891
69.93000 667.438
69.94000 664.565
69.95000 661.623
69.96000 657.320
69.97000 652.493
69.98000 648.021
69.99000 645.192
70.00000 643.029
