20.00000 548.785
20.01000 544.525
20.02000 539.657
20.03000 538.744
20.04000 553.193
20.05000 569.180
20.06000 580.886
20.07000 567.914
20.08000 556.916
20.09000 551.245
20.10000 554.899
20.11000 558.725
20.12000 560.454
20.13000 559.768
20.14000 559.081
20.15000 558.357
20.16000 557.613
20.17000 556.915
20.18000 557.820
20.19000 559.514
20.20000 560.837
20.21000 556.687
20.22000 550.721
20.23000 545.300
20.24000 543.932
20.25000 543.510
20.26000 543.863
20.27000 548.140
20.28000 552.963
20.29000 555.656
20.30000 551.241
20.31000 546.256
20.32000 542.769
20.33000 550.627
20.34000 556.888
20.35000 563.301
20.36000 569.943
20.37000 576.586
20.38000 575.741
20.39000 567.611
20.40000 559.542
20.41000 559.223
20.42000 563.732
20.43000 567.677
20.44000 558.113
20.45000 542.808
20.46000 528.833
20.47000 530.267
20.48000 536.104
20.49000 541.294
20.50000 540.253
20.51000 538.337
20.52000 536.906
20.53000 537.570
20.54000 538.476
20.55000 539.433
20.56000 540.541
20.57000 541.657
20.58000 542.400
20.59000 534.193
20.60000 527.953
20.61000 530.145
20.62000 543.183
20.63000 556.241
20.64000 560.019
20.65000 556.154
20.66000 552.343
20.67000 550.305
20.68000 549.263
20.69000 547.819
20.70000 539.278
20.71000 528.131
20.72000 518.498
20.73000 522.993
20.74000 530.951
20.75000 537.858
20.76000 544.343
20.77000 549.811
20.78000 553.454
20.79000 550.348
20.80000 546.611
20.81000 545.122
20.82000 549.212
20.83000 553.564
20.84000 556.300
20.85000 551.470
20.86000 547.892
20.87000 547.849
20.88000 551.667
20.89000 555.460
20.90000 555.522
20.91000 552.962
20.92000 550.459
20.93000 549.616
20.94000 549.555
20.95000 549.597
20.96000 551.035
20.97000 552.914
20.98000 554.560
20.99000 554.411
21.00000 553.886
21.01000 553.442
21.02000 551.977
21.03000 550.639
21.04000 549.451
21.05000 548.740
21.06000 548.064
21.07000 544.903
21.08000 536.419
21.09000 527.757
21.10000 522.641
21.11000 525.750
21.12000 527.993
21.13000 535.884
21.14000 548.979
21.15000 561.863
21.16000 560.784
21.17000 551.285
21.18000 542.089
21.19000 534.703
21.20000 528.414
21.21000 522.253
21.22000 517.477
21.23000 513.079
21.24000 510.456
21.25000 519.175
21.26000 529.906
21.27000 538.703
21.28000 542.780
21.29000 545.707
21.30000 547.354
21.31000 545.497
21.32000 543.438
21.33000 545.915
21.34000 556.769
21.35000 567.808
21.36000 573.886
21.37000 555.161
21.38000 542.239
21.39000 534.615
21.40000 531.134
21.41000 527.828
21.42000 531.498
21.43000 538.791
21.44000 545.765
21.45000 539.910
21.46000 530.282
21.47000 521.987
21.48000 525.354
21.49000 531.440
21.50000 535.506
21.51000 528.697
21.52000 520.269
21.53000 513.587
21.54000 528.225
21.55000 541.494
21.56000 549.668
21.57000 545.783
21.58000 541.388
21.59000 542.801
21.60000 553.446
21.61000 564.209
21.62000 569.684
21.63000 558.268
21.64000 550.629
21.65000 544.682
21.66000 539.867
21.67000 535.106
21.68000 531.846
21.69000 529.259
21.70000 526.820
21.71000 535.530
21.72000 546.584
21.73000 555.864
21.74000 552.323
21.75000 546.237
21.76000 541.486
21.77000 542.843
21.78000 544.955
21.79000 546.569
21.80000 560.230
21.81000 571.654
21.82000 578.739
21.83000 576.962
21.84000 574.922
21.85000 576.859
21.86000 584.209
21.87000 591.587
21.88000 595.565
21.89000 596.570
21.90000 597.621
21.91000 601.195
21.92000 606.219
21.93000 611.311
21.94000 617.718
21.95000 624.634
21.96000 631.045
21.97000 636.811
21.98000 641.852
21.99000 646.049
22.00000 645.149
22.01000 643.393
22.02000 643.591
22.03000 651.417
22.04000 660.014
22.05000 666.320
22.06000 670.647
22.07000 673.910
22.08000 674.789
22.09000 671.467
22.10000 668.067
22.11000 663.655
22.12000 658.071
22.13000 652.502
22.14000 650.243
22.15000 650.445
22.16000 650.409
22.17000 642.096
22.18000 629.684
22.19000 617.612
22.20000 610.617
22.21000 605.316
22.22000 600.496
22.23000 601.684
22.24000 603.911
22.25000 604.480
22.26000 596.584
22.27000 587.499
22.28000 580.126
22.29000 578.498
22.30000 577.335
22.31000 576.519
22.32000 568.512
22.33000 562.247
22.34000 558.406
22.35000 558.232
22.36000 558.096
22.37000 556.147
22.38000 552.423
22.39000 548.727
22.40000 545.900
22.41000 543.663
22.42000 541.281
22.43000 535.362
22.44000 527.932
22.45000 521.776
22.46000 530.532
22.47000 543.575
22.48000 555.183
22.49000 549.391
22.50000 541.514
22.51000 535.488
22.52000 537.501
22.53000 540.448
22.54000 541.063
22.55000 534.936
22.56000 528.384
22.57000 524.016
22.58000 512.030
22.59000 503.009
22.60000 504.007
22.61000 517.976
22.62000 531.973
22.63000 534.104
22.64000 526.399
22.65000 518.798
22.66000 514.159
22.67000 511.224
22.68000 508.593
22.69000 511.391
22.70000 516.192
22.71000 520.268
22.72000 517.505
22.73000 513.056
22.74000 509.191
22.75000 513.164
22.76000 517.613
22.77000 521.880
22.78000 525.469
22.79000 528.994
22.80000 530.599
22.81000 527.409
22.82000 523.992
22.83000 521.837
22.84000 518.189
22.85000 515.530
22.86000 512.670
22.87000 509.588
22.88000 506.501
22.89000 502.698
22.90000 498.390
22.91000 494.174
22.92000 499.144
22.93000 508.078
22.94000 516.323
22.95000 515.110
22.96000 510.885
22.97000 506.835
22.98000 504.133
22.99000 501.714
23.00000 499.669
23.01000 493.306
23.02000 487.504
23.03000 486.167
23.04000 499.113
23.05000 513.130
23.06000 518.984
23.07000 507.251
23.08000 494.922
23.09000 487.620
23.10000 500.351
23.11000 509.464
23.12000 513.323
23.13000 512.307
23.14000 511.377
23.15000 516.305
23.16000 524.787
23.17000 533.002
23.18000 522.468
23.19000 505.269
23.20000 489.321
23.21000 486.999
23.22000 488.407
23.23000 490.605
23.24000 497.886
23.25000 506.076
23.26000 512.798
23.27000 513.080
23.28000 512.737
23.29000 509.773
23.30000 499.583
23.31000 488.975
23.32000 484.155
23.33000 490.093
23.34000 496.272
23.35000 499.685
23.36000 511.434
23.37000 519.500
23.38000 512.710
23.39000 494.223
23.40000 476.329
23.41000 482.593
23.42000 501.477
23.43000 519.544
23.44000 518.605
23.45000 511.498
23.46000 505.405
23.47000 508.268
23.48000 513.231
23.49000 517.409
23.50000 517.338
23.51000 516.630
23.52000 516.068
23.53000 507.379
23.54000 499.809
23.55000 493.463
23.56000 490.032
23.57000 486.725
23.58000 487.527
23.59000 494.898
23.60000 502.356
23.61000 506.162
23.62000 505.724
23.63000 505.442
23.64000 506.464
23.65000 508.362
23.66000 510.061
23.67000 506.264
23.68000 499.989
23.69000 494.072
23.70000 492.354
23.71000 491.948
23.72000 491.195
23.73000 487.916
23.74000 484.133
23.75000 481.179
23.76000 482.043
23.77000 483.382
23.78000 484.406
23.79000 500.250
23.80000 513.563
23.81000 519.685
23.82000 511.026
23.83000 501.924
23.84000 497.641
23.85000 499.966
23.86000 502.329
23.87000 500.990
23.88000 496.403
23.89000 491.818
23.90000 487.360
23.91000 482.974
23.92000 478.702
23.93000 476.686
23.94000 475.548
23.95000 474.493
23.96000 482.903
23.97000 492.701
23.98000 501.091
23.99000 500.910
24.00000 499.281
24.01000 497.457
24.02000 494.872
24.03000 492.209
24.04000 490.253
24.05000 488.387
24.06000 486.948
24.07000 487.465
24.08000 491.448
24.09000 495.496
24.10000 497.195
24.11000 496.150
24.12000 495.104
24.13000 495.672
24.14000 497.435
24.15000 499.080
24.16000 496.556
24.17000 491.955
24.18000 487.635
24.19000 487.542
24.20000 488.868
24.21000 490.076
24.22000 486.745
24.23000 482.902
24.24000 479.372
24.25000 477.450
24.26000 475.755
24.27000 474.973
24.28000 477.278
24.29000 479.835
24.30000 481.631
24.31000 481.888
24.32000 482.038
24.33000 482.146
24.34000 482.192
24.35000 482.237
24.36000 482.865
24.37000 484.068
24.38000 485.263
24.39000 486.401
24.40000 487.484
24.41000 488.615
24.42000 490.896
24.43000 493.673
24.44000 495.336
24.45000 483.846
24.46000 468.553
24.47000 454.928
24.48000 461.988
24.49000 471.533
24.50000 477.980
24.51000 470.880
24.52000 462.194
24.53000 456.331
24.54000 458.678
24.55000 461.548
24.56000 463.466
24.57000 466.987
24.58000 469.628
24.59000 471.115
24.60000 471.099
24.61000 471.085
24.62000 474.778
24.63000 481.567
24.64000 488.266
24.65000 494.222
24.66000 499.617
24.67000 504.179
24.68000 493.676
24.69000 477.579
24.70000 462.643
24.71000 458.735
24.72000 457.564
24.73000 456.544
24.74000 458.713
24.75000 460.999
24.76000 465.357
24.77000 477.475
24.78000 490.330
24.79000 497.389
24.80000 489.897
24.81000 481.706
24.82000 476.531
24.83000 475.181
24.84000 474.248
24.85000 472.446
24.86000 469.682
24.87000 466.935
24.88000 466.900
24.89000 468.796
24.90000 470.651
24.91000 471.533
24.92000 471.936
24.93000 472.147
24.94000 469.701
24.95000 466.405
24.96000 464.049
24.97000 469.023
24.98000 475.550
24.99000 481.077
25.00000 482.977
25.01000 484.164
25.02000 483.538
25.03000 477.077
25.04000 470.175
25.05000 463.387
25.06000 456.849
25.07000 450.319
25.08000 446.441
25.09000 455.740
25.10000 462.396
25.11000 463.743
25.12000 460.129
25.13000 456.589
25.14000 458.164
25.15000 462.863
25.16000 467.416
25.17000 465.301
25.18000 460.710
25.19000 456.680
25.20000 458.820
25.21000 462.660
25.22000 466.770
25.23000 472.634
25.24000 478.813
25.25000 483.891
25.26000 482.304
25.27000 480.400
25.28000 477.230
25.29000 470.546
25.30000 463.657
25.31000 458.612
25.32000 457.018
25.33000 455.502
25.34000 454.662
25.35000 470.396
25.36000 481.263
25.37000 484.424
25.38000 481.476
25.39000 478.409
25.40000 470.381
25.41000 459.747
25.42000 449.567
25.43000 460.282
25.44000 477.166
25.45000 492.175
25.46000 490.510
25.47000 484.909
25.48000 478.944
25.49000 470.993
25.50000 462.742
25.51000 456.181
25.52000 468.418
25.53000 479.620
25.54000 485.739
25.55000 479.684
25.56000 473.100
25.57000 470.176
25.58000 473.140
25.59000 476.183
25.60000 477.742
25.61000 469.951
25.62000 464.728
25.63000 460.979
25.64000 458.228
25.65000 455.578
25.66000 455.705
25.67000 457.092
25.68000 458.401
25.69000 457.785
25.70000 456.681
25.71000 455.901
25.72000 457.502
25.73000 459.582
25.74000 461.497
25.75000 462.647
25.76000 463.701
25.77000 464.509
25.78000 468.526
25.79000 471.876
25.80000 471.743
25.81000 464.406
25.82000 456.850
25.83000 452.371
25.84000 452.138
25.85000 451.931
25.86000 453.844
25.87000 457.630
25.88000 461.425
25.89000 465.793
25.90000 470.494
25.91000 474.741
25.92000 469.877
25.93000 461.444
25.94000 453.617
25.95000 454.911
25.96000 458.234
25.97000 460.510
25.98000 456.371
25.99000 451.141
26.00000 447.148
26.01000 448.049
26.02000 449.453
26.03000 450.486
26.04000 463.464
26.05000 474.001
26.06000 481.358
26.07000 483.048
26.08000 484.626
26.09000 481.389
26.10000 472.491
26.11000 463.610
26.12000 461.165
26.13000 463.552
26.14000 465.744
26.15000 460.890
26.16000 452.505
26.17000 444.775
26.18000 447.019
26.19000 452.632
26.20000 457.744
26.21000 447.710
26.22000 435.811
26.23000 426.637
26.24000 431.557
26.25000 438.487
26.26000 444.157
26.27000 445.546
26.28000 446.582
26.29000 447.312
26.30000 459.542
26.31000 469.152
26.32000 476.406
26.33000 480.050
26.34000 483.654
26.35000 478.074
26.36000 463.372
26.37000 448.771
26.38000 451.283
26.39000 464.618
26.40000 477.270
26.41000 472.917
26.42000 461.206
26.43000 450.131
26.44000 446.615
26.45000 445.300
26.46000 444.127
26.47000 443.610
26.48000 443.270
26.49000 444.618
26.50000 453.397
26.51000 463.053
26.52000 467.723
26.53000 457.803
26.54000 446.942
26.55000 439.671
26.56000 443.781
26.57000 447.055
26.58000 449.121
26.59000 449.604
26.60000 450.078
26.61000 449.270
26.62000 447.385
26.63000 445.524
26.64000 444.197
26.65000 443.193
26.66000 442.305
26.67000 443.542
26.68000 445.572
26.69000 447.597
26.70000 449.575
26.71000 451.541
26.72000 453.252
26.73000 448.848
26.74000 444.246
26.75000 442.190
26.76000 449.724
26.77000 458.178
26.78000 462.697
26.79000 457.278
26.80000 451.376
26.81000 447.638
26.82000 432.980
26.83000 422.218
26.84000 424.643
26.85000 441.770
26.86000 458.800
26.87000 459.791
26.88000 449.294
26.89000 439.015
26.90000 437.282
26.91000 439.541
26.92000 441.742
26.93000 443.128
26.94000 444.251
26.95000 445.621
26.96000 448.923
26.97000 452.638
26.98000 455.788
26.99000 441.970
27.00000 428.480
27.01000 419.611
27.02000 425.707
27.03000 432.947
27.04000 436.253
27.05000 430.982
27.06000 425.411
27.07000 422.094
27.08000 420.322
27.09000 419.075
27.10000 418.169
27.11000 417.583
27.12000 417.090
27.13000 423.263
27.14000 433.530
27.15000 443.482
27.16000 438.589
27.17000 428.152
27.18000 418.973
27.19000 423.748
27.20000 432.389
27.21000 439.943
27.22000 440.390
27.23000 439.552
27.24000 438.863
27.25000 430.607
27.26000 423.131
27.27000 416.973
27.28000 414.498
27.29000 412.240
27.30000 413.896
27.31000 422.913
27.32000 432.102
27.33000 437.207
27.34000 437.365
27.35000 437.451
27.36000 433.529
27.37000 426.410
27.38000 419.533
27.39000 422.887
27.40000 431.650
27.41000 440.042
27.42000 438.164
27.43000 433.001
27.44000 428.909
27.45000 434.437
27.46000 442.251
27.47000 447.784
27.48000 440.793
27.49000 431.897
27.50000 424.814
27.51000 430.215
27.52000 435.471
27.53000 436.982
27.54000 429.468
27.55000 421.558
27.56000 416.616
27.57000 416.480
27.58000 416.410
27.59000 416.374
27.60000 422.830
27.61000 427.146
27.62000 428.169
27.63000 426.950
27.64000 425.711
27.65000 423.940
27.66000 421.925
27.67000 420.022
27.68000 424.699
27.69000 430.844
27.70000 435.918
27.71000 433.079
27.72000 428.639
27.73000 423.229
27.74000 413.302
27.75000 402.804
27.76000 394.744
27.77000 405.633
27.78000 415.299
27.79000 423.067
27.80000 426.890
27.81000 430.590
27.82000 431.367
27.83000 428.086
27.84000 424.779
27.85000 423.546
27.86000 424.161
27.87000 424.720
27.88000 421.968
27.89000 417.279
27.90000 413.166
27.91000 420.769
27.92000 432.986
27.93000 444.335
27.94000 442.128
27.95000 436.909
27.96000 431.438
27.97000 424.403
27.98000 417.101
27.99000 412.584
28.00000 419.155
28.01000 426.874
28.02000 432.565
28.03000 436.499
28.04000 439.472
28.05000 439.205
28.06000 433.126
28.07000 426.932
28.08000 418.151
28.09000 406.309
28.10000 394.494
28.11000 399.583
28.12000 417.368
28.13000 434.753
28.14000 437.408
28.15000 432.637
28.16000 428.208
28.17000 429.039
28.18000 431.659
28.19000 434.047
28.20000 428.290
28.21000 421.556
28.22000 416.447
28.23000 419.799
28.24000 424.366
28.25000 429.035
28.26000 434.049
28.27000 439.093
28.28000 442.648
28.29000 431.028
28.30000 421.758
28.31000 417.140
28.32000 419.695
28.33000 422.330
28.34000 422.686
28.35000 420.763
28.36000 418.853
28.37000 417.468
28.38000 416.440
28.39000 415.498
28.40000 416.706
28.41000 418.850
28.42000 420.671
28.43000 418.597
28.44000 415.383
28.45000 412.515
28.46000 409.995
28.47000 407.860
28.48000 405.287
28.49000 400.770
28.50000 396.022
28.51000 394.174
28.52000 400.860
28.53000 408.102
28.54000 412.960
28.55000 421.783
28.56000 428.413
28.57000 434.506
28.58000 439.891
28.59000 445.259
28.60000 442.654
28.61000 433.309
28.62000 424.082
28.63000 420.540
28.64000 420.180
28.65000 419.797
28.66000 418.993
28.67000 418.032
28.68000 417.391
28.69000 419.855
28.70000 423.098
28.71000 425.925
28.72000 426.368
28.73000 426.417
28.74000 426.199
28.75000 424.968
28.76000 423.639
28.77000 420.695
28.78000 413.652
28.79000 406.406
28.80000 401.806
28.81000 391.670
28.82000 384.244
28.83000 387.707
28.84000 403.393
28.85000 419.027
28.86000 425.000
28.87000 424.011
28.88000 423.042
28.89000 419.427
28.90000 414.728
28.91000 410.097
28.92000 406.444
28.93000 403.108
28.94000 400.596
28.95000 404.611
28.96000 410.027
28.97000 414.624
28.98000 416.033
28.99000 416.853
29.00000 416.803
29.01000 413.925
29.02000 410.828
29.03000 408.995
29.04000 409.932
29.05000 410.968
29.06000 411.586
29.07000 410.826
29.08000 410.279
29.09000 411.563
29.10000 414.583
29.11000 417.484
29.12000 411.808
29.13000 400.833
29.14000 390.188
29.15000 390.644
29.16000 395.444
29.17000 399.903
29.18000 400.538
29.19000 400.107
29.20000 400.278
29.21000 404.412
29.22000 409.268
29.23000 413.270
29.24000 407.273
29.25000 401.421
29.26000 397.769
29.27000 400.292
29.28000 403.184
29.29000 406.056
29.30000 408.888
29.31000 411.720
29.32000 413.297
29.33000 414.646
29.34000 415.567
29.35000 412.506
29.36000 406.250
29.37000 400.174
29.38000 401.846
29.39000 407.640
29.40000 413.192
29.41000 414.944
29.42000 415.308
29.43000 415.021
29.44000 408.854
29.45000 401.280
29.46000 394.689
29.47000 393.532
29.48000 393.208
29.49000 392.949
29.50000 395.175
29.51000 397.152
29.52000 402.331
29.53000 415.268
29.54000 428.552
29.55000 434.684
29.56000 429.170
29.57000 423.491
29.58000 420.564
29.59000 400.143
29.60000 386.527
29.61000 389.356
29.62000 403.463
29.63000 417.174
29.64000 419.520
29.65000 416.651
29.66000 413.941
29.67000 406.830
29.68000 399.053
29.69000 392.730
29.70000 397.232
29.71000 403.940
29.72000 409.452
29.73000 409.350
29.74000 408.533
29.75000 407.905
29.76000 406.834
29.77000 405.961
29.78000 404.699
29.79000 402.620
29.80000 400.516
29.81000 399.551
29.82000 400.178
29.83000 400.815
29.84000 404.468
29.85000 410.821
29.86000 417.081
29.87000 417.770
29.88000 415.179
29.89000 413.023
29.90000 419.802
29.91000 430.122
29.92000 439.714
29.93000 441.245
29.94000 440.694
29.95000 440.118
29.96000 439.384
29.97000 438.622
29.98000 437.578
29.99000 435.400
30.00000 433.104
30.01000 431.408
30.02000 438.116
30.03000 443.673
30.04000 446.083
30.05000 442.816
30.06000 439.434
30.07000 437.690
30.08000 437.895
30.09000 438.104
30.10000 438.335
30.11000 438.582
30.12000 438.721
30.13000 434.875
30.14000 429.007
30.15000 423.513
30.16000 423.838
30.17000 426.152
30.18000 428.263
30.19000 428.835
30.20000 429.032
30.21000 429.081
30.22000 428.355
30.23000 427.518
30.24000 425.616
30.25000 420.053
30.26000 414.182
30.27000 410.036
30.28000 402.441
30.29000 396.570
30.30000 399.217
30.31000 415.078
30.32000 431.092
30.33000 440.342
30.34000 442.780
30.35000 445.203
30.36000 439.564
30.37000 428.824
30.38000 418.133
30.39000 408.708
30.40000 399.837
30.41000 391.982
30.42000 396.458
30.43000 404.565
30.44000 411.808
30.45000 411.639
30.46000 410.243
30.47000 410.227
30.48000 416.363
30.49000 423.235
30.50000 428.213
30.51000 427.582
30.52000 426.581
30.53000 425.909
30.54000 424.688
30.55000 423.769
30.56000 421.469
30.57000 417.333
30.58000 413.196
30.59000 414.145
30.60000 419.423
30.61000 424.636
30.62000 429.021
30.63000 432.842
30.64000 436.346
30.65000 433.932
30.66000 429.280
30.67000 425.362
30.68000 428.590
30.69000 433.626
30.70000 438.019
30.71000 440.733
30.72000 442.819
30.73000 443.956
30.74000 441.470
30.75000 438.632
30.76000 435.638
30.77000 432.247
30.78000 428.837
30.79000 426.668
30.80000 441.436
30.81000 452.379
30.82000 454.435
30.83000 446.448
30.84000 438.514
30.85000 440.523
30.86000 449.745
30.87000 458.781
30.88000 461.600
30.89000 461.417
30.90000 461.326
30.91000 462.545
30.92000 464.192
30.93000 466.884
30.94000 477.914
30.95000 490.745
30.96000 501.648
30.97000 505.218
30.98000 507.375
30.99000 513.142
31.00000 530.740
31.01000 549.260
31.02000 566.465
31.03000 580.770
31.04000 594.971
31.05000 603.470
31.06000 632.724
31.07000 653.625
31.08000 684.933
31.09000 726.161
31.10000 767.370
31.11000 807.046
31.12000 845.770
31.13000 883.343
31.14000 939.924
31.15000 1001.105
31.16000 1063.690
31.17000 1142.107
31.18000 1224.968
31.19000 1308.427
31.20000 1395.853
31.21000 1484.005
31.22000 1556.731
31.23000 1713.576
31.24000 1850.524
31.25000 1984.551
31.26000 2110.329
31.27000 2235.608
31.28000 2356.848
31.29000 2470.398
31.30000 2583.763
31.31000 2647.111
31.32000 2804.934
31.33000 2914.438
31.34000 3024.288
31.35000 3134.419
31.36000 3242.974
31.37000 3282.553
31.38000 3285.224
31.39000 3287.786
31.40000 3277.062
31.41000 3262.575
31.42000 3243.961
31.43000 3187.717
31.44000 3122.418
31.45000 3056.018
31.46000 2983.481
31.47000 2909.997
31.48000 2851.322
31.49000 2670.161
31.50000 2514.845
31.51000 2372.655
31.52000 2262.463
31.53000 2153.719
31.54000 2035.371
31.55000 1901.286
31.56000 1766.974
31.57000 1697.503
31.58000 1538.172
31.59000 1430.795
31.60000 1332.411
31.61000 1240.234
31.62000 1148.527
31.63000 1070.452
31.64000 998.669
31.65000 930.804
31.66000 874.614
31.67000 826.326
31.68000 778.391
31.69000 733.096
31.70000 688.343
31.71000 646.542
31.72000 618.676
31.73000 592.601
31.74000 572.521
31.75000 550.787
31.76000 533.485
31.77000 519.377
31.78000 511.993
31.79000 504.823
31.80000 497.215
31.81000 488.991
31.82000 480.766
31.83000 472.262
31.84000 463.516
31.85000 454.849
31.86000 451.028
31.87000 450.077
31.88000 448.820
31.89000 441.167
31.90000 430.964
31.91000 421.473
31.92000 416.243
31.93000 412.547
31.94000 409.546
31.95000 410.899
31.96000 413.008
31.97000 415.145
31.98000 417.395
31.99000 419.658
32.00000 421.332
32.01000 422.275
32.02000 422.975
32.03000 421.503
32.04000 416.089
32.05000 410.592
32.06000 407.537
32.07000 407.411
32.08000 407.290
32.09000 407.499
32.10000 407.957
32.11000 408.258
32.12000 402.608
32.13000 393.922
32.14000 385.614
32.15000 383.248
32.16000 382.926
32.17000 382.632
32.18000 384.441
32.19000 386.475
32.20000 387.530
32.21000 383.418
32.22000 378.553
32.23000 375.018
32.24000 376.084
32.25000 377.540
32.26000 378.570
32.27000 381.912
32.28000 384.522
32.29000 386.288
32.30000 386.736
32.31000 387.168
32.32000 389.727
32.33000 394.443
32.34000 399.129
32.35000 401.116
32.36000 401.326
32.37000 401.381
32.38000 397.446
32.39000 391.752
32.40000 386.029
32.41000 379.952
32.42000 373.770
32.43000 368.242
32.44000 377.956
32.45000 389.011
32.46000 397.202
32.47000 392.538
32.48000 386.322
32.49000 380.547
32.50000 376.086
32.51000 371.713
32.52000 368.767
32.53000 379.609
32.54000 387.961
32.55000 389.912
32.56000 383.306
32.57000 376.660
32.58000 372.564
32.59000 370.653
32.60000 368.765
32.61000 367.267
32.62000 366.022
32.63000 364.969
32.64000 367.537
32.65000 371.482
32.66000 374.721
32.67000 371.018
32.68000 365.550
32.69000 360.774
32.70000 355.015
32.71000 349.949
32.72000 345.682
32.73000 344.486
32.74000 343.592
32.75000 342.942
32.76000 342.920
32.77000 342.929
32.78000 342.935
32.79000 348.536
32.80000 352.682
32.81000 354.811
32.82000 354.647
32.83000 354.498
32.84000 357.214
32.85000 362.021
32.86000 366.733
32.87000 361.042
32.88000 350.692
32.89000 340.935
32.90000 339.732
32.91000 341.335
32.92000 342.582
32.93000 340.967
32.94000 338.729
32.95000 336.825
32.96000 340.055
32.97000 343.362
32.98000 346.505
32.99000 349.108
33.00000 351.668
33.01000 352.553
33.02000 349.716
33.03000 346.744
33.04000 344.961
33.05000 348.526
33.06000 351.094
33.07000 351.114
33.08000 348.687
33.09000 346.262
33.10000 344.027
33.11000 341.910
33.12000 339.855
33.13000 339.565
33.14000 339.992
33.15000 340.614
33.16000 343.447
33.17000 346.906
33.18000 350.360
33.19000 353.783
33.20000 357.201
33.21000 360.025
33.22000 348.371
33.23000 337.414
33.24000 329.825
33.25000 331.804
33.26000 334.368
33.27000 335.732
33.28000 334.796
33.29000 333.803
33.30000 333.247
33.31000 340.739
33.32000 345.937
33.33000 345.482
33.34000 340.430
33.35000 335.474
33.36000 334.858
33.37000 336.576
33.38000 338.225
33.39000 337.786
33.40000 336.667
33.41000 335.513
33.42000 334.031
33.43000 332.469
33.44000 332.018
33.45000 337.791
33.46000 344.532
33.47000 349.922
33.48000 350.325
33.49000 350.281
33.50000 349.628
33.51000 347.483
33.52000 345.270
33.53000 344.045
33.54000 344.449
33.55000 344.877
33.56000 345.099
33.57000 355.341
33.58000 362.164
33.59000 357.342
33.60000 344.434
33.61000 331.755
33.62000 325.851
33.63000 323.092
33.64000 320.483
33.65000 323.764
33.66000 328.474
33.67000 332.133
33.68000 327.855
33.69000 321.937
33.70000 317.782
33.71000 322.006
33.72000 327.314
33.73000 331.408
33.74000 328.238
33.75000 325.307
33.76000 325.039
33.77000 330.413
33.78000 335.969
33.79000 337.038
33.80000 331.759
33.81000 326.436
33.82000 327.355
33.83000 333.947
33.84000 340.449
33.85000 341.216
33.86000 338.564
33.87000 335.997
33.88000 335.202
33.89000 335.117
33.90000 335.039
33.91000 339.658
33.92000 344.975
33.93000 349.303
33.94000 347.401
33.95000 344.408
33.96000 340.790
33.97000 334.637
33.98000 328.215
33.99000 323.455
34.00000 330.713
34.01000 336.871
34.02000 340.700
34.03000 340.276
34.04000 339.762
34.05000 339.024
34.06000 338.017
34.07000 337.011
34.08000 337.789
34.09000 339.931
34.10000 341.917
34.11000 337.877
34.12000 330.744
34.13000 324.008
34.14000 323.573
34.15000 325.319
34.16000 326.914
34.17000 330.038
34.18000 333.126
34.19000 334.439
34.20000 326.323
34.21000 316.824
34.22000 310.954
34.23000 317.715
34.24000 325.556
34.25000 331.116
34.26000 331.616
34.27000 331.837
34.28000 333.570
34.29000 337.679
34.30000 341.817
34.31000 341.639
34.32000 337.052
34.33000 332.493
34.34000 329.403
34.35000 327.313
34.36000 325.398
34.37000 328.077
34.38000 332.790
34.39000 336.931
34.40000 333.992
34.41000 328.942
34.42000 324.423
34.43000 328.264
34.44000 333.044
34.45000 336.445
34.46000 333.618
34.47000 330.033
34.48000 327.273
34.49000 326.986
34.50000 326.864
34.51000 326.782
34.52000 325.368
34.53000 324.287
34.54000 324.339
34.55000 325.915
34.56000 327.498
34.57000 328.099
34.58000 327.852
34.59000 327.609
34.60000 328.263
34.61000 329.399
34.62000 330.595
34.63000 332.951
34.64000 335.750
34.65000 338.583
34.66000 341.751
34.67000 345.004
34.68000 347.848
34.69000 339.585
34.70000 330.932
34.71000 323.369
34.72000 320.015
34.73000 317.079
34.74000 318.287
34.75000 330.208
34.76000 342.676
34.77000 350.646
34.78000 324.799
34.79000 305.539
34.80000 298.212
34.81000 304.550
34.82000 310.893
34.83000 315.667
34.84000 319.289
34.85000 322.840
34.86000 322.445
34.87000 320.203
34.88000 318.175
34.89000 319.268
34.90000 321.391
34.91000 323.695
34.92000 327.465
34.93000 331.555
34.94000 335.037
34.95000 330.405
34.96000 325.566
34.97000 320.516
34.98000 314.767
34.99000 308.962
35.00000 304.800
35.01000 304.304
35.02000 303.944
35.03000 303.727
35.04000 304.480
35.05000 305.021
35.06000 305.753
35.07000 306.668
35.08000 307.607
35.09000 310.449
35.10000 314.489
35.11000 318.411
35.12000 318.624
35.13000 317.338
35.14000 316.060
35.15000 314.877
35.16000 313.721
35.17000 312.923
35.18000 314.534
35.19000 316.592
35.20000 318.294
35.21000 316.714
35.22000 315.100
35.23000 314.338
35.24000 316.006
35.25000 317.825
35.26000 315.860
35.27000 306.603
35.28000 297.164
35.29000 291.858
35.30000 303.913
35.31000 312.313
35.32000 317.107
35.33000 318.950
35.34000 320.748
35.35000 320.473
35.36000 319.075
35.37000 317.734
35.38000 314.826
35.39000 311.572
35.40000 309.277
35.41000 315.869
35.42000 324.627
35.43000 331.147
35.44000 325.042
35.45000 316.961
35.46000 310.491
35.47000 303.760
35.48000 298.295
35.49000 295.944
35.50000 301.273
35.51000 306.958
35.52000 307.278
35.53000 298.696
35.54000 289.979
35.55000 285.440
35.56000 300.030
35.57000 309.847
35.58000 313.305
35.59000 312.321
35.60000 311.292
35.61000 308.906
35.62000 305.887
35.63000 303.029
35.64000 302.163
35.65000 301.942
35.66000 302.221
35.67000 306.303
35.68000 311.174
35.69000 315.254
35.70000 315.546
35.71000 315.344
35.72000 315.188
35.73000 314.298
35.74000 313.549
35.75000 313.138
35.76000 313.447
35.77000 313.779
35.78000 312.404
35.79000 308.597
35.80000 304.773
35.81000 300.707
35.82000 296.421
35.83000 292.174
35.84000 290.513
35.85000 290.401
35.86000 290.433
35.87000 293.540
35.88000 297.887
35.89000 301.935
35.90000 305.338
35.91000 308.257
35.92000 311.499
35.93000 316.789
35.94000 322.440
35.95000 325.848
35.96000 320.093
35.97000 313.358
35.98000 308.358
35.99000 304.559
36.00000 301.661
36.01000 299.102
36.02000 297.168
36.03000 295.248
36.04000 293.277
36.05000 291.245
36.06000 289.218
36.07000 288.904
36.08000 289.917
36.09000 291.030
36.10000 296.093
36.11000 303.196
36.12000 309.773
36.13000 307.904
36.14000 303.095
36.15000 298.698
36.16000 293.406
36.17000 288.518
36.18000 283.990
36.19000 281.384
36.20000 279.063
36.21000 279.815
36.22000 291.331
36.23000 303.775
36.24000 312.615
36.25000 321.711
36.26000 328.642
36.27000 325.610
36.28000 306.834
36.29000 287.862
36.30000 280.042
36.31000 283.690
36.32000 287.318
36.33000 290.881
36.34000 294.354
36.35000 297.717
36.36000 298.150
36.37000 297.277
36.38000 296.687
36.39000 299.628
36.40000 303.627
36.41000 307.209
36.42000 306.260
36.43000 304.649
36.44000 303.227
36.45000 302.655
36.46000 302.187
36.47000 301.343
36.48000 299.362
36.49000 297.305
36.50000 295.913
36.51000 296.932
36.52000 297.743
36.53000 297.190
36.54000 294.790
36.55000 292.381
36.56000 290.469
36.57000 288.990
36.58000 287.528
36.59000 290.966
36.60000 297.053
36.61000 302.796
36.62000 301.872
36.63000 298.382
36.64000 295.077
36.65000 293.623
36.66000 292.645
36.67000 291.789
36.68000 290.257
36.69000 288.847
36.70000 287.541
36.71000 286.638
36.72000 285.776
36.73000 285.095
36.74000 284.885
36.75000 284.698
36.76000 284.579
36.77000 293.130
36.78000 299.476
36.79000 299.569
36.80000 292.452
36.81000 285.364
36.82000 285.056
36.83000 289.762
36.84000 294.378
36.85000 298.443
36.86000 302.099
36.87000 305.470
36.88000 304.637
36.89000 302.408
36.90000 300.198
36.91000 298.148
36.92000 296.132
36.93000 294.413
36.94000 298.436
36.95000 302.494
36.96000 304.296
36.97000 298.569
36.98000 292.238
36.99000 290.876
37.00000 300.674
37.01000 310.891
37.02000 317.054
37.03000 311.347
37.04000 307.201
37.05000 302.234
37.06000 296.468
37.07000 290.741
37.08000 288.107
37.09000 287.431
37.10000 286.775
37.11000 291.655
37.12000 298.528
37.13000 304.812
37.14000 304.257
37.15000 301.749
37.16000 299.280
37.17000 297.080
37.18000 294.930
37.19000 293.149
37.20000 287.440
37.21000 282.354
37.22000 279.431
37.23000 282.730
37.24000 286.418
37.25000 289.474
37.26000 291.303
37.27000 293.101
37.28000 294.114
37.29000 286.020
37.30000 280.389
37.31000 281.302
37.32000 287.609
37.33000 293.808
37.34000 295.003
37.35000 293.472
37.36000 292.003
37.37000 291.139
37.38000 290.540
37.39000 290.083
37.40000 290.954
37.41000 292.152
37.42000 293.420
37.43000 295.087
37.44000 296.818
37.45000 298.206
37.46000 293.597
37.47000 289.412
37.48000 288.737
37.49000 296.775
37.50000 305.223
37.51000 308.173
37.52000 301.949
37.53000 295.583
37.54000 292.258
37.55000 287.559
37.56000 284.408
37.57000 285.246
37.58000 288.887
37.59000 292.368
37.60000 291.007
37.61000 287.370
37.62000 283.926
37.63000 284.715
37.64000 286.676
37.65000 288.597
37.66000 290.220
37.67000 291.781
37.68000 292.890
37.69000 291.824
37.70000 290.472
37.71000 289.426
37.72000 285.431
37.73000 282.086
37.74000 280.767
37.75000 283.786
37.76000 286.951
37.77000 290.090
37.78000 293.190
37.79000 296.290
37.80000 296.972
37.81000 295.425
37.82000 293.896
37.83000 293.456
37.84000 293.675
37.85000 293.826
37.86000 292.539
37.87000 290.667
37.88000 288.922
37.89000 292.257
37.90000 296.528
37.91000 299.884
37.92000 297.400
37.93000 293.880
37.94000 290.375
37.95000 286.934
37.96000 283.499
37.97000 280.945
37.98000 283.946
37.99000 286.528
38.00000 288.151
38.01000 288.002
38.02000 287.815
38.03000 287.835
38.04000 288.109
38.05000 288.383
38.06000 288.510
38.07000 288.522
38.08000 288.509
38.09000 287.456
38.10000 285.863
38.11000 284.406
38.12000 285.159
38.13000 286.686
38.14000 288.083
38.15000 291.727
38.16000 295.433
38.17000 298.303
38.18000 296.667
38.19000 294.361
38.20000 294.280
38.21000 302.039
38.22000 310.482
38.23000 316.490
38.24000 314.339
38.25000 312.437
38.26000 311.475
38.27000 312.009
38.28000 312.561
38.29000 311.152
38.30000 307.712
38.31000 304.291
38.32000 310.297
38.33000 322.448
38.34000 334.277
38.35000 337.376
38.36000 336.562
38.37000 336.417
38.38000 344.702
38.39000 355.530
38.40000 365.237
38.41000 367.019
38.42000 367.199
38.43000 368.354
38.44000 373.967
38.45000 380.131
38.46000 389.265
38.47000 407.408
38.48000 426.168
38.49000 438.885
38.50000 460.623
38.51000 477.030
38.52000 498.339
38.53000 526.326
38.54000 554.348
38.55000 578.922
38.56000 600.482
38.57000 621.798
38.58000 640.600
38.59000 657.544
38.60000 675.496
38.61000 713.217
38.62000 758.591
38.63000 803.243
38.64000 840.616
38.65000 876.103
38.66000 907.187
38.67000 941.844
38.68000 972.088
38.69000 999.754
38.70000 1017.341
38.71000 1033.910
38.72000 1044.176
38.73000 1037.952
38.74000 1030.865
38.75000 1026.313
38.76000 1025.162
38.77000 1024.370
38.78000 1020.760
38.79000 1013.881
38.80000 1006.896
38.81000 980.462
38.82000 939.559
38.83000 899.424
38.84000 865.507
38.85000 835.782
38.86000 805.969
38.87000 774.833
38.88000 743.257
38.89000 711.161
38.90000 674.793
38.91000 637.477
38.92000 605.631
38.93000 576.447
38.94000 552.192
38.95000 527.933
38.96000 503.662
38.97000 479.389
38.98000 457.972
38.99000 443.004
39.00000 428.282
39.01000 419.380
39.02000 389.336
39.03000 367.773
39.04000 352.173
39.05000 342.418
39.06000 332.693
39.07000 325.514
39.08000 319.957
39.09000 314.556
39.10000 311.223
39.11000 308.896
39.12000 306.445
39.13000 302.534
39.14000 298.204
39.15000 294.560
39.16000 295.596
39.17000 297.514
39.18000 299.105
39.19000 289.722
39.20000 280.918
39.21000 275.412
39.22000 279.443
39.23000 284.076
39.24000 287.754
39.25000 289.573
39.26000 291.343
39.27000 292.343
39.28000 287.623
39.29000 284.327
39.30000 282.065
39.31000 280.660
39.32000 279.295
39.33000 279.777
39.34000 281.271
39.35000 282.706
39.36000 281.118
39.37000 278.586
39.38000 276.186
39.39000 275.041
39.40000 274.204
39.41000 273.713
39.42000 275.199
39.43000 276.999
39.44000 278.445
39.45000 277.520
39.46000 276.590
39.47000 274.106
39.48000 267.743
39.49000 261.195
39.50000 256.233
39.51000 253.934
39.52000 251.676
39.53000 250.493
39.54000 258.372
39.55000 263.685
39.56000 265.225
39.57000 264.094
39.58000 263.034
39.59000 264.115
39.60000 266.208
39.61000 268.192
39.62000 266.113
39.63000 263.006
39.64000 260.428
39.65000 261.935
39.66000 264.303
39.67000 266.148
39.68000 265.461
39.69000 264.438
39.70000 263.646
39.71000 270.224
39.72000 275.888
39.73000 277.876
39.74000 271.939
39.75000 265.733
39.76000 261.322
39.77000 259.496
39.78000 257.691
39.79000 257.148
39.80000 257.777
39.81000 258.408
39.82000 259.240
39.83000 260.195
39.84000 261.195
39.85000 263.216
39.86000 265.652
39.87000 267.925
39.88000 263.014
39.89000 256.783
39.90000 251.320
39.91000 250.800
39.92000 251.162
39.93000 253.371
39.94000 263.216
39.95000 273.892
39.96000 281.844
39.97000 277.476
39.98000 273.521
39.99000 270.091
40.00000 267.638
40.01000 265.207
40.02000 262.342
40.03000 258.941
40.04000 255.546
40.05000 254.764
40.06000 256.033
40.07000 257.271
40.08000 257.236
40.09000 256.537
40.10000 255.951
40.11000 257.224
40.12000 259.151
40.13000 260.916
40.14000 260.295
40.15000 259.244
40.16000 258.571
40.17000 259.944
40.18000 261.625
40.19000 263.426
40.20000 265.659
40.21000 267.929
40.22000 269.548
40.23000 272.254
40.24000 274.352
40.25000 274.110
40.26000 270.123
40.27000 266.087
40.28000 261.358
40.29000 255.908
40.30000 250.487
40.31000 246.525
40.32000 243.582
40.33000 240.862
40.34000 244.290
40.35000 250.489
40.36000 256.363
40.37000 258.097
40.38000 258.574
40.39000 259.003
40.40000 257.398
40.41000 255.639
40.42000 253.819
40.43000 251.723
40.44000 249.592
40.45000 247.046
40.46000 243.233
40.47000 239.332
40.48000 236.683
40.49000 238.549
40.50000 240.044
40.51000 238.447
40.52000 232.612
40.53000 226.761
40.54000 230.335
40.55000 242.201
40.56000 253.936
40.57000 253.449
40.58000 246.068
40.59000 238.999
40.60000 238.144
40.61000 239.709
40.62000 240.827
40.63000 237.405
40.64000 232.800
40.65000 228.762
40.66000 236.484
40.67000 244.820
40.68000 250.520
40.69000 245.850
40.70000 240.123
40.71000 237.224
40.72000 241.770
40.73000 246.709
40.74000 249.889
40.75000 244.945
40.76000 241.222
40.77000 242.672
40.78000 250.164
40.79000 257.629
40.80000 258.008
40.81000 253.082
40.82000 248.246
40.83000 245.070
40.84000 242.803
40.85000 240.757
40.86000 242.030
40.87000 244.419
40.88000 246.841
40.89000 249.535
40.90000 252.289
40.91000 254.642
40.92000 251.133
40.93000 247.477
40.94000 243.970
40.95000 240.965
40.96000 238.002
40.97000 237.730
40.98000 243.576
40.99000 249.659
41.00000 253.346
41.01000 260.092
41.02000 264.926
41.03000 262.017
41.04000 251.465
41.05000 240.985
41.06000 236.589
41.07000 236.092
41.08000 235.609
41.09000 238.382
41.10000 242.351
41.11000 245.757
41.12000 242.505
41.13000 237.328
41.14000 232.792
41.15000 232.662
41.16000 233.368
41.17000 233.954
41.18000 234.436
41.19000 234.825
41.20000 236.096
41.21000 239.937
41.22000 243.941
41.23000 246.190
41.24000 244.995
41.25000 243.709
41.26000 242.981
41.27000 242.238
41.28000 241.721
41.29000 241.045
41.30000 240.234
41.31000 239.406
41.32000 237.708
41.33000 235.531
41.34000 233.439
41.35000 236.492
41.36000 241.143
41.37000 245.338
41.38000 245.208
41.39000 244.003
41.40000 243.524
41.41000 247.225
41.42000 251.594
41.43000 255.107
41.44000 252.045
41.45000 249.055
41.46000 244.708
41.47000 236.954
41.48000 229.036
41.49000 226.793
41.50000 234.139
41.51000 241.641
41.52000 245.585
41.53000 248.845
41.54000 251.028
41.55000 249.292
41.56000 244.765
41.57000 240.227
41.58000 235.334
41.59000 230.273
41.60000 225.473
41.61000 230.723
41.62000 238.529
41.63000 245.195
41.64000 242.978
41.65000 238.877
41.66000 234.973
41.67000 232.025
41.68000 229.205
41.69000 227.017
41.70000 234.006
41.71000 240.115
41.72000 242.572
41.73000 237.108
41.74000 231.371
41.75000 229.063
41.76000 231.730
41.77000 234.437
41.78000 235.232
41.79000 234.241
41.80000 233.240
41.81000 231.573
41.82000 229.500
41.83000 227.560
41.84000 228.578
41.85000 230.810
41.86000 232.893
41.87000 234.975
41.88000 236.862
41.89000 238.704
41.90000 240.254
41.91000 241.751
41.92000 242.885
41.93000 242.508
41.94000 241.965
41.95000 241.560
41.96000 242.923
41.97000 244.065
41.98000 244.125
41.99000 242.159
42.00000 240.147
42.01000 240.719
42.02000 244.492
42.03000 248.267
42.04000 248.287
42.05000 245.343
42.06000 242.333
42.07000 236.605
42.08000 229.448
42.09000 222.766
42.10000 223.946
42.11000 227.912
42.12000 231.547
42.13000 231.928
42.14000 231.583
42.15000 231.627
42.16000 233.793
42.17000 236.281
42.18000 237.677
42.19000 235.182
42.20000 232.341
42.21000 230.312
42.22000 226.989
42.23000 224.410
42.24000 224.655
42.25000 229.446
42.26000 234.297
42.27000 236.518
42.28000 235.976
42.29000 235.436
42.30000 234.132
42.31000 232.331
42.32000 230.542
42.33000 229.059
42.34000 227.716
42.35000 226.659
42.36000 229.282
42.37000 233.030
42.38000 236.395
42.39000 234.869
42.40000 232.672
42.41000 230.319
42.42000 227.244
42.43000 224.078
42.44000 222.995
42.45000 228.303
42.46000 234.058
42.47000 237.975
42.48000 237.023
42.49000 236.201
42.50000 235.192
42.51000 233.926
42.52000 232.659
42.53000 232.200
42.54000 232.456
42.55000 232.710
42.56000 230.674
42.57000 227.383
42.58000 224.160
42.59000 222.324
42.60000 221.031
42.61000 219.531
42.62000 215.910
42.63000 211.732
42.64000 208.065
42.65000 217.137
42.66000 226.794
42.67000 235.130
42.68000 238.237
42.69000 240.807
42.70000 242.552
42.71000 242.117
42.72000 241.565
42.73000 241.209
42.74000 228.721
42.75000 219.424
42.76000 215.609
42.77000 218.242
42.78000 220.887
42.79000 223.788
42.80000 226.883
42.81000 229.922
42.82000 233.112
42.83000 236.264
42.84000 239.063
42.85000 236.478
42.86000 232.075
42.87000 228.111
42.88000 227.824
42.89000 228.362
42.90000 228.823
42.91000 232.981
42.92000 236.931
42.93000 238.109
42.94000 229.863
42.95000 220.840
42.96000 215.035
42.97000 216.585
42.98000 218.423
42.99000 219.540
43.00000 223.333
43.01000 226.061
43.02000 226.372
43.03000 224.281
43.04000 222.218
43.05000 222.652
43.06000 224.698
43.07000 226.688
43.08000 224.206
43.09000 220.001
43.10000 216.271
43.11000 218.196
43.12000 221.767
43.13000 225.165
43.14000 227.369
43.15000 229.344
43.16000 230.986
43.17000 231.668
43.18000 232.139
43.19000 231.930
43.20000 229.732
43.21000 227.406
43.22000 225.351
43.23000 223.833
43.24000 222.328
43.25000 221.473
43.26000 224.733
43.27000 227.017
43.28000 229.376
43.29000 231.799
43.30000 234.115
43.31000 231.200
43.32000 225.382
43.33000 219.787
43.34000 216.338
43.35000 213.857
43.36000 211.873
43.37000 214.660
43.38000 218.638
43.39000 222.288
43.40000 224.032
43.41000 225.469
43.42000 226.626
43.43000 226.124
43.44000 225.587
43.45000 224.921
43.46000 223.929
43.47000 222.921
43.48000 222.595
43.49000 223.427
43.50000 224.278
43.51000 224.727
43.52000 222.510
43.53000 221.012
43.54000 220.808
43.55000 221.531
43.56000 222.143
43.57000 219.210
43.58000 214.581
43.59000 210.190
43.60000 214.947
43.61000 222.054
43.62000 228.401
43.63000 228.773
43.64000 227.871
43.65000 226.034
43.66000 219.605
43.67000 212.559
43.68000 207.084
43.69000 214.983
43.70000 222.081
43.71000 226.793
43.72000 226.303
43.73000 225.632
43.74000 225.404
43.75000 225.824
43.76000 226.249
43.77000 223.684
43.78000 218.308
43.79000 212.974
43.80000 210.670
43.81000 210.227
43.82000 209.884
43.83000 211.774
43.84000 214.586
43.85000 217.212
43.86000 216.060
43.87000 214.064
43.88000 212.582
43.89000 214.461
43.90000 216.947
43.91000 219.511
43.92000 222.393
43.93000 225.311
43.94000 227.492
43.95000 221.639
43.96000 216.705
43.97000 215.341
43.98000 220.694
43.99000 226.204
44.00000 227.422
44.01000 223.291
44.02000 219.151
44.03000 217.481
44.04000 217.780
44.05000 218.113
44.06000 219.856
44.07000 222.345
44.08000 224.483
44.09000 220.758
44.10000 214.942
44.11000 209.607
44.12000 210.072
44.13000 211.715
44.14000 213.141
44.15000 213.373
44.16000 213.424
44.17000 213.440
44.18000 213.331
44.19000 213.211
44.20000 213.125
44.21000 218.259
44.22000 222.355
44.23000 223.184
44.24000 218.723
44.25000 214.189
44.26000 209.399
44.27000 204.337
44.28000 199.302
44.29000 201.875
44.30000 209.542
44.31000 216.870
44.32000 214.633
44.33000 208.033
44.34000 202.178
44.35000 205.999
44.36000 212.793
44.37000 218.901
44.38000 217.616
44.39000 215.179
44.40000 214.227
44.41000 220.196
44.42000 227.041
44.43000 232.022
44.44000 231.247
44.45000 230.066
44.46000 229.260
44.47000 222.304
44.48000 216.961
44.49000 215.650
44.50000 219.938
44.51000 224.260
44.52000 226.933
44.53000 228.134
44.54000 229.323
44.55000 229.902
44.56000 230.119
44.57000 230.217
44.58000 227.896
44.59000 224.622
44.60000 222.136
44.61000 227.800
44.62000 235.616
44.63000 242.483
44.64000 243.676
44.65000 243.866
44.66000 243.303
44.67000 239.742
44.68000 235.870
44.69000 233.704
44.70000 236.081
44.71000 238.705
44.72000 240.401
44.73000 236.244
44.74000 233.119
44.75000 232.304
44.76000 234.223
44.77000 236.149
44.78000 238.463
44.79000 241.071
44.80000 243.634
44.81000 241.150
44.82000 236.293
44.83000 232.136
44.84000 238.724
44.85000 248.966
44.86000 258.074
44.87000 257.630
44.88000 255.028
44.89000 252.799
44.90000 255.168
44.91000 257.724
44.92000 260.329
44.93000 263.101
44.94000 265.888
44.95000 269.357
44.96000 274.395
44.97000 279.496
44.98000 282.604
44.99000 279.546
45.00000 277.311
45.01000 282.151
45.02000 294.071
45.03000 305.929
45.04000 312.137
45.05000 314.677
45.06000 317.149
45.07000 318.117
45.08000 318.415
45.09000 318.891
45.10000 321.503
45.11000 324.740
45.12000 327.356
45.13000 325.638
45.14000 323.088
45.15000 320.965
45.16000 325.383
45.17000 329.685
45.18000 331.346
45.19000 325.226
45.20000 318.599
45.21000 313.344
45.22000 310.810
45.23000 308.351
45.24000 306.949
45.25000 296.954
45.26000 289.963
45.27000 287.972
45.28000 290.209
45.29000 292.318
45.30000 287.960
45.31000 279.994
45.32000 272.329
45.33000 270.856
45.34000 271.657
45.35000 271.855
45.36000 266.224
45.37000 259.127
45.38000 253.422
45.39000 255.846
45.40000 259.587
45.41000 262.603
45.42000 250.586
45.43000 239.643
45.44000 233.091
45.45000 237.694
45.46000 242.847
45.47000 244.512
45.48000 240.212
45.49000 235.810
45.50000 233.481
45.51000 231.931
45.52000 230.854
45.53000 226.000
45.54000 218.421
45.55000 211.093
45.56000 211.863
45.57000 216.529
45.58000 220.959
45.59000 219.344
45.60000 216.045
45.61000 212.759
45.62000 209.581
45.63000 206.427
45.64000 204.556
45.65000 209.029
45.66000 214.361
45.67000 218.511
45.68000 214.932
45.69000 211.607
45.70000 208.828
45.71000 207.245
45.72000 205.705
45.73000 203.898
45.74000 201.700
45.75000 199.499
45.76000 198.924
45.77000 199.890
45.78000 200.904
45.79000 205.398
45.80000 212.044
45.81000 218.320
45.82000 216.198
45.83000 210.588
45.84000 205.344
45.85000 202.377
45.86000 200.261
45.87000 198.403
45.88000 198.250
45.89000 198.407
45.90000 198.765
45.91000 199.969
45.92000 201.267
45.93000 202.239
45.94000 200.883
45.95000 199.716
45.96000 199.482
45.97000 201.013
45.98000 202.585
45.99000 202.011
46.00000 198.743
46.01000 195.472
46.02000 196.608
46.03000 201.265
46.04000 205.884
46.05000 208.925
46.06000 211.125
46.07000 212.794
46.08000 205.472
46.09000 194.926
46.10000 185.243
46.11000 192.831
46.12000 203.284
46.13000 211.193
46.14000 205.034
46.15000 196.718
46.16000 191.186
46.17000 195.707
46.18000 201.135
46.19000 205.028
46.20000 206.278
46.21000 207.143
46.22000 205.375
46.23000 199.314
46.24000 193.192
46.25000 192.955
46.26000 198.980
46.27000 204.976
46.28000 208.616
46.29000 210.617
46.30000 212.478
46.31000 210.367
46.32000 206.431
46.33000 203.112
46.34000 207.851
46.35000 215.082
46.36000 221.587
46.37000 218.709
46.38000 214.509
46.39000 210.647
46.40000 208.370
46.41000 206.295
46.42000 204.553
46.43000 203.844
46.44000 203.209
46.45000 202.774
46.46000 202.006
46.47000 201.422
46.48000 202.929
46.49000 207.356
46.50000 211.798
46.51000 209.350
46.52000 200.717
46.53000 192.173
46.54000 191.532
46.55000 195.459
46.56000 199.306
46.57000 201.515
46.58000 203.075
46.59000 204.587
46.60000 205.592
46.61000 206.463
46.62000 207.229
46.63000 201.067
46.64000 194.736
46.65000 190.766
46.66000 196.255
46.67000 202.733
46.68000 207.891
46.69000 209.511
46.70000 210.937
46.71000 211.861
46.72000 202.652
46.73000 195.760
46.74000 194.805
46.75000 200.925
46.76000 207.038
46.77000 208.698
46.78000 206.961
46.79000 205.254
46.80000 204.283
46.81000 203.706
46.82000 202.970
46.83000 199.762
46.84000 195.709
46.85000 192.319
46.86000 194.570
46.87000 198.103
46.88000 201.132
46.89000 202.102
46.90000 202.669
46.91000 202.025
46.92000 197.214
46.93000 192.053
46.94000 189.565
46.95000 193.261
46.96000 197.205
46.97000 199.614
46.98000 196.666
46.99000 194.514
47.00000 193.926
47.01000 194.916
47.02000 195.844
47.03000 191.042
47.04000 182.498
47.05000 174.180
47.06000 173.819
47.07000 176.794
47.08000 179.532
47.09000 179.383
47.10000 178.384
47.11000 177.788
47.12000 180.028
47.13000 182.817
47.14000 185.141
47.15000 187.980
47.16000 190.385
47.17000 190.868
47.18000 185.662
47.19000 180.081
47.20000 178.563
47.21000 185.158
47.22000 191.978
47.23000 195.877
47.24000 197.320
47.25000 198.312
47.26000 195.224
47.27000 188.661
47.28000 182.226
47.29000 182.331
47.30000 186.108
47.31000 189.744
47.32000 188.248
47.33000 185.023
47.34000 181.844
47.35000 179.113
47.36000 176.496
47.37000 174.285
47.38000 174.459
47.39000 175.023
47.40000 175.478
47.41000 184.103
47.42000 191.762
47.43000 196.728
47.44000 194.810
47.45000 192.549
47.46000 189.134
47.47000 183.732
47.48000 178.296
47.49000 175.411
47.50000 179.443
47.51000 182.196
47.52000 185.911
47.53000 190.324
47.54000 194.567
47.55000 193.260
47.56000 189.266
47.57000 185.472
47.58000 184.246
47.59000 183.887
47.60000 183.849
47.61000 186.371
47.62000 189.446
47.63000 191.543
47.64000 188.771
47.65000 185.334
47.66000 182.655
47.67000 186.049
47.68000 189.130
47.69000 190.264
47.70000 187.101
47.71000 183.783
47.72000 181.722
47.73000 181.519
47.74000 181.333
47.75000 181.816
47.76000 182.936
47.77000 184.016
47.78000 182.131
47.79000 178.401
47.80000 174.760
47.81000 173.169
47.82000 172.434
47.83000 171.746
47.84000 173.175
47.85000 175.013
47.86000 177.011
47.87000 180.075
47.88000 183.335
47.89000 185.760
47.90000 184.647
47.91000 183.137
47.92000 182.005
47.93000 186.599
47.94000 190.457
47.95000 193.050
47.96000 193.231
47.97000 193.355
47.98000 192.445
47.99000 190.233
48.00000 188.019
48.01000 185.307
48.02000 182.205
48.03000 179.192
48.04000 180.116
48.05000 183.147
48.06000 185.961
48.07000 185.055
48.08000 182.808
48.09000 180.744
48.10000 178.379
48.11000 176.204
48.12000 174.639
48.13000 176.469
48.14000 178.825
48.15000 181.062
48.16000 182.873
48.17000 184.645
48.18000 185.917
48.19000 182.737
48.20000 180.150
48.21000 176.658
48.22000 171.685
48.23000 166.690
48.24000 167.805
48.25000 175.467
48.26000 183.093
48.27000 185.258
48.28000 183.671
48.29000 182.046
48.30000 179.312
48.31000 176.066
48.32000 173.038
48.33000 172.893
48.34000 173.644
48.35000 174.321
48.36000 175.865
48.37000 177.375
48.38000 178.165
48.39000 175.554
48.40000 172.506
48.41000 171.684
48.42000 177.817
48.43000 184.453
48.44000 188.998
48.45000 189.358
48.46000 189.528
48.47000 189.314
48.48000 188.562
48.49000 187.805
48.50000 185.294
48.51000 181.197
48.52000 177.141
48.53000 177.779
48.54000 181.125
48.55000 184.358
48.56000 185.224
48.57000 185.146
48.58000 184.684
48.59000 180.172
48.60000 174.578
48.61000 169.654
48.62000 172.096
48.63000 175.300
48.64000 178.554
48.65000 182.004
48.66000 185.475
48.67000 186.905
48.68000 182.831
48.69000 178.453
48.70000 175.609
48.71000 178.995
48.72000 181.570
48.73000 181.885
48.74000 179.487
48.75000 177.089
48.76000 175.747
48.77000 175.218
48.78000 174.697
48.79000 174.702
48.80000 174.967
48.81000 175.280
48.82000 176.362
48.83000 177.707
48.84000 178.979
48.85000 179.623
48.86000 180.122
48.87000 180.551
48.88000 180.405
48.89000 180.210
48.90000 179.364
48.91000 176.260
48.92000 172.965
48.93000 171.711
48.94000 175.210
48.95000 178.902
48.96000 181.163
48.97000 178.432
48.98000 176.434
48.99000 177.127
49.00000 180.552
49.01000 183.938
49.02000 183.690
49.03000 181.056
49.04000 178.489
49.05000 177.956
49.06000 178.301
49.07000 178.452
49.08000 176.218
49.09000 173.278
49.10000 171.216
49.11000 175.366
49.12000 180.726
49.13000 185.197
49.14000 180.345
49.15000 175.388
49.16000 172.746
49.17000 177.002
49.18000 181.718
49.19000 185.049
49.20000 185.596
49.21000 186.064
49.22000 186.333
49.23000 179.812
49.24000 175.233
49.25000 172.403
49.26000 171.072
49.27000 169.756
49.28000 169.193
49.29000 169.054
49.30000 168.921
49.31000 170.226
49.32000 171.965
49.33000 173.512
49.34000 173.165
49.35000 172.335
49.36000 171.841
49.37000 173.333
49.38000 175.152
49.39000 176.622
49.40000 176.857
49.41000 176.949
49.42000 176.902
49.43000 176.497
49.44000 176.074
49.45000 176.453
49.46000 178.222
49.47000 180.015
49.48000 180.970
49.49000 178.401
49.50000 176.652
49.51000 175.219
49.52000 174.019
49.53000 172.852
49.54000 172.781
49.55000 173.245
49.56000 173.685
49.57000 171.786
49.58000 169.322
49.59000 167.390
49.60000 169.743
49.61000 173.027
49.62000 175.668
49.63000 175.084
49.64000 174.058
49.65000 173.256
49.66000 174.512
49.67000 175.643
49.68000 175.466
49.69000 172.388
49.70000 169.204
49.71000 168.155
49.72000 170.282
49.73000 172.439
49.74000 172.385
49.75000 170.208
49.76000 168.052
49.77000 167.513
49.78000 167.987
49.79000 168.408
49.80000 167.599
49.81000 166.273
49.82000 165.032
49.83000 171.201
49.84000 178.711
49.85000 184.971
49.86000 182.887
49.87000 179.263
49.88000 175.083
49.89000 168.537
49.90000 161.722
49.91000 156.605
49.92000 165.131
49.93000 172.447
49.94000 177.546
49.95000 178.399
49.96000 179.146
49.97000 180.519
49.98000 182.688
49.99000 184.855
50.00000 183.203
50.01000 178.458
50.02000 173.803
50.03000 173.120
50.04000 174.576
50.05000 175.849
50.06000 173.973
50.07000 170.954
50.08000 168.178
50.09000 171.840
50.10000 176.505
50.11000 179.937
50.12000 176.454
50.13000 171.895
50.14000 168.881
50.15000 171.511
50.16000 174.661
50.17000 176.928
50.18000 175.036
50.19000 173.442
50.20000 173.081
50.21000 174.756
50.22000 176.460
50.23000 176.693
50.24000 175.337
50.25000 173.987
50.26000 174.300
50.27000 175.751
50.28000 177.201
50.29000 178.596
50.30000 179.965
50.31000 181.385
50.32000 183.484
50.33000 185.794
50.34000 187.877
50.35000 189.901
50.36000 191.666
50.37000 193.480
50.38000 195.528
50.39000 197.606
50.40000 198.342
50.41000 194.856
50.42000 191.062
50.43000 188.458
50.44000 193.896
50.45000 198.168
50.46000 200.681
50.47000 200.705
50.48000 200.710
50.49000 199.006
50.50000 195.747
50.51000 192.520
50.52000 197.745
50.53000 207.792
50.54000 217.528
50.55000 220.689
50.56000 221.213
50.57000 222.247
50.58000 228.690
50.59000 236.588
50.60000 243.548
50.61000 244.511
50.62000 244.436
50.63000 244.587
50.64000 245.656
50.65000 246.823
50.66000 246.740
50.67000 243.272
50.68000 239.615
50.69000 237.234
50.70000 243.538
50.71000 248.296
50.72000 250.467
50.73000 249.515
50.74000 248.564
50.75000 249.502
50.76000 251.902
50.77000 254.261
50.78000 253.377
50.79000 250.912
50.80000 248.428
50.81000 245.653
50.82000 242.777
50.83000 240.040
50.84000 238.504
50.85000 237.244
50.86000 236.163
50.87000 236.200
50.88000 236.371
50.89000 235.087
50.90000 228.740
50.91000 221.959
50.92000 216.813
50.93000 215.495
50.94000 214.334
50.95000 213.622
50.96000 215.027
50.97000 216.053
50.98000 215.092
50.99000 212.103
51.00000 209.084
51.01000 203.272
51.02000 195.612
51.03000 188.148
51.04000 185.398
51.05000 184.767
51.06000 183.903
51.07000 180.161
51.08000 175.561
51.09000 171.674
51.10000 172.872
51.11000 175.066
51.12000 176.899
51.13000 171.399
51.14000 166.094
51.15000 163.343
51.16000 168.249
51.17000 173.671
51.18000 177.479
51.19000 178.029
51.20000 178.485
51.21000 178.748
51.22000 175.530
51.23000 173.269
51.24000 172.781
51.25000 173.824
51.26000 174.811
51.27000 172.770
51.28000 169.010
51.29000 165.386
51.30000 161.423
51.31000 157.578
51.32000 154.423
51.33000 158.126
51.34000 163.584
51.35000 168.632
51.36000 171.237
51.37000 173.437
51.38000 175.217
51.39000 171.478
51.40000 167.987
51.41000 166.333
51.42000 169.429
51.43000 172.767
51.44000 174.062
51.45000 171.798
51.46000 169.469
51.47000 168.225
51.48000 167.107
51.49000 166.363
51.50000 168.838
51.51000 173.678
51.52000 178.301
51.53000 175.523
51.54000 169.120
51.55000 163.030
51.56000 160.743
51.57000 159.789
51.58000 159.300
51.59000 162.575
51.60000 166.674
51.61000 170.084
51.62000 170.020
51.63000 169.474
51.64000 169.048
51.65000 166.159
51.66000 163.696
51.67000 162.834
51.68000 165.544
51.69000 168.386
51.70000 168.963
51.71000 166.148
51.72000 163.301
51.73000 160.252
51.74000 157.009
51.75000 153.820
51.76000 154.856
51.77000 158.553
51.78000 162.197
51.79000 164.601
51.80000 166.481
51.81000 168.241
51.82000 164.799
51.83000 160.324
51.84000 157.106
51.85000 162.340
51.86000 169.146
51.87000 173.932
51.88000 170.041
51.89000 165.159
51.90000 161.486
51.91000 167.136
51.92000 172.008
51.93000 175.169
51.94000 175.035
51.95000 174.818
51.96000 171.623
51.97000 164.618
51.98000 157.608
51.99000 152.066
52.00000 147.742
52.01000 143.642
52.02000 149.791
52.03000 161.492
52.04000 172.490
52.05000 171.199
52.06000 165.422
52.07000 160.106
52.08000 159.110
52.09000 159.162
52.10000 159.618
52.11000 162.361
52.12000 165.462
52.13000 168.184
52.14000 169.515
52.15000 170.716
52.16000 171.582
52.17000 168.804
52.18000 166.545
52.19000 162.449
52.20000 155.304
52.21000 148.113
52.22000 146.701
52.23000 151.567
52.24000 156.413
52.25000 158.420
52.26000 158.443
52.27000 158.342
52.28000 154.561
52.29000 149.061
52.30000 144.198
52.31000 147.938
52.32000 154.387
52.33000 160.204
52.34000 164.416
52.35000 167.823
52.36000 170.236
52.37000 167.899
52.38000 164.941
52.39000 162.583
52.40000 162.119
52.41000 161.794
52.42000 161.571
52.43000 165.163
52.44000 167.952
52.45000 168.665
52.46000 166.422
52.47000 164.158
52.48000 164.419
52.49000 166.993
52.50000 169.542
52.51000 165.978
52.52000 158.895
52.53000 152.302
52.54000 156.166
52.55000 164.249
52.56000 171.279
52.57000 167.040
52.58000 159.751
52.59000 153.322
52.60000 156.276
52.61000 160.249
52.62000 163.450
52.63000 163.498
52.64000 163.209
52.65000 162.640
52.66000 161.304
52.67000 159.925
52.68000 159.025
52.69000 152.153
52.70000 147.015
52.71000 144.906
52.72000 146.478
52.73000 148.053
52.74000 148.310
52.75000 147.541
52.76000 146.785
52.77000 150.588
52.78000 156.548
52.79000 162.109
52.80000 161.266
52.81000 158.193
52.82000 155.401
52.83000 155.046
52.84000 155.256
52.85000 155.437
52.86000 159.136
52.87000 162.707
52.88000 164.753
52.89000 161.459
52.90000 157.704
52.91000 155.303
52.92000 156.093
52.93000 157.016
52.94000 157.585
52.95000 146.219
52.96000 137.960
52.97000 138.203
52.98000 147.196
52.99000 156.102
53.00000 156.306
53.01000 150.720
53.02000 145.274
53.03000 145.073
53.04000 147.113
53.05000 149.241
53.06000 152.472
53.07000 156.033
53.08000 159.210
53.09000 159.629
53.10000 159.503
53.11000 159.398
53.12000 160.937
53.13000 162.383
53.14000 162.716
53.15000 159.695
53.16000 156.446
53.17000 154.710
53.18000 156.048
53.19000 157.475
53.20000 158.299
53.21000 159.243
53.22000 159.900
53.23000 157.019
53.24000 151.065
53.25000 145.265
53.26000 147.841
53.27000 155.206
53.28000 162.306
53.29000 165.110
53.30000 166.192
53.31000 167.333
53.32000 169.070
53.33000 170.960
53.34000 171.540
53.35000 164.257
53.36000 155.661
53.37000 148.695
53.38000 155.072
53.39000 161.356
53.40000 165.709
53.41000 165.033
53.42000 164.098
53.43000 162.146
53.44000 158.414
53.45000 154.648
53.46000 152.631
53.47000 155.047
53.48000 156.692
53.49000 157.109
53.50000 156.616
53.51000 156.165
53.52000 157.181
53.53000 158.919
53.54000 160.574
53.55000 160.224
53.56000 159.284
53.57000 158.596
53.58000 159.966
53.59000 161.789
53.60000 162.874
53.61000 160.206
53.62000 157.015
53.63000 154.517
53.64000 151.436
53.65000 148.937
53.66000 145.946
53.67000 141.847
53.68000 137.707
53.69000 137.900
53.70000 144.616
53.71000 151.398
53.72000 153.172
53.73000 150.068
53.74000 146.992
53.75000 146.060
53.76000 146.488
53.77000 146.993
53.78000 149.356
53.79000 152.509
53.80000 155.465
53.81000 156.841
53.82000 157.684
53.83000 157.959
53.84000 154.395
53.85000 150.112
53.86000 147.108
53.87000 149.632
53.88000 152.793
53.89000 155.174
53.90000 151.137
53.91000 147.663
53.92000 145.379
53.93000 145.404
53.94000 145.488
53.95000 146.937
53.96000 150.145
53.97000 153.356
53.98000 155.328
53.99000 156.275
54.00000 157.225
54.01000 158.314
54.02000 159.480
54.03000 160.458
54.04000 158.138
54.05000 154.607
54.06000 151.355
54.07000 145.151
54.08000 138.952
54.09000 133.786
54.10000 134.485
54.11000 136.109
54.12000 137.140
54.13000 135.974
54.14000 134.602
54.15000 133.612
54.16000 139.137
54.17000 143.610
54.18000 147.758
54.19000 151.363
54.20000 154.960
54.21000 156.514
54.22000 155.835
54.23000 155.158
54.24000 156.114
54.25000 158.197
54.26000 160.165
54.27000 158.659
54.28000 155.520
54.29000 152.646
54.30000 153.392
54.31000 155.284
54.32000 156.993
54.33000 157.466
54.34000 157.654
54.35000 156.941
54.36000 151.889
54.37000 146.266
54.38000 142.138
54.39000 142.766
54.40000 143.748
54.41000 144.424
54.42000 144.343
54.43000 144.263
54.44000 146.105
54.45000 150.703
54.46000 155.321
54.47000 155.066
54.48000 150.316
54.49000 145.611
54.50000 143.307
54.51000 142.468
54.52000 141.866
54.53000 146.377
54.54000 152.963
54.55000 158.714
54.56000 155.453
54.57000 149.737
54.58000 144.691
54.59000 149.077
54.60000 154.306
54.61000 158.228
54.62000 156.776
54.63000 154.743
54.64000 152.483
54.65000 149.600
54.66000 146.680
54.67000 144.771
54.68000 148.110
54.69000 150.648
54.70000 154.822
54.71000 160.999
54.72000 167.161
54.73000 168.112
54.74000 164.982
54.75000 161.903
54.76000 157.682
54.77000 153.021
54.78000 148.683
54.79000 149.570
54.80000 152.287
54.81000 154.915
54.82000 156.760
54.83000 158.422
54.84000 159.853
54.85000 160.098
54.86000 160.156
54.87000 160.557
54.88000 162.168
54.89000 163.884
54.90000 163.768
54.91000 159.309
54.92000 154.667
54.93000 151.802
54.94000 150.356
54.95000 149.331
54.96000 150.003
54.97000 152.433
54.98000 154.838
54.99000 154.560
55.00000 152.488
55.01000 150.467
55.02000 153.950
55.03000 159.634
55.04000 164.951
55.05000 165.641
55.06000 164.934
55.07000 164.027
55.08000 161.676
55.09000 159.038
55.10000 156.829
55.11000 151.169
55.12000 146.109
55.13000 142.774
55.14000 144.672
55.15000 146.930
55.16000 151.076
55.17000 159.084
55.18000 167.206
55.19000 171.903
55.20000 170.556
55.21000 169.584
55.22000 165.520
55.23000 158.753
55.24000 152.130
55.25000 153.503
55.26000 159.476
55.27000 165.238
55.28000 169.298
55.29000 172.498
55.30000 175.108
55.31000 171.769
55.32000 166.887
55.33000 162.360
55.34000 159.979
55.35000 157.959
55.36000 156.320
55.37000 164.403
55.38000 171.794
55.39000 176.592
55.40000 174.602
55.41000 172.257
55.42000 170.937
55.43000 171.425
55.44000 171.947
55.45000 172.228
55.46000 174.972
55.47000 176.845
55.48000 177.991
55.49000 178.596
55.50000 179.296
55.51000 183.297
55.52000 188.934
55.53000 194.302
55.54000 196.957
55.55000 198.577
55.56000 200.369
55.57000 203.584
55.58000 207.115
55.59000 211.238
55.60000 218.389
55.61000 225.966
55.62000 231.906
55.63000 233.375
55.64000 234.260
55.65000 238.151
55.66000 248.834
55.67000 259.776
55.68000 270.544
55.69000 281.047
55.70000 291.547
55.71000 303.347
55.72000 316.422
55.73000 329.543
55.74000 346.546
55.75000 366.022
55.76000 385.245
55.77000 398.314
55.78000 408.751
55.79000 418.538
55.80000 436.605
55.81000 455.228
55.82000 472.334
55.83000 479.088
55.84000 483.890
55.85000 492.208
55.86000 515.814
55.87000 541.197
55.88000 560.352
55.89000 573.160
55.90000 582.881
55.91000 593.177
55.92000 604.596
55.93000 616.044
55.94000 626.064
55.95000 634.230
55.96000 642.380
55.97000 643.825
55.98000 639.719
55.99000 635.532
56.00000 627.496
56.01000 617.348
56.02000 607.298
56.03000 598.981
56.04000 591.305
56.05000 584.231
56.06000 565.007
56.07000 545.112
56.08000 527.788
56.09000 525.173
56.10000 524.896
56.11000 519.769
56.12000 496.584
56.13000 471.694
56.14000 453.687
56.15000 443.901
56.16000 436.690
56.17000 425.280
56.18000 406.815
56.19000 388.238
56.20000 371.410
56.21000 356.507
56.22000 341.668
56.23000 331.018
56.24000 323.410
56.25000 315.679
56.26000 304.107
56.27000 290.720
56.28000 277.658
56.29000 269.062
56.30000 261.888
56.31000 255.406
56.32000 242.152
56.33000 229.240
56.34000 218.180
56.35000 216.097
56.36000 215.204
56.37000 212.676
56.38000 204.910
56.39000 196.752
56.40000 191.120
56.41000 189.016
56.42000 187.525
56.43000 185.640
56.44000 183.188
56.45000 180.732
56.46000 178.489
56.47000 176.445
56.48000 174.419
56.49000 172.556
56.50000 170.826
56.51000 168.985
56.52000 164.698
56.53000 159.412
56.54000 154.936
56.55000 159.292
56.56000 166.069
56.57000 172.057
56.58000 166.459
56.59000 159.838
56.60000 154.714
56.61000 155.786
56.62000 157.534
56.63000 158.736
56.64000 158.435
56.65000 158.047
56.66000 157.792
56.67000 158.582
56.68000 159.179
56.69000 158.998
56.70000 157.856
56.71000 156.701
56.72000 152.355
56.73000 145.493
56.74000 138.740
56.75000 140.351
56.76000 146.147
56.77000 151.652
56.78000 152.393
56.79000 151.454
56.80000 150.762
56.81000 152.254
56.82000 154.259
56.83000 155.986
56.84000 152.889
56.85000 149.650
56.86000 147.388
56.87000 148.594
56.88000 150.104
56.89000 150.102
56.90000 146.497
56.91000 142.736
56.92000 140.410
56.93000 143.439
56.94000 145.666
56.95000 148.351
56.96000 151.513
56.97000 154.655
56.98000 155.503
56.99000 154.807
57.00000 154.128
57.01000 151.840
57.02000 148.959
57.03000 146.046
57.04000 142.708
57.05000 139.243
57.06000 137.049
57.07000 144.129
57.08000 153.064
57.09000 160.552
57.10000 154.326
57.11000 147.724
57.12000 143.195
57.13000 144.990
57.14000 147.225
57.15000 148.030
57.16000 145.896
57.17000 143.674
57.18000 142.385
57.19000 145.831
57.20000 148.266
57.21000 148.966
57.22000 148.139
57.23000 147.340
57.24000 148.188
57.25000 149.987
57.26000 151.724
57.27000 151.887
57.28000 151.463
57.29000 151.102
57.30000 151.377
57.31000 151.820
57.32000 151.590
57.33000 147.265
57.34000 142.248
57.35000 138.172
57.36000 140.382
57.37000 142.709
57.38000 145.159
57.39000 147.934
57.40000 150.725
57.41000 150.814
57.42000 146.110
57.43000 141.313
57.44000 138.726
57.45000 140.202
57.46000 141.206
57.47000 140.492
57.48000 138.489
57.49000 136.540
57.50000 136.528
57.51000 137.482
57.52000 138.390
57.53000 137.276
57.54000 135.614
57.55000 134.490
57.56000 137.829
57.57000 142.163
57.58000 145.240
57.59000 141.849
57.60000 137.541
57.61000 134.159
57.62000 136.860
57.63000 139.419
57.64000 140.489
57.65000 138.175
57.66000 135.729
57.67000 134.213
57.68000 134.112
57.69000 134.025
57.70000 136.303
57.71000 140.916
57.72000 145.473
57.73000 145.392
57.74000 142.336
57.75000 139.420
57.76000 139.967
57.77000 142.004
57.78000 143.916
57.79000 144.054
57.80000 143.713
57.81000 143.279
57.82000 142.210
57.83000 141.021
57.84000 140.039
57.85000 139.967
57.86000 140.001
57.87000 140.026
57.88000 141.448
57.89000 142.633
57.90000 142.734
57.91000 140.707
57.92000 138.623
57.93000 137.190
57.94000 136.604
57.95000 136.023
57.96000 138.254
57.97000 142.821
57.98000 147.315
57.99000 148.271
58.00000 147.274
58.01000 146.207
58.02000 143.857
58.03000 141.029
58.04000 138.421
58.05000 138.054
58.06000 138.223
58.07000 138.285
58.08000 137.727
58.09000 137.069
58.10000 137.095
58.11000 139.684
58.12000 142.517
58.13000 144.571
58.14000 138.222
58.15000 133.034
58.16000 131.370
58.17000 135.665
58.18000 140.056
58.19000 140.056
58.20000 135.191
58.21000 130.341
58.22000 127.000
58.23000 124.754
58.24000 122.671
58.25000 125.692
58.26000 131.143
58.27000 136.331
58.28000 137.874
58.29000 138.249
58.30000 138.588
58.31000 132.979
58.32000 126.933
58.33000 122.849
58.34000 128.343
58.35000 135.116
58.36000 140.086
58.37000 139.249
58.38000 137.972
58.39000 137.089
58.40000 142.824
58.41000 147.310
58.42000 149.816
58.43000 149.448
58.44000 149.057
58.45000 148.711
58.46000 148.406
58.47000 148.104
58.48000 145.919
58.49000 142.647
58.50000 139.533
58.51000 139.924
58.52000 141.755
58.53000 143.341
58.54000 142.242
58.55000 140.403
58.56000 138.776
58.57000 137.293
58.58000 136.035
58.59000 135.164
58.60000 135.907
58.61000 136.828
58.62000 137.213
58.63000 136.113
58.64000 134.926
58.65000 134.146
58.66000 131.222
58.67000 129.034
58.68000 129.201
58.69000 132.286
58.70000 135.376
58.71000 137.122
58.72000 137.802
58.73000 138.471
58.74000 137.696
58.75000 136.210
58.76000 134.765
58.77000 134.016
58.78000 133.514
58.79000 133.191
58.80000 134.477
58.81000 136.142
58.82000 137.578
58.83000 135.314
58.84000 132.919
58.85000 130.421
58.86000 127.557
58.87000 124.662
58.88000 122.147
58.89000 120.546
58.90000 118.984
58.91000 118.016
58.92000 125.292
58.93000 130.606
58.94000 134.832
58.95000 137.916
58.96000 140.956
58.97000 139.302
58.98000 134.465
58.99000 129.745
59.00000 129.278
59.01000 130.677
59.02000 131.978
59.03000 132.019
59.04000 131.675
59.05000 131.032
59.06000 128.201
59.07000 124.928
59.08000 122.182
59.09000 125.677
59.10000 129.239
59.11000 131.506
59.12000 129.793
59.13000 127.801
59.14000 126.777
59.15000 127.755
59.16000 128.795
59.17000 129.399
59.18000 136.505
59.19000 141.522
59.20000 143.615
59.21000 143.119
59.22000 142.548
59.23000 137.666
59.24000 130.274
59.25000 123.137
59.26000 122.295
59.27000 123.826
59.28000 125.353
59.29000 126.834
59.30000 128.304
59.31000 129.818
59.32000 131.605
59.33000 133.438
59.34000 134.930
59.35000 135.555
59.36000 135.992
59.37000 136.631
59.38000 137.803
59.39000 139.004
59.40000 137.358
59.41000 130.633
59.42000 123.808
59.43000 120.116
59.44000 130.037
59.45000 136.819
59.46000 138.252
59.47000 135.653
59.48000 133.128
59.49000 133.268
59.50000 134.745
59.51000 136.153
59.52000 132.974
59.53000 128.588
59.54000 124.789
59.55000 125.893
59.56000 128.100
59.57000 129.392
59.58000 125.952
59.59000 121.838
59.60000 118.602
59.61000 120.910
59.62000 123.124
59.63000 125.349
59.64000 127.598
59.65000 129.848
59.66000 129.400
59.67000 124.813
59.68000 120.181
59.69000 118.200
59.70000 118.853
59.71000 119.526
59.72000 121.824
59.73000 125.171
59.74000 128.421
59.75000 129.231
59.76000 128.986
59.77000 128.755
59.78000 129.965
59.79000 131.451
59.80000 132.826
59.81000 133.428
59.82000 133.883
59.83000 133.901
59.84000 131.998
59.85000 129.868
59.86000 128.255
59.87000 128.825
59.88000 129.383
59.89000 129.731
59.90000 129.661
59.91000 129.581
59.92000 129.885
59.93000 130.694
59.94000 131.504
59.95000 132.190
59.96000 132.771
59.97000 133.390
59.98000 135.896
59.99000 139.448
60.00000 142.614
60.01000 138.704
60.02000 132.147
60.03000 126.096
60.04000 129.678
60.05000 135.048
60.06000 139.337
60.07000 137.360
60.08000 134.373
60.09000 132.575
60.10000 135.259
60.11000 138.375
60.12000 140.637
60.13000 139.445
60.14000 138.400
60.15000 137.159
60.16000 135.586
60.17000 134.008
60.18000 132.484
60.19000 131.022
60.20000 129.566
60.21000 128.435
60.22000 127.544
60.23000 126.571
60.24000 122.991
60.25000 118.164
60.26000 114.013
60.27000 119.352
60.28000 127.752
60.29000 135.354
60.30000 134.348
60.31000 131.844
60.32000 129.956
60.33000 131.091
60.34000 132.633
60.35000 132.762
60.36000 128.314
60.37000 123.516
60.38000 120.190
60.39000 123.912
60.40000 126.900
60.41000 129.220
60.42000 130.564
60.43000 131.899
60.44000 130.723
60.45000 127.185
60.46000 123.677
60.47000 125.226
60.48000 129.795
60.49000 134.144
60.50000 133.543
60.51000 130.896
60.52000 128.405
60.53000 127.631
60.54000 127.334
60.55000 127.071
60.56000 130.918
60.57000 134.889
60.58000 137.912
60.59000 136.967
60.60000 135.582
60.61000 133.278
60.62000 128.407
60.63000 123.383
60.64000 120.077
60.65000 125.558
60.66000 129.747
60.67000 130.879
60.68000 128.199
60.69000 125.518
60.70000 126.187
60.71000 129.529
60.72000 132.820
60.73000 133.197
60.74000 132.066
60.75000 131.057
60.76000 132.070
60.77000 133.804
60.78000 135.230
60.79000 133.893
60.80000 131.900
60.81000 130.178
60.82000 135.154
60.83000 140.245
60.84000 143.354
60.85000 139.352
60.86000 134.713
60.87000 132.519
60.88000 136.217
60.89000 140.175
60.90000 142.635
60.91000 140.383
60.92000 138.715
60.93000 136.718
60.94000 134.371
60.95000 132.054
60.96000 133.117
60.97000 136.487
60.98000 139.777
60.99000 140.486
61.00000 140.038
61.01000 139.494
61.02000 137.711
61.03000 135.547
61.04000 133.272
61.05000 130.174
61.06000 126.910
61.07000 124.167
61.08000 127.240
61.09000 130.413
61.10000 133.690
61.11000 137.288
61.12000 140.909
61.13000 143.685
61.14000 144.702
61.15000 145.664
61.16000 146.225
61.17000 146.671
61.18000 146.981
61.19000 143.804
61.20000 137.515
61.21000 131.276
61.22000 128.003
61.23000 126.466
61.24000 124.982
61.25000 127.168
61.26000 130.592
61.27000 133.880
61.28000 135.763
61.29000 137.275
61.30000 138.326
61.31000 136.533
61.32000 134.251
61.33000 132.392
61.34000 131.989
61.35000 131.782
61.36000 131.611
61.37000 131.536
61.38000 131.465
61.39000 130.847
61.40000 129.245
61.41000 127.624
61.42000 126.745
61.43000 134.164
61.44000 139.247
61.45000 141.572
61.46000 141.807
61.47000 142.088
61.48000 144.096
61.49000 146.977
61.50000 149.724
61.51000 153.171
61.52000 156.590
61.53000 160.520
61.54000 168.751
61.55000 177.955
61.56000 187.199
61.57000 196.652
61.58000 206.134
61.59000 213.602
61.60000 221.022
61.61000 226.966
61.62000 231.276
61.63000 231.827
61.64000 232.229
61.65000 236.333
61.66000 246.151
61.67000 256.033
61.68000 260.977
61.69000 255.771
61.70000 252.314
61.71000 250.204
61.72000 248.968
61.73000 247.595
61.74000 242.762
61.75000 236.423
61.76000 230.467
61.77000 225.398
61.78000 221.010
61.79000 215.485
61.80000 202.036
61.81000 187.063
61.82000 173.714
61.83000 167.563
61.84000 162.268
61.85000 158.252
61.86000 152.687
61.87000 148.236
61.88000 145.033
61.89000 144.305
61.90000 143.646
61.91000 141.896
61.92000 138.705
61.93000 135.510
61.94000 134.202
61.95000 134.492
61.96000 134.792
61.97000 135.617
61.98000 136.734
61.99000 137.982
62.00000 141.651
62.01000 146.230
62.02000 150.459
62.03000 146.945
62.04000 142.046
62.05000 138.147
62.06000 140.093
62.07000 142.987
62.08000 144.996
62.09000 143.645
62.10000 141.970
62.11000 140.751
62.12000 140.231
62.13000 139.858
62.14000 139.673
62.15000 139.811
62.16000 139.953
62.17000 141.968
62.18000 146.086
62.19000 150.190
62.20000 149.228
62.21000 144.653
62.22000 140.040
62.23000 134.187
62.24000 127.736
62.25000 121.970
62.26000 125.920
62.27000 133.021
62.28000 139.453
62.29000 142.232
62.30000 143.989
62.31000 144.782
62.32000 140.805
62.33000 136.182
62.34000 133.281
62.35000 135.993
62.36000 139.140
62.37000 141.325
62.38000 137.373
62.39000 134.232
62.40000 133.412
62.41000 136.005
62.42000 138.627
62.43000 139.199
62.44000 137.827
62.45000 136.467
62.46000 139.902
62.47000 146.185
62.48000 152.093
62.49000 149.458
62.50000 143.272
62.51000 137.618
62.52000 137.918
62.53000 139.880
62.54000 141.618
62.55000 139.533
62.56000 137.125
62.57000 135.597
62.58000 137.780
62.59000 140.377
62.60000 141.792
62.61000 139.887
62.62000 137.782
62.63000 136.394
62.64000 135.061
62.65000 134.080
62.66000 133.780
62.67000 134.336
62.68000 134.894
62.69000 135.191
62.70000 135.279
62.71000 135.366
62.72000 135.930
62.73000 136.724
62.74000 137.537
62.75000 138.684
62.76000 139.951
62.77000 141.134
62.78000 141.561
62.79000 141.807
62.80000 142.020
62.81000 139.409
62.82000 136.822
62.83000 135.108
62.84000 136.547
62.85000 138.270
62.86000 140.052
62.87000 141.974
62.88000 143.902
62.89000 145.104
62.90000 142.555
62.91000 140.680
62.92000 141.790
62.93000 146.079
62.94000 150.327
62.95000 149.729
62.96000 145.804
62.97000 141.970
62.98000 142.886
62.99000 145.851
63.00000 148.341
63.01000 144.617
63.02000 138.972
63.03000 134.139
63.04000 135.357
63.05000 137.809
63.06000 139.872
63.07000 143.005
63.08000 145.730
63.09000 146.569
63.10000 141.549
63.11000 136.110
63.12000 132.485
63.13000 132.660
63.14000 132.954
63.15000 133.127
63.16000 138.043
63.17000 141.525
63.18000 144.609
63.19000 147.337
63.20000 150.020
63.21000 149.933
63.22000 148.214
63.23000 146.553
63.24000 147.944
63.25000 150.397
63.26000 152.568
63.27000 151.785
63.28000 150.217
63.29000 148.392
63.30000 144.965
63.31000 141.261
63.32000 138.239
63.33000 142.764
63.34000 147.111
63.35000 149.291
63.36000 145.667
63.37000 141.724
63.38000 138.415
63.39000 136.252
63.40000 134.113
63.41000 132.948
63.42000 138.452
63.43000 142.216
63.44000 141.176
63.45000 136.469
63.46000 131.987
63.47000 135.976
63.48000 144.264
63.49000 152.173
63.50000 152.705
63.51000 150.856
63.52000 149.235
63.53000 149.546
63.54000 150.298
63.55000 150.577
63.56000 148.374
63.57000 145.812
63.58000 143.791
63.59000 148.942
63.60000 153.557
63.61000 155.461
63.62000 151.090
63.63000 146.468
63.64000 142.998
63.65000 141.320
63.66000 139.662
63.67000 138.830
63.68000 149.736
63.69000 156.941
63.70000 157.051
63.71000 152.525
63.72000 148.304
63.73000 151.909
63.74000 158.944
63.75000 165.558
63.76000 166.197
63.77000 165.172
63.78000 163.768
63.79000 159.701
63.80000 155.119
63.81000 151.290
63.82000 150.825
63.83000 150.763
63.84000 150.716
63.85000 147.886
63.86000 145.518
63.87000 143.811
63.88000 143.426
63.89000 143.079
63.90000 145.623
63.91000 152.013
63.92000 158.415
63.93000 158.910
63.94000 154.383
63.95000 149.958
63.96000 150.830
63.97000 154.677
63.98000 158.404
63.99000 159.884
64.00000 160.513
64.01000 161.095
64.02000 162.965
64.03000 164.937
64.04000 165.787
64.05000 160.031
64.06000 153.195
64.07000 148.466
64.08000 151.777
64.09000 155.874
64.10000 158.859
64.11000 156.358
64.12000 154.221
64.13000 152.798
64.14000 152.604
64.15000 152.431
64.16000 152.604
64.17000 153.168
64.18000 153.731
64.19000 154.120
64.20000 154.381
64.21000 154.669
64.22000 155.833
64.23000 157.422
64.24000 159.079
64.25000 161.713
64.26000 164.665
64.27000 167.342
64.28000 160.109
64.29000 151.839
64.30000 145.645
64.31000 149.783
64.32000 155.332
64.33000 159.600
64.34000 159.663
64.35000 159.398
64.36000 159.214
64.37000 156.997
64.38000 155.269
64.39000 154.944
64.40000 156.691
64.41000 158.456
64.42000 159.475
64.43000 159.782
64.44000 160.087
64.45000 158.691
64.46000 156.282
64.47000 154.052
64.48000 155.970
64.49000 159.621
64.50000 163.186
64.51000 165.773
64.52000 168.085
64.53000 170.136
64.54000 169.202
64.55000 167.919
64.56000 166.365
64.57000 163.667
64.58000 160.839
64.59000 159.445
64.60000 162.102
64.61000 165.005
64.62000 166.924
64.63000 165.252
64.64000 163.953
64.65000 163.074
64.66000 162.724
64.67000 162.374
64.68000 161.720
64.69000 160.819
64.70000 159.931
64.71000 163.464
64.72000 169.192
64.73000 174.608
64.74000 174.667
64.75000 172.794
64.76000 171.041
64.77000 170.384
64.78000 169.992
64.79000 169.653
64.80000 174.178
64.81000 178.664
64.82000 182.205
64.83000 182.310
64.84000 182.102
64.85000 180.495
64.86000 175.474
64.87000 170.299
64.88000 167.066
64.89000 173.007
64.90000 177.388
64.91000 181.757
64.92000 186.114
64.93000 190.430
64.94000 189.820
64.95000 185.809
64.96000 181.890
64.97000 177.377
64.98000 172.792
64.99000 168.650
65.00000 170.365
65.01000 173.901
65.02000 177.555
65.03000 182.098
65.04000 186.822
65.05000 190.801
65.06000 192.968
65.07000 194.582
65.08000 195.134
65.09000 192.366
65.10000 189.357
65.11000 188.883
65.12000 193.745
65.13000 198.778
65.14000 201.729
65.15000 201.565
65.16000 201.435
65.17000 202.975
65.18000 206.024
65.19000 209.049
65.20000 210.545
65.21000 211.136
65.22000 211.706
65.23000 219.744
65.24000 230.141
65.25000 239.628
65.26000 239.531
65.27000 236.871
65.28000 234.578
65.29000 234.585
65.30000 234.992
65.31000 235.325
65.32000 246.551
65.33000 256.679
65.34000 265.836
65.35000 272.372
65.36000 278.763
65.37000 283.360
65.38000 284.697
65.39000 285.966
65.40000 286.658
65.41000 299.452
65.42000 308.254
65.43000 316.495
65.44000 324.305
65.45000 332.044
65.46000 337.066
65.47000 340.702
65.48000 344.174
65.49000 351.110
65.50000 358.663
65.51000 366.470
65.52000 376.456
65.53000 386.941
65.54000 394.412
65.55000 385.965
65.56000 375.196
65.57000 366.691
65.58000 390.376
65.59000 411.578
65.60000 425.543
65.61000 422.660
65.62000 419.089
65.63000 426.542
65.64000 451.216
65.65000 476.094
65.66000 488.627
65.67000 486.900
65.68000 485.884
65.69000 497.933
65.70000 518.573
65.71000 539.821
65.72000 576.914
65.73000 620.990
65.74000 662.458
65.75000 701.999
65.76000 737.613
65.77000 773.031
65.78000 807.060
65.79000 840.818
65.80000 872.119
65.81000 892.390
65.82000 911.327
65.83000 925.733
65.84000 921.248
65.85000 916.729
65.86000 917.838
65.87000 930.253
65.88000 942.988
65.89000 942.354
65.90000 923.834
65.91000 905.237
65.92000 880.299
65.93000 849.987
65.94000 819.583
65.95000 784.365
65.96000 746.428
65.97000 707.732
65.98000 654.658
65.99000 596.112
66.00000 541.955
66.01000 488.203
66.02000 440.007
66.03000 396.049
66.04000 377.206
66.05000 362.496
66.06000 348.188
66.07000 335.427
66.08000 322.818
66.09000 313.615
66.10000 301.595
66.11000 292.220
66.12000 285.048
66.13000 281.691
66.14000 278.401
66.15000 276.526
66.16000 276.264
66.17000 276.005
66.18000 274.214
66.19000 271.327
66.20000 268.587
66.21000 270.724
66.22000 275.237
66.23000 279.959
66.24000 287.710
66.25000 296.456
66.26000 304.392
66.27000 305.986
66.28000 306.175
66.29000 309.037
66.30000 325.289
66.31000 343.383
66.32000 358.508
66.33000 363.834
66.34000 368.388
66.35000 371.563
66.36000 383.880
66.37000 393.429
66.38000 396.684
66.39000 390.576
66.40000 384.381
66.41000 385.251
66.42000 392.909
66.43000 400.506
66.44000 398.228
66.45000 389.915
66.46000 381.822
66.47000 378.868
66.48000 378.074
66.49000 376.718
66.50000 368.959
66.51000 359.392
66.52000 350.897
66.53000 344.790
66.54000 339.878
66.55000 333.178
66.56000 318.846
66.57000 303.648
66.58000 294.125
66.59000 300.736
66.60000 308.337
66.61000 313.372
66.62000 310.050
66.63000 307.444
66.64000 303.046
66.65000 296.368
66.66000 289.696
66.67000 288.467
66.68000 291.668
66.69000 294.824
66.70000 296.815
66.71000 298.141
66.72000 299.453
66.73000 300.534
66.74000 301.530
66.75000 302.261
66.76000 300.546
66.77000 298.237
66.78000 296.237
66.79000 302.237
66.80000 308.401
66.81000 311.266
66.82000 302.065
66.83000 291.753
66.84000 285.842
66.85000 290.732
66.86000 296.117
66.87000 299.489
66.88000 306.527
66.89000 311.648
66.90000 310.733
66.91000 303.304
66.92000 295.953
66.93000 298.688
66.94000 308.434
66.95000 317.959
66.96000 320.497
66.97000 319.817
66.98000 319.198
66.99000 319.378
67.00000 319.809
67.01000 319.768
67.02000 316.154
67.03000 311.802
67.04000 308.132
67.05000 308.956
67.06000 310.130
67.07000 312.494
67.08000 318.601
67.09000 324.981
67.10000 327.726
67.11000 322.770
67.12000 317.563
67.13000 314.502
67.14000 335.721
67.15000 350.802
67.16000 357.398
67.17000 356.271
67.18000 355.101
67.19000 351.160
67.20000 345.566
67.21000 340.156
67.22000 339.117
67.23000 339.793
67.24000 340.808
67.25000 345.432
67.26000 351.027
67.27000 356.155
67.28000 358.342
67.29000 360.013
67.30000 361.381
67.31000 358.313
67.32000 355.414
67.33000 353.852
67.34000 355.918
67.35000 358.188
67.36000 359.788
67.37000 360.163
67.38000 360.512
67.39000 360.704
67.40000 368.765
67.41000 374.311
67.42000 377.824
67.43000 379.765
67.44000 381.697
67.45000 383.311
67.46000 384.761
67.47000 386.147
67.48000 382.524
67.49000 377.543
67.50000 373.632
67.51000 378.954
67.52000 386.404
67.53000 393.496
67.54000 398.678
67.55000 403.579
67.56000 407.456
67.57000 397.350
67.58000 388.271
67.59000 384.245
67.60000 392.054
67.61000 400.352
67.62000 403.560
67.63000 398.766
67.64000 393.874
67.65000 391.401
67.66000 415.766
67.67000 431.936
67.68000 434.967
67.69000 429.308
67.70000 423.702
67.71000 419.507
67.72000 415.936
67.73000 412.575
67.74000 418.838
67.75000 427.191
67.76000 434.823
67.77000 437.303
67.78000 438.773
67.79000 442.602
67.80000 457.089
67.81000 472.875
67.82000 484.903
67.83000 479.203
67.84000 473.775
67.85000 470.343
67.86000 470.948
67.87000 471.668
67.88000 468.367
67.89000 459.650
67.90000 450.911
67.91000 450.671
67.92000 457.755
67.93000 464.776
67.94000 468.423
67.95000 470.153
67.96000 471.726
67.97000 470.274
67.98000 467.666
67.99000 465.251
68.00000 472.951
68.01000 482.204
68.02000 490.564
68.03000 493.600
68.04000 495.752
68.05000 497.506
68.06000 497.717
68.07000 497.774
68.08000 497.815
68.09000 503.588
68.10000 508.267
68.11000 511.322
68.12000 511.547
68.13000 511.721
68.14000 516.039
68.15000 525.106
68.16000 534.149
68.17000 536.549
68.18000 534.087
68.19000 531.874
68.20000 538.141
68.21000 548.563
68.22000 558.536
68.23000 561.952
68.24000 563.201
68.25000 564.337
68.26000 574.586
68.27000 585.403
68.28000 593.244
68.29000 586.080
68.30000 576.835
68.31000 571.339
68.32000 578.287
68.33000 586.224
68.34000 591.769
68.35000 603.380
68.36000 612.322
68.37000 618.425
68.38000 620.279
68.39000 622.092
68.40000 626.320
68.41000 632.884
68.42000 639.397
68.43000 650.996
68.44000 665.545
68.45000 679.706
68.46000 684.709
68.47000 685.838
68.48000 687.566
68.49000 696.190
68.50000 706.776
68.51000 716.183
68.52000 720.713
68.53000 723.856
68.54000 729.930
68.55000 748.596
68.56000 768.704
68.57000 788.357
68.58000 806.711
68.59000 824.985
68.60000 837.120
68.61000 878.691
68.62000 909.967
68.63000 951.171
68.64000 1005.084
68.65000 1059.013
68.66000 1100.132
68.67000 1130.755
68.68000 1160.949
68.69000 1208.010
68.70000 1262.618
68.71000 1316.781
68.72000 1363.136
68.73000 1406.640
68.74000 1449.900
68.75000 1490.891
68.76000 1531.329
68.77000 1566.399
68.78000 1603.999
68.79000 1636.355
68.80000 1673.888
68.81000 1730.472
68.82000 1788.824
68.83000 1852.803
68.84000 1930.676
68.85000 2009.194
68.86000 2058.475
68.87000 2236.428
68.88000 2366.450
68.89000 2613.388
68.90000 2987.382
68.91000 3364.364
68.92000 4123.571
68.93000 5150.087
68.94000 6153.812
68.95000 8295.639
68.96000 10859.351
68.97000 13501.800
68.98000 17206.842
68.99000 21246.490
69.00000 25296.059
69.01000 29421.281
69.02000 33562.246
69.03000 37057.441
69.04000 40457.645
69.05000 43288.680
69.06000 45709.516
69.07000 46832.332
69.08000 47859.527
69.09000 48619.184
69.10000 48808.531
69.11000 48979.043
69.12000 49079.539
69.13000 49356.402
69.14000 49552.879
69.15000 50016.391
69.16000 50724.648
69.17000 51424.195
69.18000 51558.016
69.19000 51352.332
69.20000 51153.281
69.21000 49445.801
69.22000 47257.074
69.23000 45021.668
69.24000 42286.039
69.25000 39414.949
69.26000 36630.180
69.27000 34393.914
69.28000 32254.352
69.29000 30502.129
69.30000 28802.783
69.31000 27414.365
69.32000 26241.730
69.33000 25657.891
69.34000 25107.455
69.35000 24521.152
69.36000 23868.908
69.37000 23215.236
69.38000 22856.205
69.39000 21060.381
69.40000 19820.174
69.41000 18098.584
69.42000 16002.307
69.43000 13908.118
69.44000 11896.346
69.45000 9927.169
69.46000 8044.973
69.47000 6611.578
69.48000 5423.564
69.49000 4285.402
69.50000 3580.923
69.51000 2977.031
69.52000 2423.977
69.53000 2143.056
69.54000 1902.418
69.55000 1711.832
69.56000 1597.821
69.57000 1511.490
69.58000 1431.645
69.59000 1367.073
69.60000 1303.142
69.61000 1243.411
69.62000 1190.323
69.63000 1137.318
69.64000 1110.431
69.65000 1072.174
69.66000 1046.600
69.67000 1026.559
69.68000 1010.201
69.69000 993.148
69.70000 957.521
69.71000 913.611
69.72000 872.246
69.73000 858.594
69.74000 853.714
69.75000 846.646
69.76000 823.862
69.77000 797.975
69.78000 774.703
69.79000 763.326
69.80000 753.410
69.81000 745.842
69.82000 740.960
69.83000 737.256
69.84000 732.838
69.85000 726.967
69.86000 721.053
69.87000 713.136
69.88000 702.504
69.89000 691.863
69.90000 684.899
69.91000 681.136
69.92000 677.312
69.93000 670.205
69.94000 661.219
69.95000 652.068
69.96000 639.694
69.97000 626.080
69.98000 613.469
69.99000 615.761
70.00000 621.280
