20.00000 557.204
20.01000 554.220
20.02000 550.811
20.03000 548.255
20.04000 549.015
20.05000 550.107
20.06000 550.907
20.07000 558.533
20.08000 564.692
20.09000 566.917
20.10000 562.254
20.11000 557.464
20.12000 552.413
20.13000 547.062
20.14000 541.727
20.15000 544.379
20.16000 552.866
20.17000 561.095
20.18000 560.443
20.19000 555.419
20.20000 550.091
20.21000 540.277
20.22000 528.974
20.23000 518.703
20.24000 530.043
20.25000 544.270
20.26000 556.393
20.27000 557.852
20.28000 557.824
20.29000 555.782
20.30000 547.025
20.31000 537.729
20.32000 531.226
20.33000 535.169
20.34000 538.446
20.35000 541.949
20.36000 545.793
20.37000 549.641
20.38000 550.973
20.39000 549.857
20.40000 548.751
20.41000 552.084
20.42000 558.124
20.43000 563.738
20.44000 559.151
20.45000 550.228
20.46000 542.055
20.47000 542.566
20.48000 545.558
20.49000 548.220
20.50000 549.821
20.51000 551.039
20.52000 551.792
20.53000 550.537
20.54000 549.050
20.55000 547.171
20.56000 544.161
20.57000 541.081
20.58000 539.032
20.59000 533.283
20.60000 528.960
20.61000 530.590
20.62000 539.878
20.63000 549.171
20.64000 548.149
20.65000 538.631
20.66000 529.245
20.67000 526.099
20.68000 526.345
20.69000 526.796
20.70000 530.875
20.71000 536.284
20.72000 540.932
20.73000 538.458
20.74000 534.239
20.75000 530.578
20.76000 534.513
20.77000 538.886
20.78000 542.651
20.79000 544.169
20.80000 545.477
20.81000 544.559
20.82000 538.122
20.83000 531.425
20.84000 527.214
20.85000 533.424
20.86000 538.032
20.87000 543.348
20.88000 549.436
20.89000 555.437
20.90000 549.671
20.91000 535.636
20.92000 521.908
20.93000 526.006
20.94000 537.968
20.95000 548.256
20.96000 535.769
20.97000 516.076
20.98000 499.630
20.99000 508.100
21.00000 521.782
21.01000 533.340
21.02000 528.108
21.03000 521.890
21.04000 517.385
21.05000 518.328
21.06000 519.677
21.07000 522.051
21.08000 526.623
21.09000 531.269
21.10000 534.013
21.11000 543.747
21.12000 550.659
21.13000 552.122
21.14000 548.563
21.15000 544.976
21.16000 539.489
21.17000 532.856
21.18000 526.434
21.19000 529.357
21.20000 535.702
21.21000 541.600
21.22000 542.675
21.23000 542.438
21.24000 542.649
21.25000 545.729
21.26000 549.317
21.27000 552.259
21.28000 539.185
21.29000 527.042
21.30000 522.146
21.31000 537.117
21.32000 553.225
21.33000 560.522
21.34000 551.542
21.35000 542.203
21.36000 537.061
21.37000 528.546
21.38000 522.683
21.39000 518.863
21.40000 516.643
21.41000 514.442
21.42000 512.997
21.43000 511.945
21.44000 510.938
21.45000 514.391
21.46000 519.058
21.47000 523.649
21.48000 527.572
21.49000 531.339
21.50000 535.288
21.51000 540.217
21.52000 545.291
21.53000 549.314
21.54000 538.969
21.55000 529.641
21.56000 522.919
21.57000 522.367
21.58000 522.076
21.59000 523.613
21.60000 528.056
21.61000 532.536
21.62000 534.815
21.63000 542.297
21.64000 547.270
21.65000 547.731
21.66000 545.173
21.67000 542.185
21.68000 527.580
21.69000 507.768
21.70000 489.096
21.71000 495.591
21.72000 508.488
21.73000 520.028
21.74000 521.758
21.75000 521.541
21.76000 521.854
21.77000 524.590
21.78000 527.626
21.79000 529.946
21.80000 528.148
21.81000 526.507
21.82000 526.713
21.83000 530.693
21.84000 534.785
21.85000 532.795
21.86000 522.525
21.87000 512.212
21.88000 510.582
21.89000 516.527
21.90000 522.413
21.91000 525.034
21.92000 525.779
21.93000 526.333
21.94000 523.135
21.95000 518.487
21.96000 514.178
21.97000 516.837
21.98000 520.856
21.99000 524.779
22.00000 528.121
22.01000 531.366
22.02000 531.475
22.03000 519.330
22.04000 505.947
22.05000 496.132
22.06000 499.188
22.07000 502.068
22.08000 504.857
22.09000 507.483
22.10000 510.106
22.11000 508.466
22.12000 501.884
22.13000 495.314
22.14000 498.720
22.15000 509.463
22.16000 519.951
22.17000 521.499
22.18000 518.620
22.19000 515.830
22.20000 514.369
22.21000 513.350
22.22000 512.424
22.23000 514.608
22.24000 517.149
22.25000 517.988
22.26000 510.139
22.27000 501.069
22.28000 495.532
22.29000 501.852
22.30000 509.131
22.31000 514.233
22.32000 504.257
22.33000 496.276
22.34000 490.693
22.35000 488.742
22.36000 486.828
22.37000 492.495
22.38000 505.590
22.39000 518.589
22.40000 525.368
22.41000 528.137
22.42000 530.711
22.43000 528.544
22.44000 524.350
22.45000 520.845
22.46000 525.412
22.47000 532.299
22.48000 538.429
22.49000 522.596
22.50000 505.251
22.51000 492.081
22.52000 497.050
22.53000 504.124
22.54000 509.219
22.55000 508.591
22.56000 507.603
22.57000 506.944
22.58000 504.905
22.59000 503.369
22.60000 499.776
22.61000 493.519
22.62000 487.268
22.63000 488.409
22.64000 495.679
22.65000 502.850
22.66000 499.254
22.67000 490.019
22.68000 481.544
22.69000 486.626
22.70000 496.713
22.71000 506.526
22.72000 513.755
22.73000 520.346
22.74000 526.073
22.75000 513.059
22.76000 499.425
22.77000 488.917
22.78000 490.040
22.79000 492.261
22.80000 494.640
22.81000 497.414
22.82000 500.208
22.83000 501.969
22.84000 500.262
22.85000 498.986
22.86000 501.692
22.87000 508.777
22.88000 515.786
22.89000 511.791
22.90000 500.013
22.91000 488.489
22.92000 491.542
22.93000 501.083
22.94000 510.018
22.95000 510.644
22.96000 508.625
22.97000 507.292
22.98000 511.265
22.99000 516.354
23.00000 520.658
23.01000 516.005
23.02000 511.120
23.03000 506.610
23.04000 503.302
23.05000 500.083
23.06000 495.525
23.07000 488.078
23.08000 480.534
23.09000 476.066
23.10000 486.720
23.11000 494.337
23.12000 499.711
23.13000 503.004
23.14000 506.271
23.15000 507.756
23.16000 508.160
23.17000 508.552
23.18000 503.597
23.19000 496.847
23.20000 490.569
23.21000 489.437
23.22000 489.713
23.23000 489.823
23.24000 488.866
23.25000 487.719
23.26000 486.777
23.27000 487.796
23.28000 488.807
23.29000 489.962
23.30000 491.509
23.31000 493.080
23.32000 495.547
23.33000 499.682
23.34000 503.855
23.35000 506.159
23.36000 495.868
23.37000 488.776
23.38000 489.503
23.39000 496.387
23.40000 503.123
23.41000 503.831
23.42000 501.388
23.43000 499.052
23.44000 503.022
23.45000 508.788
23.46000 513.818
23.47000 512.352
23.48000 509.361
23.49000 506.372
23.50000 503.394
23.51000 500.418
23.52000 498.054
23.53000 496.049
23.54000 494.459
23.55000 490.207
23.56000 479.615
23.57000 468.751
23.58000 466.381
23.59000 477.597
23.60000 488.990
23.61000 494.805
23.62000 499.719
23.63000 502.960
23.64000 500.046
23.65000 492.991
23.66000 486.119
23.67000 484.291
23.68000 484.737
23.69000 485.158
23.70000 486.066
23.71000 487.033
23.72000 488.161
23.73000 490.454
23.74000 492.980
23.75000 495.000
23.76000 494.695
23.77000 494.101
23.78000 493.645
23.79000 487.026
23.80000 481.466
23.81000 477.871
23.82000 478.317
23.83000 478.884
23.84000 479.343
23.85000 479.653
23.86000 479.963
23.87000 480.076
23.88000 480.016
23.89000 480.008
23.90000 482.961
23.91000 487.627
23.92000 492.028
23.93000 491.175
23.94000 488.277
23.95000 485.589
23.96000 482.687
23.97000 480.023
23.98000 478.458
23.99000 483.581
24.00000 489.834
24.01000 493.155
24.02000 484.947
24.03000 475.565
24.04000 468.672
24.05000 463.068
24.06000 458.788
24.07000 459.711
24.08000 469.853
24.09000 480.173
24.10000 482.250
24.11000 474.704
24.12000 467.166
24.13000 468.942
24.14000 477.626
24.15000 486.096
24.16000 486.952
24.17000 484.014
24.18000 481.239
24.19000 480.911
24.20000 481.405
24.21000 481.854
24.22000 489.580
24.23000 497.855
24.24000 503.375
24.25000 494.746
24.26000 484.114
24.27000 476.716
24.28000 480.233
24.29000 484.641
24.30000 487.737
24.31000 480.150
24.32000 474.093
24.33000 467.239
24.34000 459.170
24.35000 451.088
24.36000 451.255
24.37000 459.558
24.38000 467.802
24.39000 469.799
24.40000 467.823
24.41000 465.976
24.42000 467.295
24.43000 469.974
24.44000 472.414
24.45000 472.026
24.46000 470.821
24.47000 469.747
24.48000 468.769
24.49000 467.935
24.50000 466.853
24.51000 464.692
24.52000 462.404
24.53000 463.886
24.54000 476.331
24.55000 489.476
24.56000 498.257
24.57000 476.142
24.58000 459.152
24.59000 452.229
24.60000 458.426
24.61000 464.667
24.62000 464.918
24.63000 460.170
24.64000 455.485
24.65000 458.511
24.66000 465.590
24.67000 472.374
24.68000 473.843
24.69000 473.337
24.70000 472.623
24.71000 469.930
24.72000 466.745
24.73000 463.976
24.74000 465.223
24.75000 466.835
24.76000 468.430
24.77000 469.958
24.78000 471.481
24.79000 473.316
24.80000 475.936
24.81000 478.594
24.82000 480.273
24.83000 469.603
24.84000 461.728
24.85000 457.507
24.86000 457.334
24.87000 457.193
24.88000 461.263
24.89000 468.330
24.90000 475.248
24.91000 474.625
24.92000 470.585
24.93000 466.583
24.94000 463.113
24.95000 459.813
24.96000 457.274
24.97000 460.660
24.98000 465.303
24.99000 469.234
25.00000 464.769
25.01000 460.092
25.02000 456.754
25.03000 457.725
25.04000 459.022
25.05000 457.848
25.06000 451.321
25.07000 444.609
25.08000 440.624
25.09000 440.008
25.10000 439.592
25.11000 439.756
25.12000 440.461
25.13000 441.178
25.14000 442.686
25.15000 444.676
25.16000 446.604
25.17000 450.862
25.18000 455.798
25.19000 460.794
25.20000 466.462
25.21000 472.314
25.22000 476.020
25.23000 465.812
25.24000 453.103
25.25000 442.658
25.26000 452.281
25.27000 461.996
25.28000 468.113
25.29000 464.249
25.30000 459.800
25.31000 456.746
25.32000 456.301
25.33000 455.915
25.34000 455.701
25.35000 448.835
25.36000 444.095
25.37000 443.176
25.38000 445.283
25.39000 447.427
25.40000 451.042
25.41000 455.431
25.42000 459.632
25.43000 457.078
25.44000 452.468
25.45000 448.300
25.46000 448.076
25.47000 448.783
25.48000 450.568
25.49000 458.235
25.50000 466.791
25.51000 473.594
25.52000 472.177
25.53000 470.449
25.54000 468.368
25.55000 465.446
25.56000 462.487
25.57000 457.287
25.58000 448.482
25.59000 439.629
25.60000 435.095
25.61000 447.988
25.62000 456.626
25.63000 462.167
25.64000 465.611
25.65000 468.698
25.66000 461.865
25.67000 450.533
25.68000 439.839
25.69000 438.785
25.70000 440.518
25.71000 441.750
25.72000 439.314
25.73000 436.141
25.74000 434.125
25.75000 437.473
25.76000 441.494
25.77000 444.576
25.78000 445.574
25.79000 446.247
25.80000 447.092
25.81000 448.290
25.82000 449.500
25.83000 449.381
25.84000 447.429
25.85000 445.466
25.86000 443.074
25.87000 440.305
25.88000 437.479
25.89000 431.306
25.90000 423.186
25.91000 415.957
25.92000 426.586
25.93000 444.208
25.94000 460.566
25.95000 457.696
25.96000 450.564
25.97000 444.575
25.98000 445.601
25.99000 447.820
26.00000 449.742
26.01000 450.487
26.02000 451.112
26.03000 451.571
26.04000 453.194
26.05000 454.498
26.06000 455.693
26.07000 456.691
26.08000 457.685
26.09000 453.154
26.10000 442.130
26.11000 431.125
26.12000 428.049
26.13000 430.924
26.14000 433.704
26.15000 433.046
26.16000 430.666
26.17000 428.612
26.18000 431.529
26.19000 436.124
26.20000 440.310
26.21000 437.168
26.22000 432.928
26.23000 430.586
26.24000 438.062
26.25000 446.937
26.26000 453.109
26.27000 450.102
26.28000 446.338
26.29000 443.689
26.30000 442.865
26.31000 442.295
26.32000 440.468
26.33000 436.715
26.34000 432.940
26.35000 428.310
26.36000 422.830
26.37000 417.388
26.38000 419.662
26.39000 426.798
26.40000 433.784
26.41000 437.028
26.42000 438.653
26.43000 439.813
26.44000 435.435
26.45000 429.446
26.46000 424.105
26.47000 423.869
26.48000 424.511
26.49000 424.943
26.50000 424.451
26.51000 423.850
26.52000 426.359
26.53000 437.972
26.54000 450.170
26.55000 458.337
26.56000 447.090
26.57000 438.363
26.58000 433.187
26.59000 432.670
26.60000 432.176
26.61000 433.513
26.62000 436.388
26.63000 439.225
26.64000 439.334
26.65000 437.967
26.66000 436.155
26.67000 426.205
26.68000 413.217
26.69000 402.323
26.70000 411.502
26.71000 425.692
26.72000 438.048
26.73000 429.108
26.74000 418.546
26.75000 411.659
26.76000 418.610
26.77000 426.890
26.78000 432.781
26.79000 432.640
26.80000 432.206
26.81000 431.931
26.82000 438.141
26.83000 442.723
26.84000 445.016
26.85000 444.758
26.86000 444.504
26.87000 445.230
26.88000 446.657
26.89000 448.055
26.90000 445.597
26.91000 441.464
26.92000 437.201
26.93000 431.096
26.94000 424.398
26.95000 418.971
26.96000 423.515
26.97000 430.186
26.98000 435.842
26.99000 436.459
27.00000 436.409
27.01000 435.603
27.02000 432.351
27.03000 428.911
27.04000 425.978
27.05000 424.150
27.06000 422.360
27.07000 421.295
27.08000 419.909
27.09000 418.928
27.10000 424.934
27.11000 437.513
27.12000 449.901
27.13000 448.784
27.14000 439.372
27.15000 430.247
27.16000 430.010
27.17000 433.259
27.18000 435.834
27.19000 430.931
27.20000 423.956
27.21000 418.009
27.22000 418.767
27.23000 420.739
27.24000 422.361
27.25000 420.862
27.26000 419.345
27.27000 419.182
27.28000 422.800
27.29000 426.641
27.30000 426.879
27.31000 420.340
27.32000 413.644
27.33000 409.924
27.34000 411.089
27.35000 411.914
27.36000 416.185
27.37000 423.204
27.38000 430.106
27.39000 432.093
27.40000 431.480
27.41000 430.893
27.42000 423.392
27.43000 414.100
27.44000 406.388
27.45000 412.861
27.46000 422.704
27.47000 430.379
27.48000 426.154
27.49000 420.119
27.50000 415.313
27.51000 425.172
27.52000 434.180
27.53000 438.802
27.54000 432.855
27.55000 426.444
27.56000 422.973
27.57000 424.263
27.58000 425.618
27.59000 426.314
27.60000 425.875
27.61000 425.577
27.62000 424.999
27.63000 424.229
27.64000 423.460
27.65000 422.679
27.66000 421.894
27.67000 421.153
27.68000 417.397
27.69000 413.103
27.70000 409.363
27.71000 409.727
27.72000 410.922
27.73000 412.325
27.74000 414.697
27.75000 417.191
27.76000 419.106
27.77000 420.904
27.78000 422.318
27.79000 420.255
27.80000 410.959
27.81000 401.439
27.82000 397.823
27.83000 402.404
27.84000 407.035
27.85000 409.396
27.86000 409.734
27.87000 410.173
27.88000 416.646
27.89000 426.651
27.90000 435.987
27.91000 431.737
27.92000 422.137
27.93000 413.219
27.94000 409.308
27.95000 406.971
27.96000 404.614
27.97000 402.129
27.98000 399.622
27.99000 397.628
28.00000 397.673
28.01000 397.929
28.02000 398.117
28.03000 397.092
28.04000 396.248
28.05000 395.532
28.06000 395.049
28.07000 394.570
28.08000 395.597
28.09000 398.405
28.10000 401.209
28.11000 409.372
28.12000 421.518
28.13000 433.156
28.14000 426.157
28.15000 409.760
28.16000 394.400
28.17000 394.947
28.18000 400.902
28.19000 406.331
28.20000 417.273
28.21000 428.076
28.22000 436.327
28.23000 431.295
28.24000 424.355
28.25000 417.174
28.26000 409.168
28.27000 401.094
28.28000 395.401
28.29000 398.168
28.30000 400.521
28.31000 401.529
28.32000 400.461
28.33000 399.370
28.34000 401.350
28.35000 406.402
28.36000 411.420
28.37000 410.002
28.38000 404.494
28.39000 399.162
28.40000 398.260
28.41000 399.287
28.42000 400.545
28.43000 404.570
28.44000 409.406
28.45000 413.722
28.46000 409.279
28.47000 403.946
28.48000 399.533
28.49000 399.198
28.50000 399.347
28.51000 399.834
28.52000 401.314
28.53000 402.860
28.54000 403.897
28.55000 403.140
28.56000 402.542
28.57000 403.516
28.58000 406.565
28.59000 409.622
28.60000 411.166
28.61000 411.432
28.62000 411.694
28.63000 409.209
28.64000 405.298
28.65000 401.435
28.66000 398.457
28.67000 395.812
28.68000 394.165
28.69000 402.169
28.70000 412.596
28.71000 421.685
28.72000 413.113
28.73000 403.340
28.74000 396.762
28.75000 402.288
28.76000 408.986
28.77000 411.495
28.78000 403.366
28.79000 394.713
28.80000 389.220
28.81000 384.343
28.82000 380.810
28.83000 378.614
28.84000 377.919
28.85000 377.271
28.86000 383.734
28.87000 395.324
28.88000 406.676
28.89000 405.462
28.90000 398.485
28.91000 392.068
28.92000 393.580
28.93000 397.662
28.94000 400.736
28.95000 395.825
28.96000 389.200
28.97000 383.578
28.98000 394.341
28.99000 405.230
29.00000 411.586
29.01000 403.180
29.02000 393.634
29.03000 387.510
29.04000 388.890
29.05000 390.536
29.06000 391.518
29.07000 389.906
29.08000 388.745
29.09000 384.295
29.10000 376.728
29.11000 369.288
29.12000 371.154
29.13000 378.771
29.14000 386.157
29.15000 389.650
29.16000 391.429
29.17000 392.757
29.18000 389.045
29.19000 383.929
29.20000 379.632
29.21000 380.725
29.22000 382.801
29.23000 384.512
29.24000 393.759
29.25000 402.060
29.26000 406.873
29.27000 401.895
29.28000 396.332
29.29000 392.445
29.30000 391.733
29.31000 391.095
29.32000 390.740
29.33000 388.178
29.34000 386.414
29.35000 389.348
29.36000 396.052
29.37000 402.531
29.38000 399.307
29.39000 390.923
29.40000 382.888
29.41000 383.249
29.42000 386.395
29.43000 389.443
29.44000 391.615
29.45000 393.578
29.46000 395.444
29.47000 396.780
29.48000 398.035
29.49000 399.035
29.50000 398.390
29.51000 397.750
29.52000 395.546
29.53000 389.554
29.54000 383.393
29.55000 377.093
29.56000 370.570
29.57000 364.043
29.58000 360.678
29.59000 370.064
29.60000 376.387
29.61000 382.697
29.62000 388.998
29.63000 395.091
29.64000 395.231
29.65000 392.641
29.66000 390.193
29.67000 384.932
29.68000 379.303
29.69000 374.876
29.70000 379.403
29.71000 385.755
29.72000 390.954
29.73000 390.747
29.74000 389.850
29.75000 389.160
29.76000 385.383
29.77000 382.220
29.78000 381.278
29.79000 384.984
29.80000 388.837
29.81000 389.786
29.82000 386.679
29.83000 383.546
29.84000 381.850
29.85000 381.444
29.86000 381.037
29.87000 380.536
29.88000 379.980
29.89000 379.377
29.90000 377.807
29.91000 375.855
29.92000 374.040
29.93000 370.466
29.94000 366.817
29.95000 363.924
29.96000 365.727
29.97000 368.340
29.98000 371.755
29.99000 378.384
30.00000 385.348
30.01000 390.491
30.02000 385.205
30.03000 380.665
30.04000 378.262
30.05000 379.716
30.06000 381.249
30.07000 379.385
30.08000 373.477
30.09000 367.577
30.10000 370.816
30.11000 380.963
30.12000 390.778
30.13000 388.183
30.14000 379.293
30.15000 370.551
30.16000 364.110
30.17000 358.457
30.18000 353.298
30.19000 361.118
30.20000 370.670
30.21000 378.941
30.22000 380.490
30.23000 381.068
30.24000 381.414
30.25000 380.968
30.26000 380.455
30.27000 380.093
30.28000 370.121
30.29000 362.258
30.30000 356.922
30.31000 355.507
30.32000 354.136
30.33000 354.178
30.34000 355.642
30.35000 357.096
30.36000 358.263
30.37000 359.228
30.38000 360.267
30.39000 363.240
30.40000 367.059
30.41000 370.913
30.42000 375.182
30.43000 379.573
30.44000 383.496
30.45000 386.145
30.46000 388.239
30.47000 388.425
30.48000 380.110
30.49000 370.777
30.50000 364.315
30.51000 366.354
30.52000 368.952
30.53000 370.700
30.54000 372.503
30.55000 373.843
30.56000 371.017
30.57000 362.655
30.58000 354.280
30.59000 354.808
30.60000 362.914
30.61000 370.920
30.62000 372.795
30.63000 371.270
30.64000 369.616
30.65000 365.539
30.66000 360.546
30.67000 355.964
30.68000 355.383
30.69000 355.813
30.70000 356.189
30.71000 363.664
30.72000 371.048
30.73000 377.345
30.74000 379.497
30.75000 381.244
30.76000 382.563
30.77000 382.789
30.78000 382.960
30.79000 383.069
30.80000 375.047
30.81000 369.116
30.82000 367.055
30.83000 369.366
30.84000 371.668
30.85000 371.650
30.86000 369.951
30.87000 368.286
30.88000 369.013
30.89000 370.826
30.90000 372.244
30.91000 368.005
30.92000 361.921
30.93000 357.150
30.94000 362.836
30.95000 370.781
30.96000 377.532
30.97000 376.596
30.98000 374.931
30.99000 371.973
31.00000 364.780
31.01000 357.256
31.02000 350.587
31.03000 345.802
31.04000 341.084
31.05000 338.261
31.06000 350.476
31.07000 359.243
31.08000 364.113
31.09000 365.268
31.10000 366.473
31.11000 371.477
31.12000 378.842
31.13000 385.988
31.14000 385.389
31.15000 381.754
31.16000 377.858
31.17000 371.026
31.18000 363.370
31.19000 357.043
31.20000 359.513
31.21000 363.598
31.22000 366.968
31.23000 359.737
31.24000 352.801
31.25000 348.659
31.26000 352.409
31.27000 356.637
31.28000 358.924
31.29000 357.520
31.30000 356.026
31.31000 355.191
31.32000 357.585
31.33000 359.250
31.34000 360.886
31.35000 362.498
31.36000 364.001
31.37000 360.653
31.38000 354.711
31.39000 349.013
31.40000 345.801
31.41000 343.637
31.42000 342.101
31.43000 346.284
31.44000 351.844
31.45000 356.752
31.46000 358.033
31.47000 358.755
31.48000 359.331
31.49000 361.530
31.50000 363.425
31.51000 364.862
31.52000 365.180
31.53000 365.449
31.54000 362.306
31.55000 353.576
31.56000 344.764
31.57000 340.206
31.58000 349.516
31.59000 355.758
31.60000 357.338
31.61000 355.703
31.62000 354.249
31.63000 358.083
31.64000 364.359
31.65000 370.292
31.66000 363.810
31.67000 354.310
31.68000 346.159
31.69000 348.135
31.70000 352.188
31.71000 354.951
31.72000 351.620
31.73000 347.505
31.74000 344.337
31.75000 353.782
31.76000 361.980
31.77000 365.392
31.78000 358.726
31.79000 351.739
31.80000 348.854
31.81000 351.736
31.82000 354.656
31.83000 352.283
31.84000 345.133
31.85000 338.154
31.86000 341.678
31.87000 351.424
31.88000 360.571
31.89000 357.241
31.90000 348.938
31.91000 341.214
31.92000 339.952
31.93000 340.372
31.94000 341.394
31.95000 346.182
31.96000 351.625
31.97000 355.989
31.98000 356.007
31.99000 355.567
32.00000 355.241
32.01000 357.746
32.02000 359.812
32.03000 359.431
32.04000 354.612
32.05000 349.700
32.06000 347.472
32.07000 348.459
32.08000 349.450
32.09000 347.250
32.10000 342.627
32.11000 338.219
32.12000 341.943
32.13000 349.817
32.14000 357.027
32.15000 353.828
32.16000 347.048
32.17000 340.857
32.18000 347.481
32.19000 355.962
32.20000 361.750
32.21000 353.327
32.22000 342.833
32.23000 334.645
32.24000 334.433
32.25000 334.897
32.26000 335.226
32.27000 336.033
32.28000 336.660
32.29000 337.260
32.30000 337.814
32.31000 338.368
32.32000 337.431
32.33000 334.981
32.34000 332.548
32.35000 331.743
32.36000 332.004
32.37000 332.355
32.38000 335.046
32.39000 338.768
32.40000 342.590
32.41000 347.634
32.42000 353.040
32.43000 357.873
32.44000 354.794
32.45000 350.767
32.46000 346.929
32.47000 343.941
32.48000 341.055
32.49000 338.937
32.50000 339.102
32.51000 339.419
32.52000 339.633
32.53000 342.072
32.54000 343.932
32.55000 343.740
32.56000 340.805
32.57000 337.861
32.58000 338.529
32.59000 342.290
32.60000 346.006
32.61000 344.262
32.62000 339.556
32.63000 335.046
32.64000 334.230
32.65000 334.819
32.66000 335.816
32.67000 340.828
32.68000 346.862
32.69000 352.131
32.70000 351.082
32.71000 349.296
32.72000 347.151
32.73000 343.634
32.74000 339.980
32.75000 337.696
32.76000 338.932
32.77000 340.345
32.78000 341.246
32.79000 332.413
32.80000 325.864
32.81000 325.575
32.82000 332.407
32.83000 339.192
32.84000 336.856
32.85000 327.862
32.86000 319.047
32.87000 324.618
32.88000 336.721
32.89000 347.599
32.90000 340.794
32.91000 328.190
32.92000 317.254
32.93000 319.723
32.94000 325.107
32.95000 329.686
32.96000 330.038
32.97000 329.846
32.98000 330.013
32.99000 331.362
33.00000 332.805
33.01000 333.165
33.02000 331.125
33.03000 328.996
33.04000 327.719
33.05000 327.269
33.06000 326.954
33.07000 328.343
33.08000 331.366
33.09000 334.324
33.10000 332.341
33.11000 327.267
33.12000 322.341
33.13000 326.866
33.14000 334.928
33.15000 342.144
33.16000 339.720
33.17000 334.574
33.18000 329.981
33.19000 329.068
33.20000 328.836
33.21000 328.644
33.22000 328.718
33.23000 328.803
33.24000 329.275
33.25000 330.845
33.26000 332.481
33.27000 333.953
33.28000 335.112
33.29000 336.262
33.30000 336.907
33.31000 334.186
33.32000 332.290
33.33000 329.709
33.34000 326.571
33.35000 323.558
33.36000 326.117
33.37000 331.674
33.38000 337.006
33.39000 334.670
33.40000 329.889
33.41000 325.675
33.42000 326.665
33.43000 328.915
33.44000 329.909
33.45000 323.862
33.46000 316.720
33.47000 311.010
33.48000 315.354
33.49000 319.612
33.50000 322.727
33.51000 323.037
33.52000 323.219
33.53000 320.522
33.54000 313.077
33.55000 305.561
33.56000 301.661
33.57000 308.524
33.58000 313.147
33.59000 316.108
33.60000 317.918
33.61000 319.816
33.62000 324.346
33.63000 330.098
33.64000 335.539
33.65000 335.759
33.66000 334.460
33.67000 332.903
33.68000 329.406
33.69000 325.507
33.70000 322.884
33.71000 326.324
33.72000 330.549
33.73000 333.807
33.74000 329.966
33.75000 326.513
33.76000 324.703
33.77000 326.369
33.78000 328.148
33.79000 328.344
33.80000 326.302
33.81000 324.245
33.82000 324.167
33.83000 325.888
33.84000 327.575
33.85000 327.105
33.86000 325.350
33.87000 323.706
33.88000 324.414
33.89000 326.064
33.90000 327.600
33.91000 328.519
33.92000 329.199
33.93000 329.074
33.94000 323.876
33.95000 317.791
33.96000 314.175
33.97000 320.573
33.98000 328.035
33.99000 333.565
34.00000 329.901
34.01000 326.656
34.02000 324.231
34.03000 323.303
34.04000 322.407
34.05000 320.045
34.06000 315.914
34.07000 311.789
34.08000 311.412
34.09000 313.916
34.10000 316.338
34.11000 315.600
34.12000 313.240
34.13000 310.917
34.14000 309.202
34.15000 307.697
34.16000 306.321
34.17000 307.099
34.18000 308.230
34.19000 309.274
34.20000 309.855
34.21000 310.368
34.22000 311.047
34.23000 312.307
34.24000 313.616
34.25000 314.545
34.26000 317.379
34.27000 319.595
34.28000 321.064
34.29000 321.362
34.30000 321.645
34.31000 318.170
34.32000 310.857
34.33000 303.588
34.34000 303.306
34.35000 307.579
34.36000 311.715
34.37000 312.209
34.38000 311.089
34.39000 310.257
34.40000 312.970
34.41000 316.740
34.42000 320.115
34.43000 314.235
34.44000 307.523
34.45000 302.290
34.46000 303.737
34.47000 305.997
34.48000 309.266
34.49000 315.556
34.50000 322.050
34.51000 326.434
34.52000 328.080
34.53000 329.247
34.54000 325.383
34.55000 314.751
34.56000 304.095
34.57000 302.854
34.58000 309.734
34.59000 316.533
34.60000 316.923
34.61000 313.753
34.62000 310.603
34.63000 307.816
34.64000 305.168
34.65000 303.423
34.66000 310.619
34.67000 320.105
34.68000 328.398
34.69000 324.936
34.70000 320.303
34.71000 315.876
34.72000 312.242
34.73000 308.687
34.74000 305.674
34.75000 304.061
34.76000 302.521
34.77000 301.536
34.78000 304.870
34.79000 307.353
34.80000 310.520
34.81000 314.468
34.82000 318.372
34.83000 314.472
34.84000 304.839
34.85000 295.394
34.86000 297.544
34.87000 305.082
34.88000 312.186
34.89000 312.957
34.90000 311.638
34.91000 310.543
34.92000 311.255
34.93000 312.363
34.94000 313.307
34.95000 309.043
34.96000 304.853
34.97000 303.599
34.98000 312.085
34.99000 321.345
35.00000 324.897
35.01000 315.706
35.02000 306.043
35.03000 300.230
35.04000 297.276
35.05000 295.195
35.06000 296.887
35.07000 302.227
35.08000 307.499
35.09000 307.484
35.10000 304.142
35.11000 300.897
35.12000 299.276
35.13000 298.388
35.14000 297.805
35.15000 300.716
35.16000 304.620
35.17000 307.628
35.18000 304.615
35.19000 300.484
35.20000 297.067
35.21000 299.510
35.22000 302.077
35.23000 304.118
35.24000 304.656
35.25000 305.100
35.26000 305.534
35.27000 305.946
35.28000 306.357
35.29000 306.588
35.30000 300.872
35.31000 296.900
35.32000 296.707
35.33000 299.607
35.34000 302.489
35.35000 304.531
35.36000 306.119
35.37000 307.642
35.38000 301.270
35.39000 292.617
35.40000 285.011
35.41000 287.094
35.42000 291.539
35.43000 296.323
35.44000 303.026
35.45000 310.028
35.46000 315.635
35.47000 310.723
35.48000 305.960
35.49000 300.668
35.50000 294.069
35.51000 287.409
35.52000 283.362
35.53000 283.651
35.54000 284.006
35.55000 284.191
35.56000 296.536
35.57000 304.818
35.58000 304.911
35.59000 299.280
35.60000 293.852
35.61000 294.483
35.62000 297.944
35.63000 301.220
35.64000 296.960
35.65000 290.861
35.66000 286.278
35.67000 293.241
35.68000 302.604
35.69000 311.138
35.70000 315.706
35.71000 319.757
35.72000 322.885
35.73000 314.149
35.74000 306.529
35.75000 301.029
35.76000 300.046
35.77000 299.211
35.78000 298.560
35.79000 298.170
35.80000 297.782
35.81000 297.575
35.82000 297.533
35.83000 297.530
35.84000 300.061
35.85000 304.110
35.86000 307.923
35.87000 306.689
35.88000 303.419
35.89000 300.373
35.90000 295.264
35.91000 290.139
35.92000 286.009
35.93000 288.196
35.94000 291.495
35.95000 294.420
35.96000 295.818
35.97000 297.052
35.98000 297.968
35.99000 292.447
36.00000 287.873
36.01000 287.532
36.02000 294.966
36.03000 302.567
36.04000 305.903
36.05000 304.056
36.06000 302.201
36.07000 301.837
36.08000 302.630
36.09000 303.314
36.10000 299.748
36.11000 293.986
36.12000 288.501
36.13000 287.460
36.14000 287.966
36.15000 288.429
36.16000 287.149
36.17000 285.652
36.18000 285.077
36.19000 289.435
36.20000 294.522
36.21000 298.629
36.22000 299.299
36.23000 299.673
36.24000 299.939
36.25000 297.465
36.26000 295.495
36.27000 294.127
36.28000 293.711
36.29000 293.307
36.30000 294.826
36.31000 298.324
36.32000 301.801
36.33000 302.340
36.34000 300.945
36.35000 299.504
36.36000 296.822
36.37000 293.587
36.38000 290.558
36.39000 290.104
36.40000 290.422
36.41000 290.707
36.42000 281.386
36.43000 271.594
36.44000 264.769
36.45000 271.427
36.46000 279.740
36.47000 286.796
36.48000 290.068
36.49000 293.083
36.50000 295.122
36.51000 296.058
36.52000 296.731
36.53000 296.028
36.54000 293.462
36.55000 290.887
36.56000 289.162
36.57000 288.175
36.58000 287.200
36.59000 287.852
36.60000 289.397
36.61000 290.732
36.62000 288.006
36.63000 283.717
36.64000 279.883
36.65000 280.594
36.66000 282.476
36.67000 284.123
36.68000 296.357
36.69000 308.357
36.70000 316.288
36.71000 308.411
36.72000 298.951
36.73000 293.383
36.74000 297.941
36.75000 303.022
36.76000 306.278
36.77000 298.441
36.78000 292.582
36.79000 289.944
36.80000 291.021
36.81000 292.083
36.82000 289.460
36.83000 284.115
36.84000 278.871
36.85000 277.265
36.86000 277.444
36.87000 277.753
36.88000 279.980
36.89000 282.844
36.90000 285.011
36.91000 281.493
36.92000 276.722
36.93000 272.655
36.94000 282.081
36.95000 291.595
36.96000 297.189
36.97000 289.702
36.98000 281.166
36.99000 276.045
37.00000 278.594
37.01000 281.430
37.02000 283.141
37.03000 279.920
37.04000 277.593
37.05000 274.659
37.06000 271.136
37.07000 267.732
37.08000 273.944
37.09000 286.246
37.10000 298.198
37.11000 295.269
37.12000 286.476
37.13000 278.238
37.14000 276.437
37.15000 276.475
37.16000 276.526
37.17000 276.662
37.18000 276.814
37.19000 276.940
37.20000 282.260
37.21000 287.145
37.22000 289.145
37.23000 282.849
37.24000 276.034
37.25000 273.570
37.26000 279.537
37.27000 285.719
37.28000 289.203
37.29000 287.446
37.30000 286.209
37.31000 283.956
37.32000 280.866
37.33000 277.836
37.34000 277.599
37.35000 278.885
37.36000 280.119
37.37000 276.905
37.38000 272.371
37.39000 268.030
37.40000 265.498
37.41000 263.410
37.42000 262.616
37.43000 269.171
37.44000 276.885
37.45000 283.070
37.46000 281.145
37.47000 278.972
37.48000 275.642
37.49000 269.442
37.50000 263.107
37.51000 260.275
37.52000 263.287
37.53000 266.390
37.54000 268.011
37.55000 275.471
37.56000 280.483
37.57000 280.587
37.58000 277.241
37.59000 274.084
37.60000 276.719
37.61000 282.074
37.62000 287.146
37.63000 280.870
37.64000 271.786
37.65000 263.172
37.66000 258.158
37.67000 253.897
37.68000 252.211
37.69000 262.922
37.70000 275.262
37.71000 284.808
37.72000 280.029
37.73000 275.391
37.74000 271.219
37.75000 268.047
37.76000 264.909
37.77000 262.335
37.78000 260.570
37.79000 258.811
37.80000 259.152
37.81000 261.428
37.82000 263.665
37.83000 263.345
37.84000 261.482
37.85000 259.869
37.86000 263.673
37.87000 269.674
37.88000 275.268
37.89000 270.470
37.90000 263.566
37.91000 258.923
37.92000 268.729
37.93000 281.097
37.94000 289.714
37.95000 282.919
37.96000 274.459
37.97000 268.169
37.98000 267.768
37.99000 267.719
38.00000 266.412
38.01000 262.780
38.02000 259.097
38.03000 258.320
38.04000 261.097
38.05000 263.876
38.06000 263.181
38.07000 259.782
38.08000 256.479
38.09000 256.973
38.10000 259.440
38.11000 262.126
38.12000 268.351
38.13000 275.816
38.14000 282.648
38.15000 276.945
38.16000 269.272
38.17000 262.943
38.18000 263.849
38.19000 265.832
38.20000 269.068
38.21000 276.714
38.22000 284.745
38.23000 290.460
38.24000 282.407
38.25000 275.828
38.26000 270.839
38.27000 268.379
38.28000 265.951
38.29000 263.161
38.30000 259.998
38.31000 256.853
38.32000 256.464
38.33000 257.899
38.34000 259.437
38.35000 263.759
38.36000 269.331
38.37000 274.472
38.38000 274.193
38.39000 272.279
38.40000 270.563
38.41000 266.995
38.42000 263.557
38.43000 261.121
38.44000 263.265
38.45000 265.974
38.46000 267.378
38.47000 264.820
38.48000 261.990
38.49000 260.072
38.50000 259.871
38.51000 259.759
38.52000 263.798
38.53000 273.493
38.54000 283.208
38.55000 281.933
38.56000 271.051
38.57000 260.292
38.58000 258.973
38.59000 262.984
38.60000 266.834
38.61000 267.512
38.62000 266.962
38.63000 266.196
38.64000 263.255
38.65000 259.750
38.66000 256.679
38.67000 263.341
38.68000 270.458
38.69000 276.000
38.70000 275.385
38.71000 274.147
38.72000 273.619
38.73000 274.945
38.74000 276.369
38.75000 277.283
38.76000 271.333
38.77000 266.901
38.78000 265.931
38.79000 268.981
38.80000 272.016
38.81000 271.024
38.82000 267.039
38.83000 263.127
38.84000 264.376
38.85000 268.044
38.86000 271.412
38.87000 270.304
38.88000 267.702
38.89000 265.297
38.90000 264.520
38.91000 264.104
38.92000 263.748
38.93000 263.219
38.94000 262.753
38.95000 263.006
38.96000 265.670
38.97000 268.530
38.98000 269.571
38.99000 266.504
39.00000 263.281
39.01000 261.332
39.02000 254.460
39.03000 249.528
39.04000 248.297
39.05000 250.691
39.06000 253.094
39.07000 256.172
39.08000 259.680
39.09000 263.089
39.10000 261.138
39.11000 257.105
39.12000 253.252
39.13000 251.511
39.14000 250.379
39.15000 249.448
39.16000 249.893
39.17000 250.597
39.18000 251.181
39.19000 251.991
39.20000 252.683
39.21000 253.832
39.22000 256.304
39.23000 258.861
39.24000 262.612
39.25000 268.692
39.26000 274.832
39.27000 278.303
39.28000 267.910
39.29000 260.658
39.30000 259.834
39.31000 264.342
39.32000 268.753
39.33000 268.542
39.34000 265.800
39.35000 263.165
39.36000 258.921
39.37000 254.393
39.38000 250.391
39.39000 251.358
39.40000 253.550
39.41000 255.261
39.42000 254.216
39.43000 252.734
39.44000 251.544
39.45000 254.944
39.46000 258.049
39.47000 260.581
39.48000 261.678
39.49000 262.707
39.50000 262.761
39.51000 261.176
39.52000 259.564
39.53000 258.720
39.54000 263.009
39.55000 265.890
39.56000 265.244
39.57000 262.102
39.58000 259.032
39.59000 258.161
39.60000 258.330
39.61000 258.491
39.62000 253.240
39.63000 246.816
39.64000 241.469
39.65000 244.444
39.66000 249.171
39.67000 253.063
39.68000 252.905
39.69000 252.210
39.70000 251.671
39.71000 257.374
39.72000 262.275
39.73000 263.361
39.74000 256.221
39.75000 248.802
39.76000 243.654
39.77000 241.778
39.78000 239.928
39.79000 240.845
39.80000 244.327
39.81000 247.789
39.82000 249.943
39.83000 251.303
39.84000 252.434
39.85000 248.572
39.86000 242.672
39.87000 237.169
39.88000 243.968
39.89000 253.179
39.90000 261.046
39.91000 260.257
39.92000 257.923
39.93000 254.764
39.94000 248.195
39.95000 241.255
39.96000 236.085
39.97000 241.455
39.98000 246.110
39.99000 247.712
40.00000 243.638
40.01000 239.437
40.02000 240.043
40.03000 246.567
40.04000 253.094
40.05000 255.376
40.06000 254.319
40.07000 253.298
40.08000 253.708
40.09000 254.867
40.10000 255.887
40.11000 254.651
40.12000 252.619
40.13000 250.758
40.14000 253.951
40.15000 257.850
40.16000 260.696
40.17000 257.839
40.18000 254.126
40.19000 250.499
40.20000 247.178
40.21000 243.884
40.22000 241.536
40.23000 243.349
40.24000 244.868
40.25000 244.811
40.26000 242.233
40.27000 239.622
40.28000 238.018
40.29000 237.462
40.30000 236.910
40.31000 237.331
40.32000 238.394
40.33000 239.454
40.34000 240.444
40.35000 241.402
40.36000 242.400
40.37000 243.900
40.38000 245.553
40.39000 247.036
40.40000 249.980
40.41000 252.808
40.42000 254.011
40.43000 247.729
40.44000 240.515
40.45000 235.317
40.46000 236.274
40.47000 237.657
40.48000 238.596
40.49000 241.146
40.50000 243.085
40.51000 244.495
40.52000 245.179
40.53000 245.855
40.54000 242.657
40.55000 236.050
40.56000 229.516
40.57000 230.807
40.58000 236.489
40.59000 241.766
40.60000 239.026
40.61000 233.163
40.62000 227.906
40.63000 228.808
40.64000 231.317
40.65000 233.516
40.66000 239.577
40.67000 245.340
40.68000 249.069
40.69000 244.793
40.70000 239.702
40.71000 235.252
40.72000 232.490
40.73000 229.817
40.74000 228.097
40.75000 230.741
40.76000 232.733
40.77000 237.953
40.78000 246.943
40.79000 255.903
40.80000 257.639
40.81000 253.967
40.82000 250.362
40.83000 245.546
40.84000 240.319
40.85000 235.528
40.86000 237.308
40.87000 241.296
40.88000 245.117
40.89000 247.560
40.90000 249.696
40.91000 251.520
40.92000 248.562
40.93000 245.500
40.94000 242.413
40.95000 239.244
40.96000 236.069
40.97000 234.462
40.98000 236.420
40.99000 238.516
41.00000 239.786
41.01000 230.065
41.02000 223.050
41.03000 223.942
41.04000 232.641
41.05000 241.249
41.06000 242.221
41.07000 238.297
41.08000 234.482
41.09000 234.360
41.10000 235.757
41.11000 236.914
41.12000 235.248
41.13000 232.766
41.14000 230.990
41.15000 234.065
41.16000 238.060
41.17000 241.377
41.18000 237.148
41.19000 232.921
41.20000 229.472
41.21000 228.285
41.22000 227.244
41.23000 225.666
41.24000 223.039
41.25000 220.383
41.26000 218.878
41.27000 231.399
41.28000 240.146
41.29000 244.285
41.30000 244.578
41.31000 244.819
41.32000 242.536
41.33000 238.861
41.34000 235.329
41.35000 236.823
41.36000 239.970
41.37000 242.403
41.38000 238.046
41.39000 232.003
41.40000 226.334
41.41000 222.820
41.42000 219.649
41.43000 217.100
41.44000 220.577
41.45000 223.860
41.46000 226.644
41.47000 228.172
41.48000 229.640
41.49000 231.333
41.50000 233.407
41.51000 235.487
41.52000 236.581
41.53000 241.103
41.54000 244.150
41.55000 244.279
41.56000 242.330
41.57000 240.356
41.58000 237.569
41.59000 234.396
41.60000 231.387
41.61000 231.147
41.62000 231.744
41.63000 231.771
41.64000 227.357
41.65000 222.002
41.66000 218.240
41.67000 222.252
41.68000 227.300
41.69000 231.218
41.70000 235.200
41.71000 238.369
41.72000 238.808
41.73000 233.325
41.74000 227.639
41.75000 225.949
41.76000 230.057
41.77000 234.212
41.78000 236.709
41.79000 237.655
41.80000 238.546
41.81000 235.617
41.82000 230.356
41.83000 225.271
41.84000 224.116
41.85000 224.575
41.86000 225.003
41.87000 227.625
41.88000 230.551
41.89000 233.576
41.90000 237.250
41.91000 241.042
41.92000 243.104
41.93000 237.974
41.94000 232.054
41.95000 227.638
41.96000 230.151
41.97000 232.426
41.98000 234.932
41.99000 237.874
42.00000 240.825
42.01000 239.054
42.02000 231.435
42.03000 223.812
42.04000 220.998
42.05000 221.991
42.06000 223.048
42.07000 226.732
42.08000 231.797
42.09000 236.538
42.10000 235.908
42.11000 233.373
42.12000 231.050
42.13000 232.124
42.14000 233.795
42.15000 235.507
42.16000 237.443
42.17000 239.413
42.18000 240.056
42.19000 235.968
42.20000 231.459
42.21000 228.238
42.22000 227.281
42.23000 226.625
42.24000 224.848
42.25000 221.265
42.26000 217.658
42.27000 215.492
42.28000 214.839
42.29000 214.190
42.30000 218.282
42.31000 225.495
42.32000 232.414
42.33000 231.160
42.34000 226.199
42.35000 221.563
42.36000 221.114
42.37000 221.944
42.38000 222.689
42.39000 225.459
42.40000 228.238
42.41000 231.043
42.42000 233.964
42.43000 236.900
42.44000 237.317
42.45000 230.004
42.46000 222.149
42.47000 216.803
42.48000 216.587
42.49000 216.542
42.50000 218.361
42.51000 222.750
42.52000 227.153
42.53000 228.990
42.54000 228.553
42.55000 228.121
42.56000 223.084
42.57000 215.543
42.58000 208.547
42.59000 212.480
42.60000 220.695
42.61000 228.024
42.62000 226.273
42.63000 222.138
42.64000 218.510
42.65000 224.982
42.66000 232.019
42.67000 237.035
42.68000 234.050
42.69000 230.242
42.70000 226.642
42.71000 223.591
42.72000 220.570
42.73000 218.621
42.74000 222.143
42.75000 224.795
42.76000 223.402
42.77000 217.252
42.78000 211.117
42.79000 209.710
42.80000 211.864
42.81000 213.980
42.82000 214.607
42.83000 214.491
42.84000 214.317
42.85000 213.260
42.86000 211.904
42.87000 210.562
42.88000 209.340
42.89000 208.145
42.90000 207.123
42.91000 211.740
42.92000 216.311
42.93000 219.566
42.94000 218.349
42.95000 216.762
42.96000 215.554
42.97000 215.211
42.98000 214.902
42.99000 214.714
43.00000 212.441
43.01000 210.802
43.02000 212.588
43.03000 217.779
43.04000 222.915
43.05000 223.309
43.06000 220.643
43.07000 218.049
43.08000 218.361
43.09000 219.855
43.10000 221.041
43.11000 218.548
43.12000 214.986
43.13000 211.377
43.14000 207.447
43.15000 203.455
43.16000 200.138
43.17000 205.173
43.18000 210.154
43.19000 213.975
43.20000 214.403
43.21000 214.611
43.22000 215.500
43.23000 217.735
43.24000 220.005
43.25000 221.296
43.26000 213.251
43.27000 207.629
43.28000 208.936
43.29000 216.067
43.30000 223.084
43.31000 224.538
43.32000 222.905
43.33000 221.335
43.34000 219.644
43.35000 218.017
43.36000 216.146
43.37000 211.937
43.38000 207.143
43.39000 204.013
43.40000 210.537
43.41000 218.617
43.42000 225.121
43.43000 218.797
43.44000 212.665
43.45000 209.128
43.46000 212.146
43.47000 215.484
43.48000 217.309
43.49000 216.562
43.50000 215.773
43.51000 215.357
43.52000 214.906
43.53000 214.612
43.54000 216.193
43.55000 219.118
43.56000 221.858
43.57000 218.701
43.58000 212.723
43.59000 207.052
43.60000 208.652
43.61000 212.289
43.62000 214.926
43.63000 209.695
43.64000 202.786
43.65000 198.203
43.66000 205.041
43.67000 213.416
43.68000 219.923
43.69000 222.509
43.70000 224.327
43.71000 222.896
43.72000 214.379
43.73000 205.613
43.74000 204.921
43.75000 216.011
43.76000 227.201
43.77000 228.641
43.78000 220.910
43.79000 213.273
43.80000 212.348
43.81000 215.547
43.82000 218.545
43.83000 217.003
43.84000 213.587
43.85000 210.397
43.86000 210.250
43.87000 210.882
43.88000 211.124
43.89000 208.813
43.90000 206.041
43.91000 203.902
43.92000 204.410
43.93000 205.211
43.94000 205.810
43.95000 206.773
43.96000 207.541
43.97000 208.493
43.98000 209.793
43.99000 211.101
44.00000 210.548
44.01000 207.674
44.02000 204.799
44.03000 205.786
44.04000 209.837
44.05000 213.762
44.06000 212.381
44.07000 208.193
44.08000 204.418
44.09000 207.554
44.10000 213.154
44.11000 218.292
44.12000 219.330
44.13000 219.388
44.14000 219.016
44.15000 216.284
44.16000 213.193
44.17000 210.512
44.18000 209.298
44.19000 208.215
44.20000 207.441
44.21000 203.055
44.22000 199.584
44.23000 197.398
44.24000 197.294
44.25000 197.217
44.26000 198.293
44.27000 200.585
44.28000 202.866
44.29000 201.785
44.30000 198.454
44.31000 195.342
44.32000 198.428
44.33000 204.342
44.34000 209.918
44.35000 211.112
44.36000 210.959
44.37000 210.822
44.38000 209.376
44.39000 207.877
44.40000 205.968
44.41000 202.147
44.42000 198.085
44.43000 195.261
44.44000 196.262
44.45000 197.535
44.46000 198.402
44.47000 205.971
44.48000 211.785
44.49000 213.246
44.50000 208.663
44.51000 204.043
44.52000 202.502
44.53000 203.707
44.54000 204.900
44.55000 205.639
44.56000 206.103
44.57000 206.670
44.58000 209.335
44.59000 212.827
44.60000 215.541
44.61000 210.212
44.62000 202.759
44.63000 196.211
44.64000 192.576
44.65000 189.881
44.66000 188.995
44.67000 195.317
44.68000 202.386
44.69000 206.678
44.70000 203.577
44.71000 200.075
44.72000 197.810
44.73000 203.999
44.74000 208.648
44.75000 210.121
44.76000 207.836
44.77000 205.558
44.78000 206.207
44.79000 209.077
44.80000 211.896
44.81000 211.319
44.82000 209.107
44.83000 206.740
44.84000 201.985
44.85000 196.419
44.86000 191.941
44.87000 196.637
44.88000 203.406
44.89000 209.202
44.90000 210.289
44.91000 210.634
44.92000 210.942
44.93000 211.118
44.94000 211.284
44.95000 209.379
44.96000 202.711
44.97000 195.855
44.98000 191.677
44.99000 195.932
45.00000 199.040
45.01000 201.291
45.02000 202.683
45.03000 204.081
45.04000 206.082
45.05000 208.473
45.06000 210.801
45.07000 206.364
45.08000 199.334
45.09000 192.642
45.10000 190.005
45.11000 188.556
45.12000 187.753
45.13000 191.460
45.14000 196.034
45.15000 199.840
45.16000 198.268
45.17000 196.438
45.18000 196.671
45.19000 202.983
45.20000 209.691
45.21000 213.451
45.22000 211.356
45.23000 209.102
45.24000 207.817
45.25000 205.324
45.26000 203.580
45.27000 201.273
45.28000 198.490
45.29000 195.702
45.30000 192.685
45.31000 189.540
45.32000 186.513
45.33000 186.428
45.34000 187.384
45.35000 188.759
45.36000 194.176
45.37000 200.608
45.38000 205.842
45.39000 204.075
45.40000 201.172
45.41000 198.832
45.42000 199.855
45.43000 200.949
45.44000 200.984
45.45000 198.325
45.46000 195.534
45.47000 195.922
45.48000 201.747
45.49000 207.665
45.50000 210.796
45.51000 204.741
45.52000 200.634
45.53000 198.313
45.54000 197.280
45.55000 196.289
45.56000 196.642
45.57000 197.642
45.58000 198.591
45.59000 197.870
45.60000 196.705
45.61000 195.528
45.62000 194.250
45.63000 192.950
45.64000 191.762
45.65000 191.129
45.66000 190.571
45.67000 190.136
45.68000 194.791
45.69000 198.810
45.70000 200.662
45.71000 197.757
45.72000 194.683
45.73000 194.170
45.74000 197.416
45.75000 200.696
45.76000 201.586
45.77000 200.212
45.78000 198.870
45.79000 199.917
45.80000 202.440
45.81000 204.754
45.82000 202.314
45.83000 197.901
45.84000 193.776
45.85000 190.674
45.86000 188.119
45.87000 186.087
45.88000 187.500
45.89000 189.542
45.90000 191.874
45.91000 195.434
45.92000 199.131
45.93000 201.898
45.94000 199.225
45.95000 196.884
45.96000 193.986
45.97000 190.034
45.98000 186.057
45.99000 184.741
46.00000 186.764
46.01000 188.795
46.02000 190.833
46.03000 192.869
46.04000 194.811
46.05000 192.736
46.06000 188.524
46.07000 184.594
46.08000 185.429
46.09000 187.973
46.10000 190.308
46.11000 186.907
46.12000 182.650
46.13000 179.778
46.14000 184.571
46.15000 190.540
46.16000 194.590
46.17000 191.715
46.18000 188.214
46.19000 185.704
46.20000 185.177
46.21000 184.842
46.22000 185.636
46.23000 188.271
46.24000 190.932
46.25000 192.112
46.26000 191.718
46.27000 191.325
46.28000 190.638
46.29000 189.759
46.30000 188.865
46.31000 187.513
46.32000 185.951
46.33000 184.613
46.34000 186.205
46.35000 188.702
46.36000 190.949
46.37000 191.055
46.38000 190.765
46.39000 189.859
46.40000 186.059
46.41000 181.890
46.42000 178.889
46.43000 179.516
46.44000 180.401
46.45000 181.006
46.46000 180.721
46.47000 180.486
46.48000 182.592
46.49000 187.968
46.50000 193.363
46.51000 194.489
46.52000 191.782
46.53000 189.102
46.54000 186.877
46.55000 184.961
46.56000 183.125
46.57000 182.915
46.58000 183.350
46.59000 184.234
46.60000 189.796
46.61000 196.601
46.62000 202.585
46.63000 198.027
46.64000 192.539
46.65000 188.346
46.66000 189.343
46.67000 190.882
46.68000 189.937
46.69000 182.338
46.70000 174.374
46.71000 169.213
46.72000 176.915
46.73000 182.745
46.74000 186.699
46.75000 188.420
46.76000 190.118
46.77000 187.751
46.78000 182.281
46.79000 176.906
46.80000 176.558
46.81000 178.687
46.82000 180.873
46.83000 183.933
46.84000 187.292
46.85000 190.239
46.86000 189.692
46.87000 188.350
46.88000 187.199
46.89000 184.812
46.90000 182.644
46.91000 181.316
46.92000 182.876
46.93000 184.678
46.94000 185.486
46.95000 183.993
46.96000 182.407
46.97000 181.438
46.98000 182.190
46.99000 182.742
47.00000 183.627
47.01000 184.850
47.02000 186.079
47.03000 188.005
47.04000 190.386
47.05000 192.704
47.06000 189.988
47.07000 185.300
47.08000 181.146
47.09000 183.480
47.10000 187.725
47.11000 191.177
47.12000 189.061
47.13000 185.867
47.14000 183.205
47.15000 181.556
47.16000 180.289
47.17000 180.701
47.18000 186.085
47.19000 191.796
47.20000 194.122
47.21000 189.690
47.22000 185.070
47.23000 182.429
47.24000 182.889
47.25000 183.218
47.26000 182.042
47.27000 179.584
47.28000 177.151
47.29000 175.969
47.30000 175.490
47.31000 175.028
47.32000 178.986
47.33000 184.270
47.34000 188.574
47.35000 183.339
47.36000 175.691
47.37000 169.715
47.38000 173.579
47.39000 179.050
47.40000 183.466
47.41000 188.745
47.42000 193.104
47.43000 195.033
47.44000 190.753
47.45000 186.164
47.46000 183.309
47.47000 183.439
47.48000 183.621
47.49000 183.717
47.50000 184.652
47.51000 185.289
47.52000 186.101
47.53000 187.040
47.54000 187.818
47.55000 183.303
47.56000 176.224
47.57000 169.500
47.58000 172.352
47.59000 177.872
47.60000 182.773
47.61000 182.747
47.62000 181.656
47.63000 180.781
47.64000 180.981
47.65000 181.327
47.66000 181.598
47.67000 183.689
47.68000 185.469
47.69000 187.319
47.70000 189.323
47.71000 191.332
47.72000 192.180
47.73000 191.312
47.74000 190.428
47.75000 191.086
47.76000 193.214
47.77000 195.254
47.78000 190.642
47.79000 181.894
47.80000 173.572
47.81000 175.097
47.82000 180.736
47.83000 186.010
47.84000 185.972
47.85000 184.583
47.86000 183.078
47.87000 180.796
47.88000 178.373
47.89000 175.762
47.90000 172.358
47.91000 168.866
47.92000 166.247
47.93000 167.729
47.94000 169.080
47.95000 169.983
47.96000 170.033
47.97000 170.063
47.98000 172.234
47.99000 177.109
48.00000 181.987
48.01000 184.401
48.02000 184.823
48.03000 185.246
48.04000 185.728
48.05000 186.242
48.06000 186.772
48.07000 187.580
48.08000 188.490
48.09000 189.326
48.10000 184.859
48.11000 179.732
48.12000 175.160
48.13000 173.676
48.14000 172.668
48.15000 173.389
48.16000 180.391
48.17000 187.965
48.18000 193.406
48.19000 186.920
48.20000 181.546
48.21000 179.372
48.22000 182.444
48.23000 185.592
48.24000 183.938
48.25000 177.136
48.26000 170.366
48.27000 172.538
48.28000 180.786
48.29000 188.705
48.30000 187.017
48.31000 180.893
48.32000 175.237
48.33000 175.768
48.34000 178.224
48.35000 180.436
48.36000 179.807
48.37000 178.744
48.38000 178.618
48.39000 182.916
48.40000 187.782
48.41000 189.183
48.42000 179.755
48.43000 169.547
48.44000 162.555
48.45000 169.546
48.46000 175.116
48.47000 178.080
48.48000 177.379
48.49000 176.653
48.50000 175.582
48.51000 174.200
48.52000 172.831
48.53000 173.395
48.54000 175.068
48.55000 176.697
48.56000 177.436
48.57000 177.820
48.58000 178.157
48.59000 177.996
48.60000 177.702
48.61000 177.443
48.62000 174.465
48.63000 171.494
48.64000 170.044
48.65000 174.734
48.66000 180.070
48.67000 183.374
48.68000 181.199
48.69000 178.721
48.70000 177.112
48.71000 181.675
48.72000 185.112
48.73000 185.243
48.74000 181.407
48.75000 177.574
48.76000 176.207
48.77000 176.736
48.78000 177.255
48.79000 171.674
48.80000 163.270
48.81000 155.555
48.82000 158.644
48.83000 165.450
48.84000 171.946
48.85000 175.781
48.86000 179.007
48.87000 181.776
48.88000 175.258
48.89000 168.605
48.90000 164.043
48.91000 166.714
48.92000 169.999
48.93000 171.893
48.94000 170.551
48.95000 169.076
48.96000 168.172
48.97000 170.801
48.98000 172.714
48.99000 171.847
49.00000 168.161
49.01000 164.527
49.02000 165.865
49.03000 170.470
49.04000 174.956
49.05000 175.238
49.06000 173.743
49.07000 172.435
49.08000 173.425
49.09000 175.095
49.10000 176.202
49.11000 173.317
49.12000 169.656
49.13000 166.601
49.14000 169.390
49.15000 172.289
49.16000 173.668
49.17000 170.519
49.18000 167.069
49.19000 166.437
49.20000 171.466
49.21000 176.655
49.22000 179.630
49.23000 171.675
49.24000 166.086
49.25000 166.168
49.26000 171.112
49.27000 175.987
49.28000 177.302
49.29000 176.605
49.30000 175.934
49.31000 176.374
49.32000 177.184
49.33000 178.020
49.34000 179.116
49.35000 180.278
49.36000 180.685
49.37000 176.613
49.38000 171.805
49.39000 167.919
49.40000 170.588
49.41000 173.285
49.42000 175.741
49.43000 177.579
49.44000 179.386
49.45000 180.414
49.46000 180.094
49.47000 179.750
49.48000 179.567
49.49000 177.933
49.50000 176.808
49.51000 173.859
49.52000 169.577
49.53000 165.400
49.54000 164.733
49.55000 165.775
49.56000 166.766
49.57000 169.171
49.58000 171.822
49.59000 173.893
49.60000 171.297
49.61000 167.686
49.62000 164.455
49.63000 163.130
49.64000 162.066
49.65000 161.236
49.66000 167.293
49.67000 172.555
49.68000 175.922
49.69000 175.080
49.70000 174.085
49.71000 173.526
49.72000 173.616
49.73000 173.712
49.74000 173.000
49.75000 171.511
49.76000 169.998
49.77000 166.648
49.78000 162.148
49.79000 157.933
49.80000 160.368
49.81000 165.599
49.82000 170.494
49.83000 166.878
49.84000 161.406
49.85000 156.885
49.86000 158.717
49.87000 161.722
49.88000 164.043
49.89000 163.445
49.90000 162.516
49.91000 161.818
49.92000 156.818
49.93000 152.705
49.94000 153.187
49.95000 162.471
49.96000 171.972
49.97000 174.886
49.98000 169.426
49.99000 163.945
50.00000 162.349
50.01000 163.910
50.02000 165.447
50.03000 165.888
50.04000 165.739
50.05000 165.543
50.06000 164.525
50.07000 163.208
50.08000 161.998
50.09000 160.759
50.10000 159.647
50.11000 159.118
50.12000 161.859
50.13000 165.109
50.14000 167.895
50.15000 168.988
50.16000 169.926
50.17000 170.600
50.18000 166.915
50.19000 163.940
50.20000 162.155
50.21000 162.331
50.22000 162.536
50.23000 164.005
50.24000 166.838
50.25000 169.658
50.26000 171.780
50.27000 173.398
50.28000 174.789
50.29000 169.472
50.30000 161.040
50.31000 153.347
50.32000 155.539
50.33000 160.822
50.34000 165.584
50.35000 166.699
50.36000 167.017
50.37000 167.411
50.38000 168.171
50.39000 168.979
50.40000 169.595
50.41000 169.605
50.42000 169.571
50.43000 169.548
50.44000 160.520
50.45000 153.534
50.46000 150.652
50.47000 153.578
50.48000 156.546
50.49000 157.789
50.50000 157.464
50.51000 157.142
50.52000 160.469
50.53000 165.855
50.54000 170.942
50.55000 169.703
50.56000 165.927
50.57000 162.328
50.58000 160.612
50.59000 159.403
50.60000 158.337
50.61000 158.699
50.62000 159.227
50.63000 160.238
50.64000 163.215
50.65000 166.401
50.66000 167.593
50.67000 163.380
50.68000 158.863
50.69000 155.922
50.70000 157.633
50.71000 158.959
50.72000 159.522
50.73000 159.163
50.74000 158.816
50.75000 162.138
50.76000 168.295
50.77000 174.349
50.78000 173.681
50.79000 169.695
50.80000 165.938
50.81000 165.811
50.82000 166.941
50.83000 168.082
50.84000 169.319
50.85000 170.578
50.86000 171.660
50.87000 167.358
50.88000 163.050
50.89000 160.845
50.90000 165.960
50.91000 171.701
50.92000 173.987
50.93000 168.187
50.94000 162.052
50.95000 158.285
50.96000 158.812
50.97000 159.226
50.98000 157.106
50.99000 152.396
51.00000 147.752
51.01000 149.602
51.02000 155.745
51.03000 161.731
51.04000 163.584
51.05000 163.603
51.06000 163.530
51.07000 162.307
51.08000 160.742
51.09000 159.556
51.10000 161.074
51.11000 163.122
51.12000 164.833
51.13000 164.390
51.14000 163.804
51.15000 161.883
51.16000 155.954
51.17000 149.756
51.18000 146.681
51.19000 149.916
51.20000 153.332
51.21000 155.296
51.22000 154.835
51.23000 154.505
51.24000 155.051
51.25000 156.352
51.26000 157.707
51.27000 161.902
51.28000 167.711
51.29000 173.309
51.30000 170.235
51.31000 164.228
51.32000 158.755
51.33000 158.571
51.34000 159.742
51.35000 160.667
51.36000 160.121
51.37000 159.332
51.38000 158.693
51.39000 153.478
51.40000 148.862
51.41000 146.468
51.42000 149.824
51.43000 153.474
51.44000 156.514
51.45000 158.494
51.46000 160.455
51.47000 161.502
51.48000 162.675
51.49000 163.463
51.50000 162.246
51.51000 159.557
51.52000 156.982
51.53000 158.311
51.54000 161.553
51.55000 164.636
51.56000 162.313
51.57000 158.513
51.58000 155.395
51.59000 157.802
51.60000 161.418
51.61000 164.411
51.62000 164.262
51.63000 163.677
51.64000 163.220
51.65000 159.166
51.66000 155.701
51.67000 154.675
51.68000 159.095
51.69000 163.716
51.70000 165.590
51.71000 163.352
51.72000 161.075
51.73000 162.166
51.74000 166.515
51.75000 170.812
51.76000 171.086
51.77000 168.826
51.78000 166.470
51.79000 161.828
51.80000 156.219
51.81000 150.966
51.82000 152.245
51.83000 155.097
51.84000 158.100
51.85000 162.121
51.86000 166.333
51.87000 169.529
51.88000 168.369
51.89000 166.711
51.90000 165.463
51.91000 164.061
51.92000 162.956
51.93000 162.632
51.94000 163.810
51.95000 165.026
51.96000 164.748
51.97000 162.560
51.98000 160.367
51.99000 158.746
52.00000 157.596
52.01000 156.509
52.02000 158.271
52.03000 161.576
52.04000 164.443
52.05000 159.668
52.06000 152.102
52.07000 145.140
52.08000 149.704
52.09000 156.296
52.10000 162.148
52.11000 163.826
52.12000 164.850
52.13000 164.197
52.14000 157.375
52.15000 149.981
52.16000 144.651
52.17000 149.412
52.18000 153.419
52.19000 155.497
52.20000 154.372
52.21000 153.199
52.22000 154.461
52.23000 158.367
52.24000 162.256
52.25000 162.031
52.26000 158.962
52.27000 156.018
52.28000 156.831
52.29000 159.399
52.30000 161.685
52.31000 160.177
52.32000 157.474
52.33000 155.036
52.34000 155.477
52.35000 156.391
52.36000 157.209
52.37000 157.567
52.38000 157.865
52.39000 158.469
52.40000 160.044
52.41000 161.691
52.42000 162.823
52.43000 160.416
52.44000 158.524
52.45000 156.107
52.46000 152.944
52.47000 149.777
52.48000 148.264
52.49000 148.267
52.50000 148.271
52.51000 149.175
52.52000 150.591
52.53000 151.938
52.54000 151.796
52.55000 151.054
52.56000 150.161
52.57000 147.649
52.58000 144.699
52.59000 142.097
52.60000 148.078
52.61000 154.540
52.62000 158.714
52.63000 153.547
52.64000 147.379
52.65000 143.693
52.66000 146.773
52.67000 150.237
52.68000 152.497
52.69000 151.443
52.70000 150.616
52.71000 152.563
52.72000 157.879
52.73000 163.179
52.74000 162.117
52.75000 156.105
52.76000 150.192
52.77000 149.164
52.78000 150.610
52.79000 152.197
52.80000 156.034
52.81000 160.655
52.82000 164.473
52.83000 161.314
52.84000 156.538
52.85000 152.431
52.86000 147.254
52.87000 142.739
52.88000 141.229
52.89000 150.250
52.90000 160.180
52.91000 165.431
52.92000 159.664
52.93000 153.436
52.94000 149.602
52.95000 150.663
52.96000 151.468
52.97000 152.663
52.98000 154.260
52.99000 155.806
53.00000 152.115
53.01000 144.942
53.02000 137.949
53.03000 138.613
53.04000 142.504
53.05000 146.554
53.06000 152.586
53.07000 159.213
53.08000 164.476
53.09000 159.944
53.10000 153.479
53.11000 148.073
53.12000 149.183
53.13000 150.768
53.14000 152.436
53.15000 154.353
53.16000 156.287
53.17000 156.419
53.18000 152.888
53.19000 149.250
53.20000 147.152
53.21000 147.325
53.22000 147.454
53.23000 146.516
53.24000 144.651
53.25000 142.801
53.26000 141.799
53.27000 141.281
53.28000 140.782
53.29000 144.270
53.30000 148.994
53.31000 153.279
53.32000 153.188
53.33000 151.968
53.34000 150.942
53.35000 151.083
53.36000 151.418
53.37000 151.689
53.38000 155.822
53.39000 159.505
53.40000 161.200
53.41000 157.723
53.42000 153.978
53.43000 149.928
53.44000 145.344
53.45000 140.749
53.46000 138.287
53.47000 143.431
53.48000 146.930
53.49000 147.236
53.50000 145.180
53.51000 143.278
53.52000 146.690
53.53000 152.721
53.54000 158.460
53.55000 157.599
53.56000 154.774
53.57000 152.062
53.58000 150.262
53.59000 148.665
53.60000 147.358
53.61000 147.526
53.62000 147.900
53.63000 148.193
53.64000 152.170
53.65000 155.583
53.66000 156.887
53.67000 153.450
53.68000 149.835
53.69000 147.747
53.70000 147.959
53.71000 148.194
53.72000 148.336
53.73000 148.389
53.74000 148.458
53.75000 149.872
53.76000 152.139
53.77000 154.309
53.78000 154.173
53.79000 153.056
53.80000 152.009
53.81000 149.648
53.82000 147.157
53.83000 145.326
53.84000 147.963
53.85000 151.436
53.86000 153.952
53.87000 152.337
53.88000 150.247
53.89000 148.671
53.90000 150.301
53.91000 151.734
53.92000 151.908
53.93000 149.641
53.94000 147.312
53.95000 146.981
53.96000 149.225
53.97000 151.476
53.98000 151.473
53.99000 149.617
54.00000 147.783
54.01000 146.972
54.02000 146.717
54.03000 146.516
54.04000 147.258
54.05000 148.346
54.06000 149.347
54.07000 148.020
54.08000 146.321
54.09000 145.120
54.10000 146.754
54.11000 148.835
54.12000 149.902
54.13000 147.218
54.14000 144.182
54.15000 141.990
54.16000 139.906
54.17000 138.312
54.18000 138.166
54.19000 140.439
54.20000 142.750
54.21000 143.555
54.22000 142.715
54.23000 141.878
54.24000 142.621
54.25000 144.458
54.26000 146.193
54.27000 144.830
54.28000 142.010
54.29000 139.498
54.30000 141.184
54.31000 144.200
54.32000 146.922
54.33000 147.481
54.34000 147.575
54.35000 147.642
54.36000 147.583
54.37000 147.507
54.38000 148.169
54.39000 151.184
54.40000 154.373
54.41000 156.570
54.42000 149.247
54.43000 143.508
54.44000 139.224
54.45000 137.022
54.46000 134.836
54.47000 134.648
54.48000 136.302
54.49000 137.940
54.50000 139.647
54.51000 141.360
54.52000 142.871
54.53000 140.017
54.54000 135.392
54.55000 131.282
54.56000 132.732
54.57000 135.698
54.58000 138.315
54.59000 139.646
54.60000 140.597
54.61000 141.167
54.62000 140.167
54.63000 138.998
54.64000 138.835
54.65000 141.434
54.66000 144.192
54.67000 145.995
54.68000 146.459
54.69000 146.778
54.70000 147.330
54.71000 148.166
54.72000 148.992
54.73000 146.872
54.74000 142.445
54.75000 138.089
54.76000 141.933
54.77000 149.782
54.78000 156.877
54.79000 151.763
54.80000 142.373
54.81000 134.055
54.82000 135.140
54.83000 138.419
54.84000 141.241
54.85000 144.175
54.86000 146.673
54.87000 147.810
54.88000 144.145
54.89000 140.062
54.90000 137.028
54.91000 136.482
54.92000 136.041
54.93000 135.769
54.94000 139.534
54.95000 142.275
54.96000 141.520
54.97000 137.143
54.98000 132.820
54.99000 134.236
55.00000 139.492
55.01000 144.619
55.02000 144.524
55.03000 142.198
55.04000 139.766
55.05000 136.000
55.06000 131.831
55.07000 128.947
55.08000 135.355
55.09000 143.609
55.10000 150.519
55.11000 147.352
55.12000 143.683
55.13000 141.704
55.14000 144.852
55.15000 148.352
55.16000 150.249
55.17000 148.869
55.18000 147.391
55.19000 146.537
55.20000 143.020
55.21000 140.544
55.22000 138.199
55.23000 135.968
55.24000 133.763
55.25000 132.981
55.26000 133.018
55.27000 133.054
55.28000 137.712
55.29000 143.777
55.30000 149.550
55.31000 152.368
55.32000 154.419
55.33000 155.777
55.34000 152.942
55.35000 149.402
55.36000 146.528
55.37000 139.704
55.38000 133.814
55.39000 131.066
55.40000 136.544
55.41000 142.452
55.42000 144.158
55.43000 138.460
55.44000 132.621
55.45000 129.483
55.46000 137.689
55.47000 143.279
55.48000 143.553
55.49000 139.871
55.50000 136.229
55.51000 134.001
55.52000 132.475
55.53000 131.022
55.54000 130.469
55.55000 130.236
55.56000 130.654
55.57000 136.434
55.58000 143.402
55.59000 148.876
55.60000 146.715
55.61000 143.481
55.62000 140.945
55.63000 143.871
55.64000 146.564
55.65000 148.404
55.66000 148.318
55.67000 148.158
55.68000 146.472
55.69000 142.475
55.70000 138.455
55.71000 136.229
55.72000 135.761
55.73000 135.285
55.74000 134.027
55.75000 132.272
55.76000 130.652
55.77000 132.337
55.78000 135.435
55.79000 138.340
55.80000 139.855
55.81000 140.870
55.82000 141.420
55.83000 138.797
55.84000 135.576
55.85000 133.615
55.86000 137.129
55.87000 141.279
55.88000 144.412
55.89000 141.945
55.90000 139.735
55.91000 139.608
55.92000 143.545
55.93000 147.586
55.94000 148.389
55.95000 144.993
55.96000 141.585
55.97000 139.096
55.98000 137.376
55.99000 135.695
56.00000 135.877
56.01000 137.080
56.02000 138.249
56.03000 138.791
56.04000 139.102
56.05000 139.388
56.06000 144.450
56.07000 150.036
56.08000 154.065
56.09000 149.175
56.10000 142.868
56.11000 136.729
56.12000 131.215
56.13000 125.760
56.14000 121.813
56.15000 125.826
56.16000 129.197
56.17000 131.152
56.18000 130.728
56.19000 130.266
56.20000 131.238
56.21000 133.788
56.22000 136.329
56.23000 136.353
56.24000 134.613
56.25000 132.958
56.26000 133.939
56.27000 136.167
56.28000 138.258
56.29000 138.468
56.30000 138.079
56.31000 137.728
56.32000 139.303
56.33000 141.045
56.34000 142.558
56.35000 142.959
56.36000 143.213
56.37000 143.240
56.38000 142.539
56.39000 141.784
56.40000 141.262
56.41000 137.781
56.42000 135.089
56.43000 136.328
56.44000 143.235
56.45000 150.185
56.46000 151.153
56.47000 146.565
56.48000 142.019
56.49000 139.131
56.50000 137.288
56.51000 135.518
56.52000 135.373
56.53000 135.891
56.54000 136.786
56.55000 141.784
56.56000 147.906
56.57000 153.316
56.58000 147.251
56.59000 140.243
56.60000 134.594
56.61000 134.565
56.62000 135.149
56.63000 136.200
56.64000 138.543
56.65000 140.960
56.66000 142.545
56.67000 135.855
56.68000 130.800
56.69000 130.945
56.70000 137.492
56.71000 144.034
56.72000 144.054
56.73000 138.933
56.74000 133.894
56.75000 134.357
56.76000 137.592
56.77000 140.448
56.78000 137.100
56.79000 131.565
56.80000 126.712
56.81000 127.881
56.82000 130.465
56.83000 132.692
56.84000 135.336
56.85000 137.630
56.86000 138.941
56.87000 136.761
56.88000 134.275
56.89000 132.034
56.90000 130.376
56.91000 128.744
56.92000 127.734
56.93000 124.824
56.94000 122.715
56.95000 122.559
56.96000 124.443
56.97000 126.333
56.98000 128.968
56.99000 132.104
57.00000 135.163
57.01000 139.165
57.02000 143.396
57.03000 147.028
57.04000 143.035
57.05000 136.727
57.06000 130.912
57.07000 128.693
57.08000 127.195
57.09000 125.938
57.10000 128.364
57.11000 130.764
57.12000 132.125
57.13000 130.316
57.14000 128.286
57.15000 127.501
57.16000 129.276
57.17000 131.127
57.18000 132.200
57.19000 135.848
57.20000 138.414
57.21000 137.282
57.22000 132.894
57.23000 128.577
57.24000 128.229
57.25000 130.180
57.26000 132.061
57.27000 133.288
57.28000 134.202
57.29000 135.139
57.30000 136.299
57.31000 137.517
57.32000 137.956
57.33000 133.652
57.34000 128.545
57.35000 124.394
57.36000 125.065
57.37000 126.013
57.38000 127.647
57.39000 131.086
57.40000 134.621
57.41000 137.886
57.42000 140.672
57.43000 143.448
57.44000 144.945
57.45000 143.100
57.46000 141.816
57.47000 136.823
57.48000 129.050
57.49000 121.532
57.50000 123.062
57.51000 129.105
57.52000 134.861
57.53000 135.648
57.54000 134.829
57.55000 134.202
57.56000 135.166
57.57000 136.485
57.58000 137.301
57.59000 135.531
57.60000 133.394
57.61000 131.716
57.62000 136.307
57.63000 140.389
57.64000 142.674
57.65000 140.872
57.66000 138.913
57.67000 137.298
57.68000 136.210
57.69000 135.127
57.70000 134.771
57.71000 135.133
57.72000 135.483
57.73000 134.853
57.74000 133.595
57.75000 132.465
57.76000 134.489
57.77000 137.871
57.78000 141.045
57.79000 139.643
57.80000 137.158
57.81000 134.425
57.82000 129.986
57.83000 125.222
57.84000 121.688
57.85000 123.533
57.86000 126.009
57.87000 127.880
57.88000 132.345
57.89000 135.977
57.90000 137.317
57.91000 134.162
57.92000 130.889
57.93000 129.258
57.94000 129.770
57.95000 130.290
57.96000 130.259
57.97000 129.769
57.98000 129.303
57.99000 130.019
58.00000 131.388
58.01000 132.702
58.02000 133.035
58.03000 133.003
58.04000 132.974
58.05000 133.209
58.06000 133.479
58.07000 133.349
58.08000 130.907
58.09000 128.097
58.10000 127.289
58.11000 133.985
58.12000 141.395
58.13000 146.766
58.14000 142.998
58.15000 139.765
58.16000 136.331
58.17000 132.558
58.18000 128.779
58.19000 127.799
58.20000 129.922
58.21000 132.038
58.22000 134.166
58.23000 136.281
58.24000 138.279
58.25000 136.621
58.26000 133.222
58.27000 130.264
58.28000 133.421
58.29000 138.539
58.30000 143.167
58.31000 144.287
58.32000 144.618
58.33000 144.220
58.34000 140.268
58.35000 135.841
58.36000 132.747
58.37000 133.946
58.38000 135.471
58.39000 136.525
58.40000 136.217
58.41000 135.949
58.42000 135.109
58.43000 133.438
58.44000 131.760
58.45000 131.956
58.46000 133.903
58.47000 135.833
58.48000 135.149
58.49000 132.910
58.50000 130.875
58.51000 133.345
58.52000 137.666
58.53000 141.482
58.54000 139.751
58.55000 136.490
58.56000 133.606
58.57000 136.697
58.58000 140.297
58.59000 142.946
58.60000 141.637
58.61000 139.894
58.62000 137.770
58.63000 134.590
58.64000 131.348
58.65000 129.219
58.66000 126.412
58.67000 124.336
58.68000 126.864
58.69000 135.100
58.70000 143.330
58.71000 144.902
58.72000 141.193
58.73000 137.541
58.74000 135.568
58.75000 134.513
58.76000 133.426
58.77000 131.801
58.78000 129.985
58.79000 128.490
58.80000 129.852
58.81000 131.889
58.82000 133.647
58.83000 130.584
58.84000 127.368
58.85000 125.989
58.86000 131.166
58.87000 136.925
58.88000 140.099
58.89000 137.079
58.90000 133.788
58.91000 131.748
58.92000 132.949
58.93000 133.845
58.94000 134.659
58.95000 135.386
58.96000 136.106
58.97000 135.986
58.98000 135.296
58.99000 134.622
59.00000 134.786
59.01000 135.307
59.02000 135.828
59.03000 136.364
59.04000 136.905
59.05000 137.755
59.06000 140.880
59.07000 144.462
59.08000 147.469
59.09000 141.886
59.10000 136.340
59.11000 132.656
59.12000 134.687
59.13000 137.119
59.14000 138.538
59.15000 137.859
59.16000 137.116
59.17000 136.684
59.18000 141.005
59.19000 144.056
59.20000 141.819
59.21000 134.898
59.22000 128.036
59.23000 124.658
59.24000 123.307
59.25000 122.004
59.26000 123.489
59.27000 125.917
59.28000 128.459
59.29000 132.163
59.30000 136.172
59.31000 139.799
59.32000 141.078
59.33000 141.958
59.34000 142.673
59.35000 139.503
59.36000 136.588
59.37000 134.061
59.38000 132.565
59.39000 131.123
59.40000 128.969
59.41000 125.542
59.42000 122.091
59.43000 120.224
59.44000 123.737
59.45000 126.156
59.46000 130.306
59.47000 135.760
59.48000 141.062
59.49000 140.878
59.50000 137.940
59.51000 135.141
59.52000 132.433
59.53000 129.950
59.54000 127.864
59.55000 129.085
59.56000 131.050
59.57000 133.028
59.58000 135.069
59.59000 137.120
59.60000 138.732
59.61000 141.265
59.62000 143.353
59.63000 142.341
59.64000 134.237
59.65000 125.855
59.66000 123.311
59.67000 129.723
59.68000 136.232
59.69000 140.323
59.70000 142.011
59.71000 143.653
59.72000 141.184
59.73000 136.063
59.74000 131.073
59.75000 129.374
59.76000 129.098
59.77000 128.840
59.78000 132.461
59.79000 136.794
59.80000 140.631
59.81000 141.032
59.82000 140.777
59.83000 139.686
59.84000 134.911
59.85000 129.701
59.86000 125.757
59.87000 130.711
59.88000 135.051
59.89000 137.170
59.90000 134.908
59.91000 132.528
59.92000 130.776
59.93000 129.847
59.94000 128.923
59.95000 128.496
59.96000 128.486
59.97000 128.507
59.98000 130.039
59.99000 132.409
60.00000 134.679
60.01000 135.115
60.02000 134.866
60.03000 134.635
60.04000 134.930
60.05000 135.311
60.06000 135.470
60.07000 134.337
60.08000 132.995
60.09000 132.683
60.10000 136.247
60.11000 140.185
60.12000 143.044
60.13000 139.129
60.14000 135.865
60.15000 133.771
60.16000 133.667
60.17000 133.595
60.18000 132.157
60.19000 129.194
60.20000 126.240
60.21000 126.071
60.22000 127.879
60.23000 129.676
60.24000 131.099
60.25000 132.343
60.26000 133.651
60.27000 135.841
60.28000 138.315
60.29000 140.555
60.30000 137.960
60.31000 134.765
60.32000 131.916
60.33000 130.771
60.34000 129.854
60.35000 128.870
60.36000 127.669
60.37000 126.450
60.38000 125.606
60.39000 129.571
60.40000 132.684
60.41000 134.756
60.42000 135.311
60.43000 135.853
60.44000 135.640
60.45000 134.715
60.46000 133.799
60.47000 132.614
60.48000 131.290
60.49000 130.128
60.50000 132.606
60.51000 136.587
60.52000 140.131
60.53000 138.815
60.54000 136.152
60.55000 133.793
60.56000 131.497
60.57000 129.521
60.58000 127.704
60.59000 126.555
60.60000 125.480
60.61000 125.328
60.62000 127.754
60.63000 130.333
60.64000 132.031
60.65000 128.756
60.66000 126.259
60.67000 126.072
60.68000 128.768
60.69000 131.470
60.70000 133.490
60.71000 134.964
60.72000 136.415
60.73000 136.370
60.74000 135.559
60.75000 134.793
60.76000 134.793
60.77000 135.066
60.78000 135.108
60.79000 133.073
60.80000 130.545
60.81000 128.361
60.82000 131.126
60.83000 134.113
60.84000 136.585
60.85000 137.206
60.86000 137.663
60.87000 136.520
60.88000 131.524
60.89000 126.358
60.90000 123.146
60.91000 131.001
60.92000 136.766
60.93000 138.840
60.94000 137.012
60.95000 135.190
60.96000 134.260
60.97000 133.938
60.98000 133.624
60.99000 133.522
61.00000 133.517
61.01000 133.435
61.02000 132.347
61.03000 130.951
61.04000 130.088
61.05000 133.164
61.06000 137.038
61.07000 140.294
61.08000 138.885
61.09000 137.219
61.10000 135.175
61.11000 131.961
61.12000 128.665
61.13000 127.549
61.14000 130.973
61.15000 134.537
61.16000 136.616
61.17000 131.355
61.18000 127.627
61.19000 129.774
61.20000 137.162
61.21000 144.429
61.22000 144.521
61.23000 140.410
61.24000 136.439
61.25000 139.755
61.26000 145.586
61.27000 150.455
61.28000 145.361
61.29000 137.635
61.30000 130.870
61.31000 130.042
61.32000 130.232
61.33000 130.388
61.34000 129.780
61.35000 129.219
61.36000 129.211
61.37000 130.675
61.38000 132.220
61.39000 133.975
61.40000 136.108
61.41000 138.248
61.42000 139.409
61.43000 134.380
61.44000 130.942
61.45000 130.882
61.46000 133.385
61.47000 135.957
61.48000 141.047
61.49000 147.407
61.50000 153.473
61.51000 157.847
61.52000 161.370
61.53000 164.964
61.54000 169.140
61.55000 173.449
61.56000 179.922
61.57000 197.672
61.58000 217.043
61.59000 232.297
61.60000 236.286
61.61000 238.730
61.62000 240.706
61.63000 241.609
61.64000 242.469
61.65000 244.480
61.66000 248.267
61.67000 252.074
61.68000 253.979
61.69000 259.622
61.70000 263.336
61.71000 262.741
61.72000 259.346
61.73000 256.021
61.74000 254.479
61.75000 253.712
61.76000 252.992
61.77000 242.006
61.78000 229.236
61.79000 217.162
61.80000 209.945
61.81000 203.662
61.82000 197.150
61.83000 189.622
61.84000 181.973
61.85000 176.173
61.86000 160.119
61.87000 146.984
61.88000 139.522
61.89000 143.324
61.90000 147.434
61.91000 148.193
61.92000 144.524
61.93000 140.838
61.94000 139.261
61.95000 139.470
61.96000 139.674
61.97000 139.681
61.98000 139.579
61.99000 139.353
62.00000 136.843
62.01000 133.475
62.02000 130.364
62.03000 133.876
62.04000 138.521
62.05000 142.750
62.06000 144.551
62.07000 145.958
62.08000 146.904
62.09000 146.100
62.10000 145.126
62.11000 144.417
62.12000 142.160
62.13000 140.365
62.14000 137.890
62.15000 134.254
62.16000 130.598
62.17000 132.209
62.18000 139.737
62.19000 147.241
62.20000 148.692
62.21000 145.803
62.22000 143.059
62.23000 145.056
62.24000 149.336
62.25000 153.262
62.26000 152.183
62.27000 149.480
62.28000 147.031
62.29000 145.343
62.30000 143.999
62.31000 143.034
62.32000 143.941
62.33000 145.102
62.34000 144.914
62.35000 140.331
62.36000 135.408
62.37000 131.989
62.38000 131.950
62.39000 132.012
62.40000 132.879
62.41000 134.931
62.42000 136.994
62.43000 139.422
62.44000 142.197
62.45000 144.948
62.46000 148.793
62.47000 153.231
62.48000 157.455
62.49000 156.787
62.50000 154.086
62.51000 151.303
62.52000 147.597
62.53000 143.633
62.54000 140.120
62.55000 141.647
62.56000 143.764
62.57000 146.327
62.58000 150.768
62.59000 155.420
62.60000 157.151
62.61000 150.678
62.62000 143.713
62.63000 139.118
62.64000 137.989
62.65000 137.218
62.66000 138.372
62.67000 141.942
62.68000 145.508
62.69000 144.827
62.70000 140.732
62.71000 136.699
62.72000 137.688
62.73000 141.242
62.74000 144.681
62.75000 146.173
62.76000 146.966
62.77000 147.357
62.78000 144.113
62.79000 139.999
62.80000 136.442
62.81000 138.589
62.82000 141.157
62.83000 143.320
62.84000 144.026
62.85000 144.599
62.86000 144.836
62.87000 144.256
62.88000 143.640
62.89000 143.257
62.90000 146.076
62.91000 148.141
62.92000 148.130
62.93000 145.910
62.94000 143.701
62.95000 142.942
62.96000 143.177
62.97000 143.407
62.98000 143.649
62.99000 143.885
63.00000 144.177
63.01000 145.197
63.02000 146.442
63.03000 148.099
63.04000 152.826
63.05000 158.179
63.06000 162.681
63.07000 156.910
63.08000 151.006
63.09000 146.622
63.10000 146.962
63.11000 147.640
63.12000 148.970
63.13000 151.666
63.14000 154.405
63.15000 156.006
63.16000 151.024
63.17000 147.490
63.18000 148.497
63.19000 153.582
63.20000 158.594
63.21000 159.130
63.22000 157.029
63.23000 154.998
63.24000 150.102
63.25000 144.413
63.26000 139.559
63.27000 143.423
63.28000 149.605
63.29000 154.234
63.30000 149.209
63.31000 142.516
63.32000 137.056
63.33000 140.179
63.34000 143.467
63.35000 145.533
63.36000 144.326
63.37000 142.939
63.38000 143.694
63.39000 148.318
63.40000 153.021
63.41000 155.581
63.42000 150.087
63.43000 146.329
63.44000 147.357
63.45000 152.041
63.46000 156.601
63.47000 156.538
63.48000 154.127
63.49000 151.826
63.50000 152.949
63.51000 155.080
63.52000 156.905
63.53000 156.140
63.54000 154.785
63.55000 153.591
63.56000 153.240
63.57000 153.010
63.58000 152.829
63.59000 152.384
63.60000 152.009
63.61000 152.318
63.62000 154.208
63.63000 156.162
63.64000 155.736
63.65000 151.615
63.66000 147.452
63.67000 145.362
63.68000 152.379
63.69000 157.027
63.70000 158.364
63.71000 157.536
63.72000 156.633
63.73000 153.789
63.74000 150.094
63.75000 146.620
63.76000 145.854
63.77000 145.883
63.78000 146.095
63.79000 147.583
63.80000 149.319
63.81000 150.521
63.82000 149.342
63.83000 147.877
63.84000 146.764
63.85000 146.512
63.86000 146.359
63.87000 146.729
63.88000 148.142
63.89000 149.584
63.90000 150.777
63.91000 151.636
63.92000 152.494
63.93000 154.472
63.94000 157.398
63.95000 160.270
63.96000 160.364
63.97000 158.897
63.98000 157.373
63.99000 154.794
64.00000 151.816
64.01000 149.063
64.02000 145.763
64.03000 142.676
64.04000 141.006
64.05000 147.670
64.06000 155.696
64.07000 162.365
64.08000 163.848
64.09000 164.825
64.10000 165.537
64.11000 164.430
64.12000 163.507
64.13000 162.987
64.14000 163.159
64.15000 163.343
64.16000 164.564
64.17000 166.958
64.18000 169.345
64.19000 170.396
64.20000 170.476
64.21000 170.564
64.22000 170.925
64.23000 171.419
64.24000 171.822
64.25000 170.936
64.26000 169.630
64.27000 168.445
64.28000 169.626
64.29000 171.119
64.30000 171.514
64.31000 166.448
64.32000 160.635
64.33000 156.355
64.34000 157.103
64.35000 158.243
64.36000 159.037
64.37000 161.820
64.38000 163.974
64.39000 165.691
64.40000 166.765
64.41000 167.832
64.42000 167.503
64.43000 165.842
64.44000 164.195
64.45000 165.415
64.46000 168.364
64.47000 171.056
64.48000 167.831
64.49000 162.132
64.50000 156.858
64.51000 156.385
64.52000 157.260
64.53000 158.036
64.54000 163.041
64.55000 168.048
64.56000 172.210
64.57000 172.786
64.58000 172.960
64.59000 173.013
64.60000 172.725
64.61000 172.416
64.62000 172.212
64.63000 171.095
64.64000 170.255
64.65000 169.494
64.66000 168.835
64.67000 168.187
64.68000 171.555
64.69000 178.171
64.70000 184.690
64.71000 183.049
64.72000 177.215
64.73000 171.600
64.74000 169.736
64.75000 169.226
64.76000 168.686
64.77000 167.883
64.78000 167.016
64.79000 166.265
64.80000 170.350
64.81000 174.459
64.82000 178.368
64.83000 181.552
64.84000 184.670
64.85000 184.680
64.86000 177.109
64.87000 169.195
64.88000 164.252
64.89000 173.341
64.90000 180.045
64.91000 184.200
64.92000 185.624
64.93000 187.046
64.94000 188.256
64.95000 189.321
64.96000 190.361
64.97000 189.001
64.98000 186.637
64.99000 184.456
65.00000 184.705
65.01000 185.710
65.02000 186.537
65.03000 186.030
65.04000 185.249
65.05000 184.591
65.06000 183.650
65.07000 182.834
65.08000 183.167
65.09000 187.092
65.10000 191.276
65.11000 192.273
65.12000 186.554
65.13000 180.620
65.14000 177.141
65.15000 182.649
65.16000 186.574
65.17000 191.070
65.18000 196.083
65.19000 200.972
65.20000 198.225
65.21000 190.949
65.22000 183.915
65.23000 184.813
65.24000 188.647
65.25000 191.991
65.26000 190.180
65.27000 186.989
65.28000 184.704
65.29000 188.093
65.30000 192.468
65.31000 196.042
65.32000 200.797
65.33000 204.791
65.34000 207.851
65.35000 208.394
65.36000 208.796
65.37000 208.344
65.38000 206.340
65.39000 204.304
65.40000 203.192
65.41000 206.291
65.42000 208.422
65.43000 209.746
65.44000 210.450
65.45000 211.144
65.46000 211.470
65.47000 211.608
65.48000 211.740
65.49000 210.935
65.50000 209.887
65.51000 208.968
65.52000 209.162
65.53000 209.611
65.54000 211.487
65.55000 220.903
65.56000 231.420
65.57000 239.725
65.58000 239.657
65.59000 239.033
65.60000 239.608
65.61000 242.975
65.62000 246.456
65.63000 253.628
65.64000 266.565
65.65000 279.570
65.66000 286.122
65.67000 303.539
65.68000 315.257
65.69000 334.288
65.70000 358.126
65.71000 382.611
65.72000 423.882
65.73000 472.552
65.74000 518.344
65.75000 567.210
65.76000 612.701
65.77000 657.762
65.78000 699.778
65.79000 741.201
65.80000 780.905
65.81000 812.892
65.82000 843.945
65.83000 867.570
65.84000 887.580
65.85000 903.133
65.86000 914.684
65.87000 918.196
65.88000 921.480
65.89000 921.789
65.90000 918.117
65.91000 914.428
65.92000 900.380
65.93000 877.497
65.94000 854.392
65.95000 819.621
65.96000 778.257
65.97000 736.978
65.98000 697.296
65.99000 658.222
66.00000 622.077
66.01000 571.340
66.02000 522.422
66.03000 475.113
66.04000 437.340
66.05000 401.136
66.06000 368.868
66.07000 351.716
66.08000 336.055
66.09000 324.623
66.10000 313.276
66.11000 304.534
66.12000 298.684
66.13000 297.844
66.14000 297.093
66.15000 298.229
66.16000 301.513
66.17000 304.788
66.18000 303.335
66.19000 298.468
66.20000 293.638
66.21000 290.046
66.22000 287.056
66.23000 284.831
66.24000 293.664
66.25000 306.128
66.26000 317.437
66.27000 325.914
66.28000 332.853
66.29000 339.428
66.30000 344.185
66.31000 348.691
66.32000 354.038
66.33000 362.159
66.34000 370.498
66.35000 376.313
66.36000 392.548
66.37000 405.090
66.38000 414.358
66.39000 418.756
66.40000 423.108
66.41000 425.625
66.42000 426.380
66.43000 427.129
66.44000 426.306
66.45000 424.530
66.46000 422.649
66.47000 418.308
66.48000 412.933
66.49000 407.769
66.50000 405.013
66.51000 402.937
66.52000 401.095
66.53000 393.124
66.54000 385.234
66.55000 376.904
66.56000 366.699
66.57000 356.281
66.58000 346.264
66.59000 337.388
66.60000 328.582
66.61000 322.747
66.62000 325.199
66.63000 327.161
66.64000 328.023
66.65000 327.486
66.66000 326.932
66.67000 322.011
66.68000 313.534
66.69000 305.178
66.70000 304.780
66.71000 308.555
66.72000 312.218
66.73000 313.947
66.74000 314.972
66.75000 315.838
66.76000 315.230
66.77000 314.265
66.78000 313.429
66.79000 314.755
66.80000 316.170
66.81000 317.413
66.82000 318.029
66.83000 318.587
66.84000 319.452
66.85000 321.070
66.86000 322.723
66.87000 323.758
66.88000 334.024
66.89000 341.536
66.90000 347.533
66.91000 351.894
66.92000 356.218
66.93000 355.930
66.94000 352.437
66.95000 349.022
66.96000 345.711
66.97000 342.583
66.98000 339.738
66.99000 340.670
67.00000 342.784
67.01000 345.019
67.02000 348.175
67.03000 351.521
67.04000 354.342
67.05000 355.148
67.06000 355.604
67.07000 356.564
67.08000 359.115
67.09000 361.782
67.10000 363.889
67.11000 364.810
67.12000 365.693
67.13000 366.211
67.14000 371.946
67.15000 376.015
67.16000 377.590
67.17000 376.894
67.18000 376.206
67.19000 376.003
67.20000 376.089
67.21000 376.173
67.22000 380.840
67.23000 386.984
67.24000 392.811
67.25000 395.265
67.26000 396.812
67.27000 397.952
67.28000 396.527
67.29000 394.653
67.30000 393.121
67.31000 397.526
67.32000 401.652
67.33000 404.573
67.34000 404.228
67.35000 403.700
67.36000 404.752
67.37000 408.692
67.38000 412.694
67.39000 414.885
67.40000 407.665
67.41000 402.704
67.42000 402.208
67.43000 405.164
67.44000 408.203
67.45000 414.431
67.46000 422.299
67.47000 429.815
67.48000 439.456
67.49000 449.103
67.50000 457.356
67.51000 453.575
67.52000 447.022
67.53000 441.701
67.54000 442.936
67.55000 445.135
67.56000 446.875
67.57000 452.467
67.58000 457.225
67.59000 458.473
67.60000 451.502
67.61000 444.190
67.62000 444.027
67.63000 455.101
67.64000 466.312
67.65000 471.980
67.66000 480.045
67.67000 485.378
67.68000 484.459
67.69000 479.406
67.70000 474.548
67.71000 474.863
67.72000 477.471
67.73000 479.926
67.74000 473.244
67.75000 464.641
67.76000 458.893
67.77000 473.504
67.78000 492.109
67.79000 507.429
67.80000 507.903
67.81000 506.568
67.82000 505.551
67.83000 506.668
67.84000 507.660
67.85000 510.664
67.86000 517.735
67.87000 524.922
67.88000 526.582
67.89000 520.799
67.90000 514.979
67.91000 515.417
67.92000 521.245
67.93000 527.110
67.94000 534.985
67.95000 544.001
67.96000 552.609
67.97000 553.384
67.98000 551.159
67.99000 549.100
68.00000 559.271
68.01000 571.232
68.02000 581.105
68.03000 578.515
68.04000 573.859
68.05000 570.120
68.06000 569.925
68.07000 570.081
68.08000 570.196
68.09000 586.770
68.10000 600.206
68.11000 607.445
68.12000 603.889
68.13000 600.138
68.14000 600.323
68.15000 605.020
68.16000 609.708
68.17000 608.818
68.18000 603.868
68.19000 598.936
68.20000 594.629
68.21000 590.627
68.22000 587.615
68.23000 599.057
68.24000 615.272
68.25000 629.997
68.26000 642.663
68.27000 653.452
68.28000 662.174
68.29000 660.479
68.30000 657.340
68.31000 656.738
68.32000 664.559
68.33000 673.050
68.34000 678.981
68.35000 692.415
68.36000 702.774
68.37000 702.443
68.38000 686.112
68.39000 669.627
68.40000 672.880
68.41000 695.231
68.42000 717.409
68.43000 732.225
68.44000 742.230
68.45000 752.134
68.46000 759.662
68.47000 766.184
68.48000 772.793
68.49000 780.403
68.50000 788.298
68.51000 795.313
68.52000 807.777
68.53000 819.469
68.54000 830.668
68.55000 839.755
68.56000 848.601
68.57000 863.829
68.58000 897.316
68.59000 931.934
68.60000 954.922
68.61000 983.672
68.62000 1005.032
68.63000 1041.861
68.64000 1098.492
68.65000 1155.155
68.66000 1195.066
68.67000 1221.251
68.68000 1247.068
68.69000 1310.933
68.70000 1393.021
68.71000 1473.066
68.72000 1517.354
68.73000 1548.584
68.74000 1582.263
68.75000 1638.666
68.76000 1700.609
68.77000 1754.332
68.78000 1810.093
68.79000 1857.848
68.80000 1908.360
68.81000 1969.015
68.82000 2030.612
68.83000 2094.474
68.84000 2163.926
68.85000 2233.637
68.86000 2277.391
68.87000 2475.592
68.88000 2620.530
68.89000 2822.552
68.90000 3086.611
68.91000 3353.312
68.92000 3961.096
68.93000 4807.414
68.94000 5634.943
68.95000 7527.981
68.96000 9820.615
68.97000 12211.930
68.98000 15934.990
68.99000 20077.412
69.00000 24296.264
69.01000 29097.912
69.02000 34020.824
69.03000 38176.031
69.04000 42545.938
69.05000 46221.094
69.06000 49476.145
69.07000 51401.813
69.08000 53229.543
69.09000 54561.398
69.10000 54836.172
69.11000 55076.039
69.12000 55217.410
69.13000 55486.035
69.14000 55676.441
69.15000 56136.320
69.16000 56843.184
69.17000 57546.137
69.18000 57995.258
69.19000 58292.043
69.20000 58579.258
69.21000 57467.285
69.22000 55882.930
69.23000 54173.527
69.24000 51124.184
69.25000 47711.977
69.26000 44388.289
69.27000 41627.086
69.28000 38965.047
69.29000 36784.934
69.30000 34503.531
69.31000 32624.412
69.32000 31005.748
69.33000 30097.766
69.34000 29230.105
69.35000 28438.963
69.36000 27788.506
69.37000 27141.100
69.38000 26785.512
69.39000 25114.086
69.40000 23959.363
69.41000 22235.264
69.42000 20067.988
69.43000 17896.297
69.44000 15550.366
69.45000 13114.382
69.46000 10785.998
69.47000 8927.707
69.48000 7351.322
69.49000 5836.553
69.50000 4857.820
69.51000 4003.413
69.52000 3216.681
69.53000 2792.216
69.54000 2421.375
69.55000 2127.667
69.56000 1938.428
69.57000 1793.562
69.58000 1666.630
69.59000 1581.943
69.60000 1499.028
69.61000 1429.186
69.62000 1380.024
69.63000 1331.121
69.64000 1306.315
69.65000 1242.173
69.66000 1199.374
69.67000 1173.724
69.68000 1159.489
69.69000 1144.852
69.70000 1119.472
69.71000 1089.301
69.72000 1060.879
69.73000 1024.575
69.74000 989.189
69.75000 956.261
69.76000 940.992
69.77000 929.211
69.78000 916.139
69.79000 897.195
69.80000 877.529
69.81000 862.521
69.82000 851.982
69.83000 843.917
69.84000 835.598
69.85000 826.763
69.86000 817.912
69.87000 808.265
69.88000 797.539
69.89000 786.813
69.90000 771.444
69.91000 752.073
69.92000 732.868
69.93000 722.695
69.94000 717.688
69.95000 712.859
69.96000 711.469
69.97000 711.404
69.98000 711.344
69.99000 699.735
70.00000 686.612
