20.00000 585.812
20.01000 584.070
20.02000 582.080
20.03000 578.684
20.04000 569.856
20.05000 560.487
20.06000 553.647
20.07000 563.015
20.08000 570.869
20.09000 574.500
20.10000 570.844
20.11000 567.061
20.12000 566.693
20.13000 570.178
20.14000 573.653
20.15000 576.481
20.16000 578.822
20.17000 580.937
20.18000 575.858
20.19000 567.339
20.20000 559.052
20.21000 553.999
20.22000 549.983
20.23000 546.354
20.24000 541.974
20.25000 537.982
20.26000 535.421
20.27000 539.778
20.28000 545.047
20.29000 548.483
20.30000 546.095
20.31000 543.275
20.32000 541.336
20.33000 550.826
20.34000 558.228
20.35000 564.286
20.36000 568.443
20.37000 572.584
20.38000 573.765
20.39000 572.265
20.40000 570.780
20.41000 571.654
20.42000 573.872
20.43000 575.843
20.44000 572.740
20.45000 567.630
20.46000 563.090
20.47000 564.452
20.48000 567.371
20.49000 569.933
20.50000 569.436
20.51000 568.561
20.52000 567.629
20.53000 566.474
20.54000 565.296
20.55000 561.505
20.56000 550.859
20.57000 539.853
20.58000 532.790
20.59000 533.915
20.60000 534.846
20.61000 538.383
20.62000 544.920
20.63000 551.462
20.64000 558.142
20.65000 564.925
20.66000 571.574
20.67000 565.932
20.68000 554.735
20.69000 544.343
20.70000 545.517
20.71000 550.471
20.72000 555.371
20.73000 559.836
20.74000 564.207
20.75000 567.916
20.76000 567.346
20.77000 566.383
20.78000 565.853
20.79000 566.724
20.80000 567.703
20.81000 565.414
20.82000 556.036
20.83000 546.414
20.84000 540.709
20.85000 551.822
20.86000 559.777
20.87000 559.162
20.88000 550.621
20.89000 542.236
20.90000 544.184
20.91000 552.355
20.92000 560.261
20.93000 558.314
20.94000 552.721
20.95000 548.429
20.96000 557.940
20.97000 571.166
20.98000 581.754
20.99000 575.806
21.00000 566.980
21.01000 559.775
21.02000 557.890
21.03000 556.804
21.04000 556.322
21.05000 557.453
21.06000 558.673
21.07000 559.728
21.08000 560.488
21.09000 561.242
21.10000 561.650
21.11000 545.359
21.12000 534.277
21.13000 541.045
21.14000 561.193
21.15000 580.628
21.16000 574.943
21.17000 556.782
21.18000 539.496
21.19000 539.364
21.20000 544.532
21.21000 549.750
21.22000 555.369
21.23000 561.077
21.24000 564.542
21.25000 556.710
21.26000 547.314
21.27000 539.978
21.28000 553.229
21.29000 565.090
21.30000 571.389
21.31000 565.389
21.32000 558.945
21.33000 551.971
21.34000 544.218
21.35000 536.458
21.36000 535.717
21.37000 541.606
21.38000 547.428
21.39000 548.390
21.40000 546.368
21.41000 544.488
21.42000 545.733
21.43000 548.261
21.44000 550.619
21.45000 543.203
21.46000 534.056
21.47000 527.395
21.48000 536.682
21.49000 548.806
21.50000 556.675
21.51000 547.105
21.52000 535.657
21.53000 527.161
21.54000 531.592
21.55000 535.603
21.56000 540.685
21.57000 547.721
21.58000 554.800
21.59000 558.278
21.60000 557.435
21.61000 556.585
21.62000 558.118
21.63000 561.453
21.64000 564.849
21.65000 570.531
21.66000 577.369
21.67000 583.434
21.68000 577.637
21.69000 567.815
21.70000 558.868
21.71000 565.048
21.72000 573.529
21.73000 581.066
21.74000 583.746
21.75000 585.738
21.76000 587.246
21.77000 587.128
21.78000 586.877
21.79000 586.702
21.80000 596.550
21.81000 604.285
21.82000 611.530
21.83000 618.040
21.84000 624.543
21.85000 632.187
21.86000 640.934
21.87000 649.611
21.88000 659.996
21.89000 671.247
21.90000 682.225
21.91000 686.873
21.92000 688.874
21.93000 691.591
21.94000 702.356
21.95000 715.372
21.96000 726.900
21.97000 731.170
21.98000 733.722
21.99000 738.763
22.00000 754.206
22.01000 770.797
22.02000 785.346
22.03000 794.226
22.04000 802.774
22.05000 808.378
22.06000 797.408
22.07000 789.067
22.08000 781.308
22.09000 774.264
22.10000 767.241
22.11000 765.297
22.12000 767.317
22.13000 769.303
22.14000 764.330
22.15000 756.048
22.16000 747.647
22.17000 737.374
22.18000 726.454
22.19000 715.152
22.20000 700.573
22.21000 685.244
22.22000 672.101
22.23000 669.939
22.24000 669.458
22.25000 667.951
22.26000 662.927
22.27000 657.610
22.28000 649.200
22.29000 633.695
22.30000 617.910
22.31000 608.320
22.32000 621.894
22.33000 631.762
22.34000 629.051
22.35000 613.924
22.36000 598.929
22.37000 594.872
22.38000 597.794
22.39000 600.633
22.40000 594.718
22.41000 585.552
22.42000 576.888
22.43000 574.018
22.44000 572.801
22.45000 572.005
22.46000 574.034
22.47000 576.587
22.48000 578.697
22.49000 571.116
22.50000 563.964
22.51000 557.566
22.52000 553.300
22.53000 549.163
22.54000 544.149
22.55000 537.472
22.56000 530.756
22.57000 527.019
22.58000 532.234
22.59000 535.861
22.60000 539.899
22.61000 544.266
22.62000 548.465
22.63000 545.739
22.64000 539.374
22.65000 533.285
22.66000 530.313
22.67000 528.568
22.68000 527.376
22.69000 531.039
22.70000 535.835
22.71000 538.435
22.72000 529.247
22.73000 518.310
22.74000 509.654
22.75000 502.395
22.76000 496.659
22.77000 497.148
22.78000 512.191
22.79000 527.833
22.80000 533.778
22.81000 524.577
22.82000 515.197
22.83000 510.486
22.84000 518.280
22.85000 523.408
22.86000 521.671
22.87000 515.469
22.88000 509.421
22.89000 507.245
22.90000 506.750
22.91000 506.286
22.92000 506.010
22.93000 505.809
22.94000 505.688
22.95000 506.120
22.96000 506.657
22.97000 506.268
22.98000 501.853
22.99000 496.970
23.00000 493.290
23.01000 498.284
23.02000 502.621
23.03000 507.972
23.04000 515.282
23.05000 522.641
23.06000 526.104
23.07000 524.592
23.08000 523.065
23.09000 520.397
23.10000 516.816
23.11000 513.306
23.12000 512.859
23.13000 514.052
23.14000 514.894
23.15000 509.783
23.16000 502.535
23.17000 495.883
23.18000 500.754
23.19000 507.546
23.20000 514.432
23.21000 521.836
23.22000 529.319
23.23000 532.416
23.24000 519.886
23.25000 505.973
23.26000 496.052
23.27000 503.005
23.28000 508.859
23.29000 511.144
23.30000 507.746
23.31000 504.275
23.32000 500.872
23.33000 497.538
23.34000 494.224
23.35000 494.553
23.36000 497.260
23.37000 500.008
23.38000 503.825
23.39000 508.113
23.40000 512.150
23.41000 513.111
23.42000 513.159
23.43000 513.203
23.44000 513.117
23.45000 513.020
23.46000 511.855
23.47000 505.948
23.48000 499.475
23.49000 495.721
23.50000 499.946
23.51000 504.689
23.52000 507.862
23.53000 504.535
23.54000 501.939
23.55000 498.436
23.56000 493.750
23.57000 489.074
23.58000 491.312
23.59000 499.287
23.60000 507.153
23.61000 511.291
23.62000 513.335
23.63000 515.315
23.64000 516.149
23.65000 516.564
23.66000 516.681
23.67000 514.043
23.68000 510.735
23.69000 507.871
23.70000 500.916
23.71000 494.460
23.72000 489.966
23.73000 492.597
23.74000 495.877
23.75000 500.212
23.76000 507.108
23.77000 514.118
23.78000 518.478
23.79000 505.653
23.80000 496.245
23.81000 495.510
23.82000 503.915
23.83000 512.252
23.84000 513.033
23.85000 508.704
23.86000 504.481
23.87000 504.198
23.88000 505.623
23.89000 506.677
23.90000 503.040
23.91000 497.988
23.92000 493.340
23.93000 491.600
23.94000 490.435
23.95000 489.462
23.96000 494.440
23.97000 499.176
23.98000 502.289
23.99000 500.550
24.00000 498.485
24.01000 498.368
24.02000 502.158
24.03000 506.059
24.04000 508.289
24.05000 489.418
24.06000 476.198
24.07000 478.878
24.08000 495.029
24.09000 510.817
24.10000 508.686
24.11000 496.592
24.12000 484.962
24.13000 485.412
24.14000 490.052
24.15000 494.448
24.16000 496.520
24.17000 498.015
24.18000 498.886
24.19000 496.190
24.20000 492.926
24.21000 490.309
24.22000 497.295
24.23000 503.679
24.24000 507.026
24.25000 502.864
24.26000 498.352
24.27000 494.783
24.28000 492.772
24.29000 490.784
24.30000 489.754
24.31000 492.887
24.32000 494.962
24.33000 492.115
24.34000 485.871
24.35000 479.907
24.36000 481.956
24.37000 487.684
24.38000 493.094
24.39000 492.521
24.40000 490.305
24.41000 487.728
24.42000 482.492
24.43000 476.719
24.44000 473.073
24.45000 479.260
24.46000 486.677
24.47000 492.352
24.48000 490.826
24.49000 489.228
24.50000 489.363
24.51000 493.042
24.52000 496.825
24.53000 497.071
24.54000 492.521
24.55000 487.947
24.56000 483.692
24.57000 479.722
24.58000 475.775
24.59000 473.062
24.60000 471.048
24.61000 469.222
24.62000 470.918
24.63000 473.953
24.64000 476.758
24.65000 479.421
24.66000 481.779
24.67000 483.507
24.68000 481.555
24.69000 479.005
24.70000 475.977
24.71000 471.142
24.72000 466.134
24.73000 462.501
24.74000 465.127
24.75000 467.378
24.76000 468.816
24.77000 468.884
24.78000 468.930
24.79000 471.403
24.80000 476.544
24.81000 481.664
24.82000 481.270
24.83000 477.041
24.84000 472.917
24.85000 471.961
24.86000 472.487
24.87000 473.117
24.88000 475.141
24.89000 477.602
24.90000 479.819
24.91000 470.313
24.92000 459.855
24.93000 452.685
24.94000 461.028
24.95000 471.361
24.96000 480.358
24.97000 485.202
24.98000 489.750
24.99000 492.853
25.00000 483.379
25.01000 476.003
25.02000 473.085
25.03000 476.335
25.04000 479.625
25.05000 484.754
25.06000 491.507
25.07000 498.186
25.08000 492.529
25.09000 480.047
25.10000 467.835
25.11000 460.933
25.12000 456.086
25.13000 451.696
25.14000 451.889
25.15000 453.263
25.16000 454.465
25.17000 456.941
25.18000 459.244
25.19000 460.866
25.20000 459.866
25.21000 458.607
25.22000 459.588
25.23000 466.315
25.24000 473.331
25.25000 477.794
25.26000 461.330
25.27000 449.106
25.28000 444.058
25.29000 447.072
25.30000 450.106
25.31000 455.308
25.32000 462.064
25.33000 468.679
25.34000 472.680
25.35000 475.325
25.36000 477.805
25.37000 477.983
25.38000 477.425
25.39000 476.873
25.40000 476.363
25.41000 475.862
25.42000 475.439
25.43000 470.651
25.44000 466.168
25.45000 463.407
25.46000 466.098
25.47000 469.191
25.48000 471.962
25.49000 474.049
25.50000 476.114
25.51000 477.327
25.52000 482.245
25.53000 485.727
25.54000 484.405
25.55000 478.749
25.56000 473.133
25.57000 469.911
25.58000 468.098
25.59000 466.346
25.60000 459.495
25.61000 451.141
25.62000 444.087
25.63000 450.390
25.64000 460.205
25.65000 469.003
25.66000 471.589
25.67000 473.121
25.68000 474.365
25.69000 467.037
25.70000 460.349
25.71000 456.162
25.72000 458.514
25.73000 461.208
25.74000 462.944
25.75000 463.003
25.76000 463.031
25.77000 463.046
25.78000 462.633
25.79000 462.355
25.80000 462.765
25.81000 463.677
25.82000 464.663
25.83000 468.110
25.84000 472.751
25.85000 477.159
25.86000 476.832
25.87000 475.105
25.88000 473.441
25.89000 472.268
25.90000 471.200
25.91000 469.458
25.92000 464.401
25.93000 458.898
25.94000 454.625
25.95000 460.402
25.96000 465.603
25.97000 470.497
25.98000 474.727
25.99000 478.933
26.00000 478.777
26.01000 472.345
26.02000 465.863
26.03000 460.072
26.04000 454.920
26.05000 449.786
26.06000 445.833
26.07000 442.590
26.08000 439.660
26.09000 443.366
26.10000 449.737
26.11000 455.665
26.12000 461.009
26.13000 465.696
26.14000 469.575
26.15000 468.409
26.16000 466.369
26.17000 463.654
26.18000 458.239
26.19000 452.543
26.20000 448.343
26.21000 450.524
26.22000 452.480
26.23000 455.328
26.24000 459.767
26.25000 464.237
26.26000 465.389
26.27000 462.655
26.28000 459.923
26.29000 462.402
26.30000 468.728
26.31000 474.782
26.32000 471.392
26.33000 463.329
26.34000 455.642
26.35000 453.503
26.36000 453.205
26.37000 452.934
26.38000 454.956
26.39000 457.185
26.40000 458.193
26.41000 453.077
26.42000 447.116
26.43000 443.964
26.44000 450.046
26.45000 456.850
26.46000 461.582
26.47000 449.880
26.48000 440.614
26.49000 435.060
26.50000 434.952
26.51000 434.894
26.52000 441.578
26.53000 454.609
26.54000 467.526
26.55000 466.816
26.56000 457.945
26.57000 449.536
26.58000 451.322
26.59000 457.279
26.60000 462.431
26.61000 458.832
26.62000 452.841
26.63000 447.554
26.64000 448.660
26.65000 450.590
26.66000 452.448
26.67000 454.006
26.68000 455.532
26.69000 456.383
26.70000 455.406
26.71000 454.325
26.72000 453.623
26.73000 437.426
26.74000 425.319
26.75000 425.465
26.76000 440.263
26.77000 455.036
26.78000 457.804
26.79000 451.424
26.80000 445.158
26.81000 446.470
26.82000 451.427
26.83000 455.839
26.84000 451.946
26.85000 445.243
26.86000 439.329
26.87000 439.973
26.88000 442.084
26.89000 443.886
26.90000 442.256
26.91000 440.476
26.92000 439.165
26.93000 439.429
26.94000 439.819
26.95000 438.361
26.96000 432.751
26.97000 426.987
26.98000 423.518
26.99000 434.557
27.00000 442.508
27.01000 445.797
27.02000 444.602
27.03000 443.419
27.04000 443.160
27.05000 443.478
27.06000 443.786
27.07000 442.345
27.08000 440.287
27.09000 438.848
27.10000 444.315
27.11000 451.705
27.12000 458.138
27.13000 458.310
27.14000 457.349
27.15000 456.559
27.16000 450.983
27.17000 445.969
27.18000 443.698
27.19000 449.012
27.20000 454.768
27.21000 455.980
27.22000 448.764
27.23000 441.360
27.24000 437.286
27.25000 450.793
27.26000 460.076
27.27000 456.530
27.28000 443.009
27.29000 429.805
27.30000 428.873
27.31000 434.244
27.32000 439.373
27.33000 435.812
27.34000 429.721
27.35000 424.734
27.36000 429.166
27.37000 435.745
27.38000 441.305
27.39000 441.532
27.40000 440.989
27.41000 440.561
27.42000 441.416
27.43000 442.187
27.44000 441.748
27.45000 438.545
27.46000 435.234
27.47000 431.396
27.48000 426.756
27.49000 422.107
27.50000 421.979
27.51000 426.293
27.52000 430.528
27.53000 428.255
27.54000 421.843
27.55000 415.743
27.56000 417.069
27.57000 421.548
27.58000 425.743
27.59000 429.622
27.60000 433.067
27.61000 436.473
27.62000 439.614
27.63000 442.705
27.64000 445.503
27.65000 447.059
27.66000 448.475
27.67000 449.536
27.68000 439.849
27.69000 431.781
27.70000 427.691
27.71000 431.119
27.72000 434.725
27.73000 433.682
27.74000 426.848
27.75000 420.010
27.76000 420.419
27.77000 426.549
27.78000 432.548
27.79000 433.125
27.80000 430.864
27.81000 428.709
27.82000 428.279
27.83000 428.454
27.84000 428.614
27.85000 433.617
27.86000 439.069
27.87000 442.853
27.88000 437.731
27.89000 431.294
27.90000 427.097
27.91000 430.701
27.92000 434.974
27.93000 437.999
27.94000 440.852
27.95000 443.015
27.96000 445.636
27.97000 448.970
27.98000 452.312
27.99000 452.255
28.00000 448.782
28.01000 445.333
28.02000 437.311
28.03000 426.493
28.04000 416.010
28.05000 413.872
28.06000 415.345
28.07000 417.066
28.08000 421.730
28.09000 427.247
28.10000 432.159
28.11000 428.224
28.12000 423.353
28.13000 419.464
28.14000 419.829
28.15000 420.686
28.16000 422.490
28.17000 427.013
28.18000 431.705
28.19000 434.819
28.20000 434.876
28.21000 434.862
28.22000 432.890
28.23000 428.428
28.24000 423.964
28.25000 421.882
28.26000 421.729
28.27000 421.578
28.28000 428.335
28.29000 438.468
28.30000 448.092
28.31000 449.162
28.32000 447.171
28.33000 445.114
28.34000 442.465
28.35000 439.676
28.36000 437.270
28.37000 432.511
28.38000 428.173
28.39000 425.702
28.40000 429.859
28.41000 434.601
28.42000 437.966
28.43000 438.059
28.44000 438.014
28.45000 437.985
28.46000 438.408
28.47000 438.715
28.48000 436.241
28.49000 430.913
28.50000 425.656
28.51000 427.364
28.52000 433.674
28.53000 439.820
28.54000 438.371
28.55000 433.797
28.56000 429.568
28.57000 429.527
28.58000 430.724
28.59000 431.538
28.60000 429.680
28.61000 427.306
28.62000 425.331
28.63000 425.549
28.64000 425.946
28.65000 426.457
28.66000 427.307
28.67000 428.179
28.68000 426.619
28.69000 420.288
28.70000 413.831
28.71000 410.178
28.72000 425.871
28.73000 436.811
28.74000 434.000
28.75000 419.825
28.76000 405.940
28.77000 405.442
28.78000 412.220
28.79000 418.726
28.80000 418.111
28.81000 415.109
28.82000 412.800
28.83000 416.855
28.84000 422.451
28.85000 426.965
28.86000 425.448
28.87000 422.998
28.88000 421.044
28.89000 429.486
28.90000 437.061
28.91000 443.624
28.92000 447.739
28.93000 451.745
28.94000 450.613
28.95000 441.174
28.96000 431.621
28.97000 426.729
28.98000 427.968
28.99000 428.818
29.00000 431.514
29.01000 435.454
29.02000 439.000
29.03000 431.855
29.04000 419.908
29.05000 408.651
29.06000 410.357
29.07000 415.489
29.08000 419.123
29.09000 412.029
29.10000 402.822
29.11000 394.847
29.12000 392.424
29.13000 390.676
29.14000 389.347
29.15000 399.402
29.16000 407.908
29.17000 412.982
29.18000 411.194
29.19000 409.216
29.20000 409.591
29.21000 413.082
29.22000 416.584
29.23000 417.904
29.24000 417.384
29.25000 416.859
29.26000 416.082
29.27000 415.165
29.28000 414.314
29.29000 414.650
29.30000 415.427
29.31000 416.144
29.32000 408.420
29.33000 399.638
29.34000 393.011
29.35000 398.658
29.36000 406.245
29.37000 411.646
29.38000 408.985
29.39000 405.573
29.40000 403.115
29.41000 411.017
29.42000 417.437
29.43000 417.805
29.44000 408.196
29.45000 398.440
29.46000 399.540
29.47000 412.279
29.48000 424.959
29.49000 427.392
29.50000 422.838
29.51000 418.405
29.52000 417.417
29.53000 418.005
29.54000 418.654
29.55000 420.081
29.56000 421.746
29.57000 423.242
29.58000 422.619
29.59000 421.701
29.60000 420.676
29.61000 419.161
29.62000 417.584
29.63000 415.892
29.64000 413.852
29.65000 411.788
29.66000 410.391
29.67000 411.339
29.68000 412.096
29.69000 413.106
29.70000 414.457
29.71000 415.814
29.72000 420.351
29.73000 427.626
29.74000 434.813
29.75000 437.663
29.76000 438.054
29.77000 438.234
29.78000 434.471
29.79000 429.216
29.80000 424.846
29.81000 429.050
29.82000 435.414
29.83000 440.958
29.84000 438.160
29.85000 434.617
29.86000 431.706
29.87000 431.168
29.88000 430.858
29.89000 430.242
29.90000 428.856
29.91000 427.433
29.92000 426.536
29.93000 434.545
29.94000 440.446
29.95000 444.740
29.96000 447.274
29.97000 449.770
29.98000 447.484
29.99000 441.845
30.00000 436.332
30.01000 438.121
30.02000 443.099
30.03000 448.251
30.04000 455.729
30.05000 463.934
30.06000 470.678
30.07000 466.447
30.08000 459.963
30.09000 454.509
30.10000 454.299
30.11000 454.682
30.12000 455.321
30.13000 456.754
30.14000 458.243
30.15000 459.536
30.16000 460.424
30.17000 461.300
30.18000 461.809
30.19000 453.189
30.20000 447.095
30.21000 439.423
30.22000 430.364
30.23000 421.494
30.24000 423.159
30.25000 430.886
30.26000 438.337
30.27000 443.119
30.28000 446.648
30.29000 449.449
30.30000 445.006
30.31000 438.701
30.32000 432.217
30.33000 424.666
30.34000 416.938
30.35000 410.693
30.36000 415.132
30.37000 419.598
30.38000 424.304
30.39000 429.628
30.40000 434.982
30.41000 435.104
30.42000 426.262
30.43000 417.268
30.44000 412.518
30.45000 424.324
30.46000 432.300
30.47000 432.849
30.48000 428.088
30.49000 423.381
30.50000 420.358
30.51000 418.136
30.52000 416.030
30.53000 422.471
30.54000 430.911
30.55000 438.223
30.56000 436.862
30.57000 433.684
30.58000 431.318
30.59000 432.846
30.60000 434.884
30.61000 436.458
30.62000 431.989
30.63000 428.095
30.64000 429.754
30.65000 443.153
30.66000 456.932
30.67000 460.702
30.68000 450.402
30.69000 440.009
30.70000 437.132
30.71000 441.003
30.72000 444.887
30.73000 449.542
30.74000 454.650
30.75000 459.737
30.76000 464.401
30.77000 468.900
30.78000 473.076
30.79000 465.712
30.80000 456.351
30.81000 449.457
30.82000 457.564
30.83000 468.205
30.84000 477.472
30.85000 481.361
30.86000 484.706
30.87000 487.157
30.88000 496.569
30.89000 504.116
30.90000 510.463
30.91000 514.718
30.92000 518.934
30.93000 524.456
30.94000 531.470
30.95000 538.462
30.96000 551.020
30.97000 567.497
30.98000 583.616
30.99000 587.972
31.00000 586.637
31.01000 587.041
31.02000 612.125
31.03000 645.219
31.04000 675.180
31.05000 702.161
31.06000 725.367
31.07000 751.874
31.08000 794.539
31.09000 839.370
31.10000 889.849
31.11000 958.484
31.12000 1028.491
31.13000 1076.810
31.14000 1178.078
31.15000 1255.521
31.16000 1335.346
31.17000 1418.585
31.18000 1501.857
31.19000 1598.129
31.20000 1706.331
31.21000 1813.485
31.22000 1941.383
31.23000 2078.762
31.24000 2215.623
31.25000 2341.584
31.26000 2463.184
31.27000 2584.968
31.28000 2708.682
31.29000 2832.912
31.30000 2942.160
31.31000 3097.536
31.32000 3238.074
31.33000 3358.468
31.34000 3398.512
31.35000 3430.212
31.36000 3474.431
31.37000 3551.874
31.38000 3631.105
31.39000 3682.178
31.40000 3641.535
31.41000 3610.548
31.42000 3577.638
31.43000 3542.483
31.44000 3507.058
31.45000 3421.022
31.46000 3297.335
31.47000 3176.001
31.48000 3065.383
31.49000 2963.884
31.50000 2860.114
31.51000 2723.079
31.52000 2575.042
31.53000 2430.121
31.54000 2310.358
31.55000 2196.085
31.56000 2098.910
31.57000 1974.618
31.58000 1867.105
31.59000 1753.538
31.60000 1620.136
31.61000 1485.189
31.62000 1371.282
31.63000 1303.563
31.64000 1237.486
31.65000 1198.110
31.66000 1087.985
31.67000 1009.513
31.68000 948.637
31.69000 904.257
31.70000 859.963
31.71000 821.545
31.72000 786.709
31.73000 752.970
31.74000 723.794
31.75000 697.955
31.76000 672.528
31.77000 651.549
31.78000 631.781
31.79000 612.539
31.80000 596.645
31.81000 581.342
31.82000 568.821
31.83000 555.904
31.84000 545.285
31.85000 533.377
31.86000 517.980
31.87000 502.388
31.88000 493.092
31.89000 495.212
31.90000 497.568
31.91000 498.849
31.92000 480.012
31.93000 467.108
31.94000 463.926
31.95000 468.122
31.96000 471.987
31.97000 463.822
31.98000 449.613
31.99000 436.073
32.00000 442.204
32.01000 454.032
32.02000 464.036
32.03000 458.949
32.04000 450.500
32.05000 444.180
32.06000 448.721
32.07000 454.787
32.08000 459.537
32.09000 438.824
32.10000 420.645
32.11000 410.095
32.12000 416.604
32.13000 423.748
32.14000 427.222
32.15000 425.226
32.16000 423.179
32.17000 421.569
32.18000 420.378
32.19000 419.175
32.20000 417.103
32.21000 414.490
32.22000 411.779
32.23000 406.821
32.24000 400.930
32.25000 395.427
32.26000 395.060
32.27000 396.022
32.28000 396.920
32.29000 397.405
32.30000 397.816
32.31000 398.773
32.32000 401.994
32.33000 405.463
32.34000 408.046
32.35000 404.887
32.36000 402.171
32.37000 398.986
32.38000 394.934
32.39000 390.864
32.40000 390.692
32.41000 395.261
32.42000 399.830
32.43000 399.881
32.44000 396.453
32.45000 393.044
32.46000 390.393
32.47000 388.130
32.48000 386.019
32.49000 386.284
32.50000 387.365
32.51000 388.351
32.52000 390.140
32.53000 391.888
32.54000 392.820
32.55000 389.501
32.56000 385.570
32.57000 382.881
32.58000 384.418
32.59000 386.303
32.60000 387.629
32.61000 381.587
32.62000 376.794
32.63000 374.309
32.64000 375.336
32.65000 376.399
32.66000 378.316
32.67000 381.067
32.68000 383.799
32.69000 383.842
32.70000 382.212
32.71000 380.722
32.72000 382.560
32.73000 385.807
32.74000 388.579
32.75000 385.939
32.76000 381.766
32.77000 378.063
32.78000 385.418
32.79000 393.555
32.80000 401.864
32.81000 410.898
32.82000 420.013
32.83000 431.089
32.84000 447.668
32.85000 464.577
32.86000 475.709
32.87000 494.615
32.88000 508.675
32.89000 516.450
32.90000 516.422
32.91000 516.366
32.92000 514.321
32.93000 510.703
32.94000 507.144
32.95000 507.981
32.96000 511.014
32.97000 514.157
32.98000 519.078
32.99000 524.621
33.00000 529.779
33.01000 531.582
33.02000 532.607
33.03000 533.489
33.04000 514.292
33.05000 495.556
33.06000 479.491
33.07000 472.697
33.08000 466.692
33.09000 456.045
33.10000 434.622
33.11000 412.763
33.12000 399.416
33.13000 399.908
33.14000 400.372
33.15000 397.196
33.16000 390.376
33.17000 383.578
33.18000 378.745
33.19000 375.181
33.20000 371.715
33.21000 362.358
33.22000 351.040
33.23000 340.674
33.24000 341.497
33.25000 345.549
33.26000 350.204
33.27000 358.970
33.28000 368.508
33.29000 376.406
33.30000 366.580
33.31000 356.786
33.32000 350.195
33.33000 352.767
33.34000 355.908
33.35000 355.787
33.36000 349.410
33.37000 342.878
33.38000 339.223
33.39000 342.808
33.40000 345.308
33.41000 347.684
33.42000 349.959
33.43000 352.079
33.44000 347.556
33.45000 339.503
33.46000 331.789
33.47000 334.586
33.48000 340.689
33.49000 346.180
33.50000 346.207
33.51000 344.942
33.52000 343.036
33.53000 337.648
33.54000 331.736
33.55000 327.044
33.56000 338.962
33.57000 349.725
33.58000 357.632
33.59000 358.784
33.60000 359.650
33.61000 358.127
33.62000 352.831
33.63000 347.487
33.64000 344.785
33.65000 343.722
33.66000 343.049
33.67000 346.005
33.68000 351.351
33.69000 356.376
33.70000 353.125
33.71000 346.240
33.72000 339.767
33.73000 340.957
33.74000 344.101
33.75000 347.255
33.76000 350.470
33.77000 353.698
33.78000 355.030
33.79000 348.008
33.80000 340.000
33.81000 333.945
33.82000 335.487
33.83000 337.078
33.84000 338.078
33.85000 337.924
33.86000 337.739
33.87000 335.015
33.88000 329.009
33.89000 322.997
33.90000 324.390
33.91000 331.854
33.92000 339.184
33.93000 340.386
33.94000 338.268
33.95000 336.296
33.96000 336.834
33.97000 338.285
33.98000 339.619
33.99000 330.500
34.00000 320.106
34.01000 312.782
34.02000 322.502
34.03000 334.845
34.04000 343.392
34.05000 338.252
34.06000 331.879
34.07000 327.318
34.08000 327.078
34.09000 327.041
34.10000 326.622
34.11000 325.589
34.12000 324.549
34.13000 328.190
34.14000 336.725
34.15000 345.211
34.16000 344.146
34.17000 336.764
34.18000 329.644
34.19000 329.594
34.20000 332.708
34.21000 335.831
34.22000 339.068
34.23000 342.339
34.24000 345.267
34.25000 341.339
34.26000 336.739
34.27000 332.572
34.28000 330.357
34.29000 328.378
34.30000 327.845
34.31000 331.603
34.32000 335.646
34.33000 338.362
34.34000 322.766
34.35000 310.806
34.36000 306.296
34.37000 311.612
34.38000 316.971
34.39000 320.868
34.40000 323.538
34.41000 326.173
34.42000 324.779
34.43000 321.259
34.44000 318.246
34.45000 324.352
34.46000 333.834
34.47000 341.942
34.48000 337.143
34.49000 329.169
34.50000 322.249
34.51000 327.470
34.52000 333.547
34.53000 337.677
34.54000 334.653
34.55000 330.966
34.56000 328.870
34.57000 330.680
34.58000 332.670
34.59000 333.913
34.60000 332.020
34.61000 330.621
34.62000 328.252
34.63000 324.846
34.64000 321.478
34.65000 322.577
34.66000 326.734
34.67000 330.792
34.68000 333.883
34.69000 336.418
34.70000 338.650
34.71000 337.002
34.72000 334.168
34.73000 331.336
34.74000 328.516
34.75000 325.699
34.76000 323.340
34.77000 328.010
34.78000 332.618
34.79000 335.937
34.80000 335.357
34.81000 334.511
34.82000 332.292
34.83000 327.289
34.84000 322.204
34.85000 319.281
34.86000 317.097
34.87000 315.572
34.88000 314.668
34.89000 314.295
34.90000 313.930
34.91000 313.959
34.92000 314.210
34.93000 314.452
34.94000 314.265
34.95000 313.940
34.96000 314.107
34.97000 319.029
34.98000 325.145
34.99000 330.477
35.00000 331.264
35.01000 331.319
35.02000 331.364
35.03000 327.456
35.04000 323.982
35.05000 320.523
35.06000 317.103
35.07000 313.685
35.08000 310.204
35.09000 306.619
35.10000 303.031
35.11000 301.159
35.12000 310.885
35.13000 317.432
35.14000 319.518
35.15000 318.490
35.16000 317.550
35.17000 319.223
35.18000 322.110
35.19000 324.841
35.20000 321.583
35.21000 316.875
35.22000 312.723
35.23000 312.717
35.24000 313.558
35.25000 313.727
35.26000 310.748
35.27000 307.369
35.28000 304.776
35.29000 312.602
35.30000 319.369
35.31000 323.285
35.32000 321.306
35.33000 319.147
35.34000 316.169
35.35000 312.066
35.36000 307.958
35.37000 304.246
35.38000 300.885
35.39000 297.564
35.40000 296.381
35.41000 296.425
35.42000 296.712
35.43000 301.689
35.44000 308.467
35.45000 314.741
35.46000 311.803
35.47000 307.044
35.48000 302.934
35.49000 302.672
35.50000 303.044
35.51000 303.461
35.52000 304.050
35.53000 304.657
35.54000 305.099
35.55000 316.787
35.56000 326.214
35.57000 329.348
35.58000 321.744
35.59000 313.959
35.60000 308.569
35.61000 305.848
35.62000 303.140
35.63000 305.823
35.64000 312.283
35.65000 318.632
35.66000 321.584
35.67000 322.928
35.68000 323.846
35.69000 318.945
35.70000 312.196
35.71000 306.106
35.72000 311.234
35.73000 317.797
35.74000 322.673
35.75000 319.494
35.76000 315.267
35.77000 311.377
35.78000 308.550
35.79000 305.800
35.80000 303.916
35.81000 306.170
35.82000 307.958
35.83000 308.859
35.84000 308.520
35.85000 308.174
35.86000 309.908
35.87000 313.503
35.88000 317.059
35.89000 317.236
35.90000 315.477
35.91000 313.623
35.92000 309.859
35.93000 305.347
35.94000 301.361
35.95000 302.714
35.96000 305.462
35.97000 307.869
35.98000 305.889
35.99000 303.558
36.00000 300.890
36.01000 296.912
36.02000 292.801
36.03000 292.612
36.04000 302.603
36.05000 313.118
36.06000 319.838
36.07000 308.461
36.08000 299.943
36.09000 293.111
36.10000 288.197
36.11000 283.337
36.12000 286.945
36.13000 296.705
36.14000 306.266
36.15000 308.258
36.16000 306.665
36.17000 305.172
36.18000 305.101
36.19000 305.490
36.20000 305.517
36.21000 302.709
36.22000 299.296
36.23000 296.407
36.24000 296.543
36.25000 296.996
36.26000 298.350
36.27000 302.594
36.28000 307.055
36.29000 310.951
36.30000 313.634
36.31000 316.276
36.32000 317.836
36.33000 311.782
36.34000 307.468
36.35000 303.963
36.36000 301.198
36.37000 298.441
36.38000 296.227
36.39000 294.335
36.40000 292.507
36.41000 293.994
36.42000 296.646
36.43000 298.712
36.44000 294.644
36.45000 288.943
36.46000 284.777
36.47000 290.117
36.48000 297.092
36.49000 302.771
36.50000 299.769
36.51000 296.583
36.52000 292.944
36.53000 288.105
36.54000 283.202
36.55000 281.815
36.56000 286.660
36.57000 291.625
36.58000 294.295
36.59000 290.369
36.60000 287.685
36.61000 285.923
36.62000 284.845
36.63000 283.953
36.64000 289.459
36.65000 298.107
36.66000 306.331
36.67000 305.825
36.68000 302.697
36.69000 299.759
36.70000 298.347
36.71000 297.266
36.72000 296.236
36.73000 295.464
36.74000 294.727
36.75000 294.153
36.76000 300.492
36.77000 305.967
36.78000 310.500
36.79000 312.974
36.80000 315.375
36.81000 314.278
36.82000 308.086
36.83000 301.851
36.84000 296.934
36.85000 293.247
36.86000 289.695
36.87000 295.219
36.88000 306.255
36.89000 316.853
36.90000 317.936
36.91000 315.154
36.92000 312.561
36.93000 319.904
36.94000 328.987
36.95000 336.373
36.96000 333.013
36.97000 327.764
36.98000 322.521
36.99000 317.300
37.00000 312.081
37.01000 308.220
37.02000 305.344
37.03000 303.154
37.04000 302.173
37.05000 303.374
37.06000 304.620
37.07000 305.970
37.08000 307.445
37.09000 308.916
37.10000 306.455
37.11000 301.057
37.12000 295.881
37.13000 298.707
37.14000 305.539
37.15000 311.852
37.16000 310.366
37.17000 306.262
37.18000 302.528
37.19000 305.761
37.20000 309.988
37.21000 314.062
37.22000 317.361
37.23000 320.551
37.24000 322.901
37.25000 322.458
37.26000 321.791
37.27000 321.325
37.28000 322.424
37.29000 323.298
37.30000 318.483
37.31000 305.220
37.32000 291.880
37.33000 286.944
37.34000 290.026
37.35000 293.082
37.36000 293.816
37.37000 293.126
37.38000 292.538
37.39000 294.256
37.40000 296.930
37.41000 299.805
37.42000 304.900
37.43000 310.609
37.44000 315.657
37.45000 309.396
37.46000 302.231
37.47000 294.876
37.48000 286.736
37.49000 278.509
37.50000 275.163
37.51000 285.214
37.52000 296.035
37.53000 303.100
37.54000 305.133
37.55000 306.545
37.56000 307.895
37.57000 309.171
37.58000 310.428
37.59000 307.001
37.60000 299.959
37.61000 293.038
37.62000 292.562
37.63000 295.281
37.64000 297.917
37.65000 299.272
37.66000 300.188
37.67000 301.092
37.68000 301.901
37.69000 302.689
37.70000 303.363
37.71000 305.777
37.72000 308.023
37.73000 309.722
37.74000 309.566
37.75000 309.258
37.76000 307.938
37.77000 304.321
37.78000 300.615
37.79000 298.374
37.80000 297.448
37.81000 296.799
37.82000 298.819
37.83000 303.443
37.84000 307.997
37.85000 306.975
37.86000 302.433
37.87000 298.024
37.88000 302.958
37.89000 311.380
37.90000 318.617
37.91000 312.370
37.92000 302.322
37.93000 293.352
37.94000 291.526
37.95000 291.010
37.96000 290.585
37.97000 298.351
37.98000 305.494
37.99000 308.999
38.00000 302.325
38.01000 295.046
38.02000 292.805
38.03000 300.016
38.04000 307.446
38.05000 311.558
38.06000 314.381
38.07000 316.315
38.08000 314.716
38.09000 310.337
38.10000 306.087
38.11000 307.052
38.12000 310.728
38.13000 314.242
38.14000 319.775
38.15000 325.578
38.16000 330.499
38.17000 327.798
38.18000 323.337
38.19000 320.091
38.20000 323.285
38.21000 327.422
38.22000 330.688
38.23000 328.184
38.24000 325.783
38.25000 327.133
38.26000 337.163
38.27000 347.541
38.28000 351.603
38.29000 345.908
38.30000 340.103
38.31000 340.735
38.32000 347.781
38.33000 354.859
38.34000 364.817
38.35000 376.628
38.36000 388.485
38.37000 401.487
38.38000 414.980
38.39000 427.634
38.40000 434.388
38.41000 438.995
38.42000 446.349
38.43000 472.317
38.44000 501.771
38.45000 529.132
38.46000 547.486
38.47000 564.809
38.48000 577.828
38.49000 621.666
38.50000 657.425
38.51000 695.828
38.52000 739.287
38.53000 782.870
38.54000 829.539
38.55000 880.101
38.56000 930.593
38.57000 976.036
38.58000 1017.247
38.59000 1058.536
38.60000 1103.180
38.61000 1149.600
38.62000 1195.641
38.63000 1235.380
38.64000 1272.879
38.65000 1307.245
38.66000 1334.327
38.67000 1356.915
38.68000 1377.885
38.69000 1390.089
38.70000 1400.980
38.71000 1408.904
38.72000 1406.373
38.73000 1402.930
38.74000 1400.484
38.75000 1383.156
38.76000 1369.490
38.77000 1347.364
38.78000 1311.914
38.79000 1276.302
38.80000 1234.176
38.81000 1185.419
38.82000 1136.971
38.83000 1090.965
38.84000 1047.204
38.85000 1003.374
38.86000 957.764
38.87000 911.375
38.88000 864.779
38.89000 815.685
38.90000 765.859
38.91000 721.413
38.92000 681.811
38.93000 648.159
38.94000 614.305
38.95000 579.564
38.96000 544.718
38.97000 514.366
38.98000 497.067
38.99000 480.599
39.00000 469.622
39.01000 433.268
39.02000 405.868
39.03000 383.939
39.04000 369.052
39.05000 354.212
39.06000 347.754
39.07000 348.169
39.08000 348.579
39.09000 341.687
39.10000 331.167
39.11000 320.996
39.12000 316.846
39.13000 314.875
39.14000 313.355
39.15000 315.947
39.16000 319.526
39.17000 322.620
39.18000 324.350
39.19000 325.641
39.20000 324.310
39.21000 313.556
39.22000 301.958
39.23000 293.936
39.24000 294.502
39.25000 295.444
39.26000 296.027
39.27000 299.502
39.28000 302.028
39.29000 302.108
39.30000 299.642
39.31000 297.175
39.32000 294.686
39.33000 292.183
39.34000 289.743
39.35000 284.069
39.36000 277.275
39.37000 271.169
39.38000 273.590
39.39000 278.558
39.40000 282.817
39.41000 282.042
39.42000 280.283
39.43000 278.816
39.44000 284.911
39.45000 290.719
39.46000 292.736
39.47000 283.535
39.48000 273.597
39.49000 267.980
39.50000 270.941
39.51000 274.137
39.52000 275.955
39.53000 273.819
39.54000 272.322
39.55000 273.063
39.56000 275.678
39.57000 278.216
39.58000 277.052
39.59000 273.851
39.60000 270.776
39.61000 271.073
39.62000 272.514
39.63000 274.144
39.64000 277.539
39.65000 281.366
39.66000 284.244
39.67000 281.755
39.68000 278.425
39.69000 275.761
39.70000 269.415
39.71000 264.010
39.72000 262.253
39.73000 269.420
39.74000 276.993
39.75000 277.860
39.76000 267.751
39.77000 257.485
39.78000 252.193
39.79000 259.160
39.80000 263.832
39.81000 265.853
39.82000 266.068
39.83000 266.231
39.84000 264.950
39.85000 263.011
39.86000 261.183
39.87000 260.834
39.88000 260.928
39.89000 261.594
39.90000 266.414
39.91000 272.062
39.92000 275.563
39.93000 269.251
39.94000 261.728
39.95000 255.987
39.96000 258.551
39.97000 261.017
39.98000 262.264
39.99000 261.049
40.00000 259.762
40.01000 260.666
40.02000 264.506
40.03000 268.357
40.04000 270.419
40.05000 270.951
40.06000 271.469
40.07000 271.333
40.08000 270.830
40.09000 270.105
40.10000 265.291
40.11000 258.939
40.12000 253.076
40.13000 250.533
40.14000 248.998
40.15000 248.575
40.16000 254.570
40.17000 261.593
40.18000 265.916
40.19000 260.157
40.20000 253.442
40.21000 248.586
40.22000 244.182
40.23000 240.818
40.24000 242.845
40.25000 253.864
40.26000 265.021
40.27000 268.752
40.28000 264.413
40.29000 260.091
40.30000 259.230
40.31000 260.760
40.32000 262.152
40.33000 259.516
40.34000 255.014
40.35000 250.652
40.36000 248.123
40.37000 246.163
40.38000 244.400
40.39000 246.914
40.40000 249.879
40.41000 252.052
40.42000 250.528
40.43000 248.537
40.44000 247.853
40.45000 251.189
40.46000 254.807
40.47000 257.267
40.48000 253.640
40.49000 250.795
40.50000 249.868
40.51000 251.563
40.52000 253.273
40.53000 254.414
40.54000 255.059
40.55000 255.696
40.56000 252.226
40.57000 246.549
40.58000 241.365
40.59000 245.618
40.60000 253.484
40.61000 260.270
40.62000 256.408
40.63000 249.832
40.64000 244.092
40.65000 247.180
40.66000 251.061
40.67000 253.505
40.68000 250.481
40.69000 246.924
40.70000 245.161
40.71000 247.948
40.72000 250.960
40.73000 252.868
40.74000 256.247
40.75000 258.716
40.76000 259.008
40.77000 256.886
40.78000 254.777
40.79000 254.744
40.80000 256.184
40.81000 257.593
40.82000 253.572
40.83000 247.256
40.84000 241.305
40.85000 240.324
40.86000 240.914
40.87000 241.515
40.88000 242.199
40.89000 242.899
40.90000 243.490
40.91000 244.903
40.92000 246.171
40.93000 247.234
40.94000 247.654
40.95000 248.027
40.96000 248.916
40.97000 250.889
40.98000 252.897
40.99000 254.070
41.00000 248.970
41.01000 245.357
41.02000 246.621
41.03000 252.233
41.04000 257.757
41.05000 258.179
41.06000 255.630
41.07000 253.169
41.08000 249.138
41.09000 244.765
41.10000 240.978
41.11000 243.120
41.12000 246.803
41.13000 249.912
41.14000 249.553
41.15000 248.613
41.16000 247.851
41.17000 244.543
41.18000 241.640
41.19000 240.567
41.20000 244.227
41.21000 248.129
41.22000 251.795
41.23000 255.051
41.24000 258.300
41.25000 260.027
41.26000 250.237
41.27000 243.582
41.28000 239.305
41.29000 236.748
41.30000 234.342
41.31000 236.797
41.32000 241.587
41.33000 246.131
41.34000 244.527
41.35000 241.220
41.36000 238.767
41.37000 242.983
41.38000 248.613
41.39000 252.800
41.40000 249.975
41.41000 246.219
41.42000 243.311
41.43000 246.227
41.44000 248.887
41.45000 248.647
41.46000 242.199
41.47000 235.545
41.48000 231.982
41.49000 232.817
41.50000 233.684
41.51000 236.176
41.52000 240.144
41.53000 244.031
41.54000 242.906
41.55000 238.805
41.56000 234.805
41.57000 232.885
41.58000 231.791
41.59000 230.774
41.60000 238.000
41.61000 246.492
41.62000 254.040
41.63000 255.761
41.64000 256.485
41.65000 256.397
41.66000 253.094
41.67000 249.461
41.68000 246.790
41.69000 245.402
41.70000 244.380
41.71000 245.157
41.72000 249.110
41.73000 253.123
41.74000 252.393
41.75000 246.173
41.76000 239.965
41.77000 240.286
41.78000 245.387
41.79000 250.348
41.80000 250.529
41.81000 248.372
41.82000 245.761
41.83000 236.591
41.84000 225.267
41.85000 214.999
41.86000 222.492
41.87000 232.494
41.88000 241.616
41.89000 246.373
41.90000 250.536
41.91000 252.882
41.92000 249.318
41.93000 245.298
41.94000 242.513
41.95000 240.494
41.96000 238.994
41.97000 237.602
41.98000 236.366
41.99000 235.131
42.00000 233.537
42.01000 231.610
42.02000 229.700
42.03000 232.077
42.04000 236.950
42.05000 241.521
42.06000 239.585
42.07000 235.015
42.08000 230.734
42.09000 229.546
42.10000 229.194
42.11000 228.884
42.12000 232.063
42.13000 235.327
42.14000 236.842
42.15000 231.289
42.16000 224.991
42.17000 221.755
42.18000 226.743
42.19000 232.183
42.20000 235.706
42.21000 236.870
42.22000 237.686
42.23000 236.585
42.24000 233.218
42.25000 229.872
42.26000 231.694
42.27000 237.408
42.28000 243.017
42.29000 243.074
42.30000 240.458
42.31000 237.780
42.32000 234.191
42.33000 230.297
42.34000 226.989
42.35000 228.483
42.36000 231.038
42.37000 233.215
42.38000 236.474
42.39000 239.341
42.40000 241.903
42.41000 243.450
42.42000 244.916
42.43000 244.471
42.44000 239.785
42.45000 234.943
42.46000 232.043
42.47000 231.540
42.48000 231.198
42.49000 229.498
42.50000 226.509
42.51000 223.607
42.52000 226.987
42.53000 234.241
42.54000 241.273
42.55000 242.865
42.56000 242.247
42.57000 241.474
42.58000 238.998
42.59000 236.052
42.60000 233.103
42.61000 230.138
42.62000 227.170
42.63000 224.735
42.64000 233.097
42.65000 240.919
42.66000 244.627
42.67000 237.079
42.68000 228.890
42.69000 224.416
42.70000 226.759
42.71000 229.249
42.72000 230.612
42.73000 231.222
42.74000 231.623
42.75000 228.018
42.76000 221.334
42.77000 214.829
42.78000 215.023
42.79000 218.623
42.80000 222.057
42.81000 225.283
42.82000 228.211
42.83000 231.057
42.84000 233.216
42.85000 235.220
42.86000 236.422
42.87000 233.476
42.88000 229.938
42.89000 227.160
42.90000 223.443
42.91000 220.407
42.92000 218.576
42.93000 219.468
42.94000 220.464
42.95000 222.301
42.96000 225.406
42.97000 228.524
42.98000 232.118
42.99000 236.173
43.00000 240.169
43.01000 239.472
43.02000 235.826
43.03000 232.260
43.04000 230.566
43.05000 229.658
43.06000 228.808
43.07000 227.707
43.08000 226.643
43.09000 225.741
43.10000 225.908
43.11000 226.270
43.12000 226.816
43.13000 228.134
43.14000 229.538
43.15000 230.587
43.16000 227.762
43.17000 225.381
43.18000 224.607
43.19000 226.835
43.20000 229.132
43.21000 232.447
43.22000 237.017
43.23000 241.580
43.24000 237.922
43.25000 227.869
43.26000 218.020
43.27000 216.245
43.28000 218.653
43.29000 220.883
43.30000 220.263
43.31000 218.653
43.32000 217.182
43.33000 220.068
43.34000 223.522
43.35000 225.951
43.36000 222.969
43.37000 219.197
43.38000 217.667
43.39000 223.859
43.40000 230.700
43.41000 235.528
43.42000 232.107
43.43000 229.262
43.44000 228.681
43.45000 231.587
43.46000 234.531
43.47000 234.545
43.48000 231.652
43.49000 228.780
43.50000 229.664
43.51000 232.903
43.52000 236.048
43.53000 236.922
43.54000 236.823
43.55000 236.444
43.56000 232.815
43.57000 228.254
43.58000 224.199
43.59000 220.766
43.60000 217.888
43.61000 215.761
43.62000 216.852
43.63000 218.310
43.64000 218.652
43.65000 215.824
43.66000 212.802
43.67000 210.804
43.68000 203.596
43.69000 198.184
43.70000 200.873
43.71000 213.745
43.72000 226.622
43.73000 230.392
43.74000 226.872
43.75000 223.407
43.76000 222.872
43.77000 223.851
43.78000 224.601
43.79000 221.557
43.80000 217.170
43.81000 213.040
43.82000 211.180
43.83000 209.853
43.84000 208.710
43.85000 211.775
43.86000 214.903
43.87000 217.868
43.88000 220.255
43.89000 222.592
43.90000 224.526
43.91000 225.510
43.92000 226.455
43.93000 227.034
43.94000 220.948
43.95000 216.530
43.96000 212.699
43.97000 209.464
43.98000 206.304
43.99000 210.022
44.00000 218.236
44.01000 226.231
44.02000 228.199
44.03000 227.570
44.04000 226.677
44.05000 222.618
44.06000 217.635
44.07000 213.005
44.08000 210.806
44.09000 209.071
44.10000 207.630
44.11000 216.404
44.12000 224.644
44.13000 231.470
44.14000 234.202
44.15000 236.675
44.16000 237.021
44.17000 233.238
44.18000 229.349
44.19000 227.161
44.20000 224.010
44.21000 221.823
44.22000 220.838
44.23000 220.834
44.24000 220.819
44.25000 220.291
44.26000 219.488
44.27000 218.718
44.28000 216.687
44.29000 214.366
44.30000 212.635
44.31000 216.260
44.32000 221.167
44.33000 225.172
44.34000 224.209
44.35000 222.489
44.36000 221.120
44.37000 220.776
44.38000 220.573
44.39000 219.745
44.40000 217.421
44.41000 215.032
44.42000 213.443
44.43000 213.132
44.44000 212.837
44.45000 212.687
44.46000 210.713
44.47000 209.447
44.48000 214.017
44.49000 222.477
44.50000 230.771
44.51000 234.648
44.52000 236.563
44.53000 238.365
44.54000 233.835
44.55000 227.971
44.56000 223.043
44.57000 224.730
44.58000 227.704
44.59000 230.777
44.60000 234.287
44.61000 237.849
44.62000 240.551
44.63000 240.867
44.64000 240.993
44.65000 242.781
44.66000 247.860
44.67000 253.026
44.68000 254.855
44.69000 252.314
44.70000 249.756
44.71000 248.533
44.72000 248.423
44.73000 248.359
44.74000 250.456
44.75000 253.737
44.76000 257.103
44.77000 261.972
44.78000 267.394
44.79000 272.385
44.80000 274.940
44.81000 276.693
44.82000 279.225
44.83000 286.143
44.84000 293.747
44.85000 300.841
44.86000 306.078
44.87000 311.144
44.88000 314.782
44.89000 323.577
44.90000 330.482
44.91000 340.923
44.92000 357.127
44.93000 373.414
44.94000 379.745
44.95000 375.533
44.96000 371.341
44.97000 370.931
44.98000 373.065
44.99000 375.460
45.00000 385.130
45.01000 398.093
45.02000 410.094
45.03000 409.875
45.04000 405.950
45.05000 402.430
45.06000 401.707
45.07000 401.562
45.08000 402.152
45.09000 406.094
45.10000 410.447
45.11000 413.657
45.12000 413.436
45.13000 412.982
45.14000 412.676
45.15000 400.244
45.16000 390.737
45.17000 384.845
45.18000 383.782
45.19000 382.743
45.20000 381.437
45.21000 379.905
45.22000 378.392
45.23000 372.756
45.24000 365.025
45.25000 357.211
45.26000 347.878
45.27000 337.976
45.28000 328.483
45.29000 322.894
45.30000 318.277
45.31000 314.261
45.32000 319.692
45.33000 325.611
45.34000 328.069
45.35000 317.649
45.36000 306.015
45.37000 298.191
45.38000 299.826
45.39000 301.906
45.40000 303.212
45.41000 295.869
45.42000 290.466
45.43000 290.597
45.44000 296.716
45.45000 302.778
45.46000 301.442
45.47000 294.978
45.48000 288.664
45.49000 284.311
45.50000 281.008
45.51000 277.620
45.52000 273.097
45.53000 268.225
45.54000 263.369
45.55000 258.636
45.56000 253.928
45.57000 249.976
45.58000 251.234
45.59000 252.829
45.60000 252.652
45.61000 247.053
45.62000 241.076
45.63000 238.279
45.64000 242.014
45.65000 245.944
45.66000 248.217
45.67000 250.811
45.68000 252.628
45.69000 252.216
45.70000 249.865
45.71000 247.492
45.72000 243.882
45.73000 239.568
45.74000 235.412
45.75000 239.486
45.76000 246.263
45.77000 251.862
45.78000 245.913
45.79000 237.031
45.80000 229.348
45.81000 228.707
45.82000 229.216
45.83000 229.626
45.84000 239.321
45.85000 247.924
45.86000 250.665
45.87000 238.571
45.88000 225.753
45.89000 217.823
45.90000 218.173
45.91000 218.658
45.92000 218.913
45.93000 219.605
45.94000 220.065
45.95000 219.231
45.96000 217.481
45.97000 215.830
45.98000 217.205
45.99000 220.002
46.00000 222.650
46.01000 222.057
46.02000 220.572
46.03000 219.036
46.04000 217.118
46.05000 215.120
46.06000 213.087
46.07000 210.887
46.08000 208.665
46.09000 206.954
46.10000 211.299
46.11000 215.084
46.12000 217.949
46.13000 218.888
46.14000 219.767
46.15000 216.725
46.16000 208.233
46.17000 199.710
46.18000 196.727
46.19000 198.659
46.20000 200.603
46.21000 203.255
46.22000 206.318
46.23000 209.245
46.24000 209.491
46.25000 208.694
46.26000 207.956
46.27000 206.439
46.28000 204.892
46.29000 204.373
46.30000 210.024
46.31000 216.705
46.32000 222.279
46.33000 223.567
46.34000 224.428
46.35000 225.058
46.36000 216.118
46.37000 208.851
46.38000 203.555
46.39000 201.664
46.40000 199.833
46.41000 200.682
46.42000 204.557
46.43000 208.420
46.44000 209.131
46.45000 207.583
46.46000 206.092
46.47000 206.425
46.48000 207.630
46.49000 208.698
46.50000 207.850
46.51000 206.388
46.52000 205.066
46.53000 208.483
46.54000 212.371
46.55000 214.503
46.56000 208.140
46.57000 200.656
46.58000 195.274
46.59000 196.580
46.60000 198.382
46.61000 199.622
46.62000 203.844
46.63000 207.085
46.64000 206.944
46.65000 202.010
46.66000 197.043
46.67000 196.660
46.68000 200.433
46.69000 204.169
46.70000 204.175
46.71000 202.023
46.72000 199.908
46.73000 198.549
46.74000 197.489
46.75000 196.638
46.76000 197.945
46.77000 199.823
46.78000 201.471
46.79000 199.805
46.80000 197.888
46.81000 196.136
46.82000 195.032
46.83000 193.995
46.84000 193.629
46.85000 195.029
46.86000 196.522
46.87000 197.481
46.88000 198.584
46.89000 199.390
46.90000 198.471
46.91000 195.565
46.92000 192.664
46.93000 191.131
46.94000 190.605
46.95000 190.090
46.96000 191.008
46.97000 192.565
46.98000 194.312
46.99000 198.795
47.00000 204.173
47.01000 208.185
47.02000 201.330
47.03000 192.131
47.04000 184.323
47.05000 184.443
47.06000 185.443
47.07000 186.433
47.08000 187.392
47.09000 188.349
47.10000 189.033
47.11000 189.125
47.12000 189.197
47.13000 189.239
47.14000 195.808
47.15000 200.492
47.16000 203.939
47.17000 206.238
47.18000 208.413
47.19000 202.332
47.20000 191.274
47.21000 180.573
47.22000 180.593
47.23000 184.700
47.24000 188.162
47.25000 184.772
47.26000 179.536
47.27000 175.489
47.28000 178.907
47.29000 183.626
47.30000 187.478
47.31000 185.812
47.32000 183.974
47.33000 183.481
47.34000 186.589
47.35000 189.893
47.36000 192.677
47.37000 194.530
47.38000 196.364
47.39000 197.357
47.40000 192.845
47.41000 189.762
47.42000 189.020
47.43000 190.036
47.44000 191.065
47.45000 192.545
47.46000 194.248
47.47000 195.870
47.48000 191.456
47.49000 185.507
47.50000 180.137
47.51000 179.491
47.52000 179.885
47.53000 180.379
47.54000 181.377
47.55000 182.445
47.56000 183.279
47.57000 186.788
47.58000 189.755
47.59000 190.413
47.60000 185.962
47.61000 181.326
47.62000 179.962
47.63000 183.423
47.64000 186.928
47.65000 187.817
47.66000 186.234
47.67000 184.672
47.68000 184.626
47.69000 185.513
47.70000 186.415
47.71000 187.636
47.72000 188.989
47.73000 190.251
47.74000 186.948
47.75000 182.820
47.76000 179.620
47.77000 182.377
47.78000 186.195
47.79000 188.981
47.80000 187.531
47.81000 185.623
47.82000 184.208
47.83000 182.780
47.84000 181.669
47.85000 182.050
47.86000 185.156
47.87000 188.321
47.88000 188.927
47.89000 186.458
47.90000 183.990
47.91000 186.032
47.92000 191.494
47.93000 196.620
47.94000 189.240
47.95000 175.528
47.96000 162.799
47.97000 165.172
47.98000 172.677
47.99000 179.513
48.00000 183.717
48.01000 186.917
48.02000 189.141
48.03000 186.345
48.04000 182.837
48.05000 179.538
48.06000 176.948
48.07000 174.414
48.08000 172.639
48.09000 178.059
48.10000 182.364
48.11000 184.706
48.12000 184.098
48.13000 183.460
48.14000 183.910
48.15000 185.410
48.16000 186.898
48.17000 185.773
48.18000 183.059
48.19000 180.514
48.20000 181.887
48.21000 184.902
48.22000 187.988
48.23000 191.883
48.24000 196.005
48.25000 199.657
48.26000 199.554
48.27000 198.874
48.28000 196.779
48.29000 188.762
48.30000 180.091
48.31000 174.460
48.32000 177.275
48.33000 180.586
48.34000 182.757
48.35000 184.674
48.36000 186.079
48.37000 187.385
48.38000 188.570
48.39000 189.749
48.40000 189.767
48.41000 188.876
48.42000 188.000
48.43000 184.094
48.44000 178.801
48.45000 173.954
48.46000 176.180
48.47000 180.853
48.48000 185.119
48.49000 185.881
48.50000 185.841
48.51000 185.807
48.52000 184.032
48.53000 182.319
48.54000 181.262
48.55000 182.454
48.56000 183.835
48.57000 183.962
48.58000 181.207
48.59000 178.338
48.60000 176.594
48.61000 179.191
48.62000 181.079
48.63000 183.413
48.64000 186.187
48.65000 188.914
48.66000 187.714
48.67000 184.005
48.68000 180.402
48.69000 184.436
48.70000 191.367
48.71000 197.266
48.72000 191.216
48.73000 181.757
48.74000 173.350
48.75000 172.014
48.76000 171.992
48.77000 171.974
48.78000 176.229
48.79000 180.135
48.80000 183.078
48.81000 183.298
48.82000 183.353
48.83000 182.799
48.84000 181.089
48.85000 179.351
48.86000 178.383
48.87000 180.114
48.88000 181.313
48.89000 181.237
48.90000 180.143
48.91000 179.052
48.92000 178.085
48.93000 177.184
48.94000 176.321
48.95000 175.452
48.96000 174.640
48.97000 174.184
48.98000 176.852
48.99000 180.251
49.00000 182.709
49.01000 180.118
49.02000 176.776
49.03000 174.131
49.04000 176.563
49.05000 178.869
49.06000 180.880
49.07000 182.203
49.08000 183.498
49.09000 183.063
49.10000 179.925
49.11000 176.756
49.12000 175.163
49.13000 184.758
49.14000 191.120
49.15000 193.346
49.16000 192.878
49.17000 192.362
49.18000 190.617
49.19000 188.337
49.20000 186.197
49.21000 182.735
49.22000 179.228
49.23000 175.887
49.24000 173.692
49.25000 171.714
49.26000 170.925
49.27000 175.312
49.28000 180.302
49.29000 184.064
49.30000 183.603
49.31000 183.034
49.32000 180.886
49.33000 175.684
49.34000 170.404
49.35000 169.663
49.36000 174.722
49.37000 179.795
49.38000 186.009
49.39000 193.123
49.40000 200.048
49.41000 198.605
49.42000 192.678
49.43000 186.761
49.44000 181.030
49.45000 175.364
49.46000 170.164
49.47000 165.948
49.48000 162.398
49.49000 159.531
49.50000 160.419
49.51000 161.876
49.52000 164.626
49.53000 171.985
49.54000 179.752
49.55000 185.291
49.56000 178.048
49.57000 172.106
49.58000 169.398
49.59000 171.841
49.60000 174.352
49.61000 175.047
49.62000 173.871
49.63000 172.701
49.64000 171.153
49.65000 169.380
49.66000 167.738
49.67000 169.543
49.68000 172.873
49.69000 175.920
49.70000 175.488
49.71000 174.025
49.72000 172.717
49.73000 172.863
49.74000 173.236
49.75000 173.348
49.76000 172.303
49.77000 171.120
49.78000 170.618
49.79000 172.117
49.80000 173.746
49.81000 174.836
49.82000 177.436
49.83000 179.394
49.84000 179.870
49.85000 178.412
49.86000 176.949
49.87000 176.739
49.88000 177.571
49.89000 178.391
49.90000 175.597
49.91000 170.962
49.92000 166.605
49.93000 167.158
49.94000 169.508
49.95000 171.657
49.96000 171.951
49.97000 171.793
49.98000 171.656
49.99000 173.114
50.00000 174.566
50.01000 176.242
50.02000 178.736
50.03000 181.305
50.04000 181.942
50.05000 177.890
50.06000 173.627
50.07000 170.975
50.08000 171.726
50.09000 172.302
50.10000 174.329
50.11000 177.887
50.12000 181.434
50.13000 183.749
50.14000 185.228
50.15000 186.671
50.16000 184.146
50.17000 180.024
50.18000 176.213
50.19000 176.343
50.20000 177.663
50.21000 179.228
50.22000 182.554
50.23000 186.229
50.24000 189.300
50.25000 183.467
50.26000 177.720
50.27000 175.265
50.28000 182.666
50.29000 190.728
50.30000 196.074
50.31000 195.966
50.32000 195.705
50.33000 195.555
50.34000 190.534
50.35000 187.018
50.36000 187.091
50.37000 190.208
50.38000 193.300
50.39000 195.173
50.40000 196.367
50.41000 197.515
50.42000 198.429
50.43000 199.204
50.44000 200.218
50.45000 203.507
50.46000 207.359
50.47000 211.445
50.48000 216.866
50.49000 222.498
50.50000 227.016
50.51000 239.892
50.52000 250.952
50.53000 257.479
50.54000 252.789
50.55000 247.575
50.56000 246.778
50.57000 253.296
50.58000 259.924
50.59000 263.362
50.60000 268.743
50.61000 272.347
50.62000 272.520
50.63000 270.324
50.64000 268.323
50.65000 271.941
50.66000 278.141
50.67000 283.997
50.68000 285.583
50.69000 285.831
50.70000 285.547
50.71000 281.338
50.72000 276.336
50.73000 272.003
50.74000 270.766
50.75000 269.917
50.76000 269.268
50.77000 270.377
50.78000 271.348
50.79000 269.926
50.80000 263.605
50.81000 257.138
50.82000 253.549
50.83000 253.864
50.84000 254.201
50.85000 252.502
50.86000 249.047
50.87000 245.513
50.88000 237.802
50.89000 227.721
50.90000 217.820
50.91000 211.320
50.92000 206.113
50.93000 201.300
50.94000 207.290
50.95000 215.121
50.96000 221.856
50.97000 222.174
50.98000 221.448
50.99000 220.175
51.00000 216.836
51.01000 213.298
51.02000 210.732
51.03000 198.628
51.04000 188.969
51.05000 184.908
51.06000 190.293
51.07000 195.832
51.08000 196.642
51.09000 192.247
51.10000 187.868
51.11000 188.612
51.12000 192.920
51.13000 197.135
51.14000 198.572
51.15000 198.708
51.16000 198.521
51.17000 194.001
51.18000 188.121
51.19000 182.823
51.20000 183.531
51.21000 185.240
51.22000 186.209
51.23000 183.686
51.24000 180.715
51.25000 178.531
51.26000 178.793
51.27000 179.230
51.28000 179.529
51.29000 174.838
51.30000 171.215
51.31000 170.688
51.32000 174.450
51.33000 178.237
51.34000 180.365
51.35000 181.026
51.36000 181.680
51.37000 181.516
51.38000 180.896
51.39000 180.266
51.40000 179.459
51.41000 178.584
51.42000 177.401
51.43000 173.136
51.44000 168.076
51.45000 163.651
51.46000 158.701
51.47000 154.385
51.48000 151.999
51.49000 157.051
51.50000 162.841
51.51000 166.014
51.52000 162.468
51.53000 158.582
51.54000 156.110
51.55000 160.526
51.56000 163.821
51.57000 165.896
51.58000 166.599
51.59000 167.278
51.60000 164.428
51.61000 159.043
51.62000 153.772
51.63000 158.286
51.64000 167.109
51.65000 175.304
51.66000 174.821
51.67000 171.560
51.68000 169.060
51.69000 172.441
51.70000 177.061
51.71000 180.966
51.72000 173.486
51.73000 165.979
51.74000 160.567
51.75000 161.795
51.76000 163.514
51.77000 163.972
51.78000 161.752
51.79000 159.445
51.80000 158.090
51.81000 164.038
51.82000 168.265
51.83000 168.400
51.84000 164.841
51.85000 161.360
51.86000 162.608
51.87000 166.642
51.88000 170.539
51.89000 168.550
51.90000 164.487
51.91000 160.720
51.92000 160.009
51.93000 160.102
51.94000 159.872
51.95000 157.664
51.96000 155.120
51.97000 153.053
51.98000 160.923
51.99000 168.168
52.00000 174.060
52.01000 176.410
52.02000 178.575
52.03000 177.744
52.04000 171.660
52.05000 165.478
52.06000 162.173
52.07000 162.986
52.08000 163.536
52.09000 162.705
52.10000 160.861
52.11000 159.098
52.12000 160.010
52.13000 162.223
52.14000 164.325
52.15000 161.229
52.16000 156.805
52.17000 152.856
52.18000 152.675
52.19000 153.303
52.20000 154.835
52.21000 160.817
52.22000 167.398
52.23000 172.508
52.24000 165.973
52.25000 160.070
52.26000 156.065
52.27000 156.165
52.28000 156.405
52.29000 155.932
52.30000 154.433
52.31000 152.926
52.32000 152.412
52.33000 152.814
52.34000 153.263
52.35000 156.741
52.36000 162.037
52.37000 167.099
52.38000 167.196
52.39000 165.298
52.40000 163.531
52.41000 161.511
52.42000 159.624
52.43000 157.814
52.44000 156.484
52.45000 155.237
52.46000 154.359
52.47000 154.958
52.48000 155.711
52.49000 156.267
52.50000 162.302
52.51000 167.207
52.52000 169.993
52.53000 168.991
52.54000 167.915
52.55000 168.394
52.56000 170.697
52.57000 172.997
52.58000 172.582
52.59000 170.155
52.60000 167.757
52.61000 166.381
52.62000 165.512
52.63000 164.558
52.64000 162.352
52.65000 159.729
52.66000 157.347
52.67000 156.428
52.68000 155.899
52.69000 155.850
52.70000 158.210
52.71000 160.903
52.72000 162.079
52.73000 158.265
52.74000 154.059
52.75000 151.133
52.76000 150.914
52.77000 150.822
52.78000 152.284
52.79000 156.031
52.80000 159.797
52.81000 161.637
52.82000 161.660
52.83000 161.684
52.84000 165.082
52.85000 170.442
52.86000 175.495
52.87000 173.778
52.88000 169.288
52.89000 165.027
52.90000 163.262
52.91000 162.179
52.92000 161.222
52.93000 155.096
52.94000 149.019
52.95000 144.294
52.96000 145.095
52.97000 146.489
52.98000 148.836
52.99000 153.771
53.00000 158.853
53.01000 162.157
53.02000 160.263
53.03000 158.794
53.04000 158.033
53.05000 158.117
53.06000 158.195
53.07000 156.598
53.08000 153.724
53.09000 150.900
53.10000 150.895
53.11000 152.263
53.12000 153.517
53.13000 153.025
53.14000 151.941
53.15000 151.483
53.16000 156.225
53.17000 162.132
53.18000 167.176
53.19000 167.397
53.20000 167.009
53.21000 165.950
53.22000 162.636
53.23000 159.140
53.24000 157.082
53.25000 158.253
53.26000 159.546
53.27000 160.325
53.28000 155.048
53.29000 151.253
53.30000 153.313
53.31000 161.013
53.32000 168.612
53.33000 168.636
53.34000 163.931
53.35000 159.366
53.36000 161.239
53.37000 165.561
53.38000 169.572
53.39000 170.108
53.40000 169.674
53.41000 169.428
53.42000 170.411
53.43000 171.618
53.44000 172.610
53.45000 168.602
53.46000 164.855
53.47000 161.824
53.48000 160.771
53.49000 159.834
53.50000 160.912
53.51000 165.732
53.52000 170.636
53.53000 173.336
53.54000 176.562
53.55000 178.769
53.56000 176.881
53.57000 171.807
53.58000 166.784
53.59000 163.748
53.60000 161.734
53.61000 159.811
53.62000 161.883
53.63000 165.089
53.64000 167.535
53.65000 163.504
53.66000 157.994
53.67000 154.153
53.68000 159.056
53.69000 165.223
53.70000 170.078
53.71000 163.125
53.72000 156.766
53.73000 153.588
53.74000 157.693
53.75000 162.084
53.76000 163.259
53.77000 159.522
53.78000 155.733
53.79000 155.379
53.80000 158.406
53.81000 161.384
53.82000 160.402
53.83000 156.898
53.84000 153.453
53.85000 151.403
53.86000 149.945
53.87000 148.579
53.88000 152.381
53.89000 157.176
53.90000 161.644
53.91000 163.928
53.92000 165.807
53.93000 167.006
53.94000 165.313
53.95000 163.292
53.96000 161.778
53.97000 164.109
53.98000 166.109
53.99000 166.509
54.00000 163.881
54.01000 161.181
54.02000 158.082
54.03000 154.487
54.04000 150.897
54.05000 151.949
54.06000 156.666
54.07000 161.264
54.08000 160.978
54.09000 158.133
54.10000 155.425
54.11000 154.963
54.12000 155.289
54.13000 155.588
54.14000 157.904
54.15000 160.382
54.16000 162.083
54.17000 159.628
54.18000 156.557
54.19000 153.853
54.20000 152.423
54.21000 151.103
54.22000 150.168
54.23000 153.899
54.24000 156.880
54.25000 158.698
54.26000 158.704
54.27000 158.689
54.28000 156.485
54.29000 152.078
54.30000 147.702
54.31000 146.603
54.32000 147.616
54.33000 148.654
54.34000 150.301
54.35000 152.213
54.36000 154.040
54.37000 154.857
54.38000 155.381
54.39000 155.849
54.40000 158.827
54.41000 161.827
54.42000 164.141
54.43000 163.475
54.44000 162.463
54.45000 161.585
54.46000 161.088
54.47000 160.614
54.48000 160.300
54.49000 157.194
54.50000 154.847
54.51000 153.449
54.52000 153.260
54.53000 153.074
54.54000 152.892
54.55000 152.712
54.56000 152.534
54.57000 153.012
54.58000 153.814
54.59000 154.559
54.60000 154.319
54.61000 153.727
54.62000 153.279
54.63000 154.125
54.64000 155.279
54.65000 156.274
54.66000 158.782
54.67000 161.103
54.68000 162.794
54.69000 162.243
54.70000 161.495
54.71000 159.212
54.72000 153.286
54.73000 147.204
54.74000 143.454
54.75000 151.151
54.76000 156.779
54.77000 158.140
54.78000 155.113
54.79000 152.113
54.80000 151.807
54.81000 153.282
54.82000 154.720
54.83000 155.282
54.84000 155.450
54.85000 155.734
54.86000 157.425
54.87000 159.533
54.88000 161.408
54.89000 161.662
54.90000 161.602
54.91000 161.552
54.92000 164.863
54.93000 167.934
54.94000 169.355
54.95000 165.943
54.96000 162.220
54.97000 161.559
54.98000 166.913
54.99000 172.426
55.00000 175.547
55.01000 164.167
55.02000 156.217
55.03000 152.075
55.04000 151.083
55.05000 150.162
55.06000 152.472
55.07000 156.541
55.08000 160.446
55.09000 161.202
55.10000 160.833
55.11000 160.852
55.12000 164.430
55.13000 168.872
55.14000 172.479
55.15000 171.431
55.16000 169.661
55.17000 168.249
55.18000 169.901
55.19000 171.459
55.20000 172.730
55.21000 173.304
55.22000 173.847
55.23000 174.276
55.24000 174.520
55.25000 174.762
55.26000 174.885
55.27000 174.541
55.28000 174.307
55.29000 173.842
55.30000 173.220
55.31000 172.553
55.32000 170.663
55.33000 168.223
55.34000 165.924
55.35000 172.485
55.36000 180.933
55.37000 188.428
55.38000 189.081
55.39000 188.386
55.40000 188.024
55.41000 189.168
55.42000 190.495
55.43000 191.506
55.44000 188.704
55.45000 186.299
55.46000 188.075
55.47000 198.215
55.48000 208.589
55.49000 215.147
55.50000 216.650
55.51000 218.127
55.52000 219.263
55.53000 220.111
55.54000 221.064
55.55000 227.204
55.56000 236.220
55.57000 245.208
55.58000 253.698
55.59000 262.002
55.60000 269.657
55.61000 275.966
55.62000 281.317
55.63000 287.829
55.64000 300.962
55.65000 315.143
55.66000 328.759
55.67000 340.291
55.68000 351.628
55.69000 359.798
55.70000 386.001
55.71000 406.717
55.72000 425.428
55.73000 440.833
55.74000 456.188
55.75000 479.097
55.76000 510.111
55.77000 540.975
55.78000 572.849
55.79000 605.039
55.80000 636.592
55.81000 649.985
55.82000 655.061
55.83000 661.409
55.84000 684.215
55.85000 712.074
55.86000 737.094
55.87000 758.750
55.88000 777.106
55.89000 793.941
55.90000 803.772
55.91000 812.728
55.92000 816.172
55.93000 802.860
55.94000 788.393
55.95000 778.595
55.96000 791.401
55.97000 801.441
55.98000 805.509
55.99000 801.500
56.00000 797.435
56.01000 784.108
56.02000 762.792
56.03000 741.733
56.04000 718.264
56.05000 694.054
56.06000 670.159
56.07000 652.155
56.08000 636.384
56.09000 620.755
56.10000 606.508
56.11000 592.611
56.12000 580.501
56.13000 551.560
56.14000 524.502
56.15000 501.389
56.16000 493.124
56.17000 486.285
56.18000 476.491
56.19000 459.279
56.20000 441.709
56.21000 430.625
56.22000 396.965
56.23000 372.330
56.24000 353.889
56.25000 342.240
56.26000 330.632
56.27000 324.165
56.28000 321.305
56.29000 318.508
56.30000 309.144
56.31000 297.229
56.32000 284.959
56.33000 267.958
56.34000 249.477
56.35000 232.775
56.36000 229.435
56.37000 228.841
56.38000 228.341
56.39000 224.427
56.40000 220.799
56.41000 217.873
56.42000 217.123
56.43000 216.528
56.44000 213.609
56.45000 205.860
56.46000 197.961
56.47000 193.371
56.48000 196.249
56.49000 198.300
56.50000 196.831
56.51000 192.262
56.52000 187.746
56.53000 186.237
56.54000 186.458
56.55000 186.672
56.56000 184.887
56.57000 182.481
56.58000 179.975
56.59000 176.462
56.60000 172.691
56.61000 170.121
56.62000 174.705
56.63000 180.473
56.64000 185.135
56.65000 183.149
56.66000 181.001
56.67000 177.952
56.68000 172.594
56.69000 167.120
56.70000 163.479
56.71000 162.976
56.72000 162.527
56.73000 162.290
56.74000 163.962
56.75000 165.111
56.76000 168.128
56.77000 172.481
56.78000 176.556
56.79000 171.866
56.80000 163.009
56.81000 154.615
56.82000 158.517
56.83000 165.722
56.84000 171.124
56.85000 162.650
56.86000 151.265
56.87000 142.309
56.88000 145.010
56.89000 149.239
56.90000 152.505
56.91000 148.853
56.92000 145.556
56.93000 143.027
56.94000 142.125
56.95000 141.276
56.96000 142.325
56.97000 146.044
56.98000 149.780
56.99000 151.331
57.00000 150.916
57.01000 150.558
57.02000 153.640
57.03000 158.742
57.04000 163.457
57.05000 160.360
57.06000 154.192
57.07000 148.466
57.08000 150.197
57.09000 153.520
57.10000 156.329
57.11000 156.002
57.12000 155.146
57.13000 153.914
57.14000 151.217
57.15000 148.371
57.16000 146.285
57.17000 152.262
57.18000 157.200
57.19000 158.637
57.20000 153.955
57.21000 149.160
57.22000 148.344
57.23000 152.078
57.24000 155.804
57.25000 154.921
57.26000 150.711
57.27000 146.629
57.28000 146.796
57.29000 149.022
57.30000 151.052
57.31000 150.307
57.32000 148.662
57.33000 147.172
57.34000 146.586
57.35000 146.241
57.36000 145.898
57.37000 145.561
57.38000 145.226
57.39000 144.491
57.40000 142.467
57.41000 140.347
57.42000 138.883
57.43000 137.319
57.44000 136.141
57.45000 135.930
57.46000 137.105
57.47000 138.291
57.48000 138.441
57.49000 137.638
57.50000 136.843
57.51000 140.008
57.52000 145.428
57.53000 150.712
57.54000 153.153
57.55000 154.455
57.56000 155.430
57.57000 152.970
57.58000 149.591
57.59000 146.620
57.60000 142.649
57.61000 139.083
57.62000 137.118
57.63000 141.542
57.64000 146.630
57.65000 150.030
57.66000 148.943
57.67000 147.615
57.68000 146.759
57.69000 143.709
57.70000 141.450
57.71000 140.817
57.72000 142.081
57.73000 143.340
57.74000 143.103
57.75000 141.751
57.76000 140.424
57.77000 140.467
57.78000 141.160
57.79000 141.809
57.80000 141.803
57.81000 141.580
57.82000 141.505
57.83000 142.619
57.84000 143.994
57.85000 145.163
57.86000 143.578
57.87000 141.929
57.88000 140.694
57.89000 140.817
57.90000 141.047
57.91000 140.383
57.92000 137.754
57.93000 135.055
57.94000 133.446
57.95000 140.147
57.96000 144.946
57.97000 146.816
57.98000 145.935
57.99000 145.105
58.00000 147.782
58.01000 152.600
58.02000 157.265
58.03000 157.104
58.04000 155.089
58.05000 152.755
58.06000 146.982
58.07000 140.271
58.08000 135.065
58.09000 139.442
58.10000 145.512
58.11000 150.479
58.12000 148.731
58.13000 146.711
58.14000 145.735
58.15000 147.588
58.16000 149.598
58.17000 148.099
58.18000 140.228
58.19000 132.224
58.20000 127.868
58.21000 133.408
58.22000 137.217
58.23000 139.950
58.24000 141.864
58.25000 143.656
58.26000 140.974
58.27000 136.043
58.28000 131.343
58.29000 131.748
58.30000 133.720
58.31000 135.465
58.32000 135.324
58.33000 134.764
58.34000 135.254
58.35000 141.115
58.36000 147.731
58.37000 152.913
58.38000 152.525
58.39000 151.857
58.40000 149.797
58.41000 144.620
58.42000 139.327
58.43000 137.043
58.44000 139.248
58.45000 141.496
58.46000 143.571
58.47000 145.479
58.48000 147.350
58.49000 146.427
58.50000 143.767
58.51000 141.069
58.52000 137.509
58.53000 133.589
58.54000 129.927
58.55000 131.181
58.56000 133.557
58.57000 135.627
58.58000 135.699
58.59000 135.410
58.60000 136.013
58.61000 140.319
58.62000 145.031
58.63000 148.540
58.64000 144.324
58.65000 140.694
58.66000 138.205
58.67000 137.828
58.68000 137.497
58.69000 139.238
58.70000 143.502
58.71000 147.762
58.72000 147.647
58.73000 144.161
58.74000 140.726
58.75000 139.282
58.76000 138.858
58.77000 138.400
58.78000 137.409
58.79000 136.234
58.80000 135.163
58.81000 135.492
58.82000 136.067
58.83000 136.656
58.84000 137.323
58.85000 138.002
58.86000 139.574
58.87000 144.191
58.88000 149.060
58.89000 152.484
58.90000 145.835
58.91000 140.502
58.92000 136.719
58.93000 135.298
58.94000 133.902
58.95000 133.131
58.96000 132.972
58.97000 132.814
58.98000 131.357
58.99000 129.115
59.00000 127.090
59.01000 130.209
59.02000 135.508
59.03000 140.346
59.04000 139.910
59.05000 137.980
59.06000 136.267
59.07000 137.582
59.08000 139.205
59.09000 140.749
59.10000 141.957
59.11000 143.128
59.12000 142.572
59.13000 137.166
59.14000 131.469
59.15000 127.717
59.16000 131.970
59.17000 135.241
59.18000 135.256
59.19000 131.226
59.20000 127.199
59.21000 127.418
59.22000 130.995
59.23000 134.516
59.24000 131.728
59.25000 125.837
59.26000 120.632
59.27000 126.545
59.28000 136.352
59.29000 144.857
59.30000 142.033
59.31000 136.579
59.32000 131.891
59.33000 132.819
59.34000 134.304
59.35000 136.027
59.36000 138.580
59.37000 141.202
59.38000 142.286
59.39000 139.794
59.40000 137.156
59.41000 135.545
59.42000 139.737
59.43000 142.782
59.44000 142.046
59.45000 137.523
59.46000 133.045
59.47000 132.595
59.48000 134.750
59.49000 136.846
59.50000 135.990
59.51000 133.963
59.52000 132.020
59.53000 131.057
59.54000 130.378
59.55000 130.095
59.56000 132.509
59.57000 135.430
59.58000 137.849
59.59000 135.176
59.60000 132.485
59.61000 131.661
59.62000 136.182
59.63000 141.034
59.64000 142.819
59.65000 138.712
59.66000 134.460
59.67000 132.079
59.68000 127.677
59.69000 124.634
59.70000 125.553
59.71000 129.672
59.72000 133.736
59.73000 135.386
59.74000 135.752
59.75000 136.103
59.76000 135.303
59.77000 134.174
59.78000 133.430
59.79000 136.134
59.80000 139.654
59.81000 142.268
59.82000 139.957
59.83000 136.904
59.84000 134.479
59.85000 132.765
59.86000 131.435
59.87000 131.057
59.88000 132.933
59.89000 134.904
59.90000 136.365
59.91000 137.018
59.92000 137.661
59.93000 137.987
59.94000 145.497
59.95000 150.466
59.96000 149.950
59.97000 145.818
59.98000 141.673
59.99000 137.167
60.00000 132.502
60.01000 128.117
60.02000 128.058
60.03000 129.168
60.04000 130.399
60.05000 132.481
60.06000 134.726
60.07000 135.986
60.08000 132.898
60.09000 129.296
60.10000 126.571
60.11000 131.017
60.12000 134.864
60.13000 137.729
60.14000 138.670
60.15000 139.561
60.16000 138.914
60.17000 136.276
60.18000 133.633
60.19000 130.867
60.20000 128.007
60.21000 125.240
60.22000 126.672
60.23000 130.381
60.24000 134.004
60.25000 136.122
60.26000 137.693
60.27000 139.137
60.28000 136.359
60.29000 132.968
60.30000 130.157
60.31000 130.573
60.32000 131.486
60.33000 131.843
60.34000 130.195
60.35000 128.367
60.36000 127.058
60.37000 133.418
60.38000 138.534
60.39000 140.571
60.40000 137.644
60.41000 134.649
60.42000 134.619
60.43000 137.692
60.44000 140.748
60.45000 138.224
60.46000 132.031
60.47000 126.041
60.48000 125.517
60.49000 127.441
60.50000 129.256
60.51000 129.716
60.52000 129.769
60.53000 129.817
60.54000 128.309
60.55000 126.728
60.56000 126.009
60.57000 129.173
60.58000 132.808
60.59000 135.547
60.60000 135.621
60.61000 135.518
60.62000 135.449
60.63000 131.208
60.64000 127.971
60.65000 126.155
60.66000 126.214
60.67000 126.285
60.68000 127.847
60.69000 130.664
60.70000 133.444
60.71000 134.690
60.72000 135.078
60.73000 135.283
60.74000 132.184
60.75000 127.861
60.76000 123.839
60.77000 122.649
60.78000 122.157
60.79000 121.730
60.80000 126.713
60.81000 131.685
60.82000 135.686
60.83000 136.113
60.84000 136.208
60.85000 137.013
60.86000 139.560
60.87000 142.187
60.88000 143.829
60.89000 134.914
60.90000 128.369
60.91000 126.818
60.92000 130.606
60.93000 134.384
60.94000 136.860
60.95000 138.443
60.96000 139.988
60.97000 138.563
60.98000 135.902
60.99000 133.487
61.00000 134.226
61.01000 135.929
61.02000 137.375
61.03000 136.942
61.04000 136.133
61.05000 135.454
61.06000 135.724
61.07000 136.047
61.08000 135.880
61.09000 134.233
61.10000 132.485
61.11000 131.165
61.12000 130.718
61.13000 130.296
61.14000 130.053
61.15000 132.634
61.16000 134.448
61.17000 134.865
61.18000 134.081
61.19000 133.318
61.20000 133.622
61.21000 134.528
61.22000 135.400
61.23000 134.527
61.24000 133.090
61.25000 131.912
61.26000 133.236
61.27000 135.188
61.28000 136.429
61.29000 133.545
61.30000 129.997
61.31000 127.144
61.32000 130.467
61.33000 133.641
61.34000 135.645
61.35000 134.721
61.36000 133.658
61.37000 133.056
61.38000 133.229
61.39000 133.415
61.40000 133.511
61.41000 135.081
61.42000 136.137
61.43000 136.420
61.44000 136.162
61.45000 136.073
61.46000 141.012
61.47000 148.289
61.48000 155.170
61.49000 158.109
61.50000 159.681
61.51000 161.525
61.52000 165.400
61.53000 169.691
61.54000 175.643
61.55000 189.372
61.56000 204.091
61.57000 215.391
61.58000 232.789
61.59000 246.882
61.60000 259.152
61.61000 267.649
61.62000 276.031
61.63000 281.745
61.64000 283.794
61.65000 285.820
61.66000 287.070
61.67000 287.641
61.68000 288.254
61.69000 291.251
61.70000 295.617
61.71000 299.678
61.72000 297.834
61.73000 293.719
61.74000 289.910
61.75000 292.509
61.76000 296.322
61.77000 297.072
61.78000 279.656
61.79000 259.247
61.80000 240.053
61.81000 225.505
61.82000 211.412
61.83000 201.152
61.84000 191.836
61.85000 184.700
61.86000 177.076
61.87000 168.619
61.88000 160.148
61.89000 154.611
61.90000 152.347
61.91000 150.095
61.92000 148.812
61.93000 148.227
61.94000 147.617
61.95000 146.245
61.96000 144.512
61.97000 142.902
61.98000 142.982
61.99000 143.597
62.00000 144.153
62.01000 145.239
62.02000 146.290
62.03000 147.076
62.04000 146.595
62.05000 145.949
62.06000 144.788
62.07000 142.007
62.08000 139.108
62.09000 137.122
62.10000 137.467
62.11000 137.782
62.12000 138.573
62.13000 140.033
62.14000 141.495
62.15000 140.702
62.16000 137.890
62.17000 135.107
62.18000 134.989
62.19000 136.398
62.20000 137.800
62.21000 139.060
62.22000 140.265
62.23000 141.333
62.24000 141.009
62.25000 140.322
62.26000 139.720
62.27000 139.785
62.28000 139.937
62.29000 140.088
62.30000 140.231
62.31000 140.373
62.32000 140.614
62.33000 141.109
62.34000 141.618
62.35000 141.943
62.36000 139.016
62.37000 136.843
62.38000 136.198
62.39000 137.295
62.40000 138.391
62.41000 139.089
62.42000 139.500
62.43000 139.901
62.44000 141.075
62.45000 142.562
62.46000 144.026
62.47000 145.161
62.48000 146.188
62.49000 146.495
62.50000 141.139
62.51000 134.576
62.52000 129.017
62.53000 134.263
62.54000 139.865
62.55000 144.567
62.56000 146.381
62.57000 147.979
62.58000 148.055
62.59000 144.860
62.60000 141.556
62.61000 139.605
62.62000 138.487
62.63000 137.704
62.64000 141.001
62.65000 148.029
62.66000 154.915
62.67000 152.818
62.68000 145.364
62.69000 138.157
62.70000 135.955
62.71000 135.762
62.72000 135.953
62.73000 140.160
62.74000 145.436
62.75000 149.386
62.76000 145.113
62.77000 139.425
62.78000 134.792
62.79000 132.790
62.80000 131.378
62.81000 130.601
62.82000 131.507
62.83000 132.502
62.84000 134.489
62.85000 138.235
62.86000 142.014
62.87000 144.047
62.88000 149.638
62.89000 153.434
62.90000 152.086
62.91000 146.922
62.92000 141.791
62.93000 137.812
62.94000 134.398
62.95000 131.152
62.96000 133.454
62.97000 137.274
62.98000 141.068
62.99000 144.655
63.00000 148.197
63.01000 150.709
63.02000 148.089
63.03000 144.767
63.04000 142.180
63.05000 145.981
63.06000 149.404
63.07000 150.347
63.08000 145.861
63.09000 141.184
63.10000 139.786
63.11000 143.171
63.12000 146.596
63.13000 147.847
63.14000 147.067
63.15000 146.313
63.16000 147.267
63.17000 149.261
63.18000 151.209
63.19000 152.181
63.20000 152.755
63.21000 153.290
63.22000 151.036
63.23000 148.311
63.24000 146.031
63.25000 146.576
63.26000 147.617
63.27000 147.889
63.28000 145.040
63.29000 141.860
63.30000 139.506
63.31000 141.441
63.32000 143.126
63.33000 143.358
63.34000 140.961
63.35000 138.510
63.36000 138.734
63.37000 142.137
63.38000 145.536
63.39000 148.672
63.40000 151.589
63.41000 154.428
63.42000 154.422
63.43000 152.991
63.44000 151.416
63.45000 147.660
63.46000 143.172
63.47000 139.089
63.48000 142.376
63.49000 146.732
63.50000 150.514
63.51000 151.373
63.52000 151.822
63.53000 152.568
63.54000 154.301
63.55000 156.113
63.56000 157.378
63.57000 158.454
63.58000 159.261
63.59000 158.726
63.60000 156.197
63.61000 153.649
63.62000 151.530
63.63000 149.823
63.64000 148.129
63.65000 146.279
63.66000 144.367
63.67000 142.515
63.68000 142.022
63.69000 142.092
63.70000 142.276
63.71000 143.721
63.72000 145.515
63.73000 147.101
63.74000 143.407
63.75000 139.394
63.76000 136.917
63.77000 140.800
63.78000 145.377
63.79000 148.045
63.80000 145.469
63.81000 142.592
63.82000 140.713
63.83000 148.789
63.84000 154.878
63.85000 154.010
63.86000 144.707
63.87000 135.435
63.88000 138.619
63.89000 151.422
63.90000 164.006
63.91000 162.626
63.92000 154.401
63.93000 146.701
63.94000 147.192
63.95000 150.489
63.96000 153.443
63.97000 153.499
63.98000 152.898
63.99000 152.384
64.00000 152.197
64.01000 152.079
64.02000 151.890
64.03000 151.460
64.04000 151.009
64.05000 150.943
64.06000 151.750
64.07000 152.591
64.08000 153.099
64.09000 158.128
64.10000 161.745
64.11000 160.698
64.12000 155.101
64.13000 149.578
64.14000 150.037
64.15000 154.274
64.16000 158.389
64.17000 156.916
64.18000 153.279
64.19000 149.821
64.20000 148.394
64.21000 147.540
64.22000 146.505
64.23000 144.262
64.24000 141.798
64.25000 139.767
64.26000 151.026
64.27000 161.516
64.28000 168.479
64.29000 165.569
64.30000 162.070
64.31000 160.248
64.32000 161.573
64.33000 162.970
64.34000 163.744
64.35000 158.487
64.36000 154.863
64.37000 156.234
64.38000 161.540
64.39000 166.697
64.40000 165.821
64.41000 161.807
64.42000 157.970
64.43000 159.772
64.44000 163.279
64.45000 166.503
64.46000 167.269
64.47000 167.468
64.48000 167.290
64.49000 165.112
64.50000 162.640
64.51000 160.689
64.52000 162.485
64.53000 164.181
64.54000 164.848
64.55000 163.130
64.56000 161.317
64.57000 162.533
64.58000 168.433
64.59000 174.386
64.60000 177.238
64.61000 176.998
64.62000 176.738
64.63000 174.852
64.64000 171.916
64.65000 169.128
64.66000 169.932
64.67000 172.283
64.68000 174.487
64.69000 172.889
64.70000 170.437
64.71000 168.458
64.72000 169.683
64.73000 171.510
64.74000 173.066
64.75000 173.462
64.76000 173.725
64.77000 173.923
64.78000 176.374
64.79000 178.399
64.80000 180.175
64.81000 181.471
64.82000 182.756
64.83000 182.876
64.84000 181.524
64.85000 180.170
64.86000 180.128
64.87000 181.137
64.88000 182.153
64.89000 183.459
64.90000 184.920
64.91000 186.365
64.92000 187.558
64.93000 188.661
64.94000 189.672
64.95000 191.136
64.96000 192.534
64.97000 193.159
64.98000 189.587
64.99000 185.386
65.00000 184.712
65.01000 196.477
65.02000 209.328
65.03000 218.463
65.04000 204.141
65.05000 192.486
65.06000 187.492
65.07000 192.997
65.08000 198.630
65.09000 202.049
65.10000 203.209
65.11000 204.362
65.12000 210.450
65.13000 219.643
65.14000 228.708
65.15000 234.481
65.16000 238.812
65.17000 242.774
65.18000 242.279
65.19000 240.477
65.20000 238.870
65.21000 244.744
65.22000 251.103
65.23000 257.233
65.24000 262.361
65.25000 267.370
65.26000 271.694
65.27000 274.026
65.28000 276.231
65.29000 277.701
65.30000 287.195
65.31000 294.378
65.32000 301.329
65.33000 307.981
65.34000 314.634
65.35000 322.238
65.36000 330.621
65.37000 338.886
65.38000 343.907
65.39000 347.081
65.40000 350.241
65.41000 353.152
65.42000 355.972
65.43000 358.229
65.44000 355.340
65.45000 351.213
65.46000 347.645
65.47000 378.929
65.48000 410.053
65.49000 434.170
65.50000 433.095
65.51000 429.759
65.52000 427.271
65.53000 426.824
65.54000 426.466
65.55000 426.244
65.56000 424.551
65.57000 423.319
65.58000 426.526
65.59000 434.357
65.60000 442.205
65.61000 451.633
65.62000 462.119
65.63000 472.342
65.64000 485.489
65.65000 499.285
65.66000 513.646
65.67000 535.022
65.68000 558.494
65.69000 583.967
65.70000 623.653
65.71000 666.118
65.72000 701.533
65.73000 773.470
65.74000 836.768
65.75000 897.246
65.76000 949.377
65.77000 1000.958
65.78000 1056.439
65.79000 1119.670
65.80000 1183.113
65.81000 1219.223
65.82000 1263.691
65.83000 1294.691
65.84000 1315.152
65.85000 1326.781
65.86000 1338.179
65.87000 1338.531
65.88000 1332.799
65.89000 1327.293
65.90000 1305.263
65.91000 1278.930
65.92000 1250.269
65.93000 1199.823
65.94000 1144.031
65.95000 1086.688
65.96000 1020.574
65.97000 953.083
65.98000 899.078
65.99000 819.671
66.00000 753.567
66.01000 688.892
66.02000 627.717
66.03000 566.702
66.04000 515.304
66.05000 479.660
66.06000 444.243
66.07000 425.978
66.08000 401.077
66.09000 384.295
66.10000 366.584
66.11000 348.238
66.12000 330.402
66.13000 326.831
66.14000 329.749
66.15000 332.501
66.16000 335.199
66.17000 337.657
66.18000 339.665
66.19000 338.398
66.20000 336.476
66.21000 335.833
66.22000 341.033
66.23000 346.956
66.24000 351.477
66.25000 354.992
66.26000 357.709
66.27000 364.474
66.28000 379.438
66.29000 394.639
66.30000 406.086
66.31000 412.498
66.32000 418.879
66.33000 425.737
66.34000 432.987
66.35000 440.315
66.36000 451.561
66.37000 465.006
66.38000 478.115
66.39000 484.988
66.40000 489.516
66.41000 493.696
66.42000 492.413
66.43000 490.037
66.44000 487.901
66.45000 487.156
66.46000 486.635
66.47000 485.246
66.48000 480.613
66.49000 475.671
66.50000 472.098
66.51000 457.341
66.52000 445.608
66.53000 434.203
66.54000 423.342
66.55000 412.490
66.56000 398.259
66.57000 380.354
66.58000 362.529
66.59000 352.535
66.60000 348.044
66.61000 343.559
66.62000 339.244
66.63000 335.009
66.64000 330.958
66.65000 329.324
66.66000 328.441
66.67000 327.647
66.68000 323.589
66.69000 319.450
66.70000 317.736
66.71000 327.339
66.72000 338.377
66.73000 345.139
66.74000 338.754
66.75000 331.445
66.76000 326.475
66.77000 333.961
66.78000 339.832
66.79000 342.095
66.80000 339.418
66.81000 336.715
66.82000 337.425
66.83000 341.115
66.84000 344.764
66.85000 345.358
66.86000 344.233
66.87000 342.918
66.88000 337.965
66.89000 331.616
66.90000 326.646
66.91000 335.269
66.92000 347.361
66.93000 357.918
66.94000 364.079
66.95000 368.733
66.96000 370.751
66.97000 362.722
66.98000 353.712
66.99000 347.501
67.00000 348.406
67.01000 349.661
67.02000 350.457
67.03000 357.567
67.04000 362.802
67.05000 366.597
67.06000 368.792
67.07000 370.969
67.08000 370.524
67.09000 368.219
67.10000 365.963
67.11000 364.874
67.12000 364.358
67.13000 364.041
67.14000 366.427
67.15000 369.668
67.16000 372.103
67.17000 368.383
67.18000 363.382
67.19000 359.165
67.20000 367.767
67.21000 376.341
67.22000 382.411
67.23000 380.635
67.24000 378.290
67.25000 378.097
67.26000 382.424
67.27000 386.896
67.28000 389.509
67.29000 385.578
67.30000 382.785
67.31000 384.722
67.32000 390.880
67.33000 397.066
67.34000 404.887
67.35000 413.661
67.36000 422.129
67.37000 416.928
67.38000 407.004
67.39000 398.692
67.40000 406.714
67.41000 418.988
67.42000 429.552
67.43000 429.794
67.44000 428.304
67.45000 427.097
67.46000 426.874
67.47000 426.772
67.48000 425.924
67.49000 423.143
67.50000 420.262
67.51000 417.653
67.52000 415.515
67.53000 413.385
67.54000 412.252
67.55000 427.893
67.56000 438.490
67.57000 439.235
67.58000 432.845
67.59000 426.909
67.60000 435.626
67.61000 451.391
67.62000 466.350
67.63000 467.816
67.64000 465.153
67.65000 462.642
67.66000 461.319
67.67000 460.248
67.68000 459.415
67.69000 459.735
67.70000 460.209
67.71000 460.575
67.72000 460.170
67.73000 459.803
67.74000 463.391
67.75000 475.450
67.76000 487.793
67.77000 496.063
67.78000 498.533
67.79000 500.958
67.80000 500.238
67.81000 496.653
67.82000 492.997
67.83000 484.868
67.84000 474.081
67.85000 464.234
67.86000 473.881
67.87000 491.281
67.88000 507.455
67.89000 510.103
67.90000 509.254
67.91000 509.363
67.92000 515.388
67.93000 522.426
67.94000 528.894
67.95000 533.100
67.96000 537.073
67.97000 539.995
67.98000 546.288
67.99000 551.294
68.00000 554.712
68.01000 555.325
68.02000 555.885
68.03000 555.851
68.04000 555.131
68.05000 554.412
68.06000 555.602
68.07000 558.183
68.08000 560.747
68.09000 562.699
68.10000 564.351
68.11000 565.942
68.12000 566.633
68.13000 567.029
68.14000 567.388
68.15000 574.142
68.16000 581.324
68.17000 587.478
68.18000 588.533
68.19000 588.893
68.20000 592.074
68.21000 604.433
68.22000 617.501
68.23000 626.558
68.24000 625.568
68.25000 624.557
68.26000 625.741
68.27000 630.110
68.28000 634.507
68.29000 637.750
68.30000 639.920
68.31000 642.070
68.32000 651.547
68.33000 665.185
68.34000 678.508
68.35000 685.032
68.36000 688.800
68.37000 692.359
68.38000 693.677
68.39000 694.389
68.40000 695.016
68.41000 710.700
68.42000 726.489
68.43000 738.842
68.44000 737.309
68.45000 734.307
68.46000 732.945
68.47000 735.990
68.48000 739.277
68.49000 741.406
68.50000 791.068
68.51000 828.113
68.52000 847.966
68.53000 847.482
68.54000 847.045
68.55000 863.837
68.56000 893.619
68.57000 922.855
68.58000 948.641
68.59000 971.854
68.60000 995.504
68.61000 1025.685
68.62000 1058.054
68.63000 1092.550
68.64000 1144.490
68.65000 1200.290
68.66000 1247.852
68.67000 1313.212
68.68000 1370.279
68.69000 1428.186
68.70000 1488.878
68.71000 1549.791
68.72000 1612.217
68.73000 1678.005
68.74000 1743.916
68.75000 1783.409
68.76000 1874.602
68.77000 1939.700
68.78000 2010.641
68.79000 2087.139
68.80000 2163.828
68.81000 2254.333
68.82000 2353.368
68.83000 2449.375
68.84000 2580.025
68.85000 2717.313
68.86000 2864.598
68.87000 3121.906
68.88000 3409.567
68.89000 3731.080
68.90000 4271.104
68.91000 4850.242
68.92000 5325.388
68.93000 7130.451
68.94000 8730.201
68.95000 10784.858
68.96000 14085.203
68.97000 17456.697
68.98000 21374.660
68.99000 26296.090
69.00000 31239.193
69.01000 33945.863
69.02000 41249.168
69.03000 46273.449
69.04000 50313.426
69.05000 53596.184
69.06000 56846.816
69.07000 58886.340
69.08000 60309.691
69.09000 61667.605
69.10000 62310.797
69.11000 62681.395
69.12000 63065.621
69.13000 63564.449
69.14000 64089.148
69.15000 64637.625
69.16000 65309.148
69.17000 65998.227
69.18000 66539.406
69.19000 65813.344
69.20000 65149.367
69.21000 63888.727
69.22000 61276.887
69.23000 58613.313
69.24000 55506.145
69.25000 51728.926
69.26000 47945.004
69.27000 44776.188
69.28000 42205.379
69.29000 39641.766
69.30000 37643.789
69.31000 36001.785
69.32000 34382.504
69.33000 33294.344
69.34000 32429.590
69.35000 31620.600
69.36000 30707.770
69.37000 29851.967
69.38000 28891.395
69.39000 27239.063
69.40000 25460.232
69.41000 23541.855
69.42000 21036.762
69.43000 18466.359
69.44000 16545.855
69.45000 13529.099
69.46000 11126.758
69.47000 9035.708
69.48000 7527.167
69.49000 6031.977
69.50000 4877.059
69.51000 4141.593
69.52000 3408.708
69.53000 2897.361
69.54000 2561.642
69.55000 2228.859
69.56000 2012.951
69.57000 1857.633
69.58000 1706.094
69.59000 1615.003
69.60000 1544.933
69.61000 1480.899
69.62000 1405.061
69.63000 1335.284
69.64000 1269.439
69.65000 1224.377
69.66000 1182.349
69.67000 1144.243
69.68000 1119.657
69.69000 1096.211
69.70000 1079.662
69.71000 1053.047
69.72000 1032.543
69.73000 1007.559
69.74000 975.676
69.75000 943.715
69.76000 917.900
69.77000 898.189
69.78000 878.618
69.79000 859.865
69.80000 841.928
69.81000 824.479
69.82000 818.932
69.83000 818.486
69.84000 817.484
69.85000 810.013
69.86000 800.687
69.87000 792.395
69.88000 777.145
69.89000 762.783
69.90000 748.611
69.91000 735.257
69.92000 721.996
69.93000 710.297
69.94000 703.037
69.95000 696.049
69.96000 691.427
69.97000 687.370
69.98000 684.386
69.99000 683.631
70.00000 685.683
