20.00000 559.074
20.01000 565.293
20.02000 572.400
20.03000 576.807
20.04000 570.779
20.05000 563.713
20.06000 558.554
20.07000 555.947
20.08000 554.038
20.09000 552.518
20.10000 551.669
20.11000 550.832
20.12000 549.586
20.13000 547.879
20.14000 546.177
20.15000 557.190
20.16000 577.179
20.17000 596.363
20.18000 589.920
20.19000 571.218
20.20000 553.777
20.21000 553.877
20.22000 559.604
20.23000 564.781
20.24000 565.498
20.25000 565.300
20.26000 564.048
20.27000 557.700
20.28000 550.679
20.29000 546.943
20.30000 553.642
20.31000 561.114
20.32000 566.252
20.33000 560.666
20.34000 556.212
20.35000 553.017
20.36000 551.608
20.37000 550.213
20.38000 550.776
20.39000 553.113
20.40000 555.426
20.41000 557.813
20.42000 560.191
20.43000 562.122
20.44000 554.887
20.45000 544.027
20.46000 534.781
20.47000 542.204
20.48000 554.027
20.49000 564.405
20.50000 567.305
20.51000 568.702
20.52000 567.620
20.53000 556.767
20.54000 544.916
20.55000 538.273
20.56000 545.294
20.57000 553.033
20.58000 557.999
20.59000 556.581
20.60000 555.460
20.61000 555.538
20.62000 556.997
20.63000 558.473
20.64000 562.521
20.65000 568.460
20.66000 574.281
20.67000 575.783
20.68000 575.203
20.69000 574.101
20.70000 565.510
20.71000 554.472
20.72000 544.995
20.73000 547.934
20.74000 553.549
20.75000 558.314
20.76000 553.375
20.77000 548.133
20.78000 543.823
20.79000 542.534
20.80000 541.476
20.81000 540.833
20.82000 541.088
20.83000 541.375
20.84000 541.545
20.85000 556.395
20.86000 566.980
20.87000 569.107
20.88000 563.409
20.89000 557.664
20.90000 548.790
20.91000 538.030
20.92000 527.618
20.93000 534.801
20.94000 548.289
20.95000 560.673
20.96000 561.349
20.97000 558.874
20.98000 556.193
20.99000 552.215
21.00000 548.011
21.01000 544.580
21.02000 547.037
21.03000 549.553
21.04000 549.230
21.05000 541.321
21.06000 532.998
21.07000 523.516
21.08000 511.956
21.09000 500.355
21.10000 494.081
21.11000 524.980
21.12000 546.116
21.13000 555.384
21.14000 555.758
21.15000 556.076
21.16000 554.450
21.17000 551.857
21.18000 549.390
21.19000 547.939
21.20000 546.908
21.21000 545.503
21.22000 541.046
21.23000 535.917
21.24000 531.600
21.25000 531.369
21.26000 531.705
21.27000 531.966
21.28000 535.211
21.29000 537.985
21.30000 540.023
21.31000 540.431
21.32000 540.780
21.33000 544.448
21.34000 553.003
21.35000 561.602
21.36000 558.743
21.37000 545.059
21.38000 531.573
21.39000 532.151
21.40000 541.364
21.41000 550.125
21.42000 548.845
21.43000 543.442
21.44000 538.402
21.45000 526.320
21.46000 513.625
21.47000 504.528
21.48000 518.514
21.49000 536.607
21.50000 549.966
21.51000 543.928
21.52000 535.803
21.53000 529.772
21.54000 529.951
21.55000 530.363
21.56000 530.420
21.57000 529.829
21.58000 529.225
21.59000 530.833
21.60000 535.096
21.61000 539.355
21.62000 547.678
21.63000 559.037
21.64000 569.869
21.65000 561.105
21.66000 542.426
21.67000 525.301
21.68000 532.005
21.69000 546.799
21.70000 560.275
21.71000 564.738
21.72000 566.901
21.73000 568.246
21.74000 565.393
21.75000 561.945
21.76000 559.593
21.77000 560.925
21.78000 562.556
21.79000 563.699
21.80000 547.791
21.81000 535.273
21.82000 533.198
21.83000 546.809
21.84000 560.575
21.85000 567.943
21.86000 569.132
21.87000 570.311
21.88000 575.025
21.89000 581.828
21.90000 588.481
21.91000 591.649
21.92000 593.359
21.93000 595.012
21.94000 596.034
21.95000 596.879
21.96000 597.628
21.97000 596.341
21.98000 594.909
21.99000 595.642
22.00000 605.430
22.01000 616.219
22.02000 622.436
22.03000 615.970
22.04000 608.761
22.05000 604.035
22.06000 604.812
22.07000 605.475
22.08000 608.518
22.09000 614.479
22.10000 620.441
22.11000 624.685
22.12000 627.589
22.13000 630.445
22.14000 627.016
22.15000 620.563
22.16000 614.490
22.17000 614.419
22.18000 616.424
22.19000 618.471
22.20000 620.871
22.21000 623.353
22.22000 625.480
22.23000 619.061
22.24000 612.591
22.25000 604.301
22.26000 589.765
22.27000 574.707
22.28000 567.261
22.29000 577.285
22.30000 587.999
22.31000 594.508
22.32000 586.927
22.33000 581.407
22.34000 575.964
22.35000 570.599
22.36000 565.307
22.37000 566.120
22.38000 570.827
22.39000 575.401
22.40000 578.246
22.41000 580.249
22.42000 581.150
22.43000 569.307
22.44000 553.831
22.45000 539.824
22.46000 535.670
22.47000 533.346
22.48000 531.426
22.49000 541.564
22.50000 551.045
22.51000 557.163
22.52000 553.773
22.53000 549.806
22.54000 546.368
22.55000 543.932
22.56000 541.520
22.57000 540.177
22.58000 525.765
22.59000 515.799
22.60000 514.092
22.61000 518.964
22.62000 523.737
22.63000 524.413
22.64000 522.937
22.65000 521.525
22.66000 518.734
22.67000 515.682
22.68000 512.969
22.69000 513.241
22.70000 514.211
22.71000 515.095
22.72000 515.520
22.73000 515.876
22.74000 516.158
22.75000 521.609
22.76000 526.347
22.77000 529.000
22.78000 526.778
22.79000 524.355
22.80000 520.414
22.81000 514.102
22.82000 507.763
22.83000 504.579
22.84000 516.170
22.85000 523.793
22.86000 520.939
22.87000 511.271
22.88000 502.042
22.89000 503.866
22.90000 510.489
22.91000 516.707
22.92000 519.643
22.93000 521.449
22.94000 522.301
22.95000 516.596
22.96000 509.649
22.97000 505.284
22.98000 512.159
22.99000 520.341
23.00000 526.508
23.01000 524.573
23.02000 522.661
23.03000 519.198
23.04000 512.741
23.05000 506.208
23.06000 505.572
23.07000 512.461
23.08000 519.368
23.09000 522.222
23.10000 521.783
23.11000 521.238
23.12000 516.015
23.13000 508.287
23.14000 500.903
23.15000 499.354
23.16000 499.900
23.17000 500.402
23.18000 506.999
23.19000 514.177
23.20000 518.834
23.21000 509.674
23.22000 498.417
23.23000 492.104
23.24000 503.407
23.25000 516.270
23.26000 525.442
23.27000 517.586
23.28000 511.039
23.29000 503.760
23.30000 495.316
23.31000 486.856
23.32000 486.371
23.33000 494.108
23.34000 501.799
23.35000 507.723
23.36000 512.410
23.37000 516.720
23.38000 511.165
23.39000 501.244
23.40000 492.101
23.41000 492.485
23.42000 495.690
23.43000 498.555
23.44000 503.082
23.45000 507.308
23.46000 509.700
23.47000 503.955
23.48000 497.241
23.49000 493.840
23.50000 500.165
23.51000 507.121
23.52000 511.775
23.53000 505.964
23.54000 501.447
23.55000 498.695
23.56000 498.240
23.57000 497.802
23.58000 500.584
23.59000 506.037
23.60000 511.415
23.61000 505.105
23.62000 492.770
23.63000 481.257
23.64000 484.167
23.65000 492.354
23.66000 500.428
23.67000 507.452
23.68000 514.222
23.69000 520.085
23.70000 513.532
23.71000 506.318
23.72000 500.467
23.73000 499.566
23.74000 499.117
23.75000 499.378
23.76000 501.362
23.77000 503.423
23.78000 504.705
23.79000 497.968
23.80000 493.035
23.81000 492.726
23.82000 497.289
23.83000 501.785
23.84000 498.854
23.85000 490.898
23.86000 483.138
23.87000 484.952
23.88000 490.808
23.89000 495.973
23.90000 492.421
23.91000 486.238
23.92000 481.023
23.93000 482.778
23.94000 485.912
23.95000 488.530
23.96000 484.610
23.97000 480.692
23.98000 479.159
23.99000 484.757
24.00000 490.833
24.01000 491.283
24.02000 480.446
24.03000 469.291
24.04000 462.912
24.05000 494.531
24.06000 516.694
24.07000 514.228
24.08000 490.898
24.09000 468.031
24.10000 468.102
24.11000 480.928
24.12000 493.260
24.13000 496.036
24.14000 495.299
24.15000 494.378
24.16000 491.703
24.17000 488.593
24.18000 486.304
24.19000 488.707
24.20000 491.855
24.21000 494.380
24.22000 491.726
24.23000 489.185
24.24000 485.553
24.25000 479.226
24.26000 472.773
24.27000 472.763
24.28000 483.410
24.29000 494.218
24.30000 499.822
24.31000 495.635
24.32000 492.821
24.33000 491.714
24.34000 491.784
24.35000 491.735
24.36000 488.276
24.37000 483.250
24.38000 478.503
24.39000 481.660
24.40000 486.789
24.41000 491.700
24.42000 495.008
24.43000 497.992
24.44000 498.761
24.45000 489.297
24.46000 478.550
24.47000 470.327
24.48000 475.637
24.49000 480.565
24.50000 482.331
24.51000 477.631
24.52000 472.739
24.53000 473.923
24.54000 483.346
24.55000 492.808
24.56000 495.146
24.57000 491.329
24.58000 487.671
24.59000 492.371
24.60000 501.806
24.61000 510.316
24.62000 501.331
24.63000 485.702
24.64000 471.257
24.65000 469.195
24.66000 470.155
24.67000 471.298
24.68000 473.516
24.69000 475.908
24.70000 477.885
24.71000 478.296
24.72000 478.556
24.73000 478.745
24.74000 479.695
24.75000 480.453
24.76000 479.154
24.77000 474.385
24.78000 469.560
24.79000 466.112
24.80000 464.178
24.81000 462.254
24.82000 467.491
24.83000 477.660
24.84000 487.661
24.85000 492.583
24.86000 495.128
24.87000 496.828
24.88000 487.179
24.89000 473.972
24.90000 462.074
24.91000 466.946
24.92000 474.253
24.93000 479.472
24.94000 474.842
24.95000 468.949
24.96000 464.299
24.97000 463.513
24.98000 463.003
24.99000 462.654
25.00000 463.095
25.01000 463.443
25.02000 467.528
25.03000 476.779
25.04000 486.055
25.05000 485.753
25.06000 476.991
25.07000 468.327
25.08000 465.725
25.09000 466.603
25.10000 467.725
25.11000 473.615
25.12000 481.350
25.13000 488.034
25.14000 484.197
25.15000 477.648
25.16000 471.920
25.17000 471.725
25.18000 472.344
25.19000 474.980
25.20000 485.379
25.21000 496.547
25.22000 501.431
25.23000 490.190
25.24000 478.138
25.25000 470.471
25.26000 466.173
25.27000 463.092
25.28000 461.641
25.29000 462.021
25.30000 462.415
25.31000 464.810
25.32000 468.640
25.33000 472.391
25.34000 479.747
25.35000 488.465
25.36000 495.682
25.37000 482.132
25.38000 461.944
25.39000 444.184
25.40000 445.178
25.41000 450.117
25.42000 454.290
25.43000 459.777
25.44000 464.511
25.45000 469.580
25.46000 475.714
25.47000 481.926
25.48000 483.198
25.49000 473.987
25.50000 464.433
25.51000 458.825
25.52000 454.642
25.53000 451.706
25.54000 455.171
25.55000 464.410
25.56000 473.593
25.57000 479.402
25.58000 483.226
25.59000 486.919
25.60000 482.053
25.61000 474.286
25.62000 466.568
25.63000 459.363
25.64000 452.293
25.65000 445.938
25.66000 443.949
25.67000 442.700
25.68000 441.686
25.69000 447.751
25.70000 453.285
25.71000 457.540
25.72000 458.454
25.73000 459.192
25.74000 460.178
25.75000 461.597
25.76000 463.024
25.77000 463.786
25.78000 467.805
25.79000 470.504
25.80000 465.623
25.81000 455.193
25.82000 444.973
25.83000 441.713
25.84000 441.833
25.85000 441.947
25.86000 451.440
25.87000 463.027
25.88000 471.540
25.89000 455.727
25.90000 434.691
25.91000 419.968
25.92000 436.268
25.93000 456.743
25.94000 472.640
25.95000 457.566
25.96000 443.708
25.97000 436.529
25.98000 443.793
25.99000 451.551
26.00000 454.160
26.01000 449.360
26.02000 444.502
26.03000 444.401
26.04000 448.680
26.05000 452.938
26.06000 455.732
26.07000 457.650
26.08000 459.427
26.09000 458.241
26.10000 455.865
26.11000 453.654
26.12000 457.285
26.13000 461.981
26.14000 466.089
26.15000 466.525
26.16000 466.323
26.17000 465.307
26.18000 461.033
26.19000 456.419
26.20000 453.016
26.21000 453.867
26.22000 454.705
26.23000 454.105
26.24000 450.939
26.25000 447.723
26.26000 446.019
26.27000 446.088
26.28000 446.158
26.29000 450.222
26.30000 457.215
26.31000 463.914
26.32000 460.331
26.33000 451.661
26.34000 443.550
26.35000 443.685
26.36000 446.557
26.37000 449.165
26.38000 449.006
26.39000 448.329
26.40000 448.156
26.41000 450.506
26.42000 453.203
26.43000 454.753
26.44000 452.527
26.45000 450.006
26.46000 448.253
26.47000 445.516
26.48000 443.426
26.49000 442.927
26.50000 444.763
26.51000 446.620
26.52000 451.323
26.53000 458.702
26.54000 466.017
26.55000 462.762
26.56000 453.229
26.57000 444.238
26.58000 447.205
26.59000 455.065
26.60000 462.346
26.61000 463.335
26.62000 462.606
26.63000 461.962
26.64000 462.983
26.65000 464.118
26.66000 463.682
26.67000 456.826
26.68000 449.282
26.69000 441.681
26.70000 433.926
26.71000 426.162
26.72000 421.115
26.73000 435.202
26.74000 445.819
26.75000 450.696
26.76000 448.708
26.77000 446.695
26.78000 441.856
26.79000 434.866
26.80000 428.000
26.81000 426.552
26.82000 427.790
26.83000 429.400
26.84000 436.656
26.85000 445.821
26.86000 453.861
26.87000 452.545
26.88000 449.137
26.89000 446.227
26.90000 442.653
26.91000 439.565
26.92000 437.088
26.93000 436.661
26.94000 436.400
26.95000 436.669
26.96000 438.129
26.97000 439.633
26.98000 440.538
26.99000 445.138
27.00000 448.435
27.01000 448.726
27.02000 446.126
27.03000 443.550
27.04000 442.803
27.05000 443.197
27.06000 443.578
27.07000 442.655
27.08000 441.263
27.09000 440.559
27.10000 447.532
27.11000 456.644
27.12000 463.303
27.13000 453.946
27.14000 441.690
27.15000 431.614
27.16000 438.081
27.17000 444.891
27.18000 448.793
27.19000 444.658
27.20000 440.056
27.21000 436.890
27.22000 436.387
27.23000 435.944
27.24000 435.700
27.25000 440.959
27.26000 444.573
27.27000 443.722
27.28000 439.400
27.29000 435.233
27.30000 437.062
27.31000 441.973
27.32000 446.662
27.33000 447.741
27.34000 447.587
27.35000 447.139
27.36000 444.176
27.37000 440.641
27.38000 438.189
27.39000 441.406
27.40000 445.442
27.41000 448.619
27.42000 447.362
27.43000 446.059
27.44000 446.324
27.45000 450.174
27.46000 454.165
27.47000 454.449
27.48000 449.077
27.49000 443.646
27.50000 435.855
27.51000 425.745
27.52000 415.719
27.53000 412.557
27.54000 413.758
27.55000 415.044
27.56000 418.346
27.57000 422.505
27.58000 426.399
27.59000 441.942
27.60000 459.087
27.61000 472.240
27.62000 458.721
27.63000 440.271
27.64000 425.394
27.65000 425.694
27.66000 427.707
27.67000 429.215
27.68000 422.698
27.69000 417.234
27.70000 416.182
27.71000 423.466
27.72000 430.948
27.73000 430.082
27.74000 418.818
27.75000 407.543
27.76000 409.402
27.77000 421.622
27.78000 433.606
27.79000 435.856
27.80000 433.011
27.81000 430.345
27.82000 430.582
27.83000 431.839
27.84000 432.989
27.85000 440.461
27.86000 448.415
27.87000 455.446
27.88000 457.544
27.89000 458.912
27.90000 456.305
27.91000 439.853
27.92000 422.217
27.93000 409.730
27.94000 424.805
27.95000 437.118
27.96000 445.166
27.97000 446.579
27.98000 447.914
27.99000 446.294
28.00000 441.705
28.01000 437.147
28.02000 435.349
28.03000 435.341
28.04000 435.222
28.05000 432.365
28.06000 428.322
28.07000 424.869
28.08000 428.379
28.09000 433.907
28.10000 438.828
28.11000 434.876
28.12000 429.986
28.13000 425.980
28.14000 425.808
28.15000 426.080
28.16000 427.683
28.17000 433.109
28.18000 438.773
28.19000 442.532
28.20000 436.003
28.21000 430.988
28.22000 427.459
28.23000 425.819
28.24000 424.191
28.25000 424.397
28.26000 426.087
28.27000 427.753
28.28000 426.369
28.29000 423.449
28.30000 420.512
28.31000 417.288
28.32000 413.962
28.33000 411.259
28.34000 414.138
28.35000 418.344
28.36000 421.972
28.37000 424.877
28.38000 427.249
28.39000 428.891
28.40000 427.942
28.41000 426.764
28.42000 424.833
28.43000 421.115
28.44000 417.321
28.45000 414.983
28.46000 428.546
28.47000 438.425
28.48000 441.752
28.49000 438.351
28.50000 434.924
28.51000 429.003
28.52000 421.436
28.53000 414.064
28.54000 414.529
28.55000 418.265
28.56000 421.614
28.57000 420.246
28.58000 417.485
28.59000 415.093
28.60000 415.279
28.61000 415.961
28.62000 416.529
28.63000 421.016
28.64000 425.115
28.65000 426.763
28.66000 421.242
28.67000 415.259
28.68000 415.076
28.69000 426.272
28.70000 437.769
28.71000 444.273
28.72000 434.344
28.73000 427.402
28.74000 424.869
28.75000 425.981
28.76000 427.032
28.77000 425.247
28.78000 421.922
28.79000 418.730
28.80000 419.984
28.81000 422.671
28.82000 425.041
28.83000 424.489
28.84000 423.229
28.85000 422.396
28.86000 423.943
28.87000 425.858
28.88000 427.385
28.89000 422.435
28.90000 417.965
28.91000 413.537
28.92000 409.213
28.93000 404.893
28.94000 405.096
28.95000 412.612
28.96000 420.229
28.97000 424.129
28.98000 422.062
28.99000 420.664
29.00000 418.413
29.01000 415.587
29.02000 412.860
29.03000 412.799
29.04000 413.936
29.05000 415.007
29.06000 414.869
29.07000 414.409
29.08000 414.421
29.09000 417.810
29.10000 421.865
29.11000 424.167
29.12000 418.564
29.13000 412.001
29.14000 407.007
29.15000 410.601
29.16000 413.878
29.17000 413.636
29.18000 406.359
29.19000 398.886
29.20000 394.915
29.21000 395.581
29.22000 396.269
29.23000 401.901
29.24000 411.680
29.25000 421.238
29.26000 419.999
29.27000 412.779
29.28000 405.799
29.29000 403.177
29.30000 402.174
29.31000 401.249
29.32000 396.423
29.33000 391.240
29.34000 387.794
29.35000 394.253
29.36000 402.278
29.37000 408.730
29.38000 409.381
29.39000 409.491
29.40000 409.570
29.41000 407.055
29.42000 405.037
29.43000 404.340
29.44000 405.821
29.45000 407.334
29.46000 410.805
29.47000 416.374
29.48000 421.917
29.49000 419.927
29.50000 412.845
29.51000 405.983
29.52000 405.413
29.53000 407.721
29.54000 409.784
29.55000 408.689
29.56000 406.626
29.57000 404.773
29.58000 408.519
29.59000 412.781
29.60000 415.518
29.61000 411.233
29.62000 406.072
29.63000 403.028
29.64000 406.411
29.65000 410.237
29.66000 412.828
29.67000 410.626
29.68000 408.881
29.69000 404.464
29.70000 396.439
29.71000 388.404
29.72000 387.739
29.73000 393.422
29.74000 399.037
29.75000 404.944
29.76000 410.862
29.77000 416.502
29.78000 416.914
29.79000 415.348
29.80000 413.667
29.81000 410.882
29.82000 407.819
29.83000 405.150
29.84000 411.854
29.85000 418.876
29.86000 424.279
29.87000 423.587
29.88000 422.312
29.89000 422.493
29.90000 426.328
29.91000 430.339
29.92000 432.869
29.93000 425.611
29.94000 420.244
29.95000 419.625
29.96000 424.207
29.97000 428.743
29.98000 427.035
29.99000 420.950
30.00000 415.001
30.01000 413.490
30.02000 414.026
30.03000 414.680
30.04000 416.900
30.05000 419.609
30.06000 422.648
30.07000 428.162
30.08000 434.184
30.09000 439.250
30.10000 441.100
30.11000 442.300
30.12000 442.769
30.13000 440.978
30.14000 439.025
30.15000 437.960
30.16000 438.734
30.17000 439.566
30.18000 440.049
30.19000 431.276
30.20000 425.080
30.21000 421.873
30.22000 421.296
30.23000 420.752
30.24000 422.025
30.25000 424.344
30.26000 426.580
30.27000 425.325
30.28000 422.879
30.29000 420.661
30.30000 420.704
30.31000 421.329
30.32000 421.519
30.33000 419.128
30.34000 416.309
30.35000 414.031
30.36000 411.203
30.37000 408.858
30.38000 407.336
30.39000 407.918
30.40000 408.605
30.41000 410.976
30.42000 416.232
30.43000 421.536
30.44000 424.338
30.45000 424.825
30.46000 425.132
30.47000 422.163
30.48000 416.852
30.49000 411.669
30.50000 410.516
30.51000 411.276
30.52000 411.997
30.53000 415.639
30.54000 419.850
30.55000 423.612
30.56000 423.909
30.57000 423.481
30.58000 423.678
30.59000 426.878
30.60000 430.470
30.61000 433.244
30.62000 430.250
30.63000 427.542
30.64000 427.303
30.65000 432.288
30.66000 437.441
30.67000 435.548
30.68000 423.751
30.69000 411.890
30.70000 411.490
30.71000 421.378
30.72000 431.196
30.73000 436.832
30.74000 440.014
30.75000 442.950
30.76000 440.910
30.77000 436.914
30.78000 433.207
30.79000 434.915
30.80000 437.734
30.81000 439.761
30.82000 436.975
30.83000 433.376
30.84000 431.861
30.85000 438.497
30.86000 445.957
30.87000 451.422
30.88000 442.969
30.89000 435.885
30.90000 434.973
30.91000 444.833
30.92000 454.890
30.93000 464.146
30.94000 472.486
30.95000 480.797
30.96000 481.041
30.97000 475.451
30.98000 470.346
30.99000 481.145
31.00000 499.641
31.01000 517.814
31.02000 531.406
31.03000 543.511
31.04000 554.470
31.05000 573.535
31.06000 591.857
31.07000 610.530
31.08000 630.924
31.09000 651.548
31.10000 671.901
31.11000 691.380
31.12000 710.793
31.13000 724.192
31.14000 789.417
31.15000 839.750
31.16000 885.396
31.17000 924.325
31.18000 963.206
31.19000 1009.978
31.20000 1063.992
31.21000 1117.483
31.22000 1162.459
31.23000 1201.513
31.24000 1242.591
31.25000 1326.164
31.26000 1426.743
31.27000 1523.751
31.28000 1583.228
31.29000 1632.681
31.30000 1676.170
31.31000 1737.300
31.32000 1792.518
31.33000 1844.900
31.34000 1885.972
31.35000 1925.869
31.36000 1963.138
31.37000 1993.427
31.38000 2023.340
31.39000 2042.623
31.40000 2045.213
31.41000 2046.867
31.42000 2043.666
31.43000 2034.803
31.44000 2025.852
31.45000 2001.889
31.46000 1966.758
31.47000 1932.295
31.48000 1877.115
31.49000 1814.101
31.50000 1751.898
31.51000 1701.590
31.52000 1655.215
31.53000 1608.057
31.54000 1554.583
31.55000 1499.730
31.56000 1453.084
31.57000 1384.549
31.58000 1324.467
31.59000 1259.383
31.60000 1177.912
31.61000 1095.165
31.62000 1027.705
31.63000 993.806
31.64000 961.100
31.65000 941.611
31.66000 888.728
31.67000 851.046
31.68000 811.046
31.69000 768.875
31.70000 726.856
31.71000 695.393
31.72000 670.365
31.73000 646.124
31.74000 627.440
31.75000 611.908
31.76000 596.265
31.77000 579.408
31.78000 562.220
31.79000 546.218
31.80000 537.755
31.81000 530.621
31.82000 524.784
31.83000 503.205
31.84000 484.150
31.85000 472.927
31.86000 482.883
31.87000 494.020
31.88000 494.479
31.89000 475.576
31.90000 456.271
31.91000 445.768
31.92000 454.510
31.93000 460.496
31.94000 458.650
31.95000 450.859
31.96000 443.161
31.97000 438.832
31.98000 436.196
31.99000 433.685
32.00000 429.519
32.01000 425.140
32.02000 420.657
32.03000 415.310
32.04000 409.770
32.05000 406.283
32.06000 413.271
32.07000 421.729
32.08000 428.352
32.09000 421.191
32.10000 414.587
32.11000 411.334
32.12000 415.575
32.13000 420.095
32.14000 419.403
32.15000 410.941
32.16000 402.404
32.17000 394.841
32.18000 388.209
32.19000 381.682
32.20000 382.935
32.21000 389.021
32.22000 394.852
32.23000 394.883
32.24000 392.504
32.25000 390.282
32.26000 389.870
32.27000 389.951
32.28000 390.285
32.29000 392.258
32.30000 394.526
32.31000 396.594
32.32000 397.835
32.33000 398.986
32.34000 399.842
32.35000 395.389
32.36000 391.684
32.37000 388.055
32.38000 384.563
32.39000 381.074
32.40000 380.504
32.41000 383.483
32.42000 386.464
32.43000 386.417
32.44000 384.037
32.45000 381.727
32.46000 382.105
32.47000 383.860
32.48000 385.548
32.49000 386.188
32.50000 386.470
32.51000 386.726
32.52000 380.255
32.53000 373.159
32.54000 368.148
32.55000 373.998
32.56000 381.410
32.57000 387.030
32.58000 386.553
32.59000 385.571
32.60000 384.882
32.61000 381.963
32.62000 379.686
32.63000 376.121
32.64000 370.597
32.65000 365.052
32.66000 365.612
32.67000 372.147
32.68000 378.634
32.69000 382.853
32.70000 385.591
32.71000 388.179
32.72000 387.243
32.73000 384.815
32.74000 381.955
32.75000 374.165
32.76000 364.979
32.77000 356.828
32.78000 359.374
32.79000 363.287
32.80000 368.481
32.81000 379.099
32.82000 390.325
32.83000 402.876
32.84000 419.147
32.85000 435.641
32.86000 446.499
32.87000 447.073
32.88000 447.319
32.89000 446.944
32.90000 445.799
32.91000 444.656
32.92000 444.909
32.93000 446.264
32.94000 447.598
32.95000 449.204
32.96000 450.897
32.97000 452.368
32.98000 450.246
32.99000 446.866
33.00000 443.173
33.01000 436.751
33.02000 429.697
33.03000 423.636
33.04000 422.913
33.05000 422.966
33.06000 421.665
33.07000 415.667
33.08000 409.268
33.09000 402.968
33.10000 396.896
33.11000 390.833
33.12000 387.131
33.13000 383.889
33.14000 381.574
33.15000 374.074
33.16000 361.386
33.17000 348.806
33.18000 345.819
33.19000 349.026
33.20000 352.144
33.21000 353.148
33.22000 353.235
33.23000 353.341
33.24000 353.667
33.25000 354.057
33.26000 354.817
33.27000 358.102
33.28000 361.861
33.29000 364.974
33.30000 356.386
33.31000 348.186
33.32000 340.421
33.33000 333.897
33.34000 327.450
33.35000 324.662
33.36000 328.895
33.37000 333.302
33.38000 335.768
33.39000 340.899
33.40000 344.457
33.41000 346.807
33.42000 348.183
33.43000 349.440
33.44000 345.648
33.45000 339.172
33.46000 332.968
33.47000 334.707
33.48000 338.968
33.49000 342.569
33.50000 340.272
33.51000 336.580
33.52000 333.401
33.53000 333.011
33.54000 333.040
33.55000 333.064
33.56000 338.217
33.57000 342.727
33.58000 345.410
33.59000 343.774
33.60000 341.955
33.61000 339.745
33.62000 336.918
33.63000 334.084
33.64000 332.651
33.65000 336.044
33.66000 338.284
33.67000 337.632
33.68000 335.076
33.69000 332.477
33.70000 328.779
33.71000 324.597
33.72000 320.667
33.73000 331.592
33.74000 345.555
33.75000 357.401
33.76000 354.496
33.77000 348.757
33.78000 343.806
33.79000 342.323
33.80000 341.251
33.81000 340.439
33.82000 337.510
33.83000 335.106
33.84000 334.275
33.85000 336.519
33.86000 338.844
33.87000 337.125
33.88000 330.178
33.89000 323.220
33.90000 325.048
33.91000 334.079
33.92000 342.973
33.93000 345.565
33.94000 344.744
33.95000 344.024
33.96000 345.038
33.97000 346.682
33.98000 348.193
33.99000 346.126
34.00000 343.511
34.01000 340.885
34.02000 338.201
34.03000 335.509
34.04000 334.130
34.05000 337.484
34.06000 341.266
34.07000 343.971
34.08000 339.820
34.09000 336.418
34.10000 335.578
34.11000 338.862
34.12000 342.201
34.13000 341.695
34.14000 337.170
34.15000 332.671
34.16000 330.728
34.17000 330.506
34.18000 330.400
34.19000 333.426
34.20000 337.854
34.21000 341.907
34.22000 341.271
34.23000 339.230
34.24000 337.403
34.25000 338.904
34.26000 340.783
34.27000 340.961
34.28000 333.494
34.29000 325.103
34.30000 318.195
34.31000 315.693
34.32000 313.483
34.33000 311.999
34.34000 316.057
34.35000 319.186
34.36000 319.025
34.37000 314.527
34.38000 310.014
34.39000 308.746
34.40000 310.204
34.41000 311.644
34.42000 317.847
34.43000 326.443
34.44000 334.725
34.45000 337.364
34.46000 337.914
34.47000 338.803
34.48000 342.872
34.49000 347.722
34.50000 351.932
34.51000 342.311
34.52000 332.258
34.53000 323.947
34.54000 322.035
34.55000 320.716
34.56000 321.031
34.57000 325.354
34.58000 329.861
34.59000 332.678
34.60000 326.180
34.61000 321.393
34.62000 324.358
34.63000 335.600
34.64000 346.762
34.65000 348.330
34.66000 343.330
34.67000 338.449
34.68000 334.712
34.69000 331.636
34.70000 328.733
34.71000 328.046
34.72000 328.035
34.73000 327.741
34.74000 325.383
34.75000 322.611
34.76000 320.290
34.77000 322.752
34.78000 325.292
34.79000 328.170
34.80000 332.070
34.81000 336.040
34.82000 338.521
34.83000 337.978
34.84000 337.347
34.85000 336.984
34.86000 334.093
34.87000 332.063
34.88000 331.172
34.89000 331.259
34.90000 331.255
34.91000 326.560
34.92000 319.226
34.93000 312.166
34.94000 312.519
34.95000 315.472
34.96000 318.317
34.97000 320.116
34.98000 321.653
34.99000 322.001
35.00000 315.455
35.01000 307.798
35.02000 301.642
35.03000 308.805
35.04000 315.643
35.05000 320.291
35.06000 319.461
35.07000 318.369
35.08000 317.586
35.09000 317.319
35.10000 317.060
35.11000 316.925
35.12000 314.398
35.13000 312.698
35.14000 312.077
35.15000 312.211
35.16000 312.381
35.17000 313.594
35.18000 315.291
35.19000 316.897
35.20000 316.725
35.21000 316.058
35.22000 315.434
35.23000 315.132
35.24000 314.895
35.25000 315.271
35.26000 318.515
35.27000 322.124
35.28000 324.893
35.29000 322.451
35.30000 320.229
35.31000 318.625
35.32000 318.297
35.33000 318.008
35.34000 317.195
35.35000 315.663
35.36000 314.127
35.37000 316.290
35.38000 321.686
35.39000 326.918
35.40000 323.106
35.41000 314.109
35.42000 305.374
35.43000 301.709
35.44000 299.991
35.45000 298.402
35.46000 301.542
35.47000 305.454
35.48000 308.439
35.49000 305.935
35.50000 302.529
35.51000 300.598
35.52000 304.306
35.53000 308.567
35.54000 311.668
35.55000 308.378
35.56000 305.601
35.57000 305.327
35.58000 309.322
35.59000 313.390
35.60000 313.157
35.61000 308.131
35.62000 303.122
35.63000 300.643
35.64000 299.971
35.65000 299.314
35.66000 299.129
35.67000 299.167
35.68000 299.652
35.69000 306.253
35.70000 314.795
35.71000 322.503
35.72000 316.400
35.73000 308.507
35.74000 302.901
35.75000 308.225
35.76000 314.971
35.77000 319.831
35.78000 318.763
35.79000 317.263
35.80000 316.236
35.81000 319.347
35.82000 321.776
35.83000 318.715
35.84000 307.968
35.85000 297.174
35.86000 294.592
35.87000 299.358
35.88000 304.074
35.89000 306.744
35.90000 308.185
35.91000 309.468
35.92000 307.576
35.93000 304.443
35.94000 301.741
35.95000 303.434
35.96000 306.273
35.97000 308.761
35.98000 315.409
35.99000 321.714
36.00000 325.780
36.01000 321.119
36.02000 315.579
36.03000 310.268
36.04000 305.549
36.05000 300.861
36.06000 297.865
36.07000 298.130
36.08000 298.366
36.09000 300.245
36.10000 303.994
36.11000 307.704
36.12000 304.818
36.13000 297.140
36.14000 289.618
36.15000 294.004
36.16000 303.743
36.17000 312.586
36.18000 308.786
36.19000 300.897
36.20000 294.333
36.21000 298.155
36.22000 304.189
36.23000 309.299
36.24000 312.950
36.25000 315.845
36.26000 317.579
36.27000 315.593
36.28000 313.328
36.29000 310.468
36.30000 306.330
36.31000 302.149
36.32000 299.683
36.33000 303.102
36.34000 305.548
36.35000 307.977
36.36000 310.391
36.37000 312.752
36.38000 311.756
36.39000 308.760
36.40000 305.864
36.41000 299.817
36.42000 292.926
36.43000 286.782
36.44000 288.459
36.45000 292.217
36.46000 295.955
36.47000 299.568
36.48000 303.159
36.49000 306.083
36.50000 306.889
36.51000 307.369
36.52000 307.841
36.53000 308.296
36.54000 308.751
36.55000 308.597
36.56000 307.366
36.57000 306.114
36.58000 305.441
36.59000 297.416
36.60000 291.962
36.61000 293.152
36.62000 299.264
36.63000 305.036
36.64000 299.157
36.65000 287.552
36.66000 276.518
36.67000 278.461
36.68000 284.213
36.69000 290.285
36.70000 298.931
36.71000 308.137
36.72000 315.238
36.73000 311.863
36.74000 307.057
36.75000 303.316
36.76000 304.241
36.77000 305.266
36.78000 306.792
36.79000 309.416
36.80000 312.079
36.81000 312.576
36.82000 309.918
36.83000 307.235
36.84000 304.677
36.85000 302.239
36.86000 299.823
36.87000 298.932
36.88000 298.965
36.89000 299.053
36.90000 300.323
36.91000 302.073
36.92000 303.703
36.93000 308.029
36.94000 312.605
36.95000 315.583
36.96000 308.438
36.97000 299.516
36.98000 293.277
36.99000 297.916
37.00000 303.708
37.01000 307.994
37.02000 313.695
37.03000 318.179
37.04000 318.920
37.05000 312.899
37.06000 306.740
37.07000 304.333
37.08000 306.377
37.09000 308.424
37.10000 310.519
37.11000 312.636
37.12000 314.788
37.13000 318.221
37.14000 322.295
37.15000 325.964
37.16000 323.549
37.17000 319.090
37.18000 315.034
37.19000 311.685
37.20000 308.860
37.21000 306.701
37.22000 307.923
37.23000 309.618
37.24000 310.151
37.25000 306.820
37.26000 303.181
37.27000 300.640
37.28000 294.019
37.29000 288.906
37.30000 286.254
37.31000 287.260
37.32000 288.300
37.33000 289.605
37.34000 291.164
37.35000 292.709
37.36000 297.994
37.37000 305.454
37.38000 312.571
37.39000 311.941
37.40000 308.104
37.41000 304.370
37.42000 301.776
37.43000 299.497
37.44000 297.483
37.45000 299.579
37.46000 302.029
37.47000 302.365
37.48000 293.965
37.49000 284.614
37.50000 279.382
37.51000 285.458
37.52000 292.183
37.53000 296.574
37.54000 292.441
37.55000 289.270
37.56000 289.299
37.57000 293.203
37.58000 297.107
37.59000 299.023
37.60000 299.405
37.61000 299.781
37.62000 300.122
37.63000 300.434
37.64000 300.725
37.65000 300.671
37.66000 300.500
37.67000 300.560
37.68000 302.572
37.69000 305.025
37.70000 307.124
37.71000 303.079
37.72000 298.924
37.73000 295.750
37.74000 295.896
37.75000 296.316
37.76000 297.712
37.77000 301.326
37.78000 305.026
37.79000 307.263
37.80000 297.176
37.81000 289.898
37.82000 284.326
37.83000 280.417
37.84000 276.628
37.85000 282.419
37.86000 294.255
37.87000 305.747
37.88000 307.278
37.89000 304.744
37.90000 302.059
37.91000 297.662
37.92000 292.783
37.93000 288.428
37.94000 287.544
37.95000 287.296
37.96000 287.092
37.97000 292.097
37.98000 296.695
37.99000 300.659
38.00000 302.845
38.01000 304.926
38.02000 305.481
38.03000 303.175
38.04000 300.803
38.05000 299.490
38.06000 306.389
38.07000 311.132
38.08000 306.284
38.09000 293.884
38.10000 281.784
38.11000 281.676
38.12000 287.801
38.13000 293.656
38.14000 296.909
38.15000 299.091
38.16000 301.298
38.17000 303.714
38.18000 306.180
38.19000 308.232
38.20000 308.095
38.21000 307.637
38.22000 307.275
38.23000 306.318
38.24000 305.509
38.25000 304.249
38.26000 301.945
38.27000 299.599
38.28000 301.696
38.29000 310.654
38.30000 319.689
38.31000 325.011
38.32000 326.634
38.33000 328.327
38.34000 336.090
38.35000 347.758
38.36000 359.147
38.37000 363.707
38.38000 365.333
38.39000 366.859
38.40000 380.635
38.41000 396.388
38.42000 412.675
38.43000 432.573
38.44000 453.147
38.45000 473.628
38.46000 493.703
38.47000 513.731
38.48000 528.784
38.49000 554.375
38.50000 574.892
38.51000 602.965
38.52000 645.486
38.53000 688.360
38.54000 732.550
38.55000 778.401
38.56000 824.183
38.57000 878.814
38.58000 940.295
38.59000 1001.673
38.60000 1058.684
38.61000 1113.381
38.62000 1167.759
38.63000 1216.824
38.64000 1264.001
38.65000 1307.237
38.66000 1358.809
38.67000 1406.485
38.68000 1451.854
38.69000 1484.734
38.70000 1515.742
38.71000 1544.120
38.72000 1563.228
38.73000 1581.528
38.74000 1594.532
38.75000 1570.747
38.76000 1551.466
38.77000 1535.450
38.78000 1524.577
38.79000 1513.767
38.80000 1486.953
38.81000 1443.841
38.82000 1401.003
38.83000 1356.373
38.84000 1311.231
38.85000 1265.516
38.86000 1205.147
38.87000 1138.363
38.88000 1072.923
38.89000 1023.669
38.90000 979.159
38.91000 939.455
38.92000 883.650
38.93000 832.414
38.94000 780.970
38.95000 728.611
38.96000 676.145
38.97000 628.307
38.98000 593.910
38.99000 560.369
39.00000 538.014
39.01000 503.725
39.02000 478.112
39.03000 456.041
39.04000 438.530
39.05000 421.035
39.06000 403.166
39.07000 384.989
39.08000 367.070
39.09000 357.255
39.10000 351.970
39.11000 346.871
39.12000 344.964
39.13000 344.212
39.14000 342.996
39.15000 337.554
39.16000 331.096
39.17000 325.513
39.18000 318.163
39.19000 311.688
39.20000 306.654
39.21000 306.798
39.22000 307.407
39.23000 305.415
39.24000 297.182
39.25000 288.675
39.26000 283.408
39.27000 287.325
39.28000 290.229
39.29000 289.582
39.30000 285.238
39.31000 280.955
39.32000 283.013
39.33000 289.313
39.34000 295.454
39.35000 295.323
39.36000 292.529
39.37000 289.848
39.38000 288.571
39.39000 287.714
39.40000 286.547
39.41000 283.177
39.42000 279.377
39.43000 276.208
39.44000 270.529
39.45000 265.569
39.46000 263.147
39.47000 268.233
39.48000 273.813
39.49000 275.942
39.50000 271.221
39.51000 266.314
39.52000 263.522
39.53000 270.560
39.54000 275.489
39.55000 277.082
39.56000 275.882
39.57000 274.665
39.58000 272.623
39.59000 270.127
39.60000 267.729
39.61000 269.183
39.62000 271.875
39.63000 274.207
39.64000 273.174
39.65000 271.317
39.66000 269.306
39.67000 266.429
39.68000 263.415
39.69000 261.004
39.70000 264.034
39.71000 266.890
39.72000 270.655
39.73000 276.644
39.74000 282.735
39.75000 285.151
39.76000 281.554
39.77000 277.871
39.78000 275.973
39.79000 274.450
39.80000 273.401
39.81000 269.658
39.82000 264.079
39.83000 258.834
39.84000 262.945
39.85000 271.306
39.86000 279.194
39.87000 277.425
39.88000 273.110
39.89000 268.809
39.90000 264.612
39.91000 260.437
39.92000 256.678
39.93000 254.818
39.94000 253.192
39.95000 251.952
39.96000 251.459
39.97000 251.111
39.98000 252.801
39.99000 258.616
40.00000 264.548
40.01000 266.710
40.02000 263.817
40.03000 260.900
40.04000 262.213
40.05000 267.130
40.06000 271.927
40.07000 270.562
40.08000 265.744
40.09000 260.881
40.10000 255.164
40.11000 249.128
40.12000 243.556
40.13000 240.397
40.14000 238.105
40.15000 237.206
40.16000 244.346
40.17000 252.774
40.18000 259.695
40.19000 260.989
40.20000 261.749
40.21000 262.299
40.22000 262.613
40.23000 262.846
40.24000 262.592
40.25000 261.527
40.26000 260.450
40.27000 258.982
40.28000 257.090
40.29000 255.206
40.30000 255.272
40.31000 256.678
40.32000 257.987
40.33000 256.471
40.34000 253.648
40.35000 250.928
40.36000 249.579
40.37000 248.655
40.38000 247.824
40.39000 247.767
40.40000 247.855
40.41000 247.907
40.42000 247.786
40.43000 247.644
40.44000 247.321
40.45000 246.439
40.46000 245.519
40.47000 244.893
40.48000 241.783
40.49000 239.404
40.50000 239.639
40.51000 243.448
40.52000 247.277
40.53000 250.293
40.54000 252.601
40.55000 254.882
40.56000 253.971
40.57000 251.301
40.58000 248.816
40.59000 249.862
40.60000 252.260
40.61000 254.862
40.62000 259.483
40.63000 264.619
40.64000 269.102
40.65000 263.142
40.66000 256.579
40.67000 251.470
40.68000 251.899
40.69000 252.868
40.70000 253.418
40.71000 252.905
40.72000 252.339
40.73000 251.981
40.74000 252.693
40.75000 253.222
40.76000 252.899
40.77000 251.629
40.78000 250.377
40.79000 251.833
40.80000 255.210
40.81000 258.513
40.82000 255.704
40.83000 250.241
40.84000 245.062
40.85000 243.737
40.86000 243.630
40.87000 243.566
40.88000 243.828
40.89000 244.158
40.90000 244.437
40.91000 247.887
40.92000 251.111
40.93000 253.371
40.94000 252.608
40.95000 251.626
40.96000 250.576
40.97000 249.381
40.98000 248.181
40.99000 247.480
41.00000 256.857
41.01000 263.496
41.02000 263.501
41.03000 257.593
41.04000 251.694
41.05000 246.332
41.06000 241.283
41.07000 236.409
41.08000 234.725
41.09000 234.311
41.10000 233.984
41.11000 234.548
41.12000 235.344
41.13000 236.356
41.14000 238.673
41.15000 241.209
41.16000 243.264
41.17000 240.839
41.18000 238.499
41.19000 238.213
41.20000 243.242
41.21000 248.542
41.22000 250.274
41.23000 245.821
41.24000 241.259
41.25000 238.833
41.26000 238.331
41.27000 237.998
41.28000 238.893
41.29000 240.677
41.30000 242.482
41.31000 244.989
41.32000 247.833
41.33000 250.532
41.34000 252.040
41.35000 253.077
41.36000 253.846
41.37000 252.529
41.38000 250.769
41.39000 248.429
41.40000 243.275
41.41000 237.747
41.42000 233.467
41.43000 232.966
41.44000 232.792
41.45000 233.809
41.46000 237.370
41.47000 241.017
41.48000 241.886
41.49000 238.805
41.50000 235.694
41.51000 235.593
41.52000 238.228
41.53000 240.826
41.54000 241.074
41.55000 239.928
41.56000 238.820
41.57000 238.524
41.58000 238.550
41.59000 238.574
41.60000 236.956
41.61000 235.103
41.62000 233.475
41.63000 233.233
41.64000 233.229
41.65000 233.601
41.66000 235.466
41.67000 237.484
41.68000 238.968
41.69000 242.479
41.70000 245.278
41.71000 248.115
41.72000 251.018
41.73000 253.922
41.74000 251.781
41.75000 243.802
41.76000 235.840
41.77000 232.573
41.78000 232.770
41.79000 233.064
41.80000 236.657
41.81000 241.866
41.82000 246.714
41.83000 246.347
41.84000 244.269
41.85000 242.384
41.86000 244.986
41.87000 248.138
41.88000 250.717
41.89000 250.455
41.90000 249.807
41.91000 248.941
41.92000 247.365
41.93000 245.734
41.94000 244.605
41.95000 245.738
41.96000 246.651
41.97000 244.675
41.98000 238.505
41.99000 232.301
42.00000 228.820
42.01000 227.870
42.02000 226.929
42.03000 227.272
42.04000 228.371
42.05000 229.371
42.06000 228.260
42.07000 226.294
42.08000 224.796
42.09000 228.303
42.10000 233.163
42.11000 237.444
42.12000 237.228
42.13000 236.363
42.14000 236.906
42.15000 243.134
42.16000 249.962
42.17000 252.939
42.18000 245.574
42.19000 237.641
42.20000 232.504
42.21000 236.570
42.22000 239.680
42.23000 241.562
42.24000 241.993
42.25000 242.420
42.26000 242.873
42.27000 243.344
42.28000 243.807
42.29000 241.922
42.30000 238.973
42.31000 235.859
42.32000 230.274
42.33000 223.862
42.34000 218.196
42.35000 218.644
42.36000 220.444
42.37000 221.978
42.38000 221.459
42.39000 220.782
42.40000 220.507
42.41000 221.565
42.42000 222.729
42.43000 223.762
42.44000 224.506
42.45000 225.239
42.46000 225.678
42.47000 231.275
42.48000 235.282
42.49000 234.823
42.50000 230.121
42.51000 225.484
42.52000 225.609
42.53000 228.671
42.54000 231.638
42.55000 232.641
42.56000 232.822
42.57000 233.019
42.58000 233.376
42.59000 233.777
42.60000 234.165
42.61000 234.476
42.62000 234.772
42.63000 235.015
42.64000 228.765
42.65000 223.059
42.66000 219.502
42.67000 221.825
42.68000 224.483
42.69000 228.086
42.70000 233.421
42.71000 238.793
42.72000 241.733
42.73000 237.033
42.74000 233.806
42.75000 234.217
42.76000 237.423
42.77000 240.540
42.78000 240.271
42.79000 238.282
42.80000 236.384
42.81000 236.475
42.82000 237.189
42.83000 238.037
42.84000 240.013
42.85000 242.245
42.86000 242.988
42.87000 236.041
42.88000 227.998
42.89000 221.683
42.90000 226.636
42.91000 231.336
42.92000 234.647
42.93000 234.813
42.94000 234.859
42.95000 235.641
42.96000 237.533
42.97000 239.436
42.98000 239.002
42.99000 236.297
43.00000 233.588
43.01000 230.495
43.02000 227.162
43.03000 223.895
43.04000 222.150
43.05000 221.045
43.06000 220.011
43.07000 221.831
43.08000 224.212
43.09000 226.455
43.10000 227.786
43.11000 228.950
43.12000 229.697
43.13000 228.697
43.14000 227.503
43.15000 226.611
43.16000 227.616
43.17000 228.487
43.18000 230.787
43.19000 235.760
43.20000 240.794
43.21000 241.148
43.22000 235.739
43.23000 230.325
43.24000 229.321
43.25000 231.762
43.26000 234.155
43.27000 234.643
43.28000 234.143
43.29000 233.615
43.30000 232.638
43.31000 231.504
43.32000 230.469
43.33000 232.039
43.34000 233.967
43.35000 234.263
43.36000 225.946
43.37000 216.373
43.38000 211.240
43.39000 221.400
43.40000 232.848
43.41000 240.926
43.42000 242.089
43.43000 242.762
43.44000 240.115
43.45000 232.362
43.46000 224.551
43.47000 219.625
43.48000 217.560
43.49000 215.510
43.50000 218.571
43.51000 224.808
43.52000 230.847
43.53000 232.107
43.54000 231.320
43.55000 230.252
43.56000 225.901
43.57000 220.610
43.58000 215.907
43.59000 218.389
43.60000 221.706
43.61000 224.548
43.62000 225.358
43.63000 225.935
43.64000 224.779
43.65000 218.700
43.66000 212.319
43.67000 208.101
43.68000 219.927
43.69000 228.939
43.70000 230.736
43.71000 223.463
43.72000 216.194
43.73000 219.733
43.74000 231.922
43.75000 243.924
43.76000 244.341
43.77000 238.818
43.78000 233.424
43.79000 230.169
43.80000 227.671
43.81000 225.518
43.82000 226.410
43.83000 228.018
43.84000 229.402
43.85000 223.438
43.86000 217.456
43.87000 213.154
43.88000 214.754
43.89000 216.864
43.90000 220.392
43.91000 227.249
43.92000 234.245
43.93000 238.537
43.94000 230.078
43.95000 223.908
43.96000 219.095
43.97000 215.659
43.98000 212.251
43.99000 211.421
44.00000 212.275
44.01000 213.107
44.02000 215.254
44.03000 217.845
44.04000 220.375
44.05000 222.173
44.06000 223.758
44.07000 224.950
44.08000 223.437
44.09000 221.408
44.10000 219.724
44.11000 215.344
44.12000 211.463
44.13000 209.035
44.14000 210.810
44.15000 212.852
44.16000 214.986
44.17000 217.301
44.18000 219.620
44.19000 220.926
44.20000 220.860
44.21000 220.807
44.22000 219.005
44.23000 215.775
44.24000 212.661
44.25000 214.704
44.26000 219.521
44.27000 224.140
44.28000 227.329
44.29000 229.826
44.30000 231.819
44.31000 229.248
44.32000 225.584
44.33000 223.056
44.34000 226.791
44.35000 231.482
44.36000 235.215
44.37000 233.056
44.38000 230.892
44.39000 227.743
44.40000 222.236
44.41000 216.628
44.42000 214.421
44.43000 217.656
44.44000 220.962
44.45000 222.645
44.46000 211.179
44.47000 203.594
44.48000 206.731
44.49000 217.012
44.50000 226.939
44.51000 227.464
44.52000 223.812
44.53000 220.374
44.54000 221.815
44.55000 224.460
44.56000 226.676
44.57000 225.862
44.58000 224.459
44.59000 223.619
44.60000 225.292
44.61000 227.267
44.62000 228.765
44.63000 227.169
44.64000 225.756
44.65000 224.445
44.66000 223.332
44.67000 222.225
44.68000 221.281
44.69000 220.552
44.70000 219.825
44.71000 220.602
44.72000 222.627
44.73000 224.594
44.74000 223.821
44.75000 221.545
44.76000 219.442
44.77000 220.398
44.78000 222.479
44.79000 224.393
44.80000 226.493
44.81000 228.411
44.82000 229.834
44.83000 228.479
44.84000 226.691
44.85000 226.433
44.86000 231.761
44.87000 237.601
44.88000 241.796
44.89000 246.055
44.90000 249.315
44.91000 251.017
44.92000 250.178
44.93000 249.302
44.94000 248.031
44.95000 246.343
44.96000 244.663
44.97000 247.325
44.98000 252.868
44.99000 258.501
45.00000 266.631
45.01000 275.892
45.02000 284.776
45.03000 288.868
45.04000 291.507
45.05000 293.873
45.06000 290.713
45.07000 286.992
45.08000 283.847
45.09000 283.330
45.10000 283.135
45.11000 282.856
45.12000 282.321
45.13000 281.770
45.14000 281.398
45.15000 282.469
45.16000 283.297
45.17000 281.933
45.18000 277.643
45.19000 273.345
45.20000 273.092
45.21000 276.284
45.22000 279.435
45.23000 283.165
45.24000 287.113
45.25000 290.754
45.26000 288.760
45.27000 284.657
45.28000 280.434
45.29000 275.066
45.30000 269.413
45.31000 264.497
45.32000 261.083
45.33000 258.374
45.34000 257.618
45.35000 264.121
45.36000 271.310
45.37000 275.220
45.38000 270.988
45.39000 266.374
45.40000 263.477
45.41000 255.998
45.42000 250.541
45.43000 249.061
45.44000 251.883
45.45000 254.663
45.46000 251.943
45.47000 245.412
45.48000 239.032
45.49000 241.068
45.50000 246.735
45.51000 252.070
45.52000 253.045
45.53000 252.673
45.54000 251.522
45.55000 244.601
45.56000 236.509
45.57000 229.716
45.58000 234.498
45.59000 239.694
45.60000 243.495
45.61000 243.027
45.62000 242.261
45.63000 241.026
45.64000 238.828
45.65000 236.602
45.66000 235.315
45.67000 231.418
45.68000 228.681
45.69000 229.560
45.70000 233.583
45.71000 237.556
45.72000 238.842
45.73000 238.599
45.74000 238.364
45.75000 236.830
45.76000 234.922
45.77000 233.077
45.78000 231.847
45.79000 230.774
45.80000 230.043
45.81000 231.327
45.82000 232.939
45.83000 234.240
45.84000 240.809
45.85000 246.559
45.86000 247.852
45.87000 237.872
45.88000 227.342
45.89000 219.753
45.90000 217.148
45.91000 214.626
45.92000 213.301
45.93000 216.664
45.94000 218.936
45.95000 219.852
45.96000 219.811
45.97000 219.727
45.98000 218.360
45.99000 216.390
46.00000 214.526
46.01000 215.770
46.02000 217.816
46.03000 219.637
46.04000 219.753
46.05000 219.516
46.06000 218.925
46.07000 216.660
46.08000 214.179
46.09000 212.269
46.10000 210.126
46.11000 208.416
46.12000 208.417
46.13000 211.995
46.14000 215.686
46.15000 216.939
46.16000 214.804
46.17000 212.647
46.18000 212.318
46.19000 213.610
46.20000 214.890
46.21000 215.521
46.22000 215.775
46.23000 215.974
46.24000 215.071
46.25000 213.741
46.26000 212.509
46.27000 207.501
46.28000 202.113
46.29000 197.517
46.30000 197.676
46.31000 198.628
46.32000 199.441
46.33000 199.717
46.34000 199.940
46.35000 200.102
46.36000 201.588
46.37000 202.785
46.38000 205.381
46.39000 210.392
46.40000 215.444
46.41000 214.153
46.42000 205.700
46.43000 197.272
46.44000 196.649
46.45000 201.610
46.46000 206.419
46.47000 206.418
46.48000 204.113
46.49000 201.903
46.50000 201.013
46.51000 200.546
46.52000 200.124
46.53000 198.893
46.54000 197.659
46.55000 197.091
46.56000 199.747
46.57000 202.829
46.58000 205.035
46.59000 204.453
46.60000 203.664
46.61000 203.121
46.62000 198.879
46.63000 195.604
46.64000 194.830
46.65000 197.601
46.66000 200.397
46.67000 201.351
46.68000 200.636
46.69000 199.928
46.70000 201.162
46.71000 203.494
46.72000 205.654
46.73000 204.287
46.74000 201.523
46.75000 199.089
46.76000 200.063
46.77000 201.936
46.78000 203.580
46.79000 205.015
46.80000 206.217
46.81000 206.431
46.82000 202.750
46.83000 198.671
46.84000 195.721
46.85000 195.738
46.86000 195.912
46.87000 196.023
46.88000 198.151
46.89000 199.730
46.90000 199.373
46.91000 196.782
46.92000 194.207
46.93000 194.791
46.94000 197.699
46.95000 200.550
46.96000 197.058
46.97000 190.717
46.98000 184.878
46.99000 186.256
47.00000 189.997
47.01000 193.680
47.02000 196.908
47.03000 200.037
47.04000 202.692
47.05000 197.882
47.06000 193.001
47.07000 188.943
47.08000 187.556
47.09000 186.373
47.10000 186.786
47.11000 190.666
47.12000 194.665
47.13000 197.037
47.14000 193.464
47.15000 190.903
47.16000 190.955
47.17000 193.425
47.18000 195.870
47.19000 196.642
47.20000 196.404
47.21000 196.175
47.22000 195.960
47.23000 195.763
47.24000 195.446
47.25000 193.843
47.26000 191.893
47.27000 190.138
47.28000 189.604
47.29000 189.282
47.30000 189.019
47.31000 190.939
47.32000 192.697
47.33000 190.854
47.34000 179.376
47.35000 167.372
47.36000 163.490
47.37000 174.178
47.38000 185.157
47.39000 191.098
47.40000 193.691
47.41000 195.440
47.42000 192.569
47.43000 186.231
47.44000 180.065
47.45000 179.961
47.46000 182.871
47.47000 185.641
47.48000 187.507
47.49000 188.956
47.50000 190.216
47.51000 189.940
47.52000 189.326
47.53000 188.701
47.54000 188.018
47.55000 187.328
47.56000 186.789
47.57000 185.816
47.58000 185.012
47.59000 184.724
47.60000 185.579
47.61000 186.475
47.62000 185.318
47.63000 181.135
47.64000 176.925
47.65000 178.117
47.66000 184.418
47.67000 190.631
47.68000 190.540
47.69000 186.576
47.70000 182.726
47.71000 181.379
47.72000 181.063
47.73000 180.767
47.74000 178.810
47.75000 176.623
47.76000 175.008
47.77000 177.068
47.78000 179.782
47.79000 181.159
47.80000 177.050
47.81000 172.349
47.82000 168.860
47.83000 170.582
47.84000 172.149
47.85000 175.090
47.86000 180.541
47.87000 186.046
47.88000 191.164
47.89000 195.816
47.90000 200.456
47.91000 196.517
47.92000 186.076
47.93000 175.860
47.94000 174.047
47.95000 176.490
47.96000 178.627
47.97000 176.076
47.98000 171.931
47.99000 168.156
48.00000 172.537
48.01000 178.042
48.02000 182.586
48.03000 182.186
48.04000 181.084
48.05000 180.573
48.06000 182.051
48.07000 183.691
48.08000 184.839
48.09000 182.817
48.10000 181.196
48.11000 179.810
48.12000 178.778
48.13000 177.749
48.14000 175.836
48.15000 173.069
48.16000 170.324
48.17000 172.575
48.18000 177.862
48.19000 182.975
48.20000 184.043
48.21000 183.417
48.22000 182.763
48.23000 181.794
48.24000 180.738
48.25000 179.802
48.26000 184.276
48.27000 189.000
48.28000 192.282
48.29000 189.532
48.30000 186.115
48.31000 184.138
48.32000 186.161
48.33000 188.419
48.34000 189.900
48.35000 185.140
48.36000 181.536
48.37000 181.883
48.38000 187.079
48.39000 192.270
48.40000 192.684
48.41000 189.366
48.42000 186.103
48.43000 182.592
48.44000 179.071
48.45000 175.754
48.46000 175.692
48.47000 176.756
48.48000 178.374
48.49000 184.743
48.50000 192.200
48.51000 198.595
48.52000 193.347
48.53000 187.486
48.54000 183.245
48.55000 184.568
48.56000 186.356
48.57000 185.325
48.58000 177.820
48.59000 170.058
48.60000 165.341
48.61000 172.248
48.62000 177.269
48.63000 180.503
48.64000 181.969
48.65000 183.429
48.66000 184.347
48.67000 184.919
48.68000 185.474
48.69000 186.796
48.70000 188.364
48.71000 189.292
48.72000 182.817
48.73000 174.228
48.74000 167.590
48.75000 174.054
48.76000 182.953
48.77000 190.304
48.78000 186.159
48.79000 181.667
48.80000 179.335
48.81000 183.115
48.82000 187.266
48.83000 186.875
48.84000 177.860
48.85000 168.638
48.86000 163.505
48.87000 173.918
48.88000 181.142
48.89000 184.926
48.90000 185.967
48.91000 186.907
48.92000 183.675
48.93000 178.249
48.94000 173.056
48.95000 178.162
48.96000 186.303
48.97000 193.109
48.98000 188.175
48.99000 180.497
49.00000 174.285
49.01000 175.950
49.02000 178.786
49.03000 181.030
49.04000 182.239
49.05000 183.139
49.06000 182.734
49.07000 179.273
49.08000 175.686
49.09000 175.063
49.10000 179.076
49.11000 183.143
49.12000 185.187
49.13000 179.722
49.14000 176.116
49.15000 176.456
49.16000 179.364
49.17000 182.175
49.18000 182.517
49.19000 181.787
49.20000 181.101
49.21000 180.458
49.22000 179.884
49.23000 179.498
49.24000 180.404
49.25000 181.556
49.26000 182.565
49.27000 182.948
49.28000 183.258
49.29000 183.492
49.30000 174.356
49.31000 166.740
49.32000 164.038
49.33000 170.843
49.34000 177.888
49.35000 181.772
49.36000 181.617
49.37000 181.447
49.38000 178.446
49.39000 173.160
49.40000 167.990
49.41000 167.915
49.42000 170.570
49.43000 173.264
49.44000 176.597
49.45000 180.160
49.46000 183.430
49.47000 186.507
49.48000 189.209
49.49000 189.684
49.50000 177.936
49.51000 164.331
49.52000 155.172
49.53000 161.869
49.54000 169.973
49.55000 175.753
49.56000 174.964
49.57000 174.146
49.58000 174.898
49.59000 178.153
49.60000 181.439
49.61000 182.350
49.62000 180.808
49.63000 179.275
49.64000 180.863
49.65000 184.473
49.66000 188.028
49.67000 190.150
49.68000 191.637
49.69000 192.654
49.70000 187.921
49.71000 181.482
49.72000 175.729
49.73000 173.013
49.74000 171.160
49.75000 169.843
49.76000 170.905
49.77000 172.251
49.78000 173.822
49.79000 176.052
49.80000 178.325
49.81000 179.847
49.82000 178.319
49.83000 177.126
49.84000 177.856
49.85000 181.093
49.86000 184.333
49.87000 183.997
49.88000 180.689
49.89000 177.427
49.90000 176.382
49.91000 176.542
49.92000 176.600
49.93000 174.850
49.94000 172.438
49.95000 170.627
49.96000 174.374
49.97000 179.473
49.98000 183.890
49.99000 182.910
50.00000 181.362
50.01000 178.481
50.02000 170.755
50.03000 162.587
50.04000 158.695
50.05000 165.190
50.06000 172.150
50.07000 176.481
50.08000 174.145
50.09000 172.395
50.10000 170.412
50.11000 168.185
50.12000 165.993
50.13000 167.668
50.14000 171.962
50.15000 176.151
50.16000 175.964
50.17000 173.899
50.18000 172.141
50.19000 174.267
50.20000 177.565
50.21000 180.485
50.22000 180.670
50.23000 180.314
50.24000 180.016
50.25000 184.136
50.26000 188.004
50.27000 190.388
50.28000 188.326
50.29000 185.965
50.30000 183.959
50.31000 182.664
50.32000 181.389
50.33000 180.660
50.34000 182.053
50.35000 183.035
50.36000 185.573
50.37000 189.431
50.38000 193.164
50.39000 190.742
50.40000 184.895
50.41000 179.272
50.42000 181.703
50.43000 186.798
50.44000 191.438
50.45000 191.752
50.46000 190.993
50.47000 189.888
50.48000 186.802
50.49000 183.401
50.50000 180.674
50.51000 189.114
50.52000 196.797
50.53000 201.083
50.54000 196.963
50.55000 192.452
50.56000 190.186
50.57000 191.640
50.58000 193.148
50.59000 193.931
50.60000 193.819
50.61000 193.752
50.62000 194.899
50.63000 196.883
50.64000 198.780
50.65000 198.136
50.66000 196.326
50.67000 194.615
50.68000 196.540
50.69000 199.335
50.70000 202.209
50.71000 205.666
50.72000 209.241
50.73000 212.465
50.74000 214.063
50.75000 215.458
50.76000 216.526
50.77000 216.503
50.78000 216.425
50.79000 216.892
50.80000 218.474
50.81000 220.090
50.82000 220.106
50.83000 217.949
50.84000 215.781
50.85000 210.225
50.86000 201.751
50.87000 193.352
50.88000 188.978
50.89000 186.886
50.90000 185.058
50.91000 188.227
50.92000 193.295
50.93000 197.979
50.94000 196.741
50.95000 194.284
50.96000 192.638
50.97000 195.735
50.98000 199.603
50.99000 200.509
51.00000 190.223
51.01000 178.857
51.02000 170.611
51.03000 181.115
51.04000 189.887
51.05000 194.605
51.06000 192.482
51.07000 190.248
51.08000 189.603
51.09000 190.708
51.10000 191.809
51.11000 190.160
51.12000 186.611
51.13000 183.162
51.14000 182.694
51.15000 183.623
51.16000 184.661
51.17000 187.167
51.18000 190.134
51.19000 192.807
51.20000 189.675
51.21000 185.876
51.22000 181.664
51.23000 175.502
51.24000 169.088
51.25000 164.676
51.26000 166.486
51.27000 168.742
51.28000 170.282
51.29000 169.633
51.30000 169.097
51.31000 169.117
51.32000 169.908
51.33000 170.703
51.34000 172.193
51.35000 174.296
51.36000 176.376
51.37000 178.150
51.38000 179.711
51.39000 181.112
51.40000 179.369
51.41000 176.408
51.42000 173.425
51.43000 170.211
51.44000 166.937
51.45000 164.073
51.46000 165.938
51.47000 168.209
51.48000 170.129
51.49000 170.695
51.50000 171.128
51.51000 170.843
51.52000 168.712
51.53000 166.489
51.54000 165.074
51.55000 162.321
51.56000 160.303
51.57000 161.811
51.58000 167.283
51.59000 172.729
51.60000 173.632
51.61000 171.273
51.62000 168.963
51.63000 167.706
51.64000 166.981
51.65000 166.145
51.66000 163.771
51.67000 160.905
51.68000 158.646
51.69000 161.081
51.70000 164.505
51.71000 167.398
51.72000 163.422
51.73000 159.340
51.74000 156.725
51.75000 158.756
51.76000 161.129
51.77000 161.861
51.78000 159.104
51.79000 156.233
51.80000 154.547
51.81000 158.787
51.82000 161.804
51.83000 163.862
51.84000 165.052
51.85000 166.224
51.86000 166.284
51.87000 165.687
51.88000 165.111
51.89000 164.084
51.90000 162.949
51.91000 161.767
51.92000 160.100
51.93000 158.306
51.94000 157.146
51.95000 159.866
51.96000 163.246
51.97000 165.991
51.98000 165.046
51.99000 163.968
52.00000 162.478
52.01000 159.910
52.02000 157.285
52.03000 156.094
52.04000 157.418
52.05000 158.789
52.06000 159.522
52.07000 166.802
52.08000 171.741
52.09000 171.217
52.10000 166.690
52.11000 162.330
52.12000 163.522
52.13000 167.411
52.14000 171.106
52.15000 167.691
52.16000 162.397
52.17000 157.835
52.18000 159.078
52.19000 161.568
52.20000 162.847
52.21000 158.169
52.22000 152.689
52.23000 148.433
52.24000 153.309
52.25000 157.739
52.26000 160.766
52.27000 160.758
52.28000 160.645
52.29000 161.096
52.30000 162.356
52.31000 163.624
52.32000 162.398
52.33000 158.876
52.34000 155.405
52.35000 155.234
52.36000 157.044
52.37000 158.743
52.38000 158.071
52.39000 156.447
52.40000 154.936
52.41000 153.604
52.42000 152.444
52.43000 151.806
52.44000 154.430
52.45000 157.621
52.46000 160.312
52.47000 161.006
52.48000 161.490
52.49000 161.848
52.50000 162.420
52.51000 162.871
52.52000 161.949
52.53000 158.569
52.54000 155.140
52.55000 155.063
52.56000 158.914
52.57000 162.759
52.58000 164.934
52.59000 165.854
52.60000 166.696
52.61000 164.797
52.62000 161.539
52.63000 158.505
52.64000 158.761
52.65000 160.111
52.66000 161.337
52.67000 163.628
52.68000 165.858
52.69000 167.112
52.70000 163.461
52.71000 159.133
52.72000 156.006
52.73000 156.830
52.74000 157.964
52.75000 158.753
52.76000 157.755
52.77000 156.954
52.78000 157.005
52.79000 158.306
52.80000 159.618
52.81000 158.880
52.82000 156.211
52.83000 153.565
52.84000 153.139
52.85000 154.054
52.86000 154.963
52.87000 155.739
52.88000 156.462
52.89000 157.230
52.90000 158.507
52.91000 159.922
52.92000 161.171
52.93000 158.830
52.94000 156.260
52.95000 154.486
52.96000 155.966
52.97000 157.796
52.98000 159.379
52.99000 160.290
53.00000 161.163
53.01000 161.731
53.02000 157.589
53.03000 154.481
53.04000 152.964
53.05000 153.351
53.06000 153.742
53.07000 153.967
53.08000 154.064
53.09000 154.159
53.10000 156.124
53.11000 158.932
53.12000 161.708
53.13000 163.980
53.14000 166.083
53.15000 168.012
53.16000 168.495
53.17000 168.654
53.18000 168.791
53.19000 161.775
53.20000 155.015
53.21000 150.657
53.22000 154.358
53.23000 158.709
53.24000 162.482
53.25000 164.952
53.26000 167.374
53.27000 168.832
53.28000 167.857
53.29000 167.146
53.30000 165.511
53.31000 162.986
53.32000 160.509
53.33000 161.784
53.34000 165.399
53.35000 168.907
53.36000 165.475
53.37000 159.476
53.38000 154.070
53.39000 155.304
53.40000 158.390
53.41000 162.176
53.42000 170.538
53.43000 179.728
53.44000 187.285
53.45000 183.529
53.46000 179.419
53.47000 174.172
53.48000 165.778
53.49000 157.200
53.50000 152.510
53.51000 155.035
53.52000 157.722
53.53000 159.201
53.54000 159.715
53.55000 160.073
53.56000 161.683
53.57000 164.269
53.58000 166.768
53.59000 165.920
53.60000 163.349
53.61000 160.894
53.62000 161.008
53.63000 161.938
53.64000 162.959
53.65000 164.759
53.66000 166.736
53.67000 167.252
53.68000 160.116
53.69000 151.873
53.70000 145.383
53.71000 150.745
53.72000 155.832
53.73000 158.968
53.74000 157.636
53.75000 156.128
53.76000 156.860
53.77000 161.011
53.78000 165.199
53.79000 163.815
53.80000 156.949
53.81000 150.160
53.82000 149.692
53.83000 153.246
53.84000 156.747
53.85000 158.978
53.86000 160.668
53.87000 162.252
53.88000 156.182
53.89000 148.682
53.90000 142.898
53.91000 148.589
53.92000 156.405
53.93000 162.330
53.94000 160.215
53.95000 157.193
53.96000 154.927
53.97000 156.191
53.98000 157.344
53.99000 156.222
54.00000 150.796
54.01000 145.268
54.02000 144.512
54.03000 149.709
54.04000 154.913
54.05000 156.910
54.06000 156.363
54.07000 155.770
54.08000 153.317
54.09000 149.890
54.10000 146.818
54.11000 149.534
54.12000 154.284
54.13000 158.631
54.14000 156.747
54.15000 153.780
54.16000 151.195
54.17000 150.647
54.18000 150.401
54.19000 149.839
54.20000 148.172
54.21000 146.411
54.22000 145.164
54.23000 143.398
54.24000 142.039
54.25000 144.221
54.26000 151.917
54.27000 159.677
54.28000 162.262
54.29000 159.641
54.30000 157.038
54.31000 155.962
54.32000 155.879
54.33000 155.746
54.34000 154.394
54.35000 152.514
54.36000 150.712
54.37000 149.837
54.38000 149.231
54.39000 148.691
54.40000 154.983
54.41000 161.573
54.42000 165.964
54.43000 160.811
54.44000 154.553
54.45000 150.517
54.46000 152.866
54.47000 155.613
54.48000 157.437
54.49000 152.836
54.50000 149.317
54.51000 151.681
54.52000 161.535
54.53000 171.388
54.54000 170.942
54.55000 162.150
54.56000 153.488
54.57000 151.454
54.58000 152.916
54.59000 154.500
54.60000 158.151
54.61000 162.543
54.62000 166.634
54.63000 168.025
54.64000 168.774
54.65000 169.420
54.66000 163.144
54.67000 156.930
54.68000 152.406
54.69000 153.890
54.70000 155.903
54.71000 157.367
54.72000 157.525
54.73000 157.627
54.74000 157.691
54.75000 159.951
54.76000 161.593
54.77000 161.270
54.78000 158.927
54.79000 156.597
54.80000 155.561
54.81000 155.380
54.82000 155.203
54.83000 155.157
54.84000 155.168
54.85000 155.189
54.86000 155.328
54.87000 155.502
54.88000 155.712
54.89000 156.175
54.90000 156.687
54.91000 157.112
54.92000 155.341
54.93000 153.658
54.94000 152.975
54.95000 155.216
54.96000 157.647
54.97000 159.897
54.98000 161.795
54.99000 163.684
55.00000 164.753
55.01000 166.782
55.02000 168.193
55.03000 168.093
55.04000 166.744
55.05000 165.425
55.06000 165.553
55.07000 166.468
55.08000 167.346
55.09000 166.136
55.10000 164.292
55.11000 162.662
55.12000 163.000
55.13000 163.816
55.14000 164.461
55.15000 164.161
55.16000 163.715
55.17000 163.358
55.18000 163.407
55.19000 163.476
55.20000 163.829
55.21000 164.870
55.22000 165.942
55.23000 165.098
55.24000 161.152
55.25000 157.163
55.26000 155.119
55.27000 160.718
55.28000 164.475
55.29000 167.510
55.30000 170.057
55.31000 172.583
55.32000 174.533
55.33000 176.224
55.34000 177.818
55.35000 176.912
55.36000 175.394
55.37000 174.316
55.38000 176.394
55.39000 179.094
55.40000 180.811
55.41000 178.087
55.42000 174.821
55.43000 172.336
55.44000 185.672
55.45000 196.994
55.46000 202.645
55.47000 196.948
55.48000 190.933
55.49000 190.785
55.50000 198.410
55.51000 206.065
55.52000 211.981
55.53000 216.418
55.54000 220.835
55.55000 224.292
55.56000 227.218
55.57000 230.364
55.58000 237.489
55.59000 246.093
55.60000 254.025
55.61000 265.023
55.62000 275.550
55.63000 285.706
55.64000 293.747
55.65000 301.454
55.66000 311.272
55.67000 328.887
55.68000 347.230
55.69000 360.449
55.70000 378.860
55.71000 393.150
55.72000 410.360
55.73000 432.389
55.74000 454.488
55.75000 478.159
55.76000 503.516
55.77000 528.748
55.78000 553.013
55.79000 576.339
55.80000 599.711
55.81000 624.408
55.82000 649.710
55.83000 674.265
55.84000 689.135
55.85000 701.034
55.86000 711.720
55.87000 744.488
55.88000 777.048
55.89000 806.483
55.90000 821.515
55.91000 834.750
55.92000 847.931
55.93000 860.950
55.94000 873.958
55.95000 882.768
55.96000 896.786
55.97000 907.347
55.98000 914.841
55.99000 918.186
56.00000 921.500
56.01000 918.769
56.02000 910.825
56.03000 902.977
56.04000 893.232
56.05000 882.686
56.06000 871.290
56.07000 843.908
56.08000 810.472
56.09000 778.935
56.10000 765.834
56.11000 757.381
56.12000 750.017
56.13000 733.867
56.14000 718.852
56.15000 703.579
56.16000 687.332
56.17000 670.991
56.18000 649.742
56.19000 616.163
56.20000 581.990
56.21000 560.433
56.22000 531.549
56.23000 510.548
56.24000 491.439
56.25000 474.403
56.26000 457.374
56.27000 440.929
56.28000 424.894
56.29000 409.218
56.30000 393.129
56.31000 377.521
56.32000 361.986
56.33000 347.413
56.34000 333.141
56.35000 319.237
56.36000 308.094
56.37000 297.518
56.38000 288.619
56.39000 274.167
56.40000 261.523
56.41000 250.858
56.42000 246.326
56.43000 242.230
56.44000 239.122
56.45000 238.066
56.46000 237.074
56.47000 236.497
56.48000 226.926
56.49000 220.168
56.50000 216.335
56.51000 215.076
56.52000 213.734
56.53000 207.743
56.54000 199.073
56.55000 190.712
56.56000 182.898
56.57000 175.747
56.58000 169.296
56.59000 169.816
56.60000 172.129
56.61000 174.166
56.62000 174.561
56.63000 174.683
56.64000 174.782
56.65000 169.002
56.66000 163.828
56.67000 162.675
56.68000 171.811
56.69000 181.461
56.70000 185.605
56.71000 180.307
56.72000 174.849
56.73000 171.964
56.74000 169.620
56.75000 168.019
56.76000 165.126
56.77000 161.308
56.78000 157.643
56.79000 158.769
56.80000 162.173
56.81000 165.399
56.82000 164.413
56.83000 162.266
56.84000 160.210
56.85000 158.853
56.86000 157.642
56.87000 156.143
56.88000 153.268
56.89000 150.211
56.90000 147.851
56.91000 151.559
56.92000 154.852
56.93000 156.365
56.94000 154.113
56.95000 151.738
56.96000 151.488
56.97000 154.227
56.98000 156.986
56.99000 157.177
57.00000 155.062
57.01000 152.993
57.02000 153.684
57.03000 155.995
57.04000 158.099
57.05000 155.998
57.06000 152.243
57.07000 148.759
57.08000 151.704
57.09000 155.877
57.10000 159.219
57.11000 157.497
57.12000 154.919
57.13000 152.766
57.14000 152.277
57.15000 151.957
57.16000 151.722
57.17000 152.369
57.18000 152.903
57.19000 152.043
57.20000 148.745
57.21000 145.403
57.22000 144.436
57.23000 146.187
57.24000 147.935
57.25000 149.990
57.26000 152.251
57.27000 154.462
57.28000 155.020
57.29000 154.778
57.30000 154.568
57.31000 154.819
57.32000 155.220
57.33000 155.584
57.34000 148.904
57.35000 141.690
57.36000 136.350
57.37000 140.194
57.38000 145.269
57.39000 149.538
57.40000 151.212
57.41000 152.689
57.42000 153.709
57.43000 148.318
57.44000 144.102
57.45000 140.562
57.46000 137.990
57.47000 135.426
57.48000 134.205
57.49000 134.218
57.50000 134.230
57.51000 138.876
57.52000 146.140
57.53000 152.901
57.54000 149.071
57.55000 140.998
57.56000 133.751
57.57000 135.191
57.58000 138.954
57.59000 142.263
57.60000 143.900
57.61000 145.059
57.62000 146.139
57.63000 146.902
57.64000 147.631
57.65000 147.331
57.66000 144.292
57.67000 141.105
57.68000 139.051
57.69000 142.553
57.70000 145.190
57.71000 145.835
57.72000 144.154
57.73000 142.481
57.74000 143.169
57.75000 145.615
57.76000 148.014
57.77000 145.124
57.78000 139.824
57.79000 134.970
57.80000 136.646
57.81000 140.485
57.82000 144.104
57.83000 145.948
57.84000 147.403
57.85000 148.641
57.86000 148.734
57.87000 148.680
57.88000 148.491
57.89000 147.858
57.90000 147.191
57.91000 145.307
57.92000 140.753
57.93000 136.104
57.94000 133.333
57.95000 133.770
57.96000 134.100
57.97000 136.605
57.98000 141.152
57.99000 145.670
58.00000 148.193
58.01000 149.499
58.02000 150.764
58.03000 148.366
58.04000 144.685
58.05000 141.243
58.06000 140.399
58.07000 140.264
58.08000 140.101
58.09000 139.768
58.10000 139.405
58.11000 139.107
58.12000 138.727
58.13000 138.408
58.14000 138.275
58.15000 138.649
58.16000 139.050
58.17000 138.771
58.18000 137.256
58.19000 135.715
58.20000 134.877
58.21000 140.160
58.22000 143.775
58.23000 143.604
58.24000 140.555
58.25000 137.599
58.26000 137.994
58.27000 140.075
58.28000 142.058
58.29000 140.664
58.30000 138.316
58.31000 136.141
58.32000 135.401
58.33000 134.981
58.34000 134.983
58.35000 137.143
58.36000 139.607
58.37000 141.536
58.38000 145.971
58.39000 149.676
58.40000 152.286
58.41000 152.448
58.42000 152.519
58.43000 148.880
58.44000 139.705
58.45000 130.478
58.46000 129.396
58.47000 136.125
58.48000 142.790
58.49000 144.666
58.50000 143.565
58.51000 142.443
58.52000 140.854
58.53000 139.071
58.54000 137.406
58.55000 140.406
58.56000 144.303
58.57000 147.113
58.58000 142.839
58.59000 137.288
58.60000 133.376
58.61000 136.273
58.62000 139.915
58.63000 142.628
58.64000 141.355
58.65000 140.186
58.66000 138.636
58.67000 136.382
58.68000 134.112
58.69000 134.433
58.70000 137.905
58.71000 141.377
58.72000 141.460
58.73000 138.931
58.74000 136.445
58.75000 135.592
58.76000 135.575
58.77000 135.588
58.78000 136.055
58.79000 136.679
58.80000 137.248
58.81000 133.390
58.82000 129.075
58.83000 125.939
58.84000 128.949
58.85000 132.844
58.86000 136.730
58.87000 140.585
58.88000 144.439
58.89000 147.148
58.90000 139.686
58.91000 133.731
58.92000 131.631
58.93000 135.393
58.94000 139.217
58.95000 138.610
58.96000 133.660
58.97000 128.747
58.98000 127.060
58.99000 127.412
59.00000 127.799
59.01000 129.022
59.02000 130.599
59.03000 132.079
59.04000 132.438
59.05000 132.480
59.06000 132.517
59.07000 128.633
59.08000 124.640
59.09000 122.161
59.10000 126.091
59.11000 130.741
59.12000 134.444
59.13000 135.484
59.14000 136.364
59.15000 136.944
59.16000 138.101
59.17000 138.963
59.18000 139.145
59.19000 138.481
59.20000 137.810
59.21000 136.081
59.22000 133.515
59.23000 130.989
59.24000 131.944
59.25000 134.631
59.26000 136.944
59.27000 133.208
59.28000 127.355
59.29000 122.711
59.30000 128.604
59.31000 136.943
59.32000 144.109
59.33000 141.272
59.34000 137.625
59.35000 134.667
59.36000 134.099
59.37000 133.735
59.38000 132.788
59.39000 130.486
59.40000 128.130
59.41000 126.690
59.42000 129.905
59.43000 132.243
59.44000 132.672
59.45000 131.191
59.46000 129.709
59.47000 128.269
59.48000 126.856
59.49000 125.481
59.50000 125.527
59.51000 126.153
59.52000 127.077
59.53000 131.512
59.54000 136.961
59.55000 141.327
59.56000 138.307
59.57000 133.895
59.58000 130.242
59.59000 130.144
59.60000 130.400
59.61000 130.875
59.62000 131.971
59.63000 133.106
59.64000 133.889
59.65000 133.998
59.66000 134.090
59.67000 134.142
59.68000 136.277
59.69000 137.749
59.70000 134.806
59.71000 128.299
59.72000 121.985
59.73000 124.006
59.74000 130.462
59.75000 136.646
59.76000 137.463
59.77000 136.439
59.78000 135.358
59.79000 133.770
59.80000 132.062
59.81000 130.572
59.82000 130.265
59.83000 130.136
59.84000 130.034
59.85000 130.181
59.86000 130.318
59.87000 129.718
59.88000 127.378
59.89000 124.963
59.90000 122.606
59.91000 120.340
59.92000 118.074
59.93000 116.928
59.94000 123.200
59.95000 127.367
59.96000 128.645
59.97000 128.018
59.98000 127.476
59.99000 129.112
60.00000 131.707
60.01000 134.147
60.02000 133.686
60.03000 132.486
60.04000 131.667
60.05000 133.506
60.06000 135.855
60.07000 137.752
60.08000 137.649
60.09000 137.310
60.10000 137.053
60.11000 140.061
60.12000 142.584
60.13000 142.876
60.14000 138.801
60.15000 134.611
60.16000 131.634
60.17000 130.225
60.18000 128.825
60.19000 129.850
60.20000 132.864
60.21000 135.789
60.22000 134.634
60.23000 131.267
60.24000 128.022
60.25000 126.875
60.26000 126.492
60.27000 126.139
60.28000 125.844
60.29000 125.592
60.30000 125.882
60.31000 129.186
60.32000 132.954
60.33000 135.144
60.34000 131.641
60.35000 127.625
60.36000 124.749
60.37000 127.938
60.38000 130.578
60.39000 131.085
60.40000 128.152
60.41000 125.173
60.42000 126.125
60.43000 131.192
60.44000 136.231
60.45000 136.876
60.46000 134.598
60.47000 132.448
60.48000 133.752
60.49000 136.604
60.50000 138.919
60.51000 134.541
60.52000 128.154
60.53000 122.436
60.54000 122.818
60.55000 124.195
60.56000 125.469
60.57000 126.274
60.58000 127.022
60.59000 127.666
60.60000 127.999
60.61000 128.311
60.62000 128.522
60.63000 130.899
60.64000 132.709
60.65000 133.296
60.66000 132.269
60.67000 131.239
60.68000 133.228
60.69000 137.757
60.70000 142.226
60.71000 138.881
60.72000 131.425
60.73000 124.412
60.74000 125.374
60.75000 129.289
60.76000 132.994
60.77000 134.722
60.78000 135.963
60.79000 137.040
60.80000 130.164
60.81000 123.237
60.82000 118.523
60.83000 121.957
60.84000 126.146
60.85000 128.424
60.86000 126.006
60.87000 123.373
60.88000 121.726
60.89000 130.655
60.90000 137.209
60.91000 140.162
60.92000 139.266
60.93000 138.347
60.94000 134.788
60.95000 129.422
60.96000 124.182
60.97000 122.328
60.98000 122.032
60.99000 122.017
61.00000 125.609
61.01000 130.305
61.02000 134.539
61.03000 135.393
61.04000 135.569
61.05000 135.716
61.06000 131.079
61.07000 126.730
61.08000 124.175
61.09000 127.058
61.10000 130.313
61.11000 133.352
61.12000 135.953
61.13000 138.540
61.14000 140.029
61.15000 140.793
61.16000 141.322
61.17000 139.717
61.18000 136.278
61.19000 132.815
61.20000 128.141
61.21000 122.785
61.22000 117.629
61.23000 121.260
61.24000 127.779
61.25000 134.392
61.26000 141.898
61.27000 149.630
61.28000 155.330
61.29000 149.237
61.30000 141.244
61.31000 134.815
61.32000 130.513
61.33000 127.189
61.34000 125.419
61.35000 127.540
61.36000 129.847
61.37000 132.050
61.38000 134.079
61.39000 136.105
61.40000 137.163
61.41000 131.936
61.42000 128.426
61.43000 128.585
61.44000 131.308
61.45000 134.054
61.46000 137.516
61.47000 141.310
61.48000 144.897
61.49000 149.439
61.50000 153.885
61.51000 157.889
61.52000 158.586
61.53000 158.607
61.54000 160.687
61.55000 172.420
61.56000 185.381
61.57000 195.331
61.58000 201.111
61.59000 205.448
61.60000 212.575
61.61000 225.481
61.62000 238.564
61.63000 245.863
61.64000 245.214
61.65000 244.517
61.66000 245.778
61.67000 248.752
61.68000 251.700
61.69000 253.225
61.70000 253.935
61.71000 254.584
61.72000 254.076
61.73000 253.123
61.74000 252.240
61.75000 248.891
61.76000 245.312
61.77000 241.095
61.78000 233.097
61.79000 224.475
61.80000 215.082
61.81000 202.740
61.82000 190.108
61.83000 180.912
61.84000 167.535
61.85000 157.078
61.86000 148.757
61.87000 144.086
61.88000 139.476
61.89000 136.970
61.90000 136.811
61.91000 136.654
61.92000 138.104
61.93000 140.676
61.94000 143.197
61.95000 144.117
61.96000 144.280
61.97000 144.264
61.98000 141.792
61.99000 138.542
62.00000 135.608
62.01000 136.824
62.02000 138.655
62.03000 140.053
62.04000 139.383
62.05000 138.443
62.06000 137.496
62.07000 136.528
62.08000 135.559
62.09000 134.894
62.10000 139.746
62.11000 143.513
62.12000 142.892
62.13000 136.122
62.14000 129.313
62.15000 126.844
62.16000 128.262
62.17000 129.665
62.18000 131.462
62.19000 133.443
62.20000 135.477
62.21000 138.553
62.22000 142.039
62.23000 144.901
62.24000 141.417
62.25000 136.275
62.26000 131.770
62.27000 133.467
62.28000 135.819
62.29000 137.392
62.30000 135.924
62.31000 134.150
62.32000 133.353
62.33000 135.099
62.34000 136.977
62.35000 138.177
62.36000 136.081
62.37000 134.512
62.38000 132.914
62.39000 131.284
62.40000 129.688
62.41000 133.695
62.42000 141.777
62.43000 149.696
62.44000 149.589
62.45000 145.760
62.46000 141.802
62.47000 136.005
62.48000 129.614
62.49000 123.994
62.50000 124.431
62.51000 126.159
62.52000 127.623
62.53000 133.011
62.54000 137.963
62.55000 142.396
62.56000 145.165
62.57000 147.810
62.58000 149.256
62.59000 148.127
62.60000 146.911
62.61000 146.193
62.62000 142.923
62.63000 140.599
62.64000 137.936
62.65000 134.961
62.66000 132.027
62.67000 131.673
62.68000 132.859
62.69000 134.005
62.70000 137.031
62.71000 140.596
62.72000 143.805
62.73000 143.298
62.74000 141.801
62.75000 140.351
62.76000 139.195
62.77000 138.090
62.78000 137.190
62.79000 132.450
62.80000 128.254
62.81000 126.494
62.82000 131.184
62.83000 136.220
62.84000 140.476
62.85000 143.351
62.86000 146.199
62.87000 147.731
62.88000 141.463
62.89000 137.196
62.90000 137.541
62.91000 141.307
62.92000 144.964
62.93000 144.876
62.94000 142.945
62.95000 141.110
62.96000 138.613
62.97000 136.102
62.98000 134.103
62.99000 136.215
63.00000 139.221
63.01000 142.570
63.02000 147.625
63.03000 152.913
63.04000 157.032
63.05000 149.297
63.06000 142.404
63.07000 139.642
63.08000 145.924
63.09000 152.525
63.10000 154.696
63.11000 150.407
63.12000 146.064
63.13000 141.829
63.14000 137.698
63.15000 133.666
63.16000 136.464
63.17000 143.412
63.18000 149.937
63.19000 147.263
63.20000 140.849
63.21000 134.872
63.22000 136.296
63.23000 139.404
63.24000 142.223
63.25000 143.203
63.26000 143.861
63.27000 144.418
63.28000 144.568
63.29000 144.674
63.30000 144.753
63.31000 140.807
63.32000 137.573
63.33000 136.713
63.34000 140.149
63.35000 143.672
63.36000 146.804
63.37000 149.470
63.38000 152.128
63.39000 153.098
63.40000 152.791
63.41000 152.451
63.42000 150.867
63.43000 148.661
63.44000 146.478
63.45000 144.633
63.46000 142.902
63.47000 141.327
63.48000 144.076
63.49000 147.358
63.50000 149.105
63.51000 143.048
63.52000 135.898
63.53000 131.526
63.54000 136.407
63.55000 142.027
63.56000 145.951
63.57000 147.554
63.58000 148.700
63.59000 149.849
63.60000 151.005
63.61000 152.160
63.62000 152.540
63.63000 152.179
63.64000 151.821
63.65000 152.358
63.66000 153.430
63.67000 154.499
63.68000 155.520
63.69000 156.519
63.70000 157.179
63.71000 154.078
63.72000 149.935
63.73000 146.271
63.74000 147.830
63.75000 149.988
63.76000 151.452
63.77000 150.043
63.78000 148.321
63.79000 148.681
63.80000 154.761
63.81000 161.170
63.82000 165.356
63.83000 160.885
63.84000 157.464
63.85000 154.636
63.86000 152.528
63.87000 150.429
63.88000 150.158
63.89000 151.298
63.90000 152.419
63.91000 152.797
63.92000 152.796
63.93000 152.793
63.94000 152.769
63.95000 152.737
63.96000 152.900
63.97000 154.704
63.98000 156.879
63.99000 158.742
64.00000 159.515
64.01000 160.035
64.02000 159.495
64.03000 155.359
64.04000 150.926
64.05000 147.849
64.06000 147.854
64.07000 147.978
64.08000 148.053
64.09000 155.742
64.10000 161.277
64.11000 163.293
64.12000 161.874
64.13000 160.468
64.14000 160.093
64.15000 160.370
64.16000 160.639
64.17000 158.785
64.18000 156.173
64.19000 153.735
64.20000 153.269
64.21000 153.358
64.22000 153.945
64.23000 157.832
64.24000 162.324
64.25000 166.027
64.26000 164.950
64.27000 163.624
64.28000 161.900
64.29000 159.063
64.30000 156.160
64.31000 154.020
64.32000 153.313
64.33000 152.639
64.34000 152.266
64.35000 152.053
64.36000 151.910
64.37000 152.713
64.38000 154.263
64.39000 155.845
64.40000 158.747
64.41000 162.335
64.42000 165.766
64.43000 164.981
64.44000 162.880
64.45000 161.154
64.46000 162.667
64.47000 164.929
64.48000 166.536
64.49000 164.671
64.50000 162.296
64.51000 160.422
64.52000 163.006
64.53000 165.383
64.54000 165.737
64.55000 161.408
64.56000 156.890
64.57000 155.794
64.58000 159.987
64.59000 164.239
64.60000 166.433
64.61000 166.572
64.62000 166.721
64.63000 167.652
64.64000 169.087
64.65000 170.528
64.66000 172.087
64.67000 173.698
64.68000 175.209
64.69000 176.844
64.70000 178.366
64.71000 180.101
64.72000 183.280
64.73000 186.731
64.74000 187.899
64.75000 179.244
64.76000 169.462
64.77000 162.108
64.78000 164.205
64.79000 166.300
64.80000 168.710
64.81000 171.724
64.82000 174.753
64.83000 175.071
64.84000 171.965
64.85000 168.853
64.86000 165.433
64.87000 161.781
64.88000 158.267
64.89000 160.637
64.90000 166.127
64.91000 171.596
64.92000 176.723
64.93000 181.727
64.94000 186.314
64.95000 188.741
64.96000 190.448
64.97000 190.942
64.98000 184.863
64.99000 177.798
65.00000 173.807
65.01000 180.658
65.02000 188.455
65.03000 193.998
65.04000 188.538
65.05000 184.030
65.06000 182.377
65.07000 185.225
65.08000 188.129
65.09000 192.709
65.10000 198.998
65.11000 205.248
65.12000 209.964
65.13000 213.620
65.14000 217.061
65.15000 214.988
65.16000 210.498
65.17000 206.464
65.18000 207.913
65.19000 210.971
65.20000 213.700
65.21000 213.467
65.22000 212.770
65.23000 212.224
65.24000 212.340
65.25000 212.532
65.26000 213.362
65.27000 216.043
65.28000 218.843
65.29000 220.709
65.30000 228.238
65.31000 233.922
65.32000 236.771
65.33000 235.965
65.34000 235.154
65.35000 238.119
65.36000 244.183
65.37000 250.161
65.38000 252.175
65.39000 252.052
65.40000 252.223
65.41000 257.488
65.42000 264.598
65.43000 271.677
65.44000 278.473
65.45000 285.200
65.46000 291.016
65.47000 291.173
65.48000 290.567
65.49000 290.813
65.50000 294.120
65.51000 297.702
65.52000 301.540
65.53000 305.993
65.54000 310.473
65.55000 313.248
65.56000 316.260
65.57000 318.428
65.58000 323.484
65.59000 331.549
65.60000 339.589
65.61000 344.979
65.62000 348.595
65.63000 352.121
65.64000 356.201
65.65000 360.332
65.66000 365.530
65.67000 383.989
65.68000 406.413
65.69000 431.458
65.70000 475.123
65.71000 522.431
65.72000 561.883
65.73000 610.430
65.74000 651.590
65.75000 696.716
65.76000 753.585
65.77000 811.228
65.78000 858.045
65.79000 883.353
65.80000 908.072
65.81000 922.141
65.82000 961.990
65.83000 989.837
65.84000 1013.278
65.85000 1033.027
65.86000 1052.462
65.87000 1056.811
65.88000 1052.856
65.89000 1049.055
65.90000 1033.609
65.91000 1015.125
65.92000 996.055
65.93000 971.505
65.94000 945.610
65.95000 916.607
65.96000 870.023
65.97000 820.680
65.98000 781.197
65.99000 701.985
66.00000 634.969
66.01000 572.999
66.02000 523.380
66.03000 474.324
66.04000 434.662
66.05000 410.385
66.06000 386.331
66.07000 373.926
66.08000 345.459
66.09000 326.381
66.10000 318.789
66.11000 319.039
66.12000 319.166
66.13000 315.849
66.14000 310.966
66.15000 306.358
66.16000 298.904
66.17000 291.276
66.18000 284.204
66.19000 281.171
66.20000 278.944
66.21000 278.871
66.22000 288.646
66.23000 299.638
66.24000 308.028
66.25000 321.182
66.26000 331.804
66.27000 340.644
66.28000 345.875
66.29000 351.003
66.30000 358.488
66.31000 369.137
66.32000 379.793
66.33000 383.296
66.34000 380.683
66.35000 378.305
66.36000 387.889
66.37000 404.185
66.38000 419.640
66.39000 419.516
66.40000 413.532
66.41000 408.008
66.42000 413.002
66.43000 419.839
66.44000 426.311
66.45000 430.674
66.46000 434.698
66.47000 437.819
66.48000 437.564
66.49000 436.989
66.50000 436.573
66.51000 410.889
66.52000 390.258
66.53000 372.995
66.54000 361.356
66.55000 349.804
66.56000 342.030
66.57000 338.365
66.58000 334.719
66.59000 330.828
66.60000 326.810
66.61000 322.861
66.62000 320.929
66.63000 319.932
66.64000 318.533
66.65000 311.826
66.66000 303.470
66.67000 295.954
66.68000 297.932
66.69000 301.363
66.70000 304.278
66.71000 304.789
66.72000 304.996
66.73000 304.554
66.74000 302.121
66.75000 299.547
66.76000 297.797
66.77000 295.366
66.78000 293.536
66.79000 292.663
66.80000 293.098
66.81000 293.543
66.82000 295.585
66.83000 299.023
66.84000 302.420
66.85000 308.457
66.86000 315.822
66.87000 322.719
66.88000 320.631
66.89000 315.101
66.90000 310.188
66.91000 311.369
66.92000 314.105
66.93000 316.494
66.94000 329.909
66.95000 342.936
66.96000 350.558
66.97000 337.578
66.98000 322.589
66.99000 314.452
67.00000 323.730
67.01000 333.866
67.02000 340.290
67.03000 339.406
67.04000 338.676
67.05000 338.694
67.06000 339.545
67.07000 340.414
67.08000 343.836
67.09000 349.071
67.10000 354.193
67.11000 354.514
67.12000 352.647
67.13000 351.194
67.14000 355.381
67.15000 361.353
67.16000 365.586
67.17000 356.560
67.18000 344.774
67.19000 334.834
67.20000 339.179
67.21000 344.355
67.22000 348.606
67.23000 349.954
67.24000 351.092
67.25000 354.250
67.26000 361.651
67.27000 369.188
67.28000 373.592
67.29000 374.447
67.30000 375.031
67.31000 375.001
67.32000 374.424
67.33000 373.825
67.34000 371.917
67.35000 369.246
67.36000 366.668
67.37000 369.538
67.38000 374.244
67.39000 378.763
67.40000 381.386
67.41000 383.515
67.42000 385.612
67.43000 387.507
67.44000 389.369
67.45000 390.878
67.46000 397.376
67.47000 403.077
67.48000 406.031
67.49000 401.873
67.50000 397.350
67.51000 399.462
67.52000 413.083
67.53000 426.909
67.54000 434.261
67.55000 414.528
67.56000 401.150
67.57000 399.414
67.58000 406.111
67.59000 412.663
67.60000 414.505
67.61000 414.083
67.62000 413.683
67.63000 416.695
67.64000 420.490
67.65000 424.042
67.66000 425.699
67.67000 426.953
67.68000 428.169
67.69000 429.200
67.70000 430.206
67.71000 430.984
67.72000 431.122
67.73000 431.193
67.74000 432.532
67.75000 436.588
67.76000 440.735
67.77000 444.682
67.78000 448.345
67.79000 452.005
67.80000 456.912
67.81000 462.950
67.82000 468.795
67.83000 462.591
67.84000 449.229
67.85000 436.927
67.86000 446.610
67.87000 465.038
67.88000 482.166
67.89000 483.857
67.90000 481.686
67.91000 479.862
67.92000 480.188
67.93000 480.882
67.94000 482.163
67.95000 485.773
67.96000 489.623
67.97000 492.454
67.98000 486.609
67.99000 481.731
68.00000 482.811
68.01000 494.424
68.02000 506.239
68.03000 514.607
68.04000 518.983
68.05000 523.341
68.06000 529.271
68.07000 536.308
68.08000 543.093
68.09000 541.319
68.10000 535.350
68.11000 529.602
68.12000 527.059
68.13000 525.570
68.14000 524.219
68.15000 531.614
68.16000 539.812
68.17000 548.054
68.18000 556.514
68.19000 565.005
68.20000 568.778
68.21000 557.196
68.22000 544.430
68.23000 535.582
68.24000 550.501
68.25000 562.358
68.26000 570.943
68.27000 574.774
68.28000 578.565
68.29000 582.442
68.30000 586.400
68.31000 590.321
68.32000 596.150
68.33000 602.996
68.34000 609.771
68.35000 615.025
68.36000 619.662
68.37000 624.109
68.38000 626.519
68.39000 628.377
68.40000 630.015
68.41000 645.760
68.42000 661.458
68.43000 674.049
68.44000 674.083
68.45000 672.789
68.46000 675.756
68.47000 690.174
68.48000 705.222
68.49000 714.969
68.50000 714.603
68.51000 714.184
68.52000 723.137
68.53000 743.175
68.54000 763.212
68.55000 778.990
68.56000 791.558
68.57000 803.895
68.58000 823.633
68.59000 846.238
68.60000 869.722
68.61000 906.362
68.62000 947.409
68.63000 988.295
68.64000 1027.870
68.65000 1067.154
68.66000 1100.640
68.67000 1153.430
68.68000 1200.102
68.69000 1248.370
68.70000 1301.936
68.71000 1355.924
68.72000 1404.546
68.73000 1441.242
68.74000 1477.500
68.75000 1499.226
68.76000 1571.856
68.77000 1623.766
68.78000 1675.626
68.79000 1727.438
68.80000 1779.371
68.81000 1840.122
68.82000 1906.316
68.83000 1970.486
68.84000 2068.678
68.85000 2174.983
68.86000 2285.575
68.87000 2443.360
68.88000 2614.164
68.89000 2817.414
68.90000 3230.109
68.91000 3680.293
68.92000 4049.641
68.93000 5437.034
68.94000 6666.253
68.95000 8288.219
68.96000 10985.656
68.97000 13744.521
68.98000 17004.602
68.99000 21185.049
69.00000 25385.375
69.01000 27685.328
69.02000 33576.883
69.03000 37629.934
69.04000 40924.500
69.05000 43635.574
69.06000 46317.289
69.07000 47892.227
69.08000 48904.066
69.09000 49869.391
69.10000 50323.508
69.11000 50583.082
69.12000 50857.988
69.13000 51261.863
69.14000 51694.855
69.15000 52159.098
69.16000 52785.051
69.17000 53434.074
69.18000 53943.789
69.19000 53476.824
69.20000 53039.195
69.21000 52069.633
69.22000 49895.457
69.23000 47675.156
69.24000 45083.848
69.25000 41932.117
69.26000 38774.781
69.27000 36099.684
69.28000 33893.434
69.29000 31694.607
69.30000 30079.104
69.31000 28830.705
69.32000 27602.689
69.33000 26851.084
69.34000 26299.867
69.35000 25784.199
69.36000 25077.059
69.37000 24385.730
69.38000 23608.660
69.39000 22265.453
69.40000 20818.723
69.41000 19259.563
69.42000 17227.699
69.43000 15143.219
69.44000 13585.776
69.45000 11032.986
69.46000 8996.998
69.47000 7244.658
69.48000 6023.103
69.49000 4813.713
69.50000 3884.368
69.51000 3300.235
69.52000 2718.184
69.53000 2332.528
69.54000 2102.224
69.55000 1873.795
69.56000 1719.989
69.57000 1604.869
69.58000 1492.133
69.59000 1417.533
69.60000 1356.195
69.61000 1300.140
69.62000 1244.101
69.63000 1194.328
69.64000 1146.026
69.65000 1105.502
69.66000 1066.113
69.67000 1030.091
69.68000 1005.680
69.69000 982.247
69.70000 965.708
69.71000 949.997
69.72000 938.100
69.73000 920.102
69.74000 892.711
69.75000 865.215
69.76000 843.532
69.77000 827.623
69.78000 811.826
69.79000 793.624
69.80000 774.191
69.81000 755.205
69.82000 747.067
69.83000 743.580
69.84000 739.253
69.85000 725.150
69.86000 708.244
69.87000 693.214
69.88000 698.816
69.89000 707.021
69.90000 712.435
69.91000 705.876
69.92000 697.950
69.93000 690.039
69.94000 682.170
69.95000 674.303
69.96000 669.100
69.97000 656.096
69.98000 646.360
69.99000 638.375
70.00000 632.593
