20.00000 548.890
20.01000 549.300
20.02000 549.769
20.03000 550.692
20.04000 553.364
20.05000 556.210
20.06000 558.288
20.07000 559.126
20.08000 559.724
20.09000 560.415
20.10000 561.267
20.11000 562.123
20.12000 564.115
20.13000 567.390
20.14000 570.654
20.15000 565.026
20.16000 553.104
20.17000 541.652
20.18000 545.194
20.19000 555.907
20.20000 565.705
20.21000 562.756
20.22000 555.719
20.23000 549.359
20.24000 549.742
20.25000 551.330
20.26000 553.575
20.27000 558.993
20.28000 564.828
20.29000 568.129
20.30000 563.375
20.31000 558.023
20.32000 554.344
20.33000 547.284
20.34000 541.904
20.35000 538.495
20.36000 537.877
20.37000 537.279
20.38000 536.114
20.39000 534.435
20.40000 532.773
20.41000 539.610
20.42000 551.211
20.43000 562.507
20.44000 567.557
20.45000 570.136
20.46000 571.840
20.47000 564.494
20.48000 554.760
20.49000 546.216
20.50000 547.003
20.51000 549.046
20.52000 550.364
20.53000 548.831
20.54000 547.007
20.55000 545.110
20.56000 543.023
20.57000 540.925
20.58000 539.580
20.59000 537.869
20.60000 536.617
20.61000 538.034
20.62000 542.526
20.63000 547.013
20.64000 549.952
20.65000 551.753
20.66000 553.519
20.67000 550.819
20.68000 546.126
20.69000 541.986
20.70000 545.798
20.71000 552.210
20.72000 557.013
20.73000 549.030
20.74000 538.290
20.75000 529.177
20.76000 536.786
20.77000 545.062
20.78000 551.265
20.79000 550.757
20.80000 549.735
20.81000 548.528
20.82000 546.921
20.83000 545.300
20.84000 544.338
20.85000 538.419
20.86000 534.206
20.87000 535.830
20.88000 542.854
20.89000 549.797
20.90000 551.492
20.91000 550.025
20.92000 548.605
20.93000 546.511
20.94000 544.275
20.95000 542.053
20.96000 539.982
20.97000 537.951
20.98000 535.427
20.99000 529.806
21.00000 523.647
21.01000 518.619
21.02000 531.022
21.03000 542.664
21.04000 549.442
21.05000 543.221
21.06000 536.290
21.07000 536.904
21.08000 551.037
21.09000 565.440
21.10000 573.229
21.11000 552.680
21.12000 538.617
21.13000 531.831
21.14000 530.501
21.15000 529.231
21.16000 530.067
21.17000 531.950
21.18000 533.742
21.19000 540.682
21.20000 548.696
21.21000 555.384
21.22000 551.277
21.23000 544.797
21.24000 538.816
21.25000 535.354
21.26000 532.242
21.27000 529.812
21.28000 528.923
21.29000 528.311
21.30000 530.750
21.31000 539.935
21.32000 549.363
21.33000 552.992
21.34000 548.080
21.35000 543.091
21.36000 544.624
21.37000 552.318
21.38000 559.850
21.39000 555.847
21.40000 544.764
21.41000 534.002
21.42000 530.380
21.43000 529.690
21.44000 529.047
21.45000 533.240
21.46000 538.240
21.47000 543.008
21.48000 546.283
21.49000 549.292
21.50000 550.860
21.51000 546.523
21.52000 541.549
21.53000 537.858
21.54000 536.642
21.55000 535.805
21.56000 538.633
21.57000 548.154
21.58000 557.817
21.59000 555.708
21.60000 539.466
21.61000 523.236
21.62000 524.827
21.63000 539.953
21.64000 554.800
21.65000 559.267
21.66000 558.483
21.67000 557.464
21.68000 552.856
21.69000 547.029
21.70000 541.722
21.71000 545.034
21.72000 549.680
21.73000 552.381
21.74000 545.074
21.75000 536.348
21.76000 532.193
21.77000 543.411
21.78000 555.878
21.79000 564.609
21.80000 566.623
21.81000 567.954
21.82000 569.832
21.83000 572.530
21.84000 575.236
21.85000 582.205
21.86000 593.290
21.87000 604.288
21.88000 616.107
21.89000 628.225
21.90000 639.746
21.91000 637.488
21.92000 629.466
21.93000 622.385
21.94000 625.883
21.95000 632.338
21.96000 638.056
21.97000 648.567
21.98000 658.415
21.99000 665.671
22.00000 662.094
22.01000 657.319
22.02000 654.777
22.03000 658.431
22.04000 662.447
22.05000 665.080
22.06000 673.827
22.07000 680.359
22.08000 688.496
22.09000 698.598
22.10000 708.659
22.11000 706.411
22.12000 694.557
22.13000 682.899
22.14000 675.701
22.15000 670.960
22.16000 665.899
22.17000 655.757
22.18000 643.856
22.19000 632.817
22.20000 629.148
22.21000 627.168
22.22000 625.470
22.23000 632.234
22.24000 638.984
22.25000 641.111
22.26000 627.389
22.27000 612.342
22.28000 601.325
22.29000 599.556
22.30000 598.152
22.31000 597.299
22.32000 595.063
22.33000 593.456
22.34000 594.749
22.35000 598.906
22.36000 602.958
22.37000 598.323
22.38000 588.146
22.39000 578.257
22.40000 574.409
22.41000 573.200
22.42000 571.855
22.43000 568.951
22.44000 565.602
22.45000 562.421
22.46000 560.366
22.47000 558.520
22.48000 556.995
22.49000 557.664
22.50000 558.419
22.51000 557.492
22.52000 551.806
22.53000 545.832
22.54000 541.977
22.55000 542.142
22.56000 542.403
22.57000 542.549
22.58000 555.556
22.59000 564.547
22.60000 563.919
22.61000 555.630
22.62000 547.371
22.63000 540.325
22.64000 533.917
22.65000 527.786
22.66000 529.289
22.67000 533.194
22.68000 535.424
22.69000 522.941
22.70000 507.020
22.71000 494.760
22.72000 502.136
22.73000 512.427
22.74000 520.571
22.75000 519.287
22.76000 517.602
22.77000 518.981
22.78000 527.520
22.79000 536.354
22.80000 535.094
22.81000 518.070
22.82000 500.861
22.83000 492.218
22.84000 496.459
22.85000 499.295
22.86000 502.527
22.87000 506.016
22.88000 509.558
22.89000 514.398
22.90000 519.802
22.91000 524.875
22.92000 514.253
22.93000 500.408
22.94000 488.126
22.95000 486.577
22.96000 487.064
22.97000 488.807
22.98000 496.018
22.99000 503.863
23.00000 509.777
23.01000 510.308
23.02000 510.459
23.03000 510.711
23.04000 511.156
23.05000 511.607
23.06000 505.094
23.07000 489.692
23.08000 474.281
23.09000 473.594
23.10000 484.834
23.11000 495.803
23.12000 494.895
23.13000 487.628
23.14000 480.694
23.15000 479.391
23.16000 480.111
23.17000 480.772
23.18000 490.282
23.19000 500.641
23.20000 509.400
23.21000 509.383
23.22000 508.035
23.23000 507.255
23.24000 508.497
23.25000 509.919
23.26000 510.932
23.27000 503.255
23.28000 497.116
23.29000 491.874
23.30000 488.059
23.31000 484.261
23.32000 483.524
23.33000 485.941
23.34000 488.343
23.35000 489.407
23.36000 489.582
23.37000 489.790
23.38000 490.906
23.39000 492.422
23.40000 493.813
23.41000 493.653
23.42000 493.035
23.43000 492.483
23.44000 493.519
23.45000 494.691
23.46000 495.321
23.47000 493.550
23.48000 491.493
23.49000 488.586
23.50000 483.180
23.51000 477.612
23.52000 473.887
23.53000 475.084
23.54000 476.069
23.55000 480.430
23.56000 489.191
23.57000 497.956
23.58000 500.123
23.59000 496.816
23.60000 493.554
23.61000 494.459
23.62000 497.550
23.63000 500.365
23.64000 498.331
23.65000 494.522
23.66000 491.569
23.67000 496.528
23.68000 503.410
23.69000 509.370
23.70000 504.574
23.71000 499.072
23.72000 494.697
23.73000 494.409
23.74000 494.494
23.75000 492.294
23.76000 484.550
23.77000 476.558
23.78000 471.587
23.79000 470.484
23.80000 469.729
23.81000 476.275
23.82000 490.517
23.83000 504.612
23.84000 502.490
23.85000 489.401
23.86000 476.632
23.87000 476.648
23.88000 482.170
23.89000 488.114
23.90000 499.398
23.91000 512.294
23.92000 522.746
23.93000 515.622
23.94000 505.024
23.95000 496.167
23.96000 493.783
23.97000 492.461
23.98000 491.033
23.99000 489.288
24.00000 487.522
24.01000 485.834
24.02000 484.302
24.03000 482.774
24.04000 481.900
24.05000 482.130
24.06000 482.297
24.07000 484.807
24.08000 489.300
24.09000 493.604
24.10000 488.494
24.11000 478.151
24.12000 468.206
24.13000 474.630
24.14000 486.368
24.15000 496.944
24.16000 496.497
24.17000 493.317
24.18000 490.303
24.19000 488.238
24.20000 486.324
24.21000 484.789
24.22000 489.461
24.23000 493.715
24.24000 495.349
24.25000 490.505
24.26000 485.361
24.27000 480.919
24.28000 477.639
24.29000 474.376
24.30000 472.684
24.31000 475.924
24.32000 478.095
24.33000 478.290
24.34000 477.123
24.35000 476.095
24.36000 479.044
24.37000 483.821
24.38000 488.331
24.39000 488.056
24.40000 486.451
24.41000 485.623
24.42000 490.505
24.43000 496.540
24.44000 500.275
24.45000 493.378
24.46000 485.148
24.47000 478.852
24.48000 476.001
24.49000 473.941
24.50000 474.017
24.51000 478.465
24.52000 483.041
24.53000 486.687
24.54000 489.071
24.55000 491.446
24.56000 488.579
24.57000 481.192
24.58000 473.865
24.59000 469.709
24.60000 467.349
24.61000 465.318
24.62000 469.472
24.63000 475.977
24.64000 481.988
24.65000 483.557
24.66000 483.956
24.67000 484.432
24.68000 485.360
24.69000 486.362
24.70000 486.070
24.71000 480.897
24.72000 475.253
24.73000 471.160
24.74000 469.055
24.75000 467.510
24.76000 466.294
24.77000 465.630
24.78000 464.976
24.79000 471.190
24.80000 484.959
24.81000 498.673
24.82000 500.113
24.83000 492.993
24.84000 485.952
24.85000 481.259
24.86000 477.665
24.87000 474.069
24.88000 470.436
24.89000 466.793
24.90000 463.510
24.91000 459.537
24.92000 455.926
24.93000 453.025
24.94000 453.477
24.95000 454.358
24.96000 456.507
24.97000 462.594
24.98000 468.961
24.99000 473.306
25.00000 484.744
25.01000 493.461
25.02000 492.995
25.03000 479.826
25.04000 466.591
25.05000 467.125
25.06000 479.821
25.07000 492.376
25.08000 496.593
25.09000 496.008
25.10000 495.237
25.11000 490.833
25.12000 485.022
25.13000 479.294
25.14000 474.384
25.15000 469.686
25.16000 465.578
25.17000 473.323
25.18000 481.644
25.19000 488.586
25.20000 490.217
25.21000 491.323
25.22000 490.528
25.23000 484.855
25.24000 478.937
25.25000 475.172
25.26000 465.490
25.27000 458.381
25.28000 457.201
25.29000 462.679
25.30000 468.104
25.31000 464.589
25.32000 454.659
25.33000 444.938
25.34000 452.937
25.35000 468.734
25.36000 482.832
25.37000 473.418
25.38000 456.490
25.39000 443.189
25.40000 457.902
25.41000 478.507
25.42000 495.916
25.43000 476.624
25.44000 456.458
25.45000 442.625
25.46000 448.839
25.47000 456.530
25.48000 463.503
25.49000 468.953
25.50000 474.352
25.51000 477.521
25.52000 480.850
25.53000 483.193
25.54000 481.186
25.55000 475.255
25.56000 469.351
25.57000 465.097
25.58000 461.815
25.59000 458.645
25.60000 457.600
25.61000 457.403
25.62000 457.375
25.63000 459.076
25.64000 461.231
25.65000 463.153
25.66000 463.648
25.67000 463.901
25.68000 464.107
25.69000 468.494
25.70000 472.419
25.71000 473.383
25.72000 466.604
25.73000 459.421
25.74000 457.313
25.75000 464.097
25.76000 471.046
25.77000 474.760
25.78000 462.658
25.79000 454.452
25.80000 456.142
25.81000 465.077
25.82000 473.781
25.83000 474.801
25.84000 472.090
25.85000 469.515
25.86000 465.049
25.87000 460.357
25.88000 456.243
25.89000 456.710
25.90000 458.160
25.91000 459.014
25.92000 456.942
25.93000 454.477
25.94000 452.563
25.95000 459.667
25.96000 465.860
25.97000 469.911
25.98000 469.329
25.99000 468.588
26.00000 465.772
26.01000 459.973
26.02000 454.151
26.03000 452.348
26.04000 454.246
26.05000 456.016
26.06000 449.411
26.07000 437.783
26.08000 426.928
26.09000 432.448
26.10000 444.544
26.11000 455.800
26.12000 456.439
26.13000 454.444
26.14000 453.082
26.15000 455.670
26.16000 458.943
26.17000 460.132
26.18000 452.978
26.19000 444.952
26.20000 439.035
26.21000 443.752
26.22000 447.852
26.23000 452.417
26.24000 457.809
26.25000 463.218
26.26000 460.185
26.27000 447.264
26.28000 434.367
26.29000 441.674
26.30000 463.906
26.31000 485.509
26.32000 485.188
26.33000 474.017
26.34000 463.314
26.35000 459.514
26.36000 458.004
26.37000 456.633
26.38000 452.080
26.39000 447.444
26.40000 443.544
26.41000 443.344
26.42000 443.653
26.43000 444.689
26.44000 448.111
26.45000 451.720
26.46000 454.229
26.47000 449.406
26.48000 445.572
26.49000 443.163
26.50000 442.845
26.51000 442.546
26.52000 447.600
26.53000 457.690
26.54000 467.692
26.55000 463.246
26.56000 450.217
26.57000 437.656
26.58000 435.391
26.59000 437.340
26.60000 438.912
26.61000 436.396
26.62000 432.763
26.63000 429.556
26.64000 435.160
26.65000 441.341
26.66000 446.781
26.67000 449.195
26.68000 451.284
26.69000 450.125
26.70000 440.152
26.71000 429.684
26.72000 422.879
26.73000 431.295
26.74000 437.696
26.75000 443.437
26.76000 448.388
26.77000 453.323
26.78000 454.950
26.79000 454.056
26.80000 453.178
26.81000 449.567
26.82000 444.750
26.83000 440.154
26.84000 438.910
26.85000 438.801
26.86000 438.868
26.87000 440.398
26.88000 442.255
26.89000 443.841
26.90000 441.091
26.91000 438.258
26.92000 437.115
26.93000 441.631
26.94000 446.604
26.95000 447.793
26.96000 440.487
26.97000 432.862
26.98000 428.274
26.99000 434.465
27.00000 438.943
27.01000 441.481
27.02000 442.153
27.03000 442.811
27.04000 442.385
27.05000 441.282
27.06000 440.213
27.07000 439.537
27.08000 439.052
27.09000 438.501
27.10000 437.220
27.11000 435.736
27.12000 435.172
27.13000 440.622
27.14000 447.162
27.15000 452.538
27.16000 449.323
27.17000 445.904
27.18000 443.732
27.19000 445.002
27.20000 446.474
27.21000 447.523
27.22000 447.792
27.23000 448.043
27.24000 448.181
27.25000 443.350
27.26000 440.041
27.27000 443.637
27.28000 452.602
27.29000 461.389
27.30000 463.244
27.31000 461.539
27.32000 459.910
27.33000 443.713
27.34000 423.997
27.35000 407.144
27.36000 414.679
27.37000 427.776
27.38000 439.385
27.39000 443.205
27.40000 445.900
27.41000 448.022
27.42000 446.292
27.43000 444.650
27.44000 442.386
27.45000 438.701
27.46000 434.961
27.47000 433.447
27.48000 435.331
27.49000 437.251
27.50000 436.680
27.51000 433.661
27.52000 430.719
27.53000 434.145
27.54000 441.619
27.55000 448.720
27.56000 446.902
27.57000 441.296
27.58000 436.046
27.59000 438.556
27.60000 442.844
27.61000 445.578
27.62000 437.934
27.63000 428.372
27.64000 420.798
27.65000 421.673
27.66000 423.501
27.67000 424.870
27.68000 430.175
27.69000 434.502
27.70000 437.781
27.71000 439.082
27.72000 440.336
27.73000 440.886
27.74000 440.558
27.75000 440.227
27.76000 438.603
27.77000 435.965
27.78000 433.326
27.79000 430.648
27.80000 427.949
27.81000 425.643
27.82000 429.725
27.83000 436.050
27.84000 441.838
27.85000 435.448
27.86000 427.245
27.87000 420.430
27.88000 421.034
27.89000 422.734
27.90000 423.648
27.91000 421.827
27.92000 419.771
27.93000 418.315
27.94000 419.196
27.95000 419.938
27.96000 421.473
27.97000 424.240
27.98000 427.022
27.99000 433.346
28.00000 443.226
28.01000 453.041
28.02000 452.401
28.03000 445.099
28.04000 438.061
28.05000 437.582
28.06000 439.942
28.07000 441.466
28.08000 433.104
28.09000 421.878
28.10000 411.883
28.11000 412.297
28.12000 414.365
28.13000 417.709
28.14000 426.584
28.15000 436.098
28.16000 443.919
28.17000 446.879
28.18000 449.535
28.19000 451.298
28.20000 445.136
28.21000 440.435
28.22000 438.193
28.23000 439.076
28.24000 439.953
28.25000 434.396
28.26000 423.630
28.27000 413.023
28.28000 415.342
28.29000 424.284
28.30000 432.535
28.31000 429.151
28.32000 421.603
28.33000 415.132
28.34000 418.313
28.35000 423.785
28.36000 428.506
28.37000 426.177
28.38000 423.298
28.39000 422.222
28.40000 427.545
28.41000 433.433
28.42000 436.444
28.43000 432.629
28.44000 428.522
28.45000 425.991
28.46000 421.295
28.47000 417.905
28.48000 416.950
28.49000 418.496
28.50000 420.027
28.51000 420.195
28.52000 419.461
28.53000 418.746
28.54000 421.524
28.55000 425.640
28.56000 429.509
28.57000 430.367
28.58000 430.337
28.59000 429.134
28.60000 419.732
28.61000 408.748
28.62000 399.611
28.63000 401.782
28.64000 404.689
28.65000 406.545
28.66000 405.328
28.67000 403.914
28.68000 405.644
28.69000 413.545
28.70000 421.608
28.71000 426.170
28.72000 416.448
28.73000 409.658
28.74000 408.076
28.75000 410.801
28.76000 413.548
28.77000 417.376
28.78000 421.791
28.79000 426.028
28.80000 426.001
28.81000 424.523
28.82000 423.682
28.83000 428.706
28.84000 435.150
28.85000 438.196
28.86000 422.294
28.87000 403.464
28.88000 388.440
28.89000 394.233
28.90000 400.431
28.91000 406.749
28.92000 413.354
28.93000 419.972
28.94000 424.294
28.95000 424.905
28.96000 425.466
28.97000 425.753
28.98000 420.540
28.99000 417.031
29.00000 412.988
29.01000 408.585
29.02000 404.424
29.03000 406.834
29.04000 412.196
29.05000 417.248
29.06000 418.585
29.07000 418.786
29.08000 418.874
29.09000 418.154
29.10000 417.275
29.11000 415.886
29.12000 412.196
29.13000 408.225
29.14000 405.205
29.15000 402.475
29.16000 400.341
29.17000 400.106
29.18000 403.664
29.19000 407.327
29.20000 405.608
29.21000 396.762
29.22000 387.890
29.23000 388.802
29.24000 397.945
29.25000 407.036
29.26000 413.581
29.27000 418.716
29.28000 423.826
29.29000 428.475
29.30000 432.953
29.31000 437.080
29.32000 426.660
29.33000 414.115
29.34000 404.389
29.35000 410.732
29.36000 419.615
29.37000 425.739
29.38000 421.684
29.39000 416.681
29.40000 413.076
29.41000 416.260
29.42000 418.939
29.43000 418.974
29.44000 414.650
29.45000 410.262
29.46000 407.015
29.47000 404.992
29.48000 402.980
29.49000 400.870
29.50000 398.719
29.51000 396.697
29.52000 398.339
29.53000 401.657
29.54000 405.001
29.55000 408.687
29.56000 412.478
29.57000 415.882
29.58000 412.591
29.59000 408.533
29.60000 406.397
29.61000 413.109
29.62000 420.924
29.63000 425.919
29.64000 422.351
29.65000 418.195
29.66000 415.381
29.67000 408.240
29.68000 402.824
29.69000 399.093
29.70000 397.638
29.71000 396.202
29.72000 398.925
29.73000 405.233
29.74000 411.464
29.75000 416.053
29.76000 419.623
29.77000 423.224
29.78000 427.407
29.79000 431.811
29.80000 435.032
29.81000 426.805
29.82000 415.693
29.83000 406.013
29.84000 404.325
29.85000 403.986
29.86000 403.961
29.87000 405.111
29.88000 406.374
29.89000 409.153
29.90000 415.740
29.91000 422.509
29.92000 426.778
29.93000 427.440
29.94000 427.877
29.95000 433.693
29.96000 445.399
29.97000 457.023
29.98000 457.404
29.99000 449.907
30.00000 442.577
30.01000 439.694
30.02000 438.917
30.03000 438.309
30.04000 439.934
30.05000 442.258
30.06000 444.931
30.07000 450.225
30.08000 456.056
30.09000 460.962
30.10000 457.736
30.11000 454.181
30.12000 449.650
30.13000 442.102
30.14000 434.340
30.15000 429.866
30.16000 432.216
30.17000 434.776
30.18000 436.263
30.19000 437.381
30.20000 438.161
30.21000 435.999
30.22000 431.250
30.23000 426.551
30.24000 424.680
30.25000 424.435
30.26000 424.200
30.27000 430.740
30.28000 439.347
30.29000 447.339
30.30000 449.208
30.31000 449.505
30.32000 449.027
30.33000 443.942
30.34000 438.096
30.35000 433.371
30.36000 430.383
30.37000 428.091
30.38000 428.759
30.39000 436.995
30.40000 445.609
30.41000 448.793
30.42000 442.675
30.43000 436.399
30.44000 433.084
30.45000 426.572
30.46000 422.191
30.47000 424.230
30.48000 430.860
30.49000 437.295
30.50000 437.675
30.51000 435.179
30.52000 432.814
30.53000 431.718
30.54000 431.080
30.55000 430.515
30.56000 430.502
30.57000 430.605
30.58000 431.278
30.59000 434.685
30.60000 438.450
30.61000 441.356
30.62000 426.366
30.63000 413.443
30.64000 407.774
30.65000 417.443
30.66000 427.609
30.67000 433.682
30.68000 434.002
30.69000 434.283
30.70000 437.470
30.71000 443.262
30.72000 448.959
30.73000 448.997
30.74000 445.715
30.75000 442.442
30.76000 439.347
30.77000 436.322
30.78000 433.514
30.79000 440.668
30.80000 449.466
30.81000 457.202
30.82000 458.471
30.83000 458.649
30.84000 459.074
30.85000 460.466
30.86000 461.956
30.87000 463.048
30.88000 469.472
30.89000 474.645
30.90000 477.662
30.91000 476.915
30.92000 476.099
30.93000 483.783
30.94000 501.180
30.95000 518.527
30.96000 535.810
30.97000 552.901
30.98000 569.790
30.99000 580.047
31.00000 587.094
31.01000 594.914
31.02000 613.688
31.03000 636.018
31.04000 656.234
31.05000 671.276
31.06000 683.552
31.07000 700.481
31.08000 740.187
31.09000 782.944
31.10000 827.369
31.11000 877.154
31.12000 927.344
31.13000 961.984
31.14000 1053.467
31.15000 1123.658
31.16000 1201.304
31.17000 1289.640
31.18000 1378.058
31.19000 1463.787
31.20000 1547.050
31.21000 1629.506
31.22000 1733.628
31.23000 1848.268
31.24000 1962.518
31.25000 2068.603
31.26000 2171.420
31.27000 2275.591
31.28000 2393.995
31.29000 2516.201
31.30000 2623.669
31.31000 2713.865
31.32000 2788.905
31.33000 2865.844
31.34000 2950.357
31.35000 3035.657
31.36000 3103.067
31.37000 3122.990
31.38000 3140.360
31.39000 3151.556
31.40000 3104.858
31.41000 3069.930
31.42000 3041.899
31.43000 3021.915
31.44000 3001.801
31.45000 2954.890
31.46000 2888.045
31.47000 2822.471
31.48000 2726.292
31.49000 2619.074
31.50000 2512.111
31.51000 2408.896
31.52000 2306.919
31.53000 2204.611
31.54000 2099.623
31.55000 1994.050
31.56000 1904.273
31.57000 1790.274
31.58000 1691.740
31.59000 1591.041
31.60000 1483.248
31.61000 1374.902
31.62000 1277.478
31.63000 1204.028
31.64000 1131.429
31.65000 1088.168
31.66000 1003.737
31.67000 943.654
31.68000 894.019
31.69000 854.180
31.70000 814.392
31.71000 778.159
31.72000 744.092
31.73000 711.099
31.74000 685.605
31.75000 664.382
31.76000 643.384
31.77000 624.820
31.78000 606.920
31.79000 588.109
31.80000 563.510
31.81000 537.891
31.82000 516.928
31.83000 518.225
31.84000 521.232
31.85000 521.286
31.86000 513.356
31.87000 504.981
31.88000 496.550
31.89000 488.016
31.90000 479.480
31.91000 474.835
31.92000 467.101
31.93000 461.795
31.94000 457.343
31.95000 453.540
31.96000 449.808
31.97000 448.653
31.98000 448.793
31.99000 448.927
32.00000 443.082
32.01000 435.797
32.02000 429.411
32.03000 430.466
32.04000 433.179
32.05000 434.747
32.06000 430.476
32.07000 425.384
32.08000 421.398
32.09000 422.134
32.10000 423.025
32.11000 424.504
32.12000 427.298
32.13000 430.142
32.14000 430.401
32.15000 426.808
32.16000 423.178
32.17000 416.711
32.18000 407.527
32.19000 398.426
32.20000 395.575
32.21000 396.605
32.22000 397.838
32.23000 403.679
32.24000 411.434
32.25000 418.679
32.26000 417.312
32.27000 413.904
32.28000 410.702
32.29000 408.846
32.30000 407.233
32.31000 403.973
32.32000 393.882
32.33000 383.044
32.34000 374.975
32.35000 384.988
32.36000 393.593
32.37000 398.038
32.38000 394.795
32.39000 391.383
32.40000 388.375
32.41000 385.861
32.42000 383.352
32.43000 385.490
32.44000 391.194
32.45000 396.594
32.46000 390.365
32.47000 378.184
32.48000 366.989
32.49000 371.239
32.50000 380.792
32.51000 389.508
32.52000 392.411
32.53000 393.813
32.54000 393.690
32.55000 385.615
32.56000 376.398
32.57000 371.064
32.58000 378.944
32.59000 387.917
32.60000 394.225
32.61000 391.135
32.62000 388.518
32.63000 384.894
32.64000 379.740
32.65000 374.571
32.66000 370.253
32.67000 366.769
32.68000 363.311
32.69000 367.070
32.70000 375.260
32.71000 383.059
32.72000 381.600
32.73000 376.222
32.74000 371.067
32.75000 368.444
32.76000 366.539
32.77000 364.848
32.78000 373.786
32.79000 383.227
32.80000 393.882
32.81000 409.674
32.82000 426.043
32.83000 438.639
32.84000 440.645
32.85000 442.016
32.86000 442.919
32.87000 451.414
32.88000 457.803
32.89000 464.563
32.90000 471.784
32.91000 479.005
32.92000 485.682
32.93000 491.928
32.94000 498.075
32.95000 498.460
32.96000 495.922
32.97000 492.880
32.98000 481.697
32.99000 467.666
33.00000 454.816
33.01000 452.243
33.02000 452.052
33.03000 451.888
33.04000 445.536
33.05000 439.394
33.06000 433.264
33.07000 427.180
33.08000 421.099
33.09000 412.252
33.10000 396.981
33.11000 381.450
33.12000 371.968
33.13000 359.562
33.14000 350.666
33.15000 347.959
33.16000 351.445
33.17000 354.910
33.18000 356.554
33.19000 357.022
33.20000 357.477
33.21000 356.337
33.22000 354.599
33.23000 352.780
33.24000 350.009
33.25000 346.964
33.26000 343.834
33.27000 340.124
33.28000 336.305
33.29000 333.142
33.30000 342.034
33.31000 350.518
33.32000 355.166
33.33000 348.839
33.34000 341.832
33.35000 340.496
33.36000 350.041
33.37000 359.855
33.38000 365.347
33.39000 360.478
33.40000 357.085
33.41000 355.402
33.42000 355.100
33.43000 354.751
33.44000 352.427
33.45000 349.053
33.46000 345.821
33.47000 343.949
33.48000 342.656
33.49000 341.264
33.50000 338.995
33.51000 336.517
33.52000 334.569
33.53000 335.493
33.54000 336.850
33.55000 337.927
33.56000 336.420
33.57000 335.025
33.58000 335.141
33.59000 338.828
33.60000 342.667
33.61000 344.195
33.62000 342.072
33.63000 339.902
33.64000 338.806
33.65000 341.670
33.66000 343.599
33.67000 346.776
33.68000 350.774
33.69000 354.359
33.70000 347.312
33.71000 335.593
33.72000 324.576
33.73000 326.022
33.74000 330.689
33.75000 334.631
33.76000 333.528
33.77000 331.456
33.78000 330.896
33.79000 336.999
33.80000 343.888
33.81000 349.098
33.82000 343.096
33.83000 337.826
33.84000 335.522
33.85000 339.019
33.86000 342.667
33.87000 341.593
33.88000 334.417
33.89000 327.226
33.90000 323.940
33.91000 323.869
33.92000 323.797
33.93000 323.600
33.94000 323.338
33.95000 323.272
33.96000 326.618
33.97000 331.205
33.98000 335.420
33.99000 333.521
34.00000 330.509
34.01000 327.511
34.02000 324.593
34.03000 321.688
34.04000 321.113
34.05000 328.939
34.06000 337.522
34.07000 343.664
34.08000 339.069
34.09000 335.199
34.10000 335.564
34.11000 342.753
34.12000 350.033
34.13000 348.653
34.14000 338.222
34.15000 327.849
34.16000 326.674
34.17000 331.609
34.18000 336.435
34.19000 338.328
34.20000 338.910
34.21000 339.189
34.22000 335.699
34.23000 331.079
34.24000 326.944
34.25000 331.102
34.26000 336.150
34.27000 339.571
34.28000 335.681
34.29000 330.907
34.30000 327.667
34.31000 328.987
34.32000 330.608
34.33000 331.697
34.34000 330.349
34.35000 329.298
34.36000 326.096
34.37000 320.060
34.38000 314.023
34.39000 314.417
34.40000 320.216
34.41000 325.940
34.42000 331.151
34.43000 335.949
34.44000 340.355
34.45000 337.740
34.46000 332.527
34.47000 327.588
34.48000 325.227
34.49000 323.501
34.50000 322.003
34.51000 309.195
34.52000 296.766
34.53000 290.146
34.54000 304.881
34.55000 321.595
34.56000 333.040
34.57000 331.549
34.58000 329.465
34.59000 328.163
34.60000 328.935
34.61000 329.513
34.62000 326.700
34.63000 320.267
34.64000 313.879
34.65000 313.037
34.66000 315.991
34.67000 318.875
34.68000 322.569
34.69000 326.456
34.70000 329.700
34.71000 324.681
34.72000 317.139
34.73000 310.861
34.74000 313.808
34.75000 318.603
34.76000 322.619
34.77000 330.247
34.78000 336.962
34.79000 340.308
34.80000 333.461
34.81000 325.918
34.82000 322.703
34.83000 328.277
34.84000 334.105
34.85000 337.456
34.86000 329.569
34.87000 324.011
34.88000 319.306
34.89000 315.332
34.90000 311.436
34.91000 311.517
34.92000 313.835
34.93000 316.065
34.94000 318.618
34.95000 321.127
34.96000 323.360
34.97000 322.928
34.98000 321.828
34.99000 320.003
35.00000 313.983
35.01000 307.286
35.02000 301.902
35.03000 302.785
35.04000 303.986
35.05000 306.580
35.06000 312.659
35.07000 318.903
35.08000 321.533
35.09000 318.110
35.10000 314.593
35.11000 312.758
35.12000 314.473
35.13000 315.627
35.14000 315.940
35.15000 315.665
35.16000 315.380
35.17000 314.803
35.18000 314.091
35.19000 313.418
35.20000 312.775
35.21000 312.194
35.22000 311.584
35.23000 310.767
35.24000 309.908
35.25000 309.257
35.26000 309.581
35.27000 310.029
35.28000 310.373
35.29000 317.187
35.30000 322.933
35.31000 324.295
35.32000 316.586
35.33000 308.601
35.34000 306.753
35.35000 313.329
35.36000 319.952
35.37000 324.219
35.38000 326.418
35.39000 328.546
35.40000 326.789
35.41000 322.805
35.42000 318.939
35.43000 317.344
35.44000 316.622
35.45000 315.954
35.46000 316.765
35.47000 317.834
35.48000 318.323
35.49000 315.365
35.50000 311.841
35.51000 308.654
35.52000 306.754
35.53000 304.982
35.54000 303.691
35.55000 304.341
35.56000 304.915
35.57000 306.666
35.58000 310.425
35.59000 314.218
35.60000 316.374
35.61000 316.709
35.62000 317.040
35.63000 316.011
35.64000 314.031
35.65000 312.123
35.66000 312.442
35.67000 313.816
35.68000 315.010
35.69000 313.746
35.70000 311.701
35.71000 309.856
35.72000 306.820
35.73000 303.935
35.74000 302.820
35.75000 310.162
35.76000 318.606
35.77000 324.296
35.78000 321.328
35.79000 317.731
35.80000 315.266
35.81000 312.654
35.82000 310.694
35.83000 309.518
35.84000 309.437
35.85000 309.363
35.86000 308.712
35.87000 307.544
35.88000 306.389
35.89000 307.447
35.90000 309.745
35.91000 311.957
35.92000 312.431
35.93000 312.225
35.94000 311.947
35.95000 310.933
35.96000 309.728
35.97000 308.671
35.98000 302.867
35.99000 297.201
36.00000 293.785
36.01000 299.137
36.02000 305.372
36.03000 308.855
36.04000 305.197
36.05000 301.172
36.06000 298.599
36.07000 306.908
36.08000 313.098
36.09000 313.359
36.10000 306.871
36.11000 300.384
36.12000 295.109
36.13000 290.715
36.14000 286.410
36.15000 290.148
36.16000 297.472
36.17000 304.342
36.18000 304.801
36.19000 303.187
36.20000 302.062
36.21000 304.769
36.22000 308.292
36.23000 311.276
36.24000 311.784
36.25000 311.934
36.26000 310.878
36.27000 305.960
36.28000 300.752
36.29000 297.043
36.30000 296.553
36.31000 296.170
36.32000 295.944
36.33000 298.151
36.34000 299.723
36.35000 302.797
36.36000 307.246
36.37000 311.627
36.38000 311.752
36.39000 309.341
36.40000 307.011
36.41000 300.066
36.42000 291.775
36.43000 284.711
36.44000 290.475
36.45000 299.651
36.46000 306.788
36.47000 301.293
36.48000 293.625
36.49000 287.381
36.50000 295.403
36.51000 303.160
36.52000 308.124
36.53000 305.699
36.54000 302.880
36.55000 298.993
36.56000 293.210
36.57000 287.391
36.58000 284.262
36.59000 293.554
36.60000 299.880
36.61000 299.690
36.62000 294.670
36.63000 289.865
36.64000 292.408
36.65000 298.562
36.66000 304.414
36.67000 304.536
36.68000 302.902
36.69000 300.939
36.70000 296.328
36.71000 291.142
36.72000 287.673
36.73000 292.756
36.74000 299.008
36.75000 303.875
36.76000 307.202
36.77000 309.757
36.78000 309.825
36.79000 304.452
36.80000 298.888
36.81000 298.306
36.82000 304.979
36.83000 311.713
36.84000 313.636
36.85000 311.069
36.86000 308.499
36.87000 305.771
36.88000 302.945
36.89000 300.191
36.90000 298.985
36.91000 298.406
36.92000 297.867
36.93000 304.499
36.94000 312.259
36.95000 318.893
36.96000 318.392
36.97000 316.638
36.98000 314.910
36.99000 313.289
37.00000 311.680
37.01000 310.489
37.02000 319.538
37.03000 326.998
37.04000 328.193
37.05000 318.069
37.06000 307.712
37.07000 303.976
37.08000 308.094
37.09000 312.214
37.10000 312.846
37.11000 310.855
37.12000 308.934
37.13000 309.564
37.14000 311.471
37.15000 313.266
37.16000 313.390
37.17000 312.952
37.18000 312.554
37.19000 311.240
37.20000 309.899
37.21000 307.715
37.22000 301.250
37.23000 294.186
37.24000 289.353
37.25000 291.944
37.26000 295.127
37.27000 297.349
37.28000 299.552
37.29000 301.214
37.30000 300.817
37.31000 297.359
37.32000 293.874
37.33000 294.781
37.34000 299.877
37.35000 304.931
37.36000 306.297
37.37000 305.397
37.38000 304.472
37.39000 303.009
37.40000 301.321
37.41000 299.511
37.42000 296.346
37.43000 292.805
37.44000 289.675
37.45000 289.627
37.46000 290.065
37.47000 291.734
37.48000 298.493
37.49000 305.807
37.50000 310.315
37.51000 307.119
37.52000 303.480
37.53000 301.104
37.54000 302.990
37.55000 304.443
37.56000 302.707
37.57000 297.110
37.58000 291.515
37.59000 288.772
37.60000 288.228
37.61000 287.694
37.62000 291.097
37.63000 296.328
37.64000 300.891
37.65000 295.093
37.66000 285.750
37.67000 278.014
37.68000 283.843
37.69000 292.743
37.70000 300.360
37.71000 305.090
37.72000 308.731
37.73000 310.654
37.74000 306.747
37.75000 302.361
37.76000 299.068
37.77000 298.256
37.78000 297.539
37.79000 297.105
37.80000 294.403
37.81000 292.460
37.82000 293.393
37.83000 297.129
37.84000 300.786
37.85000 298.198
37.86000 291.668
37.87000 285.328
37.88000 288.834
37.89000 296.103
37.90000 302.395
37.91000 297.578
37.92000 289.628
37.93000 282.833
37.94000 283.692
37.95000 285.955
37.96000 287.820
37.97000 297.489
37.98000 306.163
37.99000 309.491
38.00000 297.863
38.01000 285.346
38.02000 279.720
38.03000 287.022
38.04000 294.622
38.05000 298.829
38.06000 303.544
38.07000 306.791
38.08000 307.972
38.09000 307.526
38.10000 307.162
38.11000 310.119
38.12000 314.803
38.13000 319.280
38.14000 312.048
38.15000 301.521
38.16000 292.630
38.17000 297.889
38.18000 306.416
38.19000 314.006
38.20000 316.630
38.21000 318.527
38.22000 320.025
38.23000 323.167
38.24000 325.800
38.25000 328.430
38.26000 331.055
38.27000 333.679
38.28000 336.693
38.29000 340.310
38.30000 343.933
38.31000 351.771
38.32000 363.808
38.33000 375.778
38.34000 381.897
38.35000 384.253
38.36000 386.751
38.37000 392.719
38.38000 400.180
38.39000 407.176
38.40000 421.589
38.41000 436.657
38.42000 452.340
38.43000 472.185
38.44000 492.811
38.45000 514.658
38.46000 541.759
38.47000 569.462
38.48000 590.283
38.49000 630.036
38.50000 662.029
38.51000 697.369
38.52000 739.108
38.53000 781.004
38.54000 827.876
38.55000 881.028
38.56000 934.115
38.57000 983.459
38.58000 1029.601
38.59000 1076.096
38.60000 1137.594
38.61000 1207.038
38.62000 1275.099
38.63000 1320.170
38.64000 1357.073
38.65000 1390.892
38.66000 1422.820
38.67000 1450.855
38.68000 1477.862
38.69000 1499.307
38.70000 1519.917
38.71000 1538.216
38.72000 1548.370
38.73000 1557.813
38.74000 1564.524
38.75000 1560.082
38.76000 1556.343
38.77000 1536.553
38.78000 1491.488
38.79000 1446.114
38.80000 1390.800
38.81000 1325.365
38.82000 1260.344
38.83000 1214.190
38.84000 1180.899
38.85000 1146.608
38.86000 1086.719
38.87000 1015.624
38.88000 946.065
38.89000 894.994
38.90000 849.342
38.91000 808.619
38.92000 763.171
38.93000 722.839
38.94000 684.641
38.95000 655.808
38.96000 628.075
38.97000 596.622
38.98000 554.368
38.99000 511.426
39.00000 482.805
39.01000 460.009
39.02000 443.245
39.03000 428.641
39.04000 416.818
39.05000 405.007
39.06000 393.410
39.07000 381.989
39.08000 370.730
39.09000 362.422
39.10000 355.901
39.11000 349.209
39.12000 339.587
39.13000 328.904
39.14000 319.509
39.15000 321.844
39.16000 326.997
39.17000 331.453
39.18000 323.720
39.19000 315.564
39.20000 308.317
39.21000 304.335
39.22000 300.645
39.23000 299.677
39.24000 305.242
39.25000 311.093
39.26000 314.716
39.27000 303.302
39.28000 294.952
39.29000 288.830
39.30000 285.028
39.31000 281.257
39.32000 280.844
39.33000 282.676
39.34000 284.462
39.35000 283.233
39.36000 280.776
39.37000 278.049
39.38000 271.961
39.39000 264.870
39.40000 259.564
39.41000 266.928
39.42000 276.767
39.43000 284.971
39.44000 286.462
39.45000 287.027
39.46000 287.024
39.47000 285.341
39.48000 283.548
39.49000 280.951
39.50000 276.757
39.51000 272.520
39.52000 270.110
39.53000 269.750
39.54000 269.510
39.55000 271.662
39.56000 275.814
39.57000 279.803
39.58000 275.964
39.59000 267.818
39.60000 259.993
39.61000 263.525
39.62000 270.751
39.63000 277.458
39.64000 279.320
39.65000 279.994
39.66000 280.641
39.67000 281.142
39.68000 281.619
39.69000 282.001
39.70000 273.443
39.71000 265.858
39.72000 260.708
39.73000 261.515
39.74000 262.592
39.75000 267.491
39.76000 278.641
39.77000 289.881
39.78000 295.674
39.79000 269.308
39.80000 251.703
39.81000 251.981
39.82000 264.457
39.83000 276.591
39.84000 279.174
39.85000 277.418
39.86000 275.761
39.87000 278.551
39.88000 282.348
39.89000 284.761
39.90000 277.115
39.91000 267.462
39.92000 260.735
39.93000 267.373
39.94000 275.662
39.95000 281.987
39.96000 271.620
39.97000 262.559
39.98000 256.555
39.99000 256.736
40.00000 257.094
40.01000 259.260
40.02000 263.848
40.03000 268.445
40.04000 268.769
40.05000 265.448
40.06000 262.175
40.07000 261.377
40.08000 261.967
40.09000 262.436
40.10000 260.669
40.11000 258.063
40.12000 255.658
40.13000 259.536
40.14000 264.423
40.15000 268.619
40.16000 268.834
40.17000 268.410
40.18000 267.819
40.19000 266.600
40.20000 265.322
40.21000 264.398
40.22000 258.310
40.23000 253.452
40.24000 251.667
40.25000 255.009
40.26000 258.431
40.27000 258.231
40.28000 254.098
40.29000 249.982
40.30000 248.155
40.31000 247.923
40.32000 247.689
40.33000 247.382
40.34000 247.043
40.35000 246.724
40.36000 246.688
40.37000 246.740
40.38000 246.786
40.39000 253.583
40.40000 260.744
40.41000 265.551
40.42000 259.388
40.43000 251.837
40.44000 245.917
40.45000 245.007
40.46000 244.448
40.47000 244.069
40.48000 245.671
40.49000 246.913
40.50000 247.348
40.51000 246.682
40.52000 246.013
40.53000 249.245
40.54000 255.881
40.55000 262.440
40.56000 263.243
40.57000 260.817
40.58000 258.309
40.59000 254.239
40.60000 249.571
40.61000 245.337
40.62000 245.375
40.63000 246.503
40.64000 247.488
40.65000 249.565
40.66000 251.495
40.67000 252.580
40.68000 250.448
40.69000 248.003
40.70000 245.586
40.71000 243.242
40.72000 240.902
40.73000 239.419
40.74000 250.129
40.75000 258.044
40.76000 263.176
40.77000 265.219
40.78000 267.215
40.79000 262.933
40.80000 254.198
40.81000 245.652
40.82000 243.882
40.83000 245.250
40.84000 246.413
40.85000 244.781
40.86000 242.264
40.87000 240.090
40.88000 240.522
40.89000 241.496
40.90000 242.318
40.91000 246.151
40.92000 249.679
40.93000 252.057
40.94000 250.833
40.95000 249.349
40.96000 248.504
40.97000 249.000
40.98000 249.540
40.99000 249.855
41.00000 242.410
41.01000 237.138
41.02000 234.353
41.03000 233.784
41.04000 233.274
41.05000 236.139
41.06000 240.971
41.07000 245.634
41.08000 243.538
41.09000 239.083
41.10000 235.000
41.11000 234.694
41.12000 235.370
41.13000 236.360
41.14000 239.244
41.15000 242.444
41.16000 245.038
41.17000 243.362
41.18000 241.650
41.19000 241.202
41.20000 244.026
41.21000 247.017
41.22000 247.161
41.23000 242.369
41.24000 237.490
41.25000 234.897
41.26000 231.021
41.27000 228.417
41.28000 231.105
41.29000 237.624
41.30000 243.951
41.31000 244.081
41.32000 241.235
41.33000 238.534
41.34000 240.802
41.35000 244.372
41.36000 247.669
41.37000 248.840
41.38000 249.559
41.39000 249.435
41.40000 245.214
41.41000 240.448
41.42000 236.758
41.43000 238.579
41.44000 240.352
41.45000 242.694
41.46000 246.252
41.47000 249.852
41.48000 246.440
41.49000 233.053
41.50000 219.595
41.51000 218.379
41.52000 228.298
41.53000 238.050
41.54000 237.339
41.55000 230.417
41.56000 223.873
41.57000 225.122
41.58000 229.468
41.59000 233.507
41.60000 242.028
41.61000 250.790
41.62000 257.522
41.63000 251.731
41.64000 243.796
41.65000 237.025
41.66000 234.863
41.67000 233.175
41.68000 231.934
41.69000 237.333
41.70000 241.781
41.71000 243.755
41.72000 241.359
41.73000 238.880
41.74000 237.566
41.75000 237.601
41.76000 237.638
41.77000 238.082
41.78000 238.820
41.79000 239.542
41.80000 239.699
41.81000 239.580
41.82000 239.774
41.83000 244.497
41.84000 250.707
41.85000 256.338
41.86000 250.140
41.87000 242.413
41.88000 236.226
41.89000 237.679
41.90000 240.171
41.91000 242.037
41.92000 241.868
41.93000 241.543
41.94000 241.318
41.95000 237.450
41.96000 234.443
41.97000 232.949
41.98000 233.650
41.99000 234.370
42.00000 236.990
42.01000 241.377
42.02000 245.723
42.03000 246.816
42.04000 245.958
42.05000 245.024
42.06000 242.451
42.07000 239.214
42.08000 236.154
42.09000 234.991
42.10000 234.341
42.11000 233.769
42.12000 236.222
42.13000 238.791
42.14000 239.795
42.15000 234.478
42.16000 228.494
42.17000 225.244
42.18000 229.335
42.19000 233.829
42.20000 236.739
42.21000 235.455
42.22000 234.454
42.23000 234.622
42.24000 236.174
42.25000 237.715
42.26000 236.644
42.27000 233.607
42.28000 230.626
42.29000 232.222
42.30000 235.964
42.31000 239.379
42.32000 237.901
42.33000 234.785
42.34000 231.894
42.35000 230.836
42.36000 230.183
42.37000 229.626
42.38000 225.730
42.39000 222.061
42.40000 219.571
42.41000 220.990
42.42000 222.719
42.43000 225.854
42.44000 232.112
42.45000 238.484
42.46000 242.301
42.47000 234.242
42.48000 228.443
42.49000 225.859
42.50000 226.328
42.51000 226.794
42.52000 227.023
42.53000 227.106
42.54000 227.187
42.55000 231.499
42.56000 237.237
42.57000 242.112
42.58000 237.516
42.59000 230.310
42.60000 223.946
42.61000 223.010
42.62000 223.045
42.63000 223.074
42.64000 227.581
42.65000 231.678
42.66000 235.108
42.67000 236.718
42.68000 238.225
42.69000 240.819
42.70000 245.410
42.71000 250.044
42.72000 252.580
42.73000 235.488
42.74000 223.740
42.75000 219.503
42.76000 221.039
42.77000 222.651
42.78000 227.105
42.79000 233.003
42.80000 238.630
42.81000 241.508
42.82000 243.309
42.83000 244.275
42.84000 238.230
42.85000 230.603
42.86000 225.215
42.87000 231.400
42.88000 239.235
42.89000 245.386
42.90000 238.954
42.91000 232.985
42.92000 228.800
42.93000 228.651
42.94000 228.655
42.95000 228.246
42.96000 227.211
42.97000 226.169
42.98000 222.157
42.99000 215.262
43.00000 208.498
43.01000 211.988
43.02000 221.925
43.03000 231.413
43.04000 230.429
43.05000 225.045
43.06000 220.008
43.07000 222.815
43.08000 227.366
43.09000 231.436
43.10000 232.332
43.11000 232.648
43.12000 233.047
43.13000 233.791
43.14000 234.573
43.15000 235.158
43.16000 231.691
43.17000 228.803
43.18000 225.933
43.19000 223.098
43.20000 220.264
43.21000 220.350
43.22000 224.032
43.23000 227.716
43.24000 229.027
43.25000 228.481
43.26000 227.910
43.27000 226.374
43.28000 224.339
43.29000 222.305
43.30000 220.289
43.31000 218.280
43.32000 216.444
43.33000 215.569
43.34000 214.989
43.35000 215.024
43.36000 218.307
43.37000 222.064
43.38000 225.017
43.39000 225.201
43.40000 225.153
43.41000 225.118
43.42000 223.512
43.43000 222.246
43.44000 220.680
43.45000 218.655
43.46000 216.625
43.47000 217.903
43.48000 222.462
43.49000 226.989
43.50000 231.353
43.51000 235.543
43.52000 239.543
43.53000 238.931
43.54000 236.343
43.55000 233.701
43.56000 230.425
43.57000 226.967
43.58000 223.893
43.59000 228.639
43.60000 234.025
43.61000 236.912
43.62000 229.099
43.63000 220.066
43.64000 214.546
43.65000 219.002
43.66000 224.068
43.67000 227.417
43.68000 227.346
43.69000 227.232
43.70000 226.814
43.71000 226.012
43.72000 225.211
43.73000 225.320
43.74000 226.157
43.75000 226.980
43.76000 225.985
43.77000 224.090
43.78000 222.342
43.79000 223.037
43.80000 224.596
43.81000 226.051
43.82000 226.585
43.83000 226.902
43.84000 227.175
43.85000 221.865
43.86000 216.662
43.87000 213.577
43.88000 217.930
43.89000 222.929
43.90000 224.678
43.91000 218.794
43.92000 212.593
43.93000 208.788
43.94000 208.076
43.95000 207.592
43.96000 209.375
43.97000 213.456
43.98000 217.536
43.99000 221.457
44.00000 225.275
44.01000 228.991
44.02000 227.313
44.03000 223.475
44.04000 220.011
44.05000 221.016
44.06000 223.327
44.07000 225.713
44.08000 228.623
44.09000 231.633
44.10000 234.131
44.11000 225.577
44.12000 217.439
44.13000 213.427
44.14000 221.359
44.15000 230.046
44.16000 233.801
44.17000 227.983
44.18000 221.919
44.19000 218.506
44.20000 223.941
44.21000 227.724
44.22000 226.390
44.23000 220.875
44.24000 215.445
44.25000 213.822
44.26000 214.245
44.27000 214.652
44.28000 215.934
44.29000 217.427
44.30000 219.003
44.31000 221.344
44.32000 223.867
44.33000 225.974
44.34000 225.792
44.35000 225.260
44.36000 224.837
44.37000 221.198
44.38000 218.034
44.39000 215.630
44.40000 215.044
44.41000 214.537
44.42000 215.337
44.43000 218.229
44.44000 221.148
44.45000 222.633
44.46000 219.487
44.47000 217.404
44.48000 218.178
44.49000 220.856
44.50000 223.525
44.51000 225.945
44.52000 228.254
44.53000 230.427
44.54000 232.550
44.55000 234.478
44.56000 235.832
44.57000 233.139
44.58000 229.658
44.59000 227.102
44.60000 228.667
44.61000 230.727
44.62000 232.290
44.63000 230.426
44.64000 228.785
44.65000 227.201
44.66000 225.728
44.67000 224.258
44.68000 224.655
44.69000 227.495
44.70000 230.343
44.71000 234.023
44.72000 238.384
44.73000 242.642
44.74000 242.010
44.75000 238.696
44.76000 235.653
44.77000 237.413
44.78000 240.938
44.79000 244.182
44.80000 242.996
44.81000 240.968
44.82000 240.348
44.83000 247.651
44.84000 256.191
44.85000 264.172
44.86000 270.112
44.87000 275.865
44.88000 279.997
44.89000 276.838
44.90000 274.170
44.91000 274.433
44.92000 279.473
44.93000 284.581
44.94000 288.242
44.95000 290.371
44.96000 292.489
44.97000 299.897
44.98000 310.766
44.99000 321.374
45.00000 324.741
45.01000 324.828
45.02000 324.603
45.03000 320.406
45.04000 315.004
45.05000 310.160
45.06000 312.697
45.07000 316.195
45.08000 320.258
45.09000 326.898
45.10000 333.855
45.11000 336.769
45.12000 327.537
45.13000 317.485
45.14000 310.704
45.15000 321.043
45.16000 329.099
45.17000 333.439
45.18000 332.817
45.19000 332.168
45.20000 330.362
45.21000 327.569
45.22000 324.812
45.23000 322.060
45.24000 319.381
45.25000 316.800
45.26000 316.019
45.27000 315.913
45.28000 315.382
45.29000 310.803
45.30000 305.216
45.31000 300.357
45.32000 295.604
45.33000 291.563
45.34000 287.442
45.35000 283.027
45.36000 278.583
45.37000 275.720
45.38000 276.781
45.39000 278.027
45.40000 278.809
45.41000 278.648
45.42000 278.520
45.43000 273.024
45.44000 261.719
45.45000 250.498
45.46000 250.183
45.47000 257.424
45.48000 264.499
45.49000 269.848
45.50000 274.210
45.51000 277.996
45.52000 274.254
45.53000 268.184
45.54000 263.017
45.55000 264.538
45.56000 267.416
45.57000 269.832
45.58000 262.567
45.59000 255.502
45.60000 248.735
45.61000 242.883
45.62000 237.094
45.63000 236.586
45.64000 246.922
45.65000 257.583
45.66000 263.746
45.67000 252.410
45.68000 244.398
45.69000 239.286
45.70000 236.695
45.71000 234.142
45.72000 233.616
45.73000 234.245
45.74000 234.851
45.75000 237.624
45.76000 241.005
45.77000 243.920
45.78000 242.265
45.79000 239.448
45.80000 237.499
45.81000 240.646
45.82000 244.625
45.83000 247.833
45.84000 245.367
45.85000 242.919
45.86000 239.885
45.87000 235.372
45.88000 230.787
45.89000 227.706
45.90000 227.173
45.91000 226.682
45.92000 226.424
45.93000 223.639
45.94000 221.769
45.95000 222.333
45.96000 224.618
45.97000 226.901
45.98000 229.109
45.99000 231.282
46.00000 233.340
46.01000 232.344
46.02000 230.544
46.03000 228.178
46.04000 221.529
46.05000 213.993
46.06000 207.911
46.07000 208.725
46.08000 210.428
46.09000 211.740
46.10000 210.778
46.11000 209.888
46.12000 209.244
46.13000 209.117
46.14000 209.006
46.15000 210.418
46.16000 213.945
46.17000 217.485
46.18000 217.573
46.19000 214.602
46.20000 211.666
46.21000 210.797
46.22000 211.127
46.23000 211.210
46.24000 206.396
46.25000 199.679
46.26000 193.453
46.27000 198.046
46.28000 204.702
46.29000 210.198
46.30000 208.724
46.31000 206.087
46.32000 205.164
46.33000 210.870
46.34000 217.236
46.35000 221.886
46.36000 213.767
46.37000 207.008
46.38000 204.113
46.39000 207.890
46.40000 211.784
46.41000 214.993
46.42000 217.428
46.43000 219.853
46.44000 218.385
46.45000 214.147
46.46000 209.936
46.47000 206.566
46.48000 203.598
46.49000 200.875
46.50000 201.564
46.51000 203.350
46.52000 204.964
46.53000 204.772
46.54000 204.267
46.55000 203.571
46.56000 201.948
46.57000 200.202
46.58000 198.847
46.59000 198.730
46.60000 198.706
46.61000 198.689
46.62000 197.585
46.63000 196.730
46.64000 195.750
46.65000 194.594
46.66000 193.438
46.67000 194.538
46.68000 197.683
46.69000 200.797
46.70000 205.187
46.71000 210.221
46.72000 214.934
46.73000 213.044
46.74000 208.539
46.75000 204.342
46.76000 203.332
46.77000 203.163
46.78000 203.015
46.79000 200.961
46.80000 198.916
46.81000 197.189
46.82000 196.711
46.83000 196.362
46.84000 196.812
46.85000 199.361
46.86000 202.020
46.87000 203.727
46.88000 188.794
46.89000 177.679
46.90000 174.121
46.91000 179.275
46.92000 184.424
46.93000 186.706
46.94000 186.878
46.95000 187.046
46.96000 187.885
46.97000 189.007
46.98000 190.285
46.99000 193.798
47.00000 198.043
47.01000 201.677
47.02000 200.446
47.03000 198.166
47.04000 196.231
47.05000 196.455
47.06000 196.888
47.07000 196.560
47.08000 193.767
47.09000 190.785
47.10000 190.435
47.11000 195.805
47.12000 201.373
47.13000 204.676
47.14000 200.541
47.15000 197.572
47.16000 192.449
47.17000 185.329
47.18000 178.321
47.19000 178.674
47.20000 183.464
47.21000 188.099
47.22000 188.235
47.23000 186.648
47.24000 185.214
47.25000 185.410
47.26000 186.045
47.27000 187.016
47.28000 190.100
47.29000 193.552
47.30000 196.371
47.31000 198.412
47.32000 200.016
47.33000 199.567
47.34000 193.627
47.35000 187.387
47.36000 185.525
47.37000 191.517
47.38000 197.667
47.39000 200.994
47.40000 201.872
47.41000 202.472
47.42000 203.351
47.43000 204.439
47.44000 205.358
47.45000 200.304
47.46000 192.280
47.47000 184.642
47.48000 183.002
47.49000 183.334
47.50000 184.190
47.51000 189.315
47.52000 195.380
47.53000 200.323
47.54000 199.606
47.55000 198.105
47.56000 196.933
47.57000 196.256
47.58000 195.747
47.59000 194.792
47.60000 192.850
47.61000 190.872
47.62000 189.693
47.63000 189.692
47.64000 189.701
47.65000 189.187
47.66000 188.178
47.67000 187.183
47.68000 187.130
47.69000 187.656
47.70000 188.143
47.71000 187.755
47.72000 187.008
47.73000 186.310
47.74000 188.528
47.75000 191.263
47.76000 193.648
47.77000 193.785
47.78000 193.522
47.79000 193.366
47.80000 193.645
47.81000 193.970
47.82000 194.212
47.83000 188.637
47.84000 184.048
47.85000 180.601
47.86000 179.239
47.87000 177.922
47.88000 178.595
47.89000 181.662
47.90000 184.726
47.91000 185.350
47.92000 184.113
47.93000 183.027
47.94000 187.552
47.95000 194.919
47.96000 201.675
47.97000 199.065
47.98000 193.272
47.99000 187.994
48.00000 184.955
48.01000 182.709
48.02000 180.917
48.03000 181.467
48.04000 182.349
48.05000 183.359
48.06000 184.800
48.07000 186.277
48.08000 187.311
48.09000 188.544
48.10000 189.482
48.11000 189.123
48.12000 186.814
48.13000 184.486
48.14000 180.697
48.15000 175.497
48.16000 170.337
48.17000 170.088
48.18000 172.865
48.19000 175.635
48.20000 178.245
48.21000 180.789
48.22000 183.203
48.23000 184.159
48.24000 184.708
48.25000 185.193
48.26000 180.900
48.27000 176.433
48.28000 173.503
48.29000 177.007
48.30000 181.222
48.31000 184.449
48.32000 184.931
48.33000 185.252
48.34000 185.463
48.35000 185.476
48.36000 185.482
48.37000 183.357
48.38000 178.620
48.39000 173.899
48.40000 175.606
48.41000 182.333
48.42000 188.949
48.43000 187.512
48.44000 182.100
48.45000 177.189
48.46000 180.243
48.47000 186.054
48.48000 191.169
48.49000 190.328
48.50000 188.121
48.51000 186.228
48.52000 184.756
48.53000 183.564
48.54000 182.055
48.55000 179.455
48.56000 176.765
48.57000 175.220
48.58000 176.308
48.59000 177.500
48.60000 178.225
48.61000 177.285
48.62000 176.601
48.63000 176.537
48.64000 177.088
48.65000 177.628
48.66000 177.316
48.67000 176.458
48.68000 175.625
48.69000 175.063
48.70000 174.640
48.71000 174.416
48.72000 176.508
48.73000 179.261
48.74000 181.917
48.75000 183.923
48.76000 185.809
48.77000 187.366
48.78000 183.176
48.79000 179.184
48.80000 176.268
48.81000 176.395
48.82000 176.707
48.83000 177.260
48.84000 178.271
48.85000 179.293
48.86000 179.862
48.87000 179.044
48.88000 178.473
48.89000 176.911
48.90000 174.559
48.91000 172.219
48.92000 170.327
48.93000 168.673
48.94000 167.089
48.95000 167.186
48.96000 167.828
48.97000 168.154
48.98000 165.706
48.99000 162.610
49.00000 161.620
49.01000 171.947
49.02000 183.954
49.03000 193.460
49.04000 187.691
49.05000 181.997
49.06000 177.493
49.07000 175.774
49.08000 174.169
49.09000 174.966
49.10000 179.515
49.11000 184.109
49.12000 186.418
49.13000 183.848
49.14000 182.159
49.15000 182.906
49.16000 185.241
49.17000 187.522
49.18000 188.461
49.19000 188.818
49.20000 189.153
49.21000 190.052
49.22000 191.020
49.23000 191.812
49.24000 191.392
49.25000 190.741
49.26000 190.090
49.27000 189.435
49.28000 188.780
49.29000 188.286
49.30000 181.098
49.31000 175.139
49.32000 171.354
49.33000 171.773
49.34000 172.299
49.35000 173.502
49.36000 175.570
49.37000 177.639
49.38000 178.184
49.39000 177.492
49.40000 176.705
49.41000 171.741
49.42000 164.540
49.43000 158.107
49.44000 164.740
49.45000 176.069
49.46000 186.467
49.47000 183.917
49.48000 178.888
49.49000 175.203
49.50000 178.891
49.51000 183.699
49.52000 187.044
49.53000 185.172
49.54000 182.838
49.55000 181.173
49.56000 174.072
49.57000 168.478
49.58000 165.777
49.59000 167.684
49.60000 169.650
49.61000 169.236
49.62000 166.364
49.63000 163.509
49.64000 165.989
49.65000 171.929
49.66000 177.642
49.67000 177.402
49.68000 174.524
49.69000 172.026
49.70000 174.177
49.71000 177.707
49.72000 180.861
49.73000 181.883
49.74000 182.414
49.75000 181.952
49.76000 177.078
49.77000 171.677
49.78000 168.235
49.79000 170.551
49.80000 173.241
49.81000 175.041
49.82000 164.325
49.83000 156.129
49.84000 152.461
49.85000 154.696
49.86000 156.962
49.87000 162.152
49.88000 169.770
49.89000 177.284
49.90000 180.498
49.91000 181.340
49.92000 182.043
49.93000 180.298
49.94000 177.657
49.95000 174.941
49.96000 171.540
49.97000 167.973
49.98000 164.882
49.99000 166.886
50.00000 169.264
50.01000 171.148
50.02000 171.234
50.03000 171.156
50.04000 171.192
50.05000 171.505
50.06000 171.830
50.07000 172.033
50.08000 171.977
50.09000 171.934
50.10000 174.987
50.11000 181.305
50.12000 187.561
50.13000 186.882
50.14000 181.509
50.15000 176.267
50.16000 173.230
50.17000 171.278
50.18000 169.616
50.19000 171.616
50.20000 174.722
50.21000 177.346
50.22000 176.497
50.23000 174.960
50.24000 173.676
50.25000 180.274
50.26000 186.553
50.27000 192.156
50.28000 195.736
50.29000 199.180
50.30000 198.119
50.31000 188.010
50.32000 177.646
50.33000 171.717
50.34000 179.244
50.35000 184.539
50.36000 186.151
50.37000 184.638
50.38000 183.146
50.39000 182.686
50.40000 182.799
50.41000 182.908
50.42000 186.882
50.43000 191.958
50.44000 196.341
50.45000 194.149
50.46000 190.326
50.47000 187.682
50.48000 191.797
50.49000 196.986
50.50000 201.148
50.51000 207.346
50.52000 212.519
50.53000 216.600
50.54000 217.976
50.55000 219.226
50.56000 220.705
50.57000 222.563
50.58000 224.427
50.59000 225.393
50.60000 222.447
50.61000 220.506
50.62000 224.509
50.63000 232.616
50.64000 240.566
50.65000 244.005
50.66000 245.372
50.67000 246.662
50.68000 247.541
50.69000 248.230
50.70000 248.421
50.71000 244.935
50.72000 240.706
50.73000 237.705
50.74000 240.388
50.75000 243.784
50.76000 246.384
50.77000 240.309
50.78000 235.040
50.79000 231.710
50.80000 232.347
50.81000 233.102
50.82000 231.895
50.83000 228.024
50.84000 224.140
50.85000 221.680
50.86000 220.454
50.87000 219.214
50.88000 217.241
50.89000 214.853
50.90000 212.634
50.91000 213.633
50.92000 215.854
50.93000 217.908
50.94000 214.650
50.95000 210.518
50.96000 206.807
50.97000 205.560
50.98000 204.714
50.99000 203.988
51.00000 203.717
51.01000 203.490
51.02000 203.325
51.03000 193.789
51.04000 186.111
51.05000 181.880
51.06000 183.468
51.07000 185.150
51.08000 184.659
51.09000 181.775
51.10000 178.903
51.11000 181.018
51.12000 186.589
51.13000 191.981
51.14000 192.018
51.15000 189.547
51.16000 187.092
51.17000 184.846
51.18000 182.666
51.19000 180.703
51.20000 179.437
51.21000 178.453
51.22000 178.384
51.23000 182.639
51.24000 187.448
51.25000 190.798
51.26000 189.611
51.27000 188.099
51.28000 187.067
51.29000 184.124
51.30000 181.879
51.31000 179.563
51.32000 177.150
51.33000 174.735
51.34000 172.487
51.35000 170.385
51.36000 168.306
51.37000 167.016
51.38000 166.202
51.39000 165.488
51.40000 166.747
51.41000 168.770
51.42000 170.539
51.43000 169.774
51.44000 168.354
51.45000 167.113
51.46000 167.134
51.47000 167.333
51.48000 167.628
51.49000 168.291
51.50000 168.991
51.51000 169.583
51.52000 169.898
51.53000 170.199
51.54000 170.391
51.55000 169.896
51.56000 169.528
51.57000 173.125
51.58000 181.181
51.59000 189.160
51.60000 184.820
51.61000 171.631
51.62000 158.719
51.63000 153.095
51.64000 151.034
51.65000 149.511
51.66000 155.450
51.67000 163.775
51.68000 170.968
51.69000 169.403
51.70000 165.994
51.71000 163.114
51.72000 159.162
51.73000 155.740
51.74000 154.724
51.75000 161.334
51.76000 168.507
51.77000 172.629
51.78000 170.272
51.79000 167.703
51.80000 166.194
51.81000 162.937
51.82000 160.633
51.83000 158.065
51.84000 155.259
51.85000 152.518
51.86000 153.688
51.87000 157.163
51.88000 160.521
51.89000 159.723
51.90000 157.426
51.91000 155.570
51.92000 158.245
51.93000 162.113
51.94000 165.291
51.95000 164.245
51.96000 162.482
51.97000 161.049
51.98000 158.033
51.99000 155.441
52.00000 154.296
52.01000 156.936
52.02000 159.775
52.03000 160.191
52.04000 156.360
52.05000 152.451
52.06000 150.360
52.07000 158.818
52.08000 164.555
52.09000 163.551
52.10000 157.607
52.11000 151.923
52.12000 154.862
52.13000 161.992
52.14000 168.765
52.15000 166.857
52.16000 162.482
52.17000 159.149
52.18000 164.077
52.19000 170.780
52.20000 176.201
52.21000 175.315
52.22000 173.580
52.23000 172.232
52.24000 168.727
52.25000 165.810
52.26000 163.158
52.27000 161.083
52.28000 159.027
52.29000 159.445
52.30000 163.427
52.31000 167.435
52.32000 168.806
52.33000 167.745
52.34000 166.653
52.35000 163.597
52.36000 159.362
52.37000 155.344
52.38000 155.941
52.39000 158.394
52.40000 160.677
52.41000 162.308
52.42000 163.624
52.43000 164.577
52.44000 163.265
52.45000 161.561
52.46000 160.650
52.47000 162.925
52.48000 165.532
52.49000 167.456
52.50000 163.768
52.51000 160.675
52.52000 159.449
52.53000 161.558
52.54000 163.734
52.55000 164.917
52.56000 164.936
52.57000 164.954
52.58000 164.807
52.59000 164.539
52.60000 164.345
52.61000 166.736
52.62000 170.407
52.63000 173.753
52.64000 172.303
52.65000 169.258
52.66000 166.493
52.67000 165.807
52.68000 165.604
52.69000 164.650
52.70000 159.926
52.71000 154.682
52.72000 151.267
52.73000 153.874
52.74000 156.954
52.75000 159.096
52.76000 155.762
52.77000 153.100
52.78000 152.382
52.79000 154.521
52.80000 156.684
52.81000 158.827
52.82000 160.951
52.83000 163.056
52.84000 162.310
52.85000 159.866
52.86000 157.380
52.87000 153.954
52.88000 150.145
52.89000 147.108
52.90000 152.484
52.91000 160.160
52.92000 166.937
52.93000 167.718
52.94000 167.475
52.95000 166.034
52.96000 159.698
52.97000 152.837
52.98000 149.222
52.99000 154.422
53.00000 160.119
53.01000 163.823
53.02000 163.905
53.03000 163.909
53.04000 164.027
53.05000 164.283
53.06000 164.539
53.07000 164.786
53.08000 165.027
53.09000 165.264
53.10000 161.177
53.11000 155.123
53.12000 149.460
53.13000 149.752
53.14000 152.059
53.15000 154.473
53.16000 157.771
53.17000 161.267
53.18000 164.253
53.19000 167.389
53.20000 170.048
53.21000 172.555
53.22000 174.551
53.23000 176.505
53.24000 176.046
53.25000 170.169
53.26000 164.088
53.27000 160.427
53.28000 164.825
53.29000 168.009
53.30000 168.900
53.31000 167.582
53.32000 166.298
53.33000 167.485
53.34000 170.216
53.35000 172.866
53.36000 168.198
53.37000 160.876
53.38000 154.470
53.39000 158.297
53.40000 164.978
53.41000 170.087
53.42000 164.918
53.43000 157.888
53.44000 152.106
53.45000 159.219
53.46000 166.231
53.47000 172.062
53.48000 174.627
53.49000 177.000
53.50000 176.991
53.51000 172.559
53.52000 168.028
53.53000 165.533
53.54000 166.639
53.55000 167.410
53.56000 169.102
53.57000 171.510
53.58000 173.852
53.59000 173.584
53.60000 171.973
53.61000 170.436
53.62000 169.646
53.63000 169.152
53.64000 168.463
53.65000 166.115
53.66000 163.389
53.67000 160.964
53.68000 160.118
53.69000 159.501
53.70000 159.015
53.71000 157.666
53.72000 156.528
53.73000 155.450
53.74000 154.508
53.75000 153.572
53.76000 154.930
53.77000 159.795
53.78000 164.697
53.79000 164.649
53.80000 159.729
53.81000 154.837
53.82000 152.266
53.83000 151.172
53.84000 150.179
53.85000 151.624
53.86000 154.105
53.87000 156.429
53.88000 154.271
53.89000 151.149
53.90000 148.412
53.91000 148.246
53.92000 148.556
53.93000 149.331
53.94000 152.082
53.95000 155.056
53.96000 157.284
53.97000 155.514
53.98000 153.944
53.99000 154.586
54.00000 159.412
54.01000 164.337
54.02000 165.461
54.03000 161.844
54.04000 158.219
54.05000 158.764
54.06000 162.602
54.07000 166.263
54.08000 162.595
54.09000 155.087
54.10000 148.010
54.11000 147.970
54.12000 150.404
54.13000 152.631
54.14000 153.052
54.15000 153.053
54.16000 152.412
54.17000 148.341
54.18000 143.763
54.19000 141.893
54.20000 149.459
54.21000 157.834
54.22000 163.766
54.23000 159.966
54.24000 156.775
54.25000 155.406
54.26000 156.876
54.27000 158.378
54.28000 159.858
54.29000 161.315
54.30000 162.762
54.31000 163.201
54.32000 162.989
54.33000 162.830
54.34000 163.992
54.35000 165.728
54.36000 167.249
54.37000 166.239
54.38000 164.495
54.39000 162.942
54.40000 161.102
54.41000 159.456
54.42000 157.982
54.43000 157.258
54.44000 156.621
54.45000 157.242
54.46000 161.480
54.47000 165.944
54.48000 168.908
54.49000 162.688
54.50000 157.920
54.51000 154.844
54.52000 153.920
54.53000 153.009
54.54000 154.033
54.55000 156.626
54.56000 159.180
54.57000 156.888
54.58000 152.153
54.59000 147.916
54.60000 152.085
54.61000 159.265
54.62000 165.622
54.63000 164.596
54.64000 161.814
54.65000 159.414
54.66000 156.620
54.67000 154.200
54.68000 152.465
54.69000 153.165
54.70000 154.080
54.71000 154.697
54.72000 154.608
54.73000 154.488
54.74000 154.414
54.75000 160.026
54.76000 164.106
54.77000 164.574
54.78000 161.330
54.79000 158.105
54.80000 156.771
54.81000 156.688
54.82000 156.607
54.83000 157.821
54.84000 159.524
54.85000 160.956
54.86000 159.095
54.87000 156.262
54.88000 154.141
54.89000 157.008
54.90000 160.837
54.91000 164.023
54.92000 164.262
54.93000 164.170
54.94000 163.699
54.95000 162.114
54.96000 160.457
54.97000 158.815
54.98000 157.201
54.99000 155.587
55.00000 154.674
55.01000 157.757
55.02000 159.910
55.03000 160.744
55.04000 160.486
55.05000 160.262
55.06000 161.587
55.07000 163.755
55.08000 165.836
55.09000 169.767
55.10000 174.074
55.11000 178.178
55.12000 180.419
55.13000 182.208
55.14000 182.975
55.15000 178.032
55.16000 172.206
55.17000 167.557
55.18000 166.240
55.19000 165.421
55.20000 166.091
55.21000 170.367
55.22000 174.802
55.23000 176.957
55.24000 175.422
55.25000 173.836
55.26000 173.024
55.27000 175.385
55.28000 176.955
55.29000 176.612
55.30000 174.979
55.31000 173.402
55.32000 173.352
55.33000 173.988
55.34000 174.587
55.35000 178.526
55.36000 183.052
55.37000 187.145
55.38000 188.129
55.39000 188.500
55.40000 188.416
55.41000 186.276
55.42000 183.886
55.43000 182.067
55.44000 187.903
55.45000 192.896
55.46000 196.908
55.47000 198.956
55.48000 200.949
55.49000 203.596
55.50000 207.107
55.51000 210.620
55.52000 217.417
55.53000 226.965
55.54000 236.417
55.55000 241.179
55.56000 243.341
55.57000 246.028
55.58000 258.213
55.59000 273.930
55.60000 288.418
55.61000 295.702
55.62000 300.630
55.63000 306.128
55.64000 314.877
55.65000 324.142
55.66000 334.146
55.67000 346.880
55.68000 359.869
55.69000 369.229
55.70000 392.849
55.71000 411.452
55.72000 431.225
55.73000 452.929
55.74000 474.662
55.75000 501.452
55.76000 533.670
55.77000 565.731
55.78000 591.440
55.79000 612.531
55.80000 633.506
55.81000 651.158
55.82000 667.289
55.83000 684.193
55.84000 711.091
55.85000 741.057
55.86000 767.970
55.87000 774.983
55.88000 777.615
55.89000 783.818
55.90000 806.482
55.91000 831.201
55.92000 850.167
55.93000 851.646
55.94000 851.921
55.95000 852.107
55.96000 853.657
55.97000 854.841
55.98000 854.670
55.99000 852.666
56.00000 850.639
56.01000 839.496
56.02000 820.491
56.03000 801.715
56.04000 790.835
56.05000 784.579
56.06000 777.294
56.07000 750.678
56.08000 716.740
56.09000 684.273
56.10000 666.085
56.11000 651.498
56.12000 638.787
56.13000 606.458
56.14000 576.122
56.15000 550.921
56.16000 545.057
56.17000 541.049
56.18000 533.093
56.19000 515.223
56.20000 496.876
56.21000 485.302
56.22000 450.288
56.23000 424.663
56.24000 402.270
56.25000 383.421
56.26000 364.580
56.27000 346.487
56.28000 328.919
56.29000 311.744
56.30000 307.039
56.31000 308.107
56.32000 308.503
56.33000 299.933
56.34000 288.557
56.35000 277.189
56.36000 265.876
56.37000 254.574
56.38000 245.065
56.39000 242.172
56.40000 240.465
56.41000 236.252
56.42000 224.279
56.43000 211.754
56.44000 204.227
56.45000 207.085
56.46000 210.263
56.47000 212.111
56.48000 203.252
56.49000 196.990
56.50000 196.008
56.51000 199.675
56.52000 203.220
56.53000 199.982
56.54000 192.837
56.55000 185.946
56.56000 182.194
56.57000 179.804
56.58000 177.445
56.59000 175.396
56.60000 173.426
56.61000 171.615
56.62000 170.751
56.63000 170.043
56.64000 169.472
56.65000 169.256
56.66000 169.109
56.67000 168.508
56.68000 166.746
56.69000 164.925
56.70000 165.665
56.71000 170.793
56.72000 175.996
56.73000 178.746
56.74000 174.948
56.75000 172.364
56.76000 169.640
56.77000 166.817
56.78000 164.124
56.79000 165.536
56.80000 168.900
56.81000 172.088
56.82000 169.896
56.83000 166.295
56.84000 162.896
56.85000 161.047
56.86000 159.521
56.87000 158.463
56.88000 159.643
56.89000 161.117
56.90000 162.254
56.91000 160.999
56.92000 159.865
56.93000 159.304
56.94000 159.956
56.95000 160.648
56.96000 159.852
56.97000 156.966
56.98000 154.066
56.99000 153.230
57.00000 154.250
57.01000 155.251
57.02000 155.137
57.03000 154.368
57.04000 153.604
57.05000 152.943
57.06000 152.323
57.07000 151.747
57.08000 153.893
57.09000 156.470
57.10000 158.318
57.11000 155.720
57.12000 152.370
57.13000 150.121
57.14000 152.180
57.15000 154.675
57.16000 156.503
57.17000 157.801
57.18000 158.782
57.19000 158.588
57.20000 156.339
57.21000 154.052
57.22000 152.534
57.23000 151.896
57.24000 151.261
57.25000 148.289
57.26000 143.649
57.27000 139.193
57.28000 140.765
57.29000 145.257
57.30000 149.399
57.31000 148.576
57.32000 146.140
57.33000 143.934
57.34000 142.861
57.35000 142.129
57.36000 142.076
57.37000 145.351
57.38000 149.073
57.39000 151.789
57.40000 151.264
57.41000 150.494
57.42000 149.963
57.43000 152.178
57.44000 153.913
57.45000 152.401
57.46000 146.228
57.47000 140.020
57.48000 137.880
57.49000 139.476
57.50000 141.056
57.51000 143.000
57.52000 145.117
57.53000 147.025
57.54000 144.513
57.55000 140.232
57.56000 136.484
57.57000 138.350
57.58000 141.716
57.59000 144.677
57.60000 145.753
57.61000 146.397
57.62000 147.046
57.63000 147.712
57.64000 148.380
57.65000 147.782
57.66000 143.821
57.67000 139.678
57.68000 137.006
57.69000 131.764
57.70000 127.898
57.71000 129.020
57.72000 135.968
57.73000 142.901
57.74000 145.405
57.75000 144.612
57.76000 143.833
57.77000 141.117
57.78000 137.579
57.79000 134.289
57.80000 134.656
57.81000 136.234
57.82000 137.816
57.83000 139.430
57.84000 141.053
57.85000 142.432
57.86000 147.099
57.87000 151.398
57.88000 154.335
57.89000 152.804
57.90000 150.924
57.91000 149.553
57.92000 149.299
57.93000 149.085
57.94000 148.958
57.95000 144.964
57.96000 142.110
57.97000 142.222
57.98000 145.119
57.99000 147.993
58.00000 149.246
58.01000 149.511
58.02000 149.768
58.03000 150.026
58.04000 150.271
58.05000 150.501
58.06000 150.573
58.07000 150.602
58.08000 150.280
58.09000 147.716
58.10000 144.756
58.11000 142.334
58.12000 146.360
58.13000 150.223
58.14000 152.193
58.15000 149.038
58.16000 145.596
58.17000 142.850
58.18000 141.368
58.19000 139.912
58.20000 139.120
58.21000 139.263
58.22000 139.366
58.23000 140.360
58.24000 142.031
58.25000 143.668
58.26000 144.056
58.27000 143.818
58.28000 143.590
58.29000 142.763
58.30000 141.808
58.31000 140.681
58.32000 138.139
58.33000 135.280
58.34000 133.081
58.35000 134.250
58.36000 135.892
58.37000 137.178
58.38000 136.534
58.39000 135.896
58.40000 134.343
58.41000 130.739
58.42000 127.060
58.43000 127.987
58.44000 135.791
58.45000 143.660
58.46000 144.644
58.47000 139.026
58.48000 133.484
58.49000 133.567
58.50000 137.148
58.51000 140.584
58.52000 140.694
58.53000 139.423
58.54000 138.234
58.55000 137.504
58.56000 136.958
58.57000 136.174
58.58000 133.847
58.59000 131.242
58.60000 129.269
58.61000 129.925
58.62000 130.869
58.63000 131.572
58.64000 136.199
58.65000 139.978
58.66000 140.674
58.67000 135.668
58.68000 130.537
58.69000 130.769
58.70000 137.530
58.71000 144.291
58.72000 145.535
58.73000 142.519
58.74000 139.516
58.75000 136.989
58.76000 134.708
58.77000 132.629
58.78000 133.732
58.79000 135.930
58.80000 137.934
58.81000 134.261
58.82000 129.858
58.83000 126.426
58.84000 128.064
58.85000 130.431
58.86000 133.215
58.87000 137.414
58.88000 141.732
58.89000 144.768
58.90000 138.663
58.91000 133.768
58.92000 131.096
58.93000 131.804
58.94000 132.548
58.95000 133.438
58.96000 134.470
58.97000 135.494
58.98000 131.280
58.99000 123.869
59.00000 116.841
59.01000 118.888
59.02000 124.779
59.03000 130.422
59.04000 133.223
59.05000 135.219
59.06000 136.990
59.07000 133.402
59.08000 129.436
59.09000 127.037
59.10000 131.274
59.11000 136.257
59.12000 138.895
59.13000 134.945
59.14000 130.600
59.15000 127.739
59.16000 130.796
59.17000 133.151
59.18000 133.666
59.19000 131.895
59.20000 130.125
59.21000 130.601
59.22000 132.854
59.23000 135.071
59.24000 135.665
59.25000 135.418
59.26000 135.295
59.27000 137.168
59.28000 139.741
59.29000 141.912
59.30000 140.585
59.31000 138.446
59.32000 136.609
59.33000 136.885
59.34000 137.383
59.35000 137.054
59.36000 133.852
59.37000 130.406
59.38000 128.335
59.39000 129.463
59.40000 130.721
59.41000 131.489
59.42000 128.776
59.43000 126.807
59.44000 127.194
59.45000 129.938
59.46000 132.679
59.47000 134.997
59.48000 137.044
59.49000 139.034
59.50000 139.804
59.51000 140.037
59.52000 140.374
59.53000 141.946
59.54000 143.873
59.55000 145.470
59.56000 144.806
59.57000 143.717
59.58000 142.815
59.59000 139.021
59.60000 135.614
59.61000 133.731
59.62000 136.212
59.63000 138.963
59.64000 139.065
59.65000 134.078
59.66000 128.964
59.67000 126.101
59.68000 129.014
59.69000 131.050
59.70000 134.333
59.71000 138.622
59.72000 142.811
59.73000 142.650
59.74000 140.174
59.75000 137.803
59.76000 138.664
59.77000 140.542
59.78000 141.672
59.79000 136.120
59.80000 128.987
59.81000 123.620
59.82000 127.870
59.83000 133.568
59.84000 138.091
59.85000 140.343
59.86000 141.996
59.87000 142.201
59.88000 138.980
59.89000 135.614
59.90000 132.951
59.91000 131.400
59.92000 129.863
59.93000 129.085
59.94000 128.130
59.95000 127.483
59.96000 126.005
59.97000 123.979
59.98000 122.248
59.99000 128.111
60.00000 137.314
60.01000 145.965
60.02000 145.362
60.03000 142.323
60.04000 139.221
60.05000 135.675
60.06000 132.045
60.07000 129.795
60.08000 133.637
60.09000 138.199
60.10000 141.649
60.11000 135.028
60.12000 129.327
60.13000 127.518
60.14000 133.323
60.15000 139.327
60.16000 141.859
60.17000 139.896
60.18000 137.918
60.19000 136.647
60.20000 135.963
60.21000 135.264
60.22000 133.917
60.23000 132.217
60.24000 130.592
60.25000 130.249
60.26000 130.373
60.27000 130.487
60.28000 131.687
60.29000 132.993
60.30000 134.240
60.31000 135.156
60.32000 136.022
60.33000 136.427
60.34000 135.171
60.35000 133.766
60.36000 132.760
60.37000 131.687
60.38000 130.865
60.39000 129.544
60.40000 127.420
60.41000 125.284
60.42000 124.673
60.43000 125.657
60.44000 126.635
60.45000 126.180
60.46000 124.780
60.47000 123.579
60.48000 127.757
60.49000 134.344
60.50000 140.266
60.51000 137.885
60.52000 133.013
60.53000 128.652
60.54000 129.208
60.55000 130.535
60.56000 132.102
60.57000 134.747
60.58000 137.523
60.59000 138.162
60.60000 132.449
60.61000 126.316
60.62000 122.194
60.63000 129.414
60.64000 135.011
60.65000 136.750
60.66000 133.394
60.67000 130.018
60.68000 128.563
60.69000 128.725
60.70000 128.885
60.71000 133.973
60.72000 141.574
60.73000 148.496
60.74000 143.209
60.75000 133.397
60.76000 124.667
60.77000 126.100
60.78000 130.038
60.79000 133.455
60.80000 136.817
60.81000 139.673
60.82000 140.951
60.83000 136.418
60.84000 131.346
60.85000 128.342
60.86000 130.419
60.87000 132.729
60.88000 134.174
60.89000 128.882
60.90000 124.993
60.91000 125.090
60.92000 129.448
60.93000 133.804
60.94000 137.713
60.95000 141.317
60.96000 144.835
60.97000 141.572
60.98000 135.490
60.99000 129.878
61.00000 130.330
61.01000 132.635
61.02000 134.386
61.03000 132.082
61.04000 128.965
61.05000 126.355
61.06000 131.618
61.07000 136.809
61.08000 140.018
61.09000 137.225
61.10000 134.021
61.11000 131.731
61.12000 131.299
61.13000 130.922
61.14000 130.705
61.15000 127.550
61.16000 125.336
61.17000 125.357
61.18000 127.299
61.19000 129.245
61.20000 131.413
61.21000 133.705
61.22000 135.911
61.23000 134.365
61.24000 131.586
61.25000 129.533
61.26000 134.490
61.27000 141.209
61.28000 146.818
61.29000 145.988
61.30000 144.120
61.31000 142.618
61.32000 141.323
61.33000 140.290
61.34000 139.347
61.35000 138.629
61.36000 137.922
61.37000 137.924
61.38000 139.114
61.39000 140.322
61.40000 140.953
61.41000 142.057
61.42000 142.796
61.43000 142.577
61.44000 141.687
61.45000 140.902
61.46000 143.236
61.47000 147.021
61.48000 150.600
61.49000 153.094
61.50000 155.074
61.51000 157.466
61.52000 162.930
61.53000 169.023
61.54000 175.281
61.55000 182.314
61.56000 189.446
61.57000 194.921
61.58000 209.881
61.59000 222.236
61.60000 233.100
61.61000 240.877
61.62000 248.560
61.63000 251.719
61.64000 248.662
61.65000 245.569
61.66000 248.683
61.67000 257.226
61.68000 265.743
61.69000 272.772
61.70000 278.948
61.71000 284.645
61.72000 281.059
61.73000 273.903
61.74000 267.279
61.75000 264.868
61.76000 263.670
61.77000 261.469
61.78000 253.314
61.79000 244.178
61.80000 233.648
61.81000 217.786
61.82000 201.400
61.83000 189.471
61.84000 174.209
61.85000 162.332
61.86000 153.814
61.87000 151.031
61.88000 148.345
61.89000 147.234
61.90000 147.878
61.91000 148.520
61.92000 149.845
61.93000 151.640
61.94000 153.269
61.95000 149.779
61.96000 143.865
61.97000 138.332
61.98000 138.026
61.99000 139.381
62.00000 140.603
62.01000 140.230
62.02000 139.609
62.03000 138.599
62.04000 135.730
62.05000 132.618
62.06000 130.190
62.07000 129.916
62.08000 129.800
62.09000 129.720
62.10000 135.876
62.11000 140.637
62.12000 141.823
62.13000 137.998
62.14000 134.141
62.15000 133.478
62.16000 135.675
62.17000 137.850
62.18000 136.942
62.19000 134.292
62.20000 131.675
62.21000 129.702
62.22000 127.982
62.23000 126.644
62.24000 129.199
62.25000 132.770
62.26000 135.900
62.27000 138.574
62.28000 140.802
62.29000 142.329
62.30000 141.117
62.31000 139.630
62.32000 139.400
62.33000 142.439
62.34000 145.647
62.35000 147.698
62.36000 141.730
62.37000 137.280
62.38000 136.585
62.39000 140.168
62.40000 143.734
62.41000 143.733
62.42000 141.138
62.43000 138.595
62.44000 137.969
62.45000 138.257
62.46000 138.537
62.47000 138.698
62.48000 138.821
62.49000 138.710
62.50000 136.769
62.51000 134.438
62.52000 132.463
62.53000 134.645
62.54000 136.937
62.55000 138.525
62.56000 137.858
62.57000 137.020
62.58000 136.963
62.59000 138.584
62.60000 140.262
62.61000 141.252
62.62000 131.630
62.63000 124.780
62.64000 124.597
62.65000 130.514
62.66000 136.398
62.67000 140.143
62.68000 142.613
62.69000 145.002
62.70000 145.079
62.71000 144.281
62.72000 143.479
62.73000 142.628
62.74000 141.764
62.75000 141.189
62.76000 142.408
62.77000 143.936
62.78000 145.181
62.79000 143.893
62.80000 142.627
62.81000 141.644
62.82000 141.409
62.83000 141.215
62.84000 141.005
62.85000 140.770
62.86000 140.534
62.87000 140.407
62.88000 139.561
62.89000 138.999
62.90000 141.561
62.91000 146.439
62.92000 151.166
62.93000 150.678
62.94000 147.627
62.95000 144.725
62.96000 147.149
62.97000 151.015
62.98000 154.260
62.99000 152.504
63.00000 149.660
63.01000 147.283
63.02000 147.232
63.03000 147.498
63.04000 147.706
63.05000 146.795
63.06000 145.999
63.07000 145.135
63.08000 144.119
63.09000 143.097
63.10000 142.695
63.11000 143.196
63.12000 143.705
63.13000 141.757
63.14000 137.516
63.15000 133.326
63.16000 132.551
63.17000 133.852
63.18000 135.188
63.19000 137.289
63.20000 139.700
63.21000 141.948
63.22000 144.034
63.23000 145.883
63.24000 146.817
63.25000 141.956
63.26000 136.075
63.27000 131.758
63.28000 133.784
63.29000 136.483
63.30000 138.480
63.31000 145.491
63.32000 151.147
63.33000 154.878
63.34000 155.128
63.35000 155.307
63.36000 155.804
63.37000 156.678
63.38000 157.550
63.39000 155.666
63.40000 151.722
63.41000 147.795
63.42000 144.495
63.43000 141.510
63.44000 139.048
63.45000 144.483
63.46000 152.573
63.47000 159.932
63.48000 155.644
63.49000 149.562
63.50000 144.185
63.51000 142.391
63.52000 141.098
63.53000 140.082
63.54000 139.982
63.55000 139.956
63.56000 139.938
63.57000 145.675
63.58000 150.169
63.59000 151.404
63.60000 147.793
63.61000 144.138
63.62000 143.623
63.63000 146.108
63.64000 148.572
63.65000 147.447
63.66000 144.159
63.67000 141.037
63.68000 141.678
63.69000 143.878
63.70000 146.095
63.71000 148.503
63.72000 150.964
63.73000 153.141
63.74000 154.496
63.75000 155.540
63.76000 156.428
63.77000 156.671
63.78000 156.843
63.79000 156.076
63.80000 152.726
63.81000 149.228
63.82000 146.943
63.83000 149.498
63.84000 151.452
63.85000 153.718
63.86000 156.361
63.87000 158.995
63.88000 159.021
63.89000 157.032
63.90000 155.078
63.91000 151.969
63.92000 148.394
63.93000 145.163
63.94000 147.288
63.95000 151.249
63.96000 154.920
63.97000 156.138
63.98000 156.802
63.99000 157.370
64.00000 158.682
64.01000 159.878
64.02000 159.915
64.03000 156.017
64.04000 151.794
64.05000 148.862
64.06000 148.863
64.07000 148.978
64.08000 149.047
64.09000 144.796
64.10000 141.735
64.11000 144.529
64.12000 153.037
64.13000 161.418
64.14000 159.732
64.15000 151.685
64.16000 143.872
64.17000 144.834
64.18000 149.263
64.19000 153.454
64.20000 154.939
64.21000 155.661
64.22000 155.912
64.23000 153.045
64.24000 149.604
64.25000 146.768
64.26000 152.286
64.27000 157.597
64.28000 162.210
64.29000 164.867
64.30000 167.408
64.31000 168.144
64.32000 165.489
64.33000 162.755
64.34000 161.242
64.35000 162.643
64.36000 163.609
64.37000 162.442
64.38000 159.596
64.39000 156.836
64.40000 157.592
64.41000 160.177
64.42000 162.648
64.43000 164.082
64.44000 165.080
64.45000 166.083
64.46000 167.130
64.47000 168.188
64.48000 168.699
64.49000 166.314
64.50000 163.503
64.51000 161.284
64.52000 163.572
64.53000 165.715
64.54000 167.376
64.55000 167.921
64.56000 168.421
64.57000 170.457
64.58000 174.869
64.59000 179.308
64.60000 178.463
64.61000 172.346
64.62000 166.282
64.63000 164.744
64.64000 166.121
64.65000 167.479
64.66000 168.400
64.67000 169.131
64.68000 169.817
64.69000 172.108
64.70000 174.615
64.71000 176.443
64.72000 173.666
64.73000 170.025
64.74000 167.297
64.75000 168.499
64.76000 170.152
64.77000 171.394
64.78000 174.962
64.79000 177.863
64.80000 179.508
64.81000 178.747
64.82000 177.928
64.83000 177.632
64.84000 177.998
64.85000 178.365
64.86000 180.852
64.87000 185.026
64.88000 189.067
64.89000 187.460
64.90000 182.857
64.91000 178.447
64.92000 177.239
64.93000 177.171
64.94000 177.108
64.95000 184.845
64.96000 193.375
64.97000 200.398
64.98000 199.250
64.99000 196.877
65.00000 194.283
65.01000 190.909
65.02000 187.467
65.03000 185.021
65.04000 191.306
65.05000 196.370
65.06000 200.169
65.07000 201.971
65.08000 203.748
65.09000 202.238
65.10000 197.378
65.11000 192.548
65.12000 194.021
65.13000 199.551
65.14000 205.053
65.15000 209.822
65.16000 214.270
65.17000 218.565
65.18000 221.003
65.19000 222.898
65.20000 224.588
65.21000 222.762
65.22000 220.587
65.23000 220.519
65.24000 229.708
65.25000 239.987
65.26000 247.870
65.27000 248.791
65.28000 249.268
65.29000 249.586
65.30000 253.147
65.31000 255.845
65.32000 263.431
65.33000 277.316
65.34000 291.207
65.35000 297.328
65.36000 297.071
65.37000 296.817
65.38000 300.759
65.39000 306.789
65.40000 312.844
65.41000 319.317
65.42000 325.942
65.43000 331.551
65.44000 327.906
65.45000 322.035
65.46000 316.959
65.47000 330.627
65.48000 344.685
65.49000 355.347
65.50000 353.805
65.51000 351.166
65.52000 350.894
65.53000 356.308
65.54000 361.970
65.55000 365.479
65.56000 377.878
65.57000 386.879
65.58000 395.698
65.59000 404.329
65.60000 412.983
65.61000 424.093
65.62000 436.848
65.63000 449.282
65.64000 460.825
65.65000 471.463
65.66000 482.270
65.67000 495.189
65.68000 508.739
65.69000 525.579
65.70000 565.798
65.71000 610.591
65.72000 647.945
65.73000 705.982
65.74000 756.169
65.75000 806.806
65.76000 858.774
65.77000 910.831
65.78000 960.148
65.79000 1004.022
65.80000 1047.747
65.81000 1072.634
65.82000 1100.259
65.83000 1119.514
65.84000 1134.268
65.85000 1145.250
65.86000 1155.974
65.87000 1154.275
65.88000 1145.736
65.89000 1137.532
65.90000 1128.607
65.91000 1120.003
65.92000 1108.332
65.93000 1067.965
65.94000 1020.557
65.95000 970.519
65.96000 905.606
65.97000 838.359
65.98000 784.550
65.99000 717.159
66.00000 661.653
66.01000 607.047
66.02000 554.641
66.03000 502.336
66.04000 458.611
66.05000 428.942
66.06000 399.476
66.07000 384.280
66.08000 368.961
66.09000 358.643
66.10000 348.385
66.11000 338.169
66.12000 328.041
66.13000 320.412
66.14000 313.919
66.15000 307.792
66.16000 311.836
66.17000 318.385
66.18000 324.172
66.19000 324.430
66.20000 323.583
66.21000 323.368
66.22000 326.046
66.23000 329.081
66.24000 331.398
66.25000 337.340
66.26000 342.217
66.27000 349.848
66.28000 363.057
66.29000 376.426
66.30000 386.230
66.31000 391.251
66.32000 396.243
66.33000 401.416
66.34000 406.732
66.35000 412.068
66.36000 418.449
66.37000 425.416
66.38000 432.412
66.39000 439.951
66.40000 447.695
66.41000 454.843
66.42000 451.898
66.43000 446.994
66.44000 443.113
66.45000 445.147
66.46000 448.131
66.47000 448.580
66.48000 439.552
66.49000 429.625
66.50000 422.446
66.51000 415.736
66.52000 410.604
66.53000 402.830
66.54000 390.645
66.55000 378.391
66.56000 366.452
66.57000 354.856
66.58000 343.313
66.59000 334.109
66.60000 326.617
66.61000 319.418
66.62000 320.848
66.63000 326.275
66.64000 330.848
66.65000 324.145
66.66000 313.940
66.67000 304.759
66.68000 312.576
66.69000 322.462
66.70000 329.414
66.71000 322.666
66.72000 314.182
66.73000 308.123
66.74000 309.524
66.75000 311.448
66.76000 312.757
66.77000 307.395
66.78000 303.240
66.79000 303.304
66.80000 309.142
66.81000 315.012
66.82000 318.590
66.83000 320.163
66.84000 321.719
66.85000 324.942
66.86000 329.017
66.87000 332.948
66.88000 334.081
66.89000 334.143
66.90000 334.038
66.91000 332.295
66.92000 330.134
66.93000 328.247
66.94000 329.614
66.95000 331.240
66.96000 333.081
66.97000 335.743
66.98000 338.484
66.99000 339.652
67.00000 336.818
67.01000 333.788
67.02000 331.867
67.03000 332.114
67.04000 332.319
67.05000 335.280
67.06000 341.303
67.07000 347.297
67.08000 349.060
67.09000 347.816
67.10000 346.600
67.11000 350.098
67.12000 355.592
67.13000 360.614
67.14000 359.222
67.15000 355.800
67.16000 352.943
67.17000 354.403
67.18000 356.761
67.19000 358.749
67.20000 362.818
67.21000 366.442
67.22000 369.304
67.23000 369.782
67.24000 370.086
67.25000 372.829
67.26000 380.699
67.27000 388.732
67.28000 393.426
67.29000 380.971
67.30000 372.131
67.31000 369.103
67.32000 371.261
67.33000 373.374
67.34000 372.843
67.35000 370.770
67.36000 368.770
67.37000 373.393
67.38000 380.183
67.39000 386.924
67.40000 393.180
67.41000 399.309
67.42000 404.710
67.43000 405.718
67.44000 405.989
67.45000 406.209
67.46000 402.948
67.47000 400.008
67.48000 398.447
67.49000 400.461
67.50000 402.657
67.51000 406.365
67.52000 412.698
67.53000 419.078
67.54000 422.470
67.55000 428.517
67.56000 432.612
67.57000 432.960
67.58000 430.593
67.59000 428.195
67.60000 424.765
67.61000 420.839
67.62000 417.113
67.63000 416.492
67.64000 416.843
67.65000 417.292
67.66000 418.499
67.67000 419.869
67.68000 422.684
67.69000 432.526
67.70000 443.303
67.71000 451.650
67.72000 452.090
67.73000 451.970
67.74000 451.648
67.75000 450.891
67.76000 450.119
67.77000 449.097
67.78000 447.719
67.79000 446.338
67.80000 451.932
67.81000 463.873
67.82000 475.630
67.83000 475.863
67.84000 469.250
67.85000 463.145
67.86000 467.568
67.87000 476.179
67.88000 484.183
67.89000 488.234
67.90000 490.942
67.91000 492.551
67.92000 487.370
67.93000 481.025
67.94000 477.563
67.95000 485.522
67.96000 494.657
67.97000 501.374
67.98000 497.415
67.99000 493.914
68.00000 496.783
68.01000 510.914
68.02000 525.260
68.03000 532.578
68.04000 531.754
68.05000 530.921
68.06000 531.175
68.07000 532.223
68.08000 533.233
68.09000 532.934
68.10000 531.992
68.11000 531.189
68.12000 532.380
68.13000 534.227
68.14000 535.903
68.15000 542.887
68.16000 550.064
68.17000 557.018
68.18000 562.859
68.19000 568.550
68.20000 572.952
68.21000 573.162
68.22000 573.047
68.23000 572.968
68.24000 584.661
68.25000 593.773
68.26000 600.263
68.27000 602.942
68.28000 605.590
68.29000 608.754
68.30000 612.398
68.31000 616.008
68.32000 626.358
68.33000 640.503
68.34000 653.874
68.35000 650.586
68.36000 640.546
68.37000 631.897
68.38000 638.130
68.39000 648.390
68.40000 657.432
68.41000 665.273
68.42000 671.850
68.43000 679.277
68.44000 690.142
68.45000 701.370
68.46000 712.781
68.47000 724.679
68.48000 736.605
68.49000 744.329
68.50000 748.217
68.51000 751.004
68.52000 764.248
68.53000 789.863
68.54000 815.429
68.55000 826.650
68.56000 827.055
68.57000 827.453
68.58000 860.794
68.59000 908.827
68.60000 955.644
68.61000 984.266
68.62000 1006.794
68.63000 1032.278
68.64000 1082.008
68.65000 1137.103
68.66000 1184.065
68.67000 1232.075
68.68000 1272.585
68.69000 1317.077
68.70000 1374.784
68.71000 1433.542
68.72000 1492.345
68.73000 1551.250
68.74000 1610.159
68.75000 1645.457
68.76000 1712.357
68.77000 1760.074
68.78000 1816.880
68.79000 1882.332
68.80000 1947.947
68.81000 2025.440
68.82000 2110.265
68.83000 2192.496
68.84000 2308.169
68.85000 2430.802
68.86000 2560.681
68.87000 2770.305
68.88000 3001.930
68.89000 3270.698
68.90000 3779.223
68.91000 4330.664
68.92000 4783.085
68.93000 6557.457
68.94000 8131.310
68.95000 10122.275
68.96000 13255.433
68.97000 16453.828
68.98000 20135.598
68.99000 24704.971
69.00000 29293.516
69.01000 31806.043
69.02000 38058.410
69.03000 42359.020
69.04000 45723.742
69.05000 48368.488
69.06000 50984.719
69.07000 52526.043
69.08000 53520.480
69.09000 54469.199
69.10000 54858.602
69.11000 55042.855
69.12000 55262.000
69.13000 55774.535
69.14000 56353.305
69.15000 56943.906
69.16000 57595.734
69.17000 58256.297
69.18000 58775.078
69.19000 57950.129
69.20000 57202.012
69.21000 55859.746
69.22000 53171.961
69.23000 50432.656
69.24000 47482.727
69.25000 44214.641
69.26000 40943.410
69.27000 38171.980
69.28000 35886.480
69.29000 33609.871
69.30000 32032.258
69.31000 30894.543
69.32000 29771.199
69.33000 28983.717
69.34000 28337.502
69.35000 27732.961
69.36000 26892.994
69.37000 26069.768
69.38000 25154.277
69.39000 23629.609
69.40000 21993.547
69.41000 20218.266
69.42000 17857.656
69.43000 15431.892
69.44000 13619.455
69.45000 11040.041
69.46000 8993.828
69.47000 7243.256
69.48000 6045.910
69.49000 4861.244
69.50000 3950.363
69.51000 3376.977
69.52000 2805.630
69.53000 2424.339
69.54000 2193.425
69.55000 1964.083
69.56000 1797.313
69.57000 1662.982
69.58000 1531.461
69.59000 1444.900
69.60000 1373.974
69.61000 1309.157
69.62000 1251.299
69.63000 1201.331
69.64000 1156.367
69.65000 1137.850
69.66000 1123.194
69.67000 1103.626
69.68000 1067.128
69.69000 1029.202
69.70000 1002.432
69.71000 951.712
69.72000 912.494
69.73000 884.400
69.74000 873.437
69.75000 862.664
69.76000 853.434
69.77000 845.735
69.78000 838.090
69.79000 827.971
69.80000 816.450
69.81000 804.659
69.82000 786.302
69.83000 765.131
69.84000 745.325
69.85000 741.428
69.86000 742.093
69.87000 742.684
69.88000 738.539
69.89000 734.174
69.90000 727.166
69.91000 708.820
69.92000 689.180
69.93000 674.610
69.94000 674.455
69.95000 675.182
69.96000 675.662
69.97000 669.719
69.98000 665.218
69.99000 657.158
70.00000 644.619
