20.00000 581.157
20.01000 578.958
20.02000 576.445
20.03000 574.044
20.04000 572.079
20.05000 570.156
20.06000 568.753
20.07000 568.565
20.08000 568.468
20.09000 567.185
20.10000 563.856
20.11000 560.491
20.12000 560.551
20.13000 564.475
20.14000 568.388
20.15000 568.692
20.16000 566.417
20.17000 564.119
20.18000 561.072
20.19000 557.667
20.20000 555.018
20.21000 562.904
20.22000 574.169
20.23000 584.350
20.24000 580.613
20.25000 574.740
20.26000 569.994
20.27000 570.691
20.28000 572.106
20.29000 572.364
20.30000 568.944
20.31000 565.250
20.32000 562.711
20.33000 559.346
20.34000 556.802
20.35000 554.938
20.36000 554.038
20.37000 553.146
20.38000 552.963
20.39000 553.422
20.40000 553.876
20.41000 557.956
20.42000 564.043
20.43000 569.837
20.44000 569.636
20.45000 567.063
20.46000 564.863
20.47000 566.517
20.48000 569.189
20.49000 571.534
20.50000 557.609
20.51000 543.264
20.52000 532.230
20.53000 534.245
20.54000 537.593
20.55000 540.533
20.56000 542.403
20.57000 544.217
20.58000 545.382
20.59000 543.148
20.60000 541.473
20.61000 547.090
20.62000 561.106
20.63000 575.079
20.64000 579.669
20.65000 577.366
20.66000 575.108
20.67000 576.671
20.68000 579.968
20.69000 582.587
20.70000 575.477
20.71000 565.187
20.72000 555.435
20.73000 549.955
20.74000 545.395
20.75000 541.527
20.76000 547.721
20.77000 554.056
20.78000 558.510
20.79000 556.876
20.80000 554.776
20.81000 552.410
20.82000 549.463
20.83000 546.496
20.84000 544.738
20.85000 550.071
20.86000 553.882
20.87000 552.943
20.88000 547.609
20.89000 542.342
20.90000 541.463
20.91000 543.228
20.92000 544.935
20.93000 550.961
20.94000 558.300
20.95000 565.346
20.96000 569.288
20.97000 572.394
20.98000 573.795
20.99000 564.491
21.00000 553.324
21.01000 544.210
21.02000 545.716
21.03000 547.859
21.04000 551.975
21.05000 561.362
21.06000 571.036
21.07000 572.143
21.08000 557.896
21.09000 543.344
21.10000 535.473
21.11000 556.740
21.12000 571.287
21.13000 577.030
21.14000 576.174
21.15000 575.218
21.16000 570.768
21.17000 564.583
21.18000 558.696
21.19000 557.184
21.20000 557.133
21.21000 557.951
21.22000 565.852
21.23000 575.311
21.24000 581.121
21.25000 568.548
21.26000 553.431
21.27000 541.630
21.28000 541.415
21.29000 541.971
21.30000 541.760
21.31000 539.848
21.32000 537.875
21.33000 536.507
21.34000 536.031
21.35000 535.562
21.36000 534.517
21.37000 532.927
21.38000 531.440
21.39000 537.206
21.40000 547.426
21.41000 557.386
21.42000 561.599
21.43000 563.451
21.44000 565.180
21.45000 564.719
21.46000 563.758
21.47000 562.367
21.48000 558.220
21.49000 553.582
21.50000 550.409
21.51000 553.240
21.52000 556.716
21.53000 559.297
21.54000 547.493
21.55000 537.690
21.56000 532.717
21.57000 536.565
21.58000 540.600
21.59000 546.753
21.60000 555.449
21.61000 564.128
21.62000 565.076
21.63000 560.140
21.64000 555.376
21.65000 556.968
21.66000 561.777
21.67000 566.299
21.68000 566.429
21.69000 565.067
21.70000 563.826
21.71000 561.349
21.72000 558.908
21.73000 558.426
21.74000 568.018
21.75000 579.037
21.76000 587.619
21.77000 587.999
21.78000 587.713
21.79000 587.513
21.80000 587.191
21.81000 586.945
21.82000 592.302
21.83000 606.076
21.84000 619.932
21.85000 629.488
21.86000 634.890
21.87000 640.249
21.88000 643.079
21.89000 644.304
21.90000 645.975
21.91000 657.930
21.92000 674.188
21.93000 690.163
21.94000 702.951
21.95000 714.848
21.96000 725.385
21.97000 719.103
21.98000 711.022
21.99000 705.457
22.00000 710.404
22.01000 716.513
22.02000 725.628
22.03000 743.085
22.04000 761.030
22.05000 772.793
22.06000 758.018
22.07000 746.713
22.08000 741.629
22.09000 744.167
22.10000 746.713
22.11000 746.376
22.12000 743.788
22.13000 741.243
22.14000 735.643
22.15000 728.701
22.16000 721.342
22.17000 707.384
22.18000 691.142
22.19000 675.537
22.20000 665.379
22.21000 656.469
22.22000 648.828
22.23000 644.033
22.24000 640.332
22.25000 637.508
22.26000 637.693
22.27000 638.129
22.28000 636.438
22.29000 629.864
22.30000 623.097
22.31000 618.986
22.32000 610.841
22.33000 604.995
22.34000 598.432
22.35000 591.159
22.36000 583.959
22.37000 582.756
22.38000 585.381
22.39000 587.931
22.40000 586.734
22.41000 584.080
22.42000 581.507
22.43000 579.875
22.44000 578.511
22.45000 576.938
22.46000 573.963
22.47000 570.728
22.48000 568.056
22.49000 560.229
22.50000 553.298
22.51000 548.411
22.52000 549.305
22.53000 550.550
22.54000 547.910
22.55000 537.900
22.56000 527.715
22.57000 522.047
22.58000 542.791
22.59000 557.142
22.60000 556.190
22.61000 543.050
22.62000 530.082
22.63000 524.190
22.64000 522.017
22.65000 519.937
22.66000 527.874
22.67000 538.555
22.68000 547.486
22.69000 541.060
22.70000 531.047
22.71000 522.264
22.72000 520.083
22.73000 518.881
22.74000 517.931
22.75000 519.430
22.76000 520.804
22.77000 519.660
22.78000 512.629
22.79000 505.355
22.80000 501.075
22.81000 501.472
22.82000 501.923
22.83000 502.150
22.84000 504.579
22.85000 506.179
22.86000 505.791
22.87000 504.109
22.88000 502.781
22.89000 510.340
22.90000 521.757
22.91000 532.475
22.92000 528.942
22.93000 521.943
22.94000 515.782
22.95000 515.376
22.96000 516.061
22.97000 516.310
22.98000 514.658
22.99000 512.786
23.00000 511.375
23.01000 511.224
23.02000 511.168
23.03000 511.274
23.04000 511.693
23.05000 512.120
23.06000 515.066
23.07000 521.226
23.08000 527.389
23.09000 525.043
23.10000 515.817
23.11000 506.794
23.12000 506.714
23.13000 511.421
23.14000 515.762
23.15000 513.891
23.16000 509.790
23.17000 506.027
23.18000 503.028
23.19000 500.516
23.20000 498.090
23.21000 496.132
23.22000 494.244
23.23000 493.786
23.24000 498.417
23.25000 503.499
23.26000 507.122
23.27000 508.697
23.28000 509.830
23.29000 513.796
23.30000 522.273
23.31000 530.807
23.32000 528.870
23.33000 516.134
23.34000 503.474
23.35000 498.505
23.36000 498.636
23.37000 498.928
23.38000 503.455
23.39000 509.857
23.40000 516.029
23.41000 519.406
23.42000 521.954
23.43000 524.231
23.44000 515.294
23.45000 505.615
23.46000 499.521
23.47000 509.338
23.48000 521.052
23.49000 529.170
23.50000 526.731
23.51000 523.607
23.52000 521.517
23.53000 500.087
23.54000 483.813
23.55000 482.327
23.56000 500.102
23.57000 517.922
23.58000 518.435
23.59000 504.586
23.60000 490.928
23.61000 492.413
23.62000 501.889
23.63000 510.873
23.64000 511.211
23.65000 508.386
23.66000 505.704
23.67000 504.342
23.68000 503.302
23.69000 502.401
23.70000 502.066
23.71000 501.855
23.72000 502.488
23.73000 506.182
23.74000 510.156
23.75000 509.718
23.76000 498.571
23.77000 486.945
23.78000 479.714
23.79000 492.002
23.80000 501.048
23.81000 505.242
23.82000 504.325
23.83000 503.390
23.84000 500.600
23.85000 496.555
23.86000 492.609
23.87000 494.516
23.88000 498.859
23.89000 502.595
23.90000 498.684
23.91000 492.462
23.92000 487.490
23.93000 491.501
23.94000 497.289
23.95000 502.125
23.96000 496.953
23.97000 491.644
23.98000 488.214
23.99000 490.405
24.00000 492.973
24.01000 493.895
24.02000 491.514
24.03000 489.041
24.04000 487.626
24.05000 485.824
24.06000 484.571
24.07000 487.190
24.08000 493.091
24.09000 498.820
24.10000 496.041
24.11000 488.531
24.12000 481.310
24.13000 486.087
24.14000 494.754
24.15000 502.208
24.16000 498.150
24.17000 491.238
24.18000 484.826
24.19000 481.274
24.20000 478.176
24.21000 475.691
24.22000 483.635
24.23000 490.858
24.24000 494.781
24.25000 490.547
24.26000 485.933
24.27000 482.194
24.28000 479.902
24.29000 477.632
24.30000 476.455
24.31000 485.298
24.32000 491.257
24.33000 495.728
24.34000 499.174
24.35000 502.640
24.36000 506.714
24.37000 511.066
24.38000 515.177
24.39000 506.566
24.40000 495.071
24.41000 484.065
24.42000 476.661
24.43000 469.984
24.44000 467.150
24.45000 482.081
24.46000 499.237
24.47000 512.364
24.48000 503.028
24.49000 494.435
24.50000 487.904
24.51000 485.590
24.52000 483.401
24.53000 485.059
24.54000 491.932
24.55000 498.830
24.56000 497.121
24.57000 487.985
24.58000 479.001
24.59000 478.048
24.60000 481.646
24.61000 485.084
24.62000 485.499
24.63000 484.765
24.64000 484.087
24.65000 485.534
24.66000 487.315
24.67000 488.787
24.68000 488.459
24.69000 487.839
24.70000 487.617
24.71000 488.897
24.72000 490.322
24.73000 491.355
24.74000 485.199
24.75000 480.201
24.76000 475.048
24.77000 469.635
24.78000 464.218
24.79000 464.738
24.80000 471.786
24.81000 478.807
24.82000 482.409
24.83000 483.593
24.84000 484.575
24.85000 479.510
24.86000 471.615
24.87000 464.566
24.88000 468.863
24.89000 476.718
24.90000 483.795
24.91000 482.610
24.92000 480.077
24.93000 478.049
24.94000 478.405
24.95000 479.067
24.96000 477.978
24.97000 471.450
24.98000 464.534
24.99000 459.815
25.00000 461.317
25.01000 462.584
25.02000 466.651
25.03000 474.588
25.04000 482.548
25.05000 487.813
25.06000 490.698
25.07000 493.551
25.08000 491.307
25.09000 486.239
25.10000 481.125
25.11000 475.109
25.12000 468.743
25.13000 463.190
25.14000 465.763
25.15000 470.432
25.16000 474.515
25.17000 473.907
25.18000 472.720
25.19000 472.872
25.20000 478.184
25.21000 484.007
25.22000 488.558
25.23000 489.847
25.24000 490.971
25.25000 491.687
25.26000 470.912
25.27000 455.549
25.28000 449.431
25.29000 453.699
25.30000 457.951
25.31000 458.437
25.32000 456.221
25.33000 454.051
25.34000 453.388
25.35000 453.440
25.36000 453.612
25.37000 455.436
25.38000 457.788
25.39000 460.236
25.40000 463.423
25.41000 466.766
25.42000 469.589
25.43000 466.716
25.44000 463.688
25.45000 461.254
25.46000 460.706
25.47000 460.296
25.48000 460.749
25.49000 463.033
25.50000 465.377
25.51000 466.752
25.52000 466.304
25.53000 465.976
25.54000 461.264
25.55000 452.597
25.56000 444.132
25.57000 447.808
25.58000 458.633
25.59000 469.090
25.60000 477.692
25.61000 485.112
25.62000 491.039
25.63000 481.629
25.64000 468.185
25.65000 457.463
25.66000 463.366
25.67000 472.090
25.68000 479.176
25.69000 466.034
25.70000 453.637
25.71000 447.287
25.72000 456.745
25.73000 467.028
25.74000 473.091
25.75000 471.758
25.76000 470.289
25.77000 469.504
25.78000 473.740
25.79000 476.582
25.80000 470.954
25.81000 459.126
25.82000 447.725
25.83000 450.489
25.84000 460.131
25.85000 469.289
25.86000 466.341
25.87000 459.976
25.88000 454.773
25.89000 458.767
25.90000 464.735
25.91000 469.886
25.92000 471.021
25.93000 471.616
25.94000 472.078
25.95000 478.902
25.96000 484.713
25.97000 486.073
25.98000 477.809
25.99000 469.215
26.00000 463.383
26.01000 461.525
26.02000 459.700
26.03000 457.788
26.04000 455.797
26.05000 453.839
26.06000 453.999
26.07000 455.429
26.08000 456.890
26.09000 458.987
26.10000 461.340
26.11000 463.530
26.12000 467.143
26.13000 470.752
26.14000 472.948
26.15000 466.311
26.16000 458.143
26.17000 451.583
26.18000 451.460
26.19000 452.009
26.20000 452.413
26.21000 449.168
26.22000 446.500
26.23000 444.313
26.24000 442.984
26.25000 441.671
26.26000 442.907
26.27000 447.129
26.28000 451.343
26.29000 452.226
26.30000 450.632
26.31000 449.101
26.32000 449.788
26.33000 451.571
26.34000 453.535
26.35000 458.148
26.36000 463.642
26.37000 468.630
26.38000 471.333
26.39000 473.278
26.40000 473.054
26.41000 461.952
26.42000 449.350
26.43000 441.269
26.44000 448.053
26.45000 456.001
26.46000 461.528
26.47000 461.812
26.48000 461.884
26.49000 458.478
26.50000 449.966
26.51000 441.411
26.52000 437.834
26.53000 438.944
26.54000 440.044
26.55000 443.592
26.56000 448.540
26.57000 453.434
26.58000 457.150
26.59000 460.383
26.60000 463.183
26.61000 461.276
26.62000 458.082
26.63000 455.264
26.64000 451.757
26.65000 448.627
26.66000 445.510
26.67000 442.450
26.68000 439.396
26.69000 436.853
26.70000 435.695
26.71000 434.615
26.72000 433.913
26.73000 439.792
26.74000 444.201
26.75000 448.363
26.76000 452.230
26.77000 456.067
26.78000 453.632
26.79000 446.417
26.80000 439.331
26.81000 438.264
26.82000 440.165
26.83000 442.038
26.84000 443.482
26.85000 444.780
26.86000 445.883
26.87000 445.359
26.88000 444.472
26.89000 443.715
26.90000 451.394
26.91000 458.863
26.92000 463.422
26.93000 458.227
26.94000 452.244
26.95000 449.388
26.96000 453.548
26.97000 457.972
26.98000 460.634
26.99000 460.730
27.00000 460.781
27.01000 457.355
27.02000 450.585
27.03000 443.810
27.04000 436.628
27.05000 429.192
27.06000 421.979
27.07000 431.030
27.08000 446.040
27.09000 459.594
27.10000 456.889
27.11000 449.653
27.12000 443.831
27.13000 447.252
27.14000 452.345
27.15000 456.533
27.16000 446.563
27.17000 437.091
27.18000 431.042
27.19000 434.455
27.20000 438.419
27.21000 440.043
27.22000 437.329
27.23000 434.517
27.24000 432.970
27.25000 442.089
27.26000 448.362
27.27000 448.059
27.28000 442.642
27.29000 437.292
27.30000 434.531
27.31000 433.101
27.32000 431.735
27.33000 434.281
27.34000 437.900
27.35000 441.037
27.36000 440.076
27.37000 438.180
27.38000 436.794
27.39000 438.074
27.40000 439.738
27.41000 441.048
27.42000 435.461
27.43000 430.526
27.44000 429.501
27.45000 437.418
27.46000 445.686
27.47000 447.514
27.48000 439.516
27.49000 431.414
27.50000 427.402
27.51000 427.412
27.52000 427.445
27.53000 429.384
27.54000 432.536
27.55000 435.620
27.56000 437.087
27.57000 437.868
27.58000 438.600
27.59000 436.265
27.60000 433.349
27.61000 430.685
27.62000 429.702
27.63000 429.031
27.64000 428.633
27.65000 429.399
27.66000 430.297
27.67000 430.970
27.68000 426.285
27.69000 422.375
27.70000 419.292
27.71000 417.767
27.72000 416.280
27.73000 415.863
27.74000 416.781
27.75000 417.701
27.76000 418.770
27.77000 419.952
27.78000 421.096
27.79000 420.652
27.80000 419.376
27.81000 418.608
27.82000 426.092
27.83000 436.475
27.84000 445.976
27.85000 447.440
27.86000 447.080
27.87000 447.097
27.88000 449.135
27.89000 451.471
27.90000 451.984
27.91000 446.147
27.92000 439.766
27.93000 435.248
27.94000 433.335
27.95000 431.961
27.96000 431.030
27.97000 430.785
27.98000 430.549
27.99000 431.956
28.00000 435.016
28.01000 438.055
28.02000 438.062
28.03000 436.133
28.04000 434.321
28.05000 435.392
28.06000 437.712
28.07000 439.805
28.08000 439.227
28.09000 437.874
28.10000 436.670
28.11000 429.686
28.12000 422.669
28.13000 418.003
28.14000 423.520
28.15000 430.216
28.16000 433.440
28.17000 426.699
28.18000 419.337
28.19000 414.450
28.20000 430.236
28.21000 442.284
28.22000 442.946
28.23000 429.130
28.24000 415.303
28.25000 415.694
28.26000 427.599
28.27000 439.327
28.28000 436.443
28.29000 426.081
28.30000 416.490
28.31000 419.901
28.32000 427.964
28.33000 434.909
28.34000 431.832
28.35000 426.375
28.36000 421.667
28.37000 422.769
28.38000 424.448
28.39000 425.014
28.40000 421.626
28.41000 417.890
28.42000 417.258
28.43000 423.994
28.44000 431.043
28.45000 435.388
28.46000 431.430
28.47000 428.515
28.48000 426.970
28.49000 426.832
28.50000 426.702
28.51000 427.397
28.52000 428.636
28.53000 429.844
28.54000 425.252
28.55000 418.437
28.56000 412.794
28.57000 421.416
28.58000 434.248
28.59000 444.655
28.60000 438.095
28.61000 428.261
28.62000 420.081
28.63000 421.678
28.64000 423.961
28.65000 425.469
28.66000 424.716
28.67000 423.817
28.68000 423.801
28.69000 425.519
28.70000 427.283
28.71000 428.281
28.72000 426.868
28.73000 425.877
28.74000 424.572
28.75000 423.005
28.76000 421.389
28.77000 417.480
28.78000 412.326
28.79000 407.379
28.80000 409.972
28.81000 414.966
28.82000 419.132
28.83000 415.690
28.84000 410.404
28.85000 405.525
28.86000 402.908
28.87000 400.641
28.88000 398.832
28.89000 410.072
28.90000 420.099
28.91000 427.821
28.92000 429.969
28.93000 431.870
28.94000 429.450
28.95000 420.045
28.96000 410.545
28.97000 405.680
28.98000 407.147
28.99000 408.105
29.00000 405.964
29.01000 401.734
29.02000 397.862
29.03000 403.739
29.04000 413.994
29.05000 423.658
29.06000 426.280
29.07000 426.741
29.08000 427.404
29.09000 429.517
29.10000 431.915
29.11000 433.171
29.12000 429.271
29.13000 424.744
29.14000 421.300
29.15000 427.892
29.16000 433.603
29.17000 434.293
29.18000 424.942
29.19000 415.311
29.20000 411.137
29.21000 414.187
29.22000 417.269
29.23000 421.309
29.24000 426.147
29.25000 430.820
29.26000 427.446
29.27000 419.613
29.28000 412.106
29.29000 410.472
29.30000 411.019
29.31000 411.523
29.32000 415.923
29.33000 420.724
29.34000 425.580
29.35000 430.747
29.36000 435.964
29.37000 438.738
29.38000 432.506
29.39000 425.434
29.40000 420.339
29.41000 409.313
29.42000 400.657
29.43000 396.845
29.44000 401.021
29.45000 405.315
29.46000 406.135
29.47000 403.232
29.48000 400.341
29.49000 401.795
29.50000 406.181
29.51000 410.307
29.52000 407.009
29.53000 400.313
29.54000 394.235
29.55000 396.145
29.56000 400.504
29.57000 404.418
29.58000 412.710
29.59000 420.735
29.60000 426.651
29.61000 422.861
29.62000 417.862
29.63000 414.568
29.64000 416.455
29.65000 418.698
29.66000 420.216
29.67000 410.783
29.68000 403.513
29.69000 403.492
29.70000 413.261
29.71000 423.076
29.72000 426.977
29.73000 425.783
29.74000 424.603
29.75000 427.462
29.76000 432.473
29.77000 436.771
29.78000 427.725
29.79000 413.630
29.80000 401.941
29.81000 413.587
29.82000 431.111
29.83000 446.377
29.84000 441.341
29.85000 434.234
29.86000 429.494
29.87000 433.654
29.88000 438.666
29.89000 443.160
29.90000 446.353
29.91000 449.483
29.92000 451.457
29.93000 456.727
29.94000 460.581
29.95000 458.917
29.96000 451.209
29.97000 443.585
29.98000 447.430
29.99000 459.314
30.00000 470.931
30.01000 472.438
30.02000 469.364
30.03000 466.561
30.04000 467.371
30.05000 469.310
30.06000 471.232
30.07000 473.022
30.08000 474.786
30.09000 476.270
30.10000 467.966
30.11000 459.999
30.12000 454.071
30.13000 454.453
30.14000 455.282
30.15000 454.234
30.16000 449.288
30.17000 444.222
30.18000 441.278
30.19000 455.017
30.20000 464.726
30.21000 465.274
30.22000 457.763
30.23000 450.268
30.24000 443.630
30.25000 437.484
30.26000 431.558
30.27000 431.081
30.28000 432.608
30.29000 434.610
30.30000 441.339
30.31000 449.282
30.32000 455.368
30.33000 450.408
30.34000 443.621
30.35000 438.137
30.36000 429.179
30.37000 421.616
30.38000 417.529
30.39000 422.332
30.40000 427.578
30.41000 429.680
30.42000 426.397
30.43000 423.022
30.44000 421.239
30.45000 422.887
30.46000 424.000
30.47000 424.040
30.48000 423.314
30.49000 422.710
30.50000 425.899
30.51000 430.890
30.52000 435.620
30.53000 435.824
30.54000 434.684
30.55000 433.743
30.56000 434.327
30.57000 435.230
30.58000 436.579
30.59000 440.063
30.60000 443.827
30.61000 446.732
30.62000 447.121
30.63000 447.284
30.64000 447.334
30.65000 447.144
30.66000 446.946
30.67000 448.202
30.68000 451.499
30.69000 454.809
30.70000 460.750
30.71000 469.045
30.72000 477.189
30.73000 476.378
30.74000 470.314
30.75000 464.697
30.76000 468.104
30.77000 475.056
30.78000 481.508
30.79000 479.370
30.80000 475.416
30.81000 472.208
30.82000 473.545
30.83000 475.650
30.84000 477.072
30.85000 475.819
30.86000 474.295
30.87000 473.179
30.88000 492.863
30.89000 508.895
30.90000 519.408
30.91000 520.289
30.92000 520.994
30.93000 529.263
30.94000 546.174
30.95000 563.036
30.96000 576.959
30.97000 588.639
30.98000 600.381
30.99000 614.160
31.00000 628.926
31.01000 644.557
31.02000 672.466
31.03000 704.361
31.04000 733.235
31.05000 770.512
31.06000 804.933
31.07000 843.254
31.08000 900.669
31.09000 960.643
31.10000 1018.035
31.11000 1067.130
31.12000 1115.599
31.13000 1149.051
31.14000 1258.344
31.15000 1342.402
31.16000 1440.863
31.17000 1559.973
31.18000 1679.238
31.19000 1787.644
31.20000 1886.085
31.21000 1983.572
31.22000 2114.679
31.23000 2262.740
31.24000 2410.661
31.25000 2555.655
31.26000 2699.477
31.27000 2842.329
31.28000 2974.990
31.29000 3104.930
31.30000 3219.200
31.31000 3308.797
31.32000 3382.221
31.33000 3454.877
31.34000 3524.469
31.35000 3593.741
31.36000 3650.075
31.37000 3672.067
31.38000 3692.211
31.39000 3705.196
31.40000 3655.780
31.41000 3618.802
31.42000 3564.211
31.43000 3489.073
31.44000 3413.836
31.45000 3325.550
31.46000 3227.556
31.47000 3131.426
31.48000 3003.620
31.49000 2865.417
31.50000 2729.457
31.51000 2626.349
31.52000 2534.106
31.53000 2435.791
31.54000 2288.466
31.55000 2130.445
31.56000 1996.067
31.57000 1859.545
31.58000 1744.637
31.59000 1629.399
31.60000 1513.076
31.61000 1396.669
31.62000 1296.209
31.63000 1230.758
31.64000 1166.552
31.65000 1128.291
31.66000 1028.913
31.67000 958.117
31.68000 905.099
31.69000 868.747
31.70000 832.433
31.71000 798.711
31.72000 766.568
31.73000 735.438
31.74000 707.579
31.75000 682.488
31.76000 657.155
31.77000 629.202
31.78000 600.535
31.79000 573.837
31.80000 559.664
31.81000 547.700
31.82000 537.912
31.83000 532.857
31.84000 529.130
31.85000 521.758
31.86000 504.529
31.87000 486.751
31.88000 471.919
31.89000 462.427
31.90000 453.046
31.91000 447.943
31.92000 450.777
31.93000 452.729
31.94000 454.201
31.95000 455.308
31.96000 456.392
31.97000 456.631
31.98000 456.446
31.99000 456.269
32.00000 449.182
32.01000 440.454
32.02000 432.189
32.03000 427.763
32.04000 424.193
32.05000 420.587
32.06000 416.803
32.07000 412.993
32.08000 410.011
32.09000 421.102
32.10000 430.864
32.11000 436.829
32.12000 434.300
32.13000 431.455
32.14000 433.432
32.15000 442.599
32.16000 451.833
32.17000 449.039
32.18000 434.726
32.19000 420.518
32.20000 414.104
32.21000 412.533
32.22000 411.025
32.23000 410.943
32.24000 411.454
32.25000 411.931
32.26000 406.455
32.27000 399.987
32.28000 394.447
32.29000 394.937
32.30000 396.515
32.31000 398.284
32.32000 400.846
32.33000 403.496
32.34000 405.468
32.35000 395.527
32.36000 387.255
32.37000 384.401
32.38000 391.560
32.39000 398.939
32.40000 400.202
32.41000 394.030
32.42000 387.854
32.43000 385.120
32.44000 385.052
32.45000 384.999
32.46000 385.527
32.47000 386.352
32.48000 387.459
32.49000 392.971
32.50000 399.996
32.51000 406.405
32.52000 403.122
32.53000 398.258
32.54000 393.082
32.55000 386.277
32.56000 379.237
32.57000 374.769
32.58000 379.053
32.59000 384.060
32.60000 387.580
32.61000 390.630
32.62000 392.926
32.63000 392.672
32.64000 388.539
32.65000 384.365
32.66000 377.883
32.67000 369.141
32.68000 360.465
32.69000 359.224
32.70000 362.632
32.71000 365.950
32.72000 367.111
32.73000 367.360
32.74000 367.643
32.75000 368.314
32.76000 369.094
32.77000 369.787
32.78000 380.965
32.79000 392.323
32.80000 402.162
32.81000 405.574
32.82000 408.264
32.83000 416.572
32.84000 440.652
32.85000 465.674
32.86000 482.148
32.87000 493.729
32.88000 502.176
32.89000 509.462
32.90000 515.309
32.91000 521.141
32.92000 523.543
32.93000 523.237
32.94000 522.935
32.95000 520.358
32.96000 516.714
32.97000 513.105
32.98000 510.076
32.99000 507.248
33.00000 503.979
33.01000 496.874
33.02000 488.880
33.03000 482.010
33.04000 470.368
33.05000 459.925
33.06000 449.530
33.07000 439.301
33.08000 429.086
33.09000 418.031
33.10000 405.029
33.11000 391.947
33.12000 383.960
33.13000 368.630
33.14000 357.606
33.15000 353.181
33.16000 355.358
33.17000 357.492
33.18000 355.732
33.19000 351.459
33.20000 347.304
33.21000 352.807
33.22000 362.004
33.23000 370.392
33.24000 369.266
33.25000 365.395
33.26000 361.117
33.27000 354.065
33.28000 346.492
33.29000 340.222
33.30000 343.355
33.31000 346.835
33.32000 349.652
33.33000 350.573
33.34000 351.376
33.35000 350.365
33.36000 345.870
33.37000 341.289
33.38000 338.726
33.39000 342.461
33.40000 345.062
33.41000 346.882
33.42000 348.071
33.43000 349.180
33.44000 346.868
33.45000 342.738
33.46000 338.781
33.47000 341.455
33.48000 346.153
33.49000 350.109
33.50000 347.450
33.51000 343.226
33.52000 338.805
33.53000 333.311
33.54000 327.655
33.55000 323.166
33.56000 325.870
33.57000 328.553
33.58000 331.486
33.59000 335.006
33.60000 338.551
33.61000 340.379
33.62000 339.494
33.63000 338.575
33.64000 338.110
33.65000 347.718
33.66000 354.071
33.67000 353.091
33.68000 347.283
33.69000 341.579
33.70000 338.550
33.71000 336.696
33.72000 334.954
33.73000 334.136
33.74000 333.637
33.75000 333.451
33.76000 335.451
33.77000 337.870
33.78000 339.978
33.79000 340.716
33.80000 341.292
33.81000 341.728
33.82000 347.112
33.83000 351.584
33.84000 353.591
33.85000 350.778
33.86000 347.840
33.87000 344.200
33.88000 339.653
33.89000 335.108
33.90000 331.868
33.91000 329.708
33.92000 327.597
33.93000 327.664
33.94000 328.911
33.95000 330.187
33.96000 331.963
33.97000 333.921
33.98000 335.720
33.99000 339.585
34.00000 343.480
34.01000 346.158
34.02000 342.073
34.03000 336.946
34.04000 332.463
34.05000 330.296
34.06000 328.338
34.07000 326.936
34.08000 327.428
34.09000 327.867
34.10000 328.516
34.11000 329.504
34.12000 330.496
34.13000 332.397
34.14000 335.249
34.15000 338.086
34.16000 334.582
34.17000 326.923
34.18000 319.461
34.19000 317.293
34.20000 317.495
34.21000 317.766
34.22000 318.910
34.23000 320.315
34.24000 321.573
34.25000 327.285
34.26000 333.031
34.27000 336.308
34.28000 328.492
34.29000 319.332
34.30000 312.949
34.31000 314.812
34.32000 317.221
34.33000 318.839
34.34000 320.816
34.35000 322.292
34.36000 321.308
34.37000 317.081
34.38000 312.852
34.39000 315.314
34.40000 323.402
34.41000 331.383
34.42000 333.779
34.43000 333.109
34.44000 332.248
34.45000 327.954
34.46000 322.388
34.47000 317.690
34.48000 321.133
34.49000 326.580
34.50000 331.307
34.51000 326.166
34.52000 320.463
34.53000 314.205
34.54000 305.905
34.55000 297.416
34.56000 293.530
34.57000 300.940
34.58000 308.869
34.59000 313.824
34.60000 324.879
34.61000 332.920
34.62000 332.328
34.63000 322.520
34.64000 312.770
34.65000 310.196
34.66000 312.536
34.67000 314.820
34.68000 321.089
34.69000 328.823
34.70000 335.740
34.71000 332.168
34.72000 325.391
34.73000 319.006
34.74000 315.482
34.75000 312.530
34.76000 310.058
34.77000 309.495
34.78000 309.222
34.79000 310.306
34.80000 315.493
34.81000 320.960
34.82000 325.825
34.83000 329.467
34.84000 333.072
34.85000 335.146
34.86000 325.679
34.87000 319.022
34.88000 317.537
34.89000 320.490
34.90000 323.344
34.91000 321.051
34.92000 315.864
34.93000 310.872
34.94000 310.507
34.95000 311.802
34.96000 313.357
34.97000 317.420
34.98000 322.113
34.99000 326.375
35.00000 328.143
35.01000 329.509
35.02000 330.608
35.03000 331.309
35.04000 331.847
35.05000 330.586
35.06000 324.825
35.07000 318.849
35.08000 315.937
35.09000 318.154
35.10000 320.451
35.11000 321.650
35.12000 320.386
35.13000 319.541
35.14000 320.033
35.15000 321.460
35.16000 322.799
35.17000 321.559
35.18000 319.120
35.19000 316.813
35.20000 315.875
35.21000 315.404
35.22000 315.378
35.23000 318.669
35.24000 322.639
35.25000 326.507
35.26000 329.894
35.27000 333.221
35.28000 335.774
35.29000 325.022
35.30000 315.781
35.31000 311.023
35.32000 315.534
35.33000 320.328
35.34000 321.914
35.35000 319.096
35.36000 316.253
35.37000 319.439
35.38000 327.895
35.39000 336.125
35.40000 332.018
35.41000 320.836
35.42000 309.978
35.43000 305.373
35.44000 303.171
35.45000 301.133
35.46000 308.228
35.47000 316.706
35.48000 323.400
35.49000 319.514
35.50000 313.887
35.51000 308.695
35.52000 305.165
35.53000 301.798
35.54000 299.347
35.55000 303.808
35.56000 307.506
35.57000 311.883
35.58000 317.420
35.59000 322.976
35.60000 321.505
35.61000 312.202
35.62000 302.932
35.63000 304.146
35.64000 312.743
35.65000 321.010
35.66000 319.063
35.67000 312.282
35.68000 305.787
35.69000 303.196
35.70000 301.843
35.71000 300.623
35.72000 300.629
35.73000 300.860
35.74000 301.376
35.75000 303.256
35.76000 305.314
35.77000 306.393
35.78000 304.400
35.79000 302.183
35.80000 300.665
35.81000 304.180
35.82000 306.934
35.83000 308.689
35.84000 309.045
35.85000 309.393
35.86000 311.810
35.87000 316.077
35.88000 320.299
35.89000 321.350
35.90000 320.566
35.91000 319.768
35.92000 318.673
35.93000 317.461
35.94000 316.394
35.95000 316.793
35.96000 317.575
35.97000 318.259
35.98000 314.495
35.99000 310.624
36.00000 306.923
36.01000 303.888
36.02000 300.921
36.03000 300.816
36.04000 308.144
36.05000 315.854
36.06000 320.782
36.07000 309.291
36.08000 300.712
36.09000 298.495
36.10000 303.518
36.11000 308.522
36.12000 309.344
36.13000 307.129
36.14000 304.958
36.15000 307.151
36.16000 311.284
36.17000 314.882
36.18000 310.937
36.19000 304.554
36.20000 299.125
36.21000 301.178
36.22000 304.825
36.23000 307.913
36.24000 310.440
36.25000 312.493
36.26000 314.830
36.27000 318.077
36.28000 321.393
36.29000 317.649
36.30000 298.751
36.31000 279.342
36.32000 267.891
36.33000 277.614
36.34000 284.592
36.35000 288.494
36.36000 289.585
36.37000 290.655
36.38000 290.496
36.39000 289.605
36.40000 288.743
36.41000 292.357
36.42000 297.453
36.43000 302.344
36.44000 305.099
36.45000 307.287
36.46000 309.619
36.47000 312.852
36.48000 316.240
36.49000 318.999
36.50000 307.847
36.51000 297.563
36.52000 289.739
36.53000 288.422
36.54000 287.453
36.55000 288.755
36.56000 294.085
36.57000 299.492
36.58000 302.399
36.59000 298.980
36.60000 296.629
36.61000 292.806
36.62000 287.890
36.63000 283.197
36.64000 286.111
36.65000 292.762
36.66000 299.087
36.67000 295.220
36.68000 288.539
36.69000 283.341
36.70000 290.058
36.71000 299.366
36.72000 307.675
36.73000 311.014
36.74000 313.674
36.75000 315.745
36.76000 305.626
36.77000 296.815
36.78000 291.080
36.79000 292.072
36.80000 293.301
36.81000 293.105
36.82000 290.831
36.83000 288.540
36.84000 292.247
36.85000 301.549
36.86000 310.703
36.87000 309.730
36.88000 302.608
36.89000 295.845
36.90000 296.857
36.91000 301.030
36.92000 304.917
36.93000 309.659
36.94000 314.159
36.95000 318.217
36.96000 319.472
36.97000 320.234
36.98000 320.612
36.99000 319.429
37.00000 318.080
37.01000 317.082
37.02000 310.134
37.03000 304.488
37.04000 302.331
37.05000 306.478
37.06000 310.753
37.07000 314.953
37.08000 319.062
37.09000 323.160
37.10000 320.325
37.11000 312.301
37.12000 304.467
37.13000 303.501
37.14000 305.972
37.15000 308.088
37.16000 304.857
37.17000 299.831
37.18000 295.259
37.19000 294.930
37.20000 295.471
37.21000 295.512
37.22000 293.009
37.23000 290.151
37.24000 289.402
37.25000 295.672
37.26000 302.501
37.27000 307.268
37.28000 303.339
37.29000 300.130
37.30000 299.798
37.31000 303.742
37.32000 307.725
37.33000 310.181
37.34000 311.181
37.35000 312.173
37.36000 309.924
37.37000 305.747
37.38000 301.852
37.39000 304.295
37.40000 309.361
37.41000 313.237
37.42000 303.945
37.43000 291.011
37.44000 279.575
37.45000 282.274
37.46000 286.800
37.47000 290.785
37.48000 292.532
37.49000 294.035
37.50000 296.828
37.51000 303.159
37.52000 309.694
37.53000 313.960
37.54000 307.811
37.55000 303.130
37.56000 300.944
37.57000 301.781
37.58000 302.605
37.59000 298.513
37.60000 290.628
37.61000 282.878
37.62000 282.388
37.63000 285.493
37.64000 288.566
37.65000 291.149
37.66000 293.563
37.67000 295.770
37.68000 296.223
37.69000 296.280
37.70000 296.328
37.71000 289.728
37.72000 283.359
37.73000 280.255
37.74000 288.224
37.75000 297.105
37.76000 302.149
37.77000 298.482
37.78000 294.479
37.79000 292.059
37.80000 290.580
37.81000 289.533
37.82000 288.180
37.83000 286.529
37.84000 284.940
37.85000 288.251
37.86000 294.654
37.87000 300.871
37.88000 301.481
37.89000 299.816
37.90000 298.561
37.91000 301.971
37.92000 306.697
37.93000 310.264
37.94000 306.155
37.95000 300.639
37.96000 296.092
37.97000 297.279
37.98000 298.783
37.99000 299.142
38.00000 296.298
38.01000 293.265
38.02000 292.542
38.03000 296.154
38.04000 299.867
38.05000 301.922
38.06000 308.040
38.07000 312.251
38.08000 311.221
38.09000 306.062
38.10000 301.117
38.11000 304.742
38.12000 312.822
38.13000 320.545
38.14000 316.162
38.15000 308.157
38.16000 301.082
38.17000 302.062
38.18000 304.902
38.19000 308.508
38.20000 316.180
38.21000 324.446
38.22000 330.972
38.23000 334.936
38.24000 337.943
38.25000 339.681
38.26000 338.484
38.27000 337.170
38.28000 338.152
38.29000 342.682
38.30000 347.252
38.31000 352.769
38.32000 359.230
38.33000 365.760
38.34000 378.298
38.35000 394.700
38.36000 410.962
38.37000 423.817
38.38000 435.207
38.39000 445.888
38.40000 462.554
38.41000 479.298
38.42000 496.757
38.43000 519.056
38.44000 542.262
38.45000 566.910
38.46000 597.760
38.47000 629.322
38.48000 653.043
38.49000 694.002
38.50000 726.856
38.51000 762.897
38.52000 805.033
38.53000 847.318
38.54000 893.846
38.55000 945.726
38.56000 997.540
38.57000 1044.223
38.58000 1086.605
38.59000 1129.002
38.60000 1172.008
38.61000 1215.338
38.62000 1258.853
38.63000 1305.453
38.64000 1353.149
38.65000 1396.860
38.66000 1412.003
38.67000 1419.494
38.68000 1425.802
38.69000 1425.710
38.70000 1424.658
38.71000 1422.392
38.72000 1415.845
38.73000 1408.925
38.74000 1404.008
38.75000 1381.865
38.76000 1364.458
38.77000 1335.030
38.78000 1286.671
38.79000 1238.080
38.80000 1196.465
38.81000 1161.955
38.82000 1127.664
38.83000 1079.935
38.84000 1024.210
38.85000 968.747
38.86000 920.012
38.87000 874.222
38.88000 828.639
38.89000 785.561
38.90000 743.216
38.91000 705.444
38.92000 653.914
38.93000 606.788
38.94000 564.642
38.95000 544.348
38.96000 526.623
38.97000 508.586
38.98000 489.644
38.99000 470.645
39.00000 457.982
39.01000 433.955
39.02000 415.949
39.03000 401.818
39.04000 392.676
39.05000 383.546
39.06000 371.918
39.07000 358.241
39.08000 344.758
39.09000 334.088
39.10000 325.200
39.11000 316.848
39.12000 317.734
39.13000 321.965
39.14000 325.701
39.15000 324.926
39.16000 323.067
39.17000 321.460
39.18000 314.744
39.19000 308.373
39.20000 302.672
39.21000 299.376
39.22000 296.296
39.23000 295.706
39.24000 301.094
39.25000 306.744
39.26000 310.243
39.27000 296.697
39.28000 286.794
39.29000 286.277
39.30000 295.528
39.31000 304.699
39.32000 305.470
39.33000 300.622
39.34000 295.897
39.35000 290.907
39.36000 286.033
39.37000 281.503
39.38000 281.249
39.39000 282.273
39.40000 283.256
39.41000 283.956
39.42000 284.601
39.43000 285.138
39.44000 283.777
39.45000 282.458
39.46000 281.998
39.47000 284.077
39.48000 286.324
39.49000 287.745
39.50000 287.529
39.51000 287.268
39.52000 287.120
39.53000 277.217
39.54000 270.301
39.55000 271.777
39.56000 280.278
39.57000 288.542
39.58000 285.464
39.59000 276.148
39.60000 267.198
39.61000 268.925
39.62000 274.228
39.63000 279.000
39.64000 278.817
39.65000 277.419
39.66000 276.862
39.67000 281.061
39.68000 286.005
39.69000 289.960
39.70000 280.358
39.71000 271.584
39.72000 266.046
39.73000 268.421
39.74000 271.156
39.75000 273.139
39.76000 273.891
39.77000 274.626
39.78000 275.004
39.79000 272.206
39.80000 270.309
39.81000 267.041
39.82000 262.837
39.83000 258.926
39.84000 263.211
39.85000 271.220
39.86000 278.776
39.87000 274.359
39.88000 266.971
39.89000 260.189
39.90000 257.819
39.91000 256.328
39.92000 255.694
39.93000 258.976
39.94000 262.742
39.95000 265.615
39.96000 266.054
39.97000 266.270
39.98000 265.360
39.99000 262.175
40.00000 258.924
40.01000 257.780
40.02000 259.459
40.03000 261.152
40.04000 258.851
40.05000 253.151
40.06000 247.650
40.07000 252.274
40.08000 262.576
40.09000 272.259
40.10000 270.509
40.11000 264.462
40.12000 258.881
40.13000 257.153
40.14000 256.467
40.15000 255.837
40.16000 255.528
40.17000 255.269
40.18000 256.711
40.19000 264.501
40.20000 272.893
40.21000 278.960
40.22000 268.523
40.23000 259.914
40.24000 253.933
40.25000 252.334
40.26000 250.803
40.27000 252.123
40.28000 256.540
40.29000 260.938
40.30000 262.192
40.31000 261.270
40.32000 260.450
40.33000 262.611
40.34000 266.150
40.35000 269.463
40.36000 269.795
40.37000 269.202
40.38000 268.669
40.39000 269.816
40.40000 271.121
40.41000 271.507
40.42000 267.610
40.43000 263.171
40.44000 259.966
40.45000 260.554
40.46000 261.408
40.47000 261.988
40.48000 271.731
40.49000 279.211
40.50000 279.236
40.51000 269.068
40.52000 258.843
40.53000 252.628
40.54000 249.911
40.55000 247.226
40.56000 250.014
40.57000 255.787
40.58000 261.187
40.59000 259.446
40.60000 254.971
40.61000 250.675
40.62000 248.150
40.63000 246.076
40.64000 244.266
40.65000 241.059
40.66000 238.119
40.67000 238.136
40.68000 249.410
40.69000 261.782
40.70000 268.706
40.71000 261.798
40.72000 254.210
40.73000 249.403
40.74000 251.549
40.75000 253.189
40.76000 253.583
40.77000 252.592
40.78000 251.605
40.79000 251.196
40.80000 251.198
40.81000 251.200
40.82000 248.697
40.83000 245.162
40.84000 242.356
40.85000 249.448
40.86000 259.670
40.87000 268.031
40.88000 262.218
40.89000 253.459
40.90000 246.073
40.91000 245.142
40.92000 245.063
40.93000 245.799
40.94000 249.089
40.95000 252.563
40.96000 255.179
40.97000 255.992
40.98000 256.748
40.99000 257.189
41.00000 257.712
41.01000 258.080
41.02000 258.413
41.03000 258.716
41.04000 259.017
41.05000 259.290
41.06000 259.546
41.07000 259.793
41.08000 258.008
41.09000 255.582
41.10000 253.538
41.11000 255.366
41.12000 258.202
41.13000 260.055
41.14000 255.984
41.15000 250.920
41.16000 246.816
41.17000 244.976
41.18000 243.661
41.19000 244.658
41.20000 251.634
41.21000 258.916
41.22000 261.036
41.23000 254.212
41.24000 247.228
41.25000 243.516
41.26000 249.960
41.27000 254.318
41.28000 253.174
41.29000 248.048
41.30000 242.971
41.31000 239.458
41.32000 236.695
41.33000 234.074
41.34000 236.974
41.35000 241.289
41.36000 245.441
41.37000 248.312
41.38000 250.911
41.39000 253.312
41.40000 254.750
41.41000 256.060
41.42000 257.074
41.43000 251.176
41.44000 246.083
41.45000 244.324
41.46000 249.698
41.47000 255.310
41.48000 258.977
41.49000 259.878
41.50000 260.757
41.51000 257.694
41.52000 251.045
41.53000 244.473
41.54000 242.596
41.55000 243.506
41.56000 244.197
41.57000 240.368
41.58000 234.743
41.59000 229.515
41.60000 231.397
41.61000 234.798
41.62000 237.988
41.63000 239.882
41.64000 241.554
41.65000 242.537
41.66000 240.791
41.67000 238.764
41.68000 237.275
41.69000 236.471
41.70000 235.878
41.71000 236.209
41.72000 238.173
41.73000 240.169
41.74000 239.973
41.75000 237.241
41.76000 234.515
41.77000 235.666
41.78000 239.647
41.79000 243.594
41.80000 246.385
41.81000 248.610
41.82000 250.634
41.83000 249.752
41.84000 247.915
41.85000 246.250
41.86000 240.044
41.87000 233.703
41.88000 229.075
41.89000 232.945
41.90000 237.970
41.91000 241.847
41.92000 241.990
41.93000 241.845
41.94000 241.745
41.95000 242.966
41.96000 243.920
41.97000 244.133
41.98000 243.270
41.99000 242.397
42.00000 239.938
42.01000 236.004
42.02000 232.106
42.03000 235.222
42.04000 242.435
42.05000 249.371
42.06000 250.344
42.07000 248.903
42.08000 246.964
42.09000 239.708
42.10000 231.014
42.11000 223.354
42.12000 225.612
42.13000 229.054
42.14000 231.046
42.15000 227.183
42.16000 222.703
42.17000 220.836
42.18000 225.990
42.19000 231.529
42.20000 235.116
42.21000 239.716
42.22000 243.096
42.23000 241.786
42.24000 234.934
42.25000 228.109
42.26000 228.586
42.27000 234.562
42.28000 240.430
42.29000 241.190
42.30000 239.465
42.31000 237.609
42.32000 233.784
42.33000 229.300
42.34000 225.482
42.35000 227.125
42.36000 229.974
42.37000 232.402
42.38000 228.042
42.39000 223.579
42.40000 221.166
42.41000 225.545
42.42000 230.463
42.43000 232.628
42.44000 228.678
42.45000 224.504
42.46000 222.004
42.47000 226.274
42.48000 229.349
42.49000 233.402
42.50000 238.382
42.51000 243.292
42.52000 243.112
42.53000 239.793
42.54000 236.575
42.55000 232.608
42.56000 228.559
42.57000 225.360
42.58000 231.514
42.59000 240.245
42.60000 247.689
42.61000 246.823
42.62000 244.473
42.63000 242.544
42.64000 243.594
42.65000 244.719
42.66000 242.870
42.67000 232.881
42.68000 222.429
42.69000 217.549
42.70000 222.895
42.71000 228.461
42.72000 231.507
42.73000 230.950
42.74000 230.568
42.75000 231.687
42.76000 233.960
42.77000 236.114
42.78000 233.797
42.79000 229.206
42.80000 224.827
42.81000 229.686
42.82000 237.119
42.83000 243.212
42.84000 238.038
42.85000 230.324
42.86000 225.004
42.87000 232.055
42.88000 240.869
42.89000 247.789
42.90000 235.021
42.91000 223.517
42.92000 217.245
42.93000 222.808
42.94000 228.823
42.95000 229.167
42.96000 220.953
42.97000 212.652
42.98000 213.348
42.99000 222.776
43.00000 232.097
43.01000 232.990
43.02000 228.584
43.03000 224.363
43.04000 224.445
43.05000 226.335
43.06000 228.104
43.07000 230.705
43.08000 233.281
43.09000 235.754
43.10000 237.547
43.11000 239.216
43.12000 239.835
43.13000 236.046
43.14000 231.767
43.15000 228.571
43.16000 222.468
43.17000 217.577
43.18000 217.084
43.19000 224.816
43.20000 232.736
43.21000 237.525
43.22000 238.460
43.23000 239.383
43.24000 239.297
43.25000 238.425
43.26000 237.576
43.27000 237.645
43.28000 238.188
43.29000 238.618
43.30000 237.239
43.31000 235.230
43.32000 233.394
43.33000 229.269
43.34000 225.137
43.35000 221.972
43.36000 223.907
43.37000 226.586
43.38000 228.646
43.39000 228.572
43.40000 228.318
43.41000 228.138
43.42000 231.715
43.43000 234.542
43.44000 235.756
43.45000 234.487
43.46000 233.190
43.47000 230.772
43.48000 227.242
43.49000 223.736
43.50000 223.154
43.51000 224.426
43.52000 225.522
43.53000 222.361
43.54000 217.378
43.55000 212.874
43.56000 213.939
43.57000 216.599
43.58000 218.963
43.59000 219.610
43.60000 219.893
43.61000 221.244
43.62000 227.175
43.63000 233.628
43.64000 237.393
43.65000 233.524
43.66000 229.189
43.67000 226.323
43.68000 229.150
43.69000 231.338
43.70000 230.413
43.71000 225.575
43.72000 220.727
43.73000 216.811
43.74000 213.640
43.75000 210.519
43.76000 213.679
43.77000 219.958
43.78000 226.067
43.79000 229.391
43.80000 231.730
43.81000 233.975
43.82000 235.403
43.83000 236.639
43.84000 237.702
43.85000 229.533
43.86000 221.445
43.87000 214.543
43.88000 211.802
43.89000 209.422
43.90000 210.810
43.91000 221.047
43.92000 231.653
43.93000 238.160
43.94000 230.292
43.95000 224.531
43.96000 221.783
43.97000 222.092
43.98000 222.397
43.99000 222.288
44.00000 221.909
44.01000 221.540
44.02000 222.504
44.03000 223.976
44.04000 225.475
44.05000 227.303
44.06000 229.227
44.07000 230.552
44.08000 227.743
44.09000 224.146
44.10000 221.161
44.11000 218.651
44.12000 216.622
44.13000 214.998
44.14000 214.550
44.15000 214.175
44.16000 214.558
44.17000 216.413
44.18000 218.305
44.19000 219.370
44.20000 220.010
44.21000 220.448
44.22000 218.644
44.23000 215.010
44.24000 211.440
44.25000 210.778
44.26000 211.678
44.27000 212.542
44.28000 216.761
44.29000 221.831
44.30000 226.923
44.31000 232.208
44.32000 237.540
44.33000 241.623
44.34000 238.831
44.35000 234.989
44.36000 231.932
44.37000 225.822
44.38000 220.677
44.39000 217.000
44.40000 216.836
44.41000 216.824
44.42000 219.221
44.43000 225.471
44.44000 231.772
44.45000 234.979
44.46000 228.093
44.47000 223.550
44.48000 226.642
44.49000 234.822
44.50000 242.725
44.51000 243.277
44.52000 240.563
44.53000 238.008
44.54000 233.305
44.55000 228.422
44.56000 224.375
44.57000 226.243
44.58000 229.262
44.59000 232.752
44.60000 238.344
44.61000 244.189
44.62000 248.622
44.63000 242.820
44.64000 237.738
44.65000 234.273
44.66000 234.007
44.67000 233.829
44.68000 235.024
44.69000 238.019
44.70000 241.018
44.71000 247.681
44.72000 257.372
44.73000 266.877
44.74000 267.655
44.75000 263.649
44.76000 259.943
44.77000 261.554
44.78000 265.119
44.79000 268.400
44.80000 278.338
44.81000 288.677
44.82000 298.008
44.83000 301.666
44.84000 304.440
44.85000 308.062
44.86000 314.783
44.87000 321.787
44.88000 326.818
44.89000 328.273
44.90000 329.262
44.91000 334.656
44.92000 347.232
44.93000 359.910
44.94000 367.302
44.95000 369.097
44.96000 370.882
44.97000 375.731
44.98000 382.579
44.99000 389.362
45.00000 394.380
45.01000 398.599
45.02000 402.502
45.03000 402.403
45.04000 401.091
45.05000 399.913
45.06000 400.662
45.07000 401.651
45.08000 402.519
45.09000 402.841
45.10000 403.095
45.11000 401.459
45.12000 394.145
45.13000 386.447
45.14000 381.255
45.15000 384.006
45.16000 386.222
45.17000 381.602
45.18000 367.853
45.19000 354.070
45.20000 347.847
45.21000 348.058
45.22000 348.267
45.23000 347.426
45.24000 346.035
45.25000 344.500
45.26000 340.314
45.27000 335.136
45.28000 329.705
45.29000 321.852
45.30000 313.396
45.31000 306.042
45.32000 301.779
45.33000 298.562
45.34000 295.320
45.35000 291.986
45.36000 288.644
45.37000 287.139
45.38000 290.200
45.39000 293.475
45.40000 295.531
45.41000 295.542
45.42000 295.528
45.43000 292.254
45.44000 285.452
45.45000 278.679
45.46000 275.646
45.47000 275.206
45.48000 274.776
45.49000 271.492
45.50000 267.088
45.51000 262.777
45.52000 259.688
45.53000 256.978
45.54000 254.678
45.55000 255.424
45.56000 256.786
45.57000 257.931
45.58000 251.923
45.59000 246.171
45.60000 242.354
45.61000 244.464
45.62000 246.986
45.63000 248.928
45.64000 249.677
45.65000 250.390
45.66000 250.802
45.67000 252.481
45.68000 253.663
45.69000 254.462
45.70000 254.928
45.71000 255.302
45.72000 250.696
45.73000 243.255
45.74000 236.086
45.75000 232.367
45.76000 230.110
45.77000 227.969
45.78000 226.964
45.79000 226.249
45.80000 226.287
45.81000 230.756
45.82000 235.947
45.83000 240.133
45.84000 237.646
45.85000 235.101
45.86000 233.388
45.87000 233.777
45.88000 234.270
45.89000 232.847
45.90000 228.181
45.91000 223.461
45.92000 220.982
45.93000 226.158
45.94000 229.627
45.95000 227.307
45.96000 220.896
45.97000 214.676
45.98000 214.282
45.99000 216.627
46.00000 218.847
46.01000 219.684
46.02000 220.054
46.03000 220.165
46.04000 218.310
46.05000 216.049
46.06000 214.073
46.07000 213.454
46.08000 213.009
46.09000 212.667
46.10000 213.689
46.11000 214.576
46.12000 214.866
46.13000 213.907
46.14000 212.908
46.15000 209.849
46.16000 203.924
46.17000 197.984
46.18000 197.149
46.19000 200.840
46.20000 204.448
46.21000 203.236
46.22000 199.228
46.23000 195.320
46.24000 193.411
46.25000 192.279
46.26000 191.230
46.27000 195.700
46.28000 201.012
46.29000 205.790
46.30000 207.369
46.31000 208.413
46.32000 208.452
46.33000 204.604
46.34000 200.370
46.35000 197.277
46.36000 208.377
46.37000 217.491
46.38000 221.588
46.39000 217.022
46.40000 212.303
46.41000 207.600
46.42000 202.913
46.43000 198.243
46.44000 198.797
46.45000 203.078
46.46000 207.263
46.47000 208.417
46.48000 208.119
46.49000 207.834
46.50000 207.737
46.51000 207.701
46.52000 207.669
46.53000 200.914
46.54000 193.721
46.55000 188.482
46.56000 192.692
46.57000 198.151
46.58000 202.554
46.59000 203.598
46.60000 204.393
46.61000 204.940
46.62000 203.708
46.63000 202.739
46.64000 200.620
46.65000 196.870
46.66000 193.110
46.67000 192.992
46.68000 196.177
46.69000 199.328
46.70000 202.155
46.71000 204.732
46.72000 207.287
46.73000 209.394
46.74000 211.324
46.75000 212.779
46.76000 209.334
46.77000 204.594
46.78000 200.433
46.79000 200.128
46.80000 200.430
46.81000 200.976
46.82000 202.479
46.83000 204.080
46.84000 203.796
46.85000 198.559
46.86000 193.062
46.87000 189.533
46.88000 185.861
46.89000 183.182
46.90000 185.400
46.91000 193.265
46.92000 201.091
46.93000 200.893
46.94000 194.795
46.95000 188.816
46.96000 187.814
46.97000 189.185
46.98000 190.807
46.99000 196.015
47.00000 202.396
47.01000 207.932
47.02000 206.739
47.03000 204.094
47.04000 201.849
47.05000 195.589
47.06000 189.882
47.07000 187.145
47.08000 194.031
47.09000 201.654
47.10000 205.910
47.11000 202.854
47.12000 199.545
47.13000 197.582
47.14000 197.495
47.15000 197.443
47.16000 192.906
47.17000 184.214
47.18000 175.682
47.19000 177.686
47.20000 186.041
47.21000 194.127
47.22000 192.836
47.23000 188.041
47.24000 183.790
47.25000 185.327
47.26000 188.422
47.27000 191.527
47.28000 194.702
47.29000 197.890
47.30000 200.491
47.31000 197.012
47.32000 193.642
47.33000 192.017
47.34000 195.060
47.35000 198.357
47.36000 197.958
47.37000 190.929
47.38000 183.768
47.39000 179.893
47.40000 181.377
47.41000 182.394
47.42000 182.509
47.43000 181.947
47.44000 181.413
47.45000 181.903
47.46000 182.902
47.47000 183.854
47.48000 189.462
47.49000 196.093
47.50000 201.973
47.51000 201.735
47.52000 200.150
47.53000 198.100
47.54000 193.705
47.55000 188.985
47.56000 185.300
47.57000 191.021
47.58000 196.176
47.59000 196.957
47.60000 188.055
47.61000 178.803
47.62000 176.795
47.63000 185.467
47.64000 194.234
47.65000 198.827
47.66000 199.471
47.67000 200.069
47.68000 197.433
47.69000 192.809
47.70000 188.302
47.71000 186.416
47.72000 185.607
47.73000 184.852
47.74000 183.620
47.75000 182.385
47.76000 181.593
47.77000 183.652
47.78000 186.217
47.79000 188.762
47.80000 191.223
47.81000 193.674
47.82000 195.494
47.83000 190.075
47.84000 185.545
47.85000 183.041
47.86000 184.239
47.87000 185.516
47.88000 187.392
47.89000 189.988
47.90000 192.579
47.91000 190.808
47.92000 185.729
47.93000 180.755
47.94000 179.682
47.95000 180.584
47.96000 181.460
47.97000 181.916
47.98000 182.230
47.99000 182.517
48.00000 183.373
48.01000 184.244
48.02000 185.297
48.03000 187.282
48.04000 189.401
48.05000 189.613
48.06000 183.408
48.07000 176.682
48.08000 171.969
48.09000 185.643
48.10000 196.512
48.11000 201.239
48.12000 196.731
48.13000 192.132
48.14000 190.034
48.15000 190.356
48.16000 190.675
48.17000 192.513
48.18000 195.253
48.19000 197.743
48.20000 194.419
48.21000 188.660
48.22000 183.307
48.23000 182.527
48.24000 183.025
48.25000 183.467
48.26000 184.206
48.27000 184.891
48.28000 185.325
48.29000 184.708
48.30000 183.974
48.31000 183.873
48.32000 185.527
48.33000 187.284
48.34000 188.436
48.35000 183.386
48.36000 179.570
48.37000 178.326
48.38000 180.237
48.39000 182.155
48.40000 183.742
48.41000 185.069
48.42000 186.375
48.43000 187.600
48.44000 188.744
48.45000 189.755
48.46000 188.658
48.47000 186.831
48.48000 185.030
48.49000 183.458
48.50000 181.939
48.51000 180.635
48.52000 180.766
48.53000 181.052
48.54000 180.444
48.55000 176.770
48.56000 172.840
48.57000 171.553
48.58000 176.340
48.59000 181.367
48.60000 184.422
48.61000 182.631
48.62000 181.314
48.63000 181.452
48.64000 183.029
48.65000 184.581
48.66000 184.116
48.67000 182.362
48.68000 180.657
48.69000 183.379
48.70000 187.759
48.71000 191.458
48.72000 187.258
48.73000 180.805
48.74000 175.547
48.75000 178.317
48.76000 182.580
48.77000 186.102
48.78000 181.919
48.79000 177.750
48.80000 175.092
48.81000 176.706
48.82000 178.580
48.83000 179.532
48.84000 178.735
48.85000 177.896
48.86000 177.429
48.87000 178.640
48.88000 179.479
48.89000 179.578
48.90000 179.087
48.91000 178.618
48.92000 179.104
48.93000 180.091
48.94000 181.035
48.95000 182.542
48.96000 184.130
48.97000 185.207
48.98000 181.797
48.99000 177.337
49.00000 173.309
49.01000 171.596
49.02000 170.227
49.03000 169.143
49.04000 174.278
49.05000 178.835
49.06000 180.564
49.07000 175.675
49.08000 170.513
49.09000 167.918
49.10000 169.335
49.11000 170.800
49.12000 171.537
49.13000 181.752
49.14000 188.492
49.15000 187.801
49.16000 182.272
49.17000 176.825
49.18000 173.459
49.19000 170.997
49.20000 168.685
49.21000 174.379
49.22000 181.694
49.23000 187.477
49.24000 182.726
49.25000 175.977
49.26000 170.704
49.27000 171.860
49.28000 173.766
49.29000 175.202
49.30000 175.213
49.31000 175.152
49.32000 175.513
49.33000 176.692
49.34000 177.891
49.35000 177.279
49.36000 174.355
49.37000 171.427
49.38000 171.700
49.39000 174.566
49.40000 177.385
49.41000 178.074
49.42000 177.624
49.43000 177.319
49.44000 179.490
49.45000 182.551
49.46000 185.361
49.47000 183.563
49.48000 180.979
49.49000 178.922
49.50000 179.753
49.51000 181.024
49.52000 181.166
49.53000 177.286
49.54000 173.049
49.55000 170.027
49.56000 175.120
49.57000 179.270
49.58000 181.741
49.59000 181.534
49.60000 181.293
49.61000 179.147
49.62000 175.033
49.63000 170.944
49.64000 173.320
49.65000 179.898
49.66000 186.093
49.67000 182.216
49.68000 173.878
49.69000 166.260
49.70000 167.474
49.71000 171.306
49.72000 174.731
49.73000 173.045
49.74000 170.713
49.75000 169.413
49.76000 172.698
49.77000 176.531
49.78000 179.945
49.79000 182.130
49.80000 184.235
49.81000 185.645
49.82000 184.688
49.83000 183.931
49.84000 181.721
49.85000 177.614
49.86000 173.507
49.87000 172.808
49.88000 174.939
49.89000 177.042
49.90000 180.356
49.91000 184.221
49.92000 187.745
49.93000 185.267
49.94000 180.591
49.95000 176.209
49.96000 174.549
49.97000 173.552
49.98000 172.688
49.99000 172.417
50.00000 172.265
50.01000 172.776
50.02000 175.700
50.03000 178.843
50.04000 180.760
50.05000 179.699
50.06000 178.504
50.07000 177.761
50.08000 179.802
50.09000 181.300
50.10000 181.307
50.11000 179.743
50.12000 178.177
50.13000 176.510
50.14000 174.774
50.15000 173.081
50.16000 175.667
50.17000 179.984
50.18000 183.972
50.19000 183.809
50.20000 182.391
50.21000 181.474
50.22000 184.165
50.23000 187.570
50.24000 190.415
50.25000 180.942
50.26000 171.825
50.27000 165.941
50.28000 169.734
50.29000 174.177
50.30000 179.224
50.31000 185.485
50.32000 191.781
50.33000 195.382
50.34000 192.411
50.35000 190.318
50.36000 190.775
50.37000 193.395
50.38000 195.980
50.39000 196.825
50.40000 196.701
50.41000 196.583
50.42000 198.798
50.43000 201.690
50.44000 204.688
50.45000 208.692
50.46000 212.947
50.47000 217.007
50.48000 219.958
50.49000 222.732
50.50000 224.958
50.51000 228.885
50.52000 232.195
50.53000 235.779
50.54000 240.043
50.55000 244.338
50.56000 250.967
50.57000 261.462
50.58000 272.015
50.59000 277.490
50.60000 270.651
50.61000 266.062
50.62000 265.173
50.63000 266.839
50.64000 268.479
50.65000 269.406
50.66000 270.005
50.67000 270.571
50.68000 270.286
50.69000 269.784
50.70000 269.058
50.71000 266.680
50.72000 263.968
50.73000 262.672
50.74000 267.930
50.75000 274.010
50.76000 278.663
50.77000 271.894
50.78000 265.928
50.79000 260.141
50.80000 254.721
50.81000 249.312
50.82000 247.001
50.83000 248.893
50.84000 250.807
50.85000 247.724
50.86000 240.329
50.87000 232.979
50.88000 227.996
50.89000 224.355
50.90000 220.849
50.91000 219.867
50.92000 219.845
50.93000 219.824
50.94000 217.115
50.95000 214.072
50.96000 211.452
50.97000 211.307
50.98000 211.565
50.99000 212.699
51.00000 217.151
51.01000 221.921
51.02000 225.383
51.03000 215.649
51.04000 207.675
51.05000 200.894
51.06000 196.126
51.07000 191.391
51.08000 188.177
51.09000 186.639
51.10000 185.108
51.11000 185.864
51.12000 188.206
51.13000 190.361
51.14000 186.894
51.15000 180.793
51.16000 175.389
51.17000 179.340
51.18000 186.229
51.19000 192.436
51.20000 189.907
51.21000 186.106
51.22000 182.644
51.23000 180.780
51.24000 179.121
51.25000 176.935
51.26000 173.109
51.27000 169.166
51.28000 166.474
51.29000 171.944
51.30000 176.225
51.31000 180.068
51.32000 183.305
51.33000 186.535
51.34000 185.700
51.35000 181.271
51.36000 176.891
51.37000 176.387
51.38000 178.085
51.39000 179.504
51.40000 175.452
51.41000 169.281
51.42000 163.836
51.43000 165.655
51.44000 169.348
51.45000 172.578
51.46000 172.822
51.47000 172.605
51.48000 172.595
51.49000 173.377
51.50000 174.237
51.51000 174.132
51.52000 171.549
51.53000 168.842
51.54000 167.118
51.55000 172.244
51.56000 176.056
51.57000 174.298
51.58000 166.280
51.59000 158.300
51.60000 156.829
51.61000 160.035
51.62000 163.173
51.63000 165.483
51.64000 167.321
51.65000 168.976
51.66000 168.089
51.67000 166.389
51.68000 164.981
51.69000 165.835
51.70000 167.165
51.71000 168.290
51.72000 165.797
51.73000 163.315
51.74000 161.896
51.75000 163.846
51.76000 166.045
51.77000 166.503
51.78000 163.264
51.79000 159.903
51.80000 157.930
51.81000 163.876
51.82000 168.105
51.83000 169.661
51.84000 168.803
51.85000 167.935
51.86000 166.490
51.87000 164.705
51.88000 162.981
51.89000 160.012
51.90000 156.750
51.91000 153.678
51.92000 152.549
51.93000 151.932
51.94000 152.165
51.95000 157.590
51.96000 163.896
51.97000 169.020
51.98000 165.987
51.99000 162.835
52.00000 160.495
52.01000 160.278
52.02000 160.172
52.03000 158.846
52.04000 155.380
52.05000 151.874
52.06000 150.000
52.07000 154.040
52.08000 156.801
52.09000 159.715
52.10000 162.743
52.11000 165.582
52.12000 162.166
52.13000 155.710
52.14000 149.577
52.15000 150.897
52.16000 154.360
52.17000 157.535
52.18000 158.427
52.19000 158.828
52.20000 159.485
52.21000 161.399
52.22000 163.482
52.23000 165.100
52.24000 163.762
52.25000 162.519
52.26000 161.691
52.27000 161.762
52.28000 161.864
52.29000 162.520
52.30000 163.974
52.31000 165.433
52.32000 168.499
52.33000 173.045
52.34000 177.485
52.35000 175.068
52.36000 168.533
52.37000 162.306
52.38000 162.612
52.39000 165.544
52.40000 168.272
52.41000 168.296
52.42000 167.661
52.43000 167.450
52.44000 169.890
52.45000 172.790
52.46000 174.218
52.47000 169.743
52.48000 164.651
52.49000 160.896
52.50000 160.242
52.51000 159.867
52.52000 159.502
52.53000 159.157
52.54000 158.812
52.55000 160.524
52.56000 164.649
52.57000 168.766
52.58000 168.824
52.59000 165.871
52.60000 163.022
52.61000 163.820
52.62000 166.424
52.63000 168.649
52.64000 165.265
52.65000 160.018
52.66000 155.252
52.67000 152.796
52.68000 151.074
52.69000 150.303
52.70000 154.313
52.71000 158.982
52.72000 162.085
52.73000 160.036
52.74000 157.582
52.75000 155.876
52.76000 163.537
52.77000 169.567
52.78000 170.513
52.79000 163.989
52.80000 157.401
52.81000 157.213
52.82000 163.058
52.83000 168.852
52.84000 169.400
52.85000 166.788
52.86000 164.122
52.87000 160.298
52.88000 155.998
52.89000 151.905
52.90000 150.062
52.91000 148.835
52.92000 147.752
52.93000 151.053
52.94000 154.573
52.95000 157.728
52.96000 159.395
52.97000 160.901
52.98000 162.871
52.99000 166.097
53.00000 169.394
53.01000 171.538
53.02000 162.175
53.03000 155.135
53.04000 153.528
53.05000 158.424
53.06000 163.315
53.07000 164.087
53.08000 161.719
53.09000 159.394
53.10000 159.990
53.11000 161.989
53.12000 163.833
53.13000 163.287
53.14000 161.934
53.15000 160.674
53.16000 160.194
53.17000 159.890
53.18000 159.629
53.19000 164.010
53.20000 168.252
53.21000 170.871
53.22000 168.040
53.23000 164.769
53.24000 162.989
53.25000 164.561
53.26000 166.258
53.27000 167.280
53.28000 168.421
53.29000 169.233
53.30000 168.915
53.31000 167.510
53.32000 166.149
53.33000 168.198
53.34000 172.375
53.35000 176.427
53.36000 176.217
53.37000 174.332
53.38000 172.410
53.39000 170.071
53.40000 167.617
53.41000 165.286
53.42000 163.765
53.43000 162.391
53.44000 161.260
53.45000 163.808
53.46000 166.233
53.47000 168.126
53.48000 168.542
53.49000 168.872
53.50000 168.217
53.51000 165.736
53.52000 163.213
53.53000 161.824
53.54000 166.367
53.55000 169.490
53.56000 168.429
53.57000 164.113
53.58000 159.840
53.59000 157.235
53.60000 155.488
53.61000 153.820
53.62000 156.510
53.63000 160.407
53.64000 163.674
53.65000 161.566
53.66000 158.231
53.67000 155.097
53.68000 153.017
53.69000 151.088
53.70000 149.569
53.71000 155.737
53.72000 161.192
53.73000 164.163
53.74000 161.447
53.75000 158.507
53.76000 156.679
53.77000 156.547
53.78000 156.433
53.79000 156.892
53.80000 157.916
53.81000 158.920
53.82000 158.359
53.83000 156.802
53.84000 155.435
53.85000 158.643
53.86000 163.795
53.87000 168.620
53.88000 170.248
53.89000 170.902
53.90000 170.914
53.91000 166.636
53.92000 161.563
53.93000 156.818
53.94000 153.465
53.95000 150.269
53.96000 147.875
53.97000 154.983
53.98000 160.981
53.99000 163.348
54.00000 158.851
54.01000 154.190
54.02000 153.695
54.03000 158.395
54.04000 163.101
54.05000 163.154
54.06000 159.527
54.07000 155.958
54.08000 154.775
54.09000 154.842
54.10000 154.926
54.11000 155.292
54.12000 155.757
54.13000 156.182
54.14000 155.136
54.15000 153.901
54.16000 152.938
54.17000 153.431
54.18000 154.139
54.19000 155.620
54.20000 159.789
54.21000 164.190
54.22000 167.306
54.23000 157.358
54.24000 149.390
54.25000 146.672
54.26000 152.131
54.27000 157.685
54.28000 159.537
54.29000 157.663
54.30000 155.802
54.31000 156.512
54.32000 158.853
54.33000 161.063
54.34000 159.999
54.35000 157.519
54.36000 155.453
54.37000 158.304
54.38000 162.581
54.39000 166.389
54.40000 162.409
54.41000 157.672
54.42000 154.047
54.43000 155.255
54.44000 157.022
54.45000 158.015
54.46000 156.782
54.47000 155.410
54.48000 154.499
54.49000 160.476
54.50000 165.021
54.51000 167.242
54.52000 166.505
54.53000 165.757
54.54000 164.652
54.55000 163.258
54.56000 161.885
54.57000 161.560
54.58000 161.789
54.59000 161.766
54.60000 157.496
54.61000 151.705
54.62000 146.989
54.63000 151.915
54.64000 159.131
54.65000 165.358
54.66000 162.629
54.67000 159.164
54.68000 156.172
54.69000 154.862
54.70000 153.701
54.71000 153.804
54.72000 156.915
54.73000 160.153
54.74000 162.150
54.75000 162.245
54.76000 162.297
54.77000 161.226
54.78000 159.001
54.79000 156.769
54.80000 153.834
54.81000 150.433
54.82000 147.121
54.83000 147.036
54.84000 148.312
54.85000 149.464
54.86000 149.093
54.87000 148.273
54.88000 148.123
54.89000 152.676
54.90000 158.135
54.91000 162.678
54.92000 162.029
54.93000 160.981
54.94000 160.950
54.95000 163.894
54.96000 167.029
54.97000 166.883
54.98000 160.290
54.99000 153.526
55.00000 149.698
55.01000 153.947
55.02000 156.925
55.03000 159.882
55.04000 162.823
55.05000 165.654
55.06000 163.464
55.07000 158.542
55.08000 153.817
55.09000 156.129
55.10000 160.691
55.11000 164.821
55.12000 164.962
55.13000 164.138
55.14000 163.806
55.15000 166.226
55.16000 169.071
55.17000 171.342
55.18000 170.764
55.19000 170.087
55.20000 169.315
55.21000 168.311
55.22000 167.296
55.23000 166.341
55.24000 165.486
55.25000 164.632
55.26000 164.194
55.27000 173.726
55.28000 180.106
55.29000 183.591
55.30000 185.123
55.31000 186.666
55.32000 188.518
55.33000 190.508
55.34000 192.384
55.35000 191.286
55.36000 189.462
55.37000 187.606
55.38000 185.519
55.39000 183.387
55.40000 182.364
55.41000 186.350
55.42000 190.946
55.43000 194.444
55.44000 193.258
55.45000 192.079
55.46000 194.235
55.47000 203.065
55.48000 212.082
55.49000 218.730
55.50000 222.239
55.51000 225.730
55.52000 229.823
55.53000 234.413
55.54000 238.997
55.55000 243.289
55.56000 247.420
55.57000 251.814
55.58000 260.973
55.59000 271.903
55.60000 281.979
55.61000 304.677
55.62000 327.795
55.63000 348.671
55.64000 356.760
55.65000 362.826
55.66000 372.055
55.67000 392.967
55.68000 414.970
55.69000 430.826
55.70000 450.307
55.71000 465.361
55.72000 483.428
55.73000 506.466
55.74000 529.578
55.75000 558.441
55.76000 593.479
55.77000 628.346
55.78000 653.359
55.79000 671.382
55.80000 689.209
55.81000 701.471
55.82000 711.183
55.83000 720.767
55.84000 728.675
55.85000 736.070
55.86000 742.712
55.87000 769.666
55.88000 796.828
55.89000 822.816
55.90000 843.394
55.91000 863.297
55.92000 873.588
55.93000 854.661
55.94000 833.721
55.95000 819.538
55.96000 816.541
55.97000 814.552
55.98000 807.583
55.99000 793.880
56.00000 780.145
56.01000 770.154
56.02000 763.390
56.03000 756.707
56.04000 739.000
56.05000 715.662
56.06000 692.669
56.07000 676.164
56.08000 662.116
56.09000 646.527
56.10000 615.978
56.11000 581.657
56.12000 551.753
56.13000 542.828
56.14000 538.104
56.15000 530.814
56.16000 513.868
56.17000 495.996
56.18000 474.592
56.19000 444.314
56.20000 413.609
56.21000 394.240
56.22000 376.473
56.23000 363.626
56.24000 350.803
56.25000 338.005
56.26000 325.215
56.27000 313.299
56.28000 301.998
56.29000 290.950
56.30000 283.341
56.31000 277.586
56.32000 271.519
56.33000 261.285
56.34000 249.746
56.35000 239.155
56.36000 235.686
56.37000 233.681
56.38000 231.993
56.39000 225.759
56.40000 220.076
56.41000 215.026
56.42000 211.935
56.43000 208.984
56.44000 205.705
56.45000 201.746
56.46000 197.766
56.47000 195.452
56.48000 199.980
56.49000 203.183
56.50000 201.137
56.51000 194.466
56.52000 187.933
56.53000 189.051
56.54000 194.577
56.55000 199.906
56.56000 197.087
56.57000 191.479
56.58000 186.153
56.59000 183.649
56.60000 181.869
56.61000 180.459
56.62000 181.245
56.63000 182.394
56.64000 183.323
56.65000 176.408
56.66000 170.155
56.67000 164.126
56.68000 158.669
56.69000 153.241
56.70000 152.672
56.71000 160.435
56.72000 168.340
56.73000 172.518
56.74000 170.256
56.75000 168.712
56.76000 166.518
56.77000 163.860
56.78000 161.332
56.79000 162.884
56.80000 166.376
56.81000 169.685
56.82000 163.922
56.83000 155.949
56.84000 149.035
56.85000 150.275
56.86000 153.227
56.87000 156.187
56.88000 159.191
56.89000 162.200
56.90000 164.523
56.91000 160.622
56.92000 157.167
56.93000 155.579
56.94000 157.947
56.95000 160.443
56.96000 158.253
56.97000 149.470
56.98000 140.645
56.99000 140.502
57.00000 148.159
57.01000 155.683
57.02000 155.208
57.03000 150.036
57.04000 145.135
57.05000 145.719
57.06000 148.460
57.07000 151.004
57.08000 146.549
57.09000 140.880
57.10000 136.343
57.11000 138.697
57.12000 142.217
57.13000 145.757
57.14000 149.374
57.15000 152.999
57.16000 155.656
57.17000 158.382
57.18000 160.489
57.19000 160.888
57.20000 158.301
57.21000 155.660
57.22000 153.435
57.23000 151.686
57.24000 149.943
57.25000 147.674
57.26000 145.044
57.27000 142.405
57.28000 139.481
57.29000 136.420
57.30000 133.708
57.31000 135.967
57.32000 139.841
57.33000 143.349
57.34000 142.828
57.35000 141.610
57.36000 141.717
57.37000 148.319
57.38000 155.792
57.39000 160.400
57.40000 155.789
57.41000 150.479
57.42000 146.813
57.43000 146.876
57.44000 147.019
57.45000 148.027
57.46000 150.276
57.47000 152.533
57.48000 152.116
57.49000 149.241
57.50000 146.394
57.51000 144.488
57.52000 143.173
57.53000 141.863
57.54000 140.654
57.55000 139.486
57.56000 138.500
57.57000 139.443
57.58000 140.901
57.59000 142.183
57.60000 143.557
57.61000 144.752
57.62000 144.861
57.63000 140.634
57.64000 135.956
57.65000 134.550
57.66000 141.838
57.67000 149.595
57.68000 154.596
57.69000 150.884
57.70000 148.048
57.71000 146.561
57.72000 146.652
57.73000 146.737
57.74000 145.556
57.75000 143.432
57.76000 141.348
57.77000 142.751
57.78000 145.761
57.79000 148.292
57.80000 143.787
57.81000 136.953
57.82000 130.612
57.83000 128.257
57.84000 126.772
57.85000 125.510
57.86000 132.213
57.87000 138.763
57.88000 143.945
57.89000 144.642
57.90000 144.990
57.91000 144.679
57.92000 142.922
57.93000 141.113
57.94000 140.035
57.95000 139.780
57.96000 139.604
57.97000 141.647
57.98000 145.772
57.99000 149.807
58.00000 147.572
58.01000 141.512
58.02000 135.643
58.03000 135.787
58.04000 138.246
58.05000 140.489
58.06000 140.401
58.07000 139.679
58.08000 139.308
58.09000 141.180
58.10000 143.447
58.11000 145.303
58.12000 146.338
58.13000 147.115
58.14000 148.595
58.15000 151.981
58.16000 155.473
58.17000 154.255
58.18000 144.486
58.19000 134.540
58.20000 129.126
58.21000 136.123
58.22000 140.944
58.23000 146.513
58.24000 152.651
58.25000 158.571
58.26000 156.556
58.27000 150.551
58.28000 144.829
58.29000 143.092
58.30000 142.728
58.31000 142.447
58.32000 142.855
58.33000 143.417
58.34000 143.656
58.35000 142.245
58.36000 140.601
58.37000 139.314
58.38000 137.348
58.39000 135.733
58.40000 134.213
58.41000 132.906
58.42000 131.607
58.43000 132.282
58.44000 135.905
58.45000 139.556
58.46000 140.737
58.47000 139.551
58.48000 138.403
58.49000 140.075
58.50000 143.500
58.51000 146.885
58.52000 149.376
58.53000 151.494
58.54000 153.473
58.55000 149.287
58.56000 143.936
58.57000 138.899
58.58000 135.917
58.59000 133.306
58.60000 131.320
58.61000 131.930
58.62000 132.824
58.63000 133.490
58.64000 134.153
58.65000 134.669
58.66000 136.604
58.67000 141.163
58.68000 145.780
58.69000 145.352
58.70000 138.782
58.71000 132.212
58.72000 131.725
58.73000 135.930
58.74000 140.075
58.75000 141.927
58.76000 142.603
58.77000 143.048
58.78000 139.851
58.79000 135.403
58.80000 131.344
58.81000 128.392
58.82000 125.997
58.83000 124.486
58.84000 127.589
58.85000 131.355
58.86000 134.252
58.87000 134.186
58.88000 133.874
58.89000 133.655
58.90000 137.896
58.91000 141.241
58.92000 143.436
58.93000 143.882
58.94000 144.309
58.95000 142.951
58.96000 139.842
58.97000 136.757
58.98000 136.528
58.99000 138.083
59.00000 139.667
59.01000 141.933
59.02000 144.486
59.03000 146.609
59.04000 143.801
59.05000 139.597
59.06000 135.865
59.07000 135.064
59.08000 134.838
59.09000 134.877
59.10000 136.037
59.11000 137.323
59.12000 138.998
59.13000 141.765
59.14000 144.597
59.15000 146.462
59.16000 147.477
59.17000 148.211
59.18000 145.824
59.19000 139.563
59.20000 133.310
59.21000 132.669
59.22000 136.470
59.23000 140.210
59.24000 138.022
59.25000 132.905
59.26000 128.215
59.27000 130.449
59.28000 135.107
59.29000 139.198
59.30000 138.349
59.31000 136.354
59.32000 134.639
59.33000 134.945
59.34000 135.455
59.35000 135.489
59.36000 133.864
59.37000 132.099
59.38000 132.130
59.39000 136.335
59.40000 140.711
59.41000 143.384
59.42000 131.278
59.43000 122.498
59.44000 120.667
59.45000 125.796
59.46000 130.915
59.47000 135.123
59.48000 138.742
59.49000 142.262
59.50000 140.800
59.51000 137.364
59.52000 133.863
59.53000 129.605
59.54000 125.129
59.55000 121.706
59.56000 125.461
59.57000 130.567
59.58000 134.796
59.59000 135.195
59.60000 135.161
59.61000 135.375
59.62000 136.303
59.63000 137.276
59.64000 136.398
59.65000 131.965
59.66000 127.445
59.67000 124.914
59.68000 125.853
59.69000 126.516
59.70000 128.718
59.71000 132.163
59.72000 135.530
59.73000 135.549
59.74000 133.785
59.75000 132.096
59.76000 132.530
59.77000 133.642
59.78000 134.445
59.79000 132.493
59.80000 129.890
59.81000 128.216
59.82000 131.602
59.83000 135.751
59.84000 139.044
59.85000 133.530
59.86000 128.470
59.87000 125.355
59.88000 126.846
59.89000 128.533
59.90000 129.318
59.91000 128.676
59.92000 128.016
59.93000 127.683
59.94000 131.341
59.95000 133.788
59.96000 136.210
59.97000 138.615
59.98000 140.942
59.99000 141.235
60.00000 140.633
60.01000 140.068
60.02000 133.848
60.03000 126.650
60.04000 120.876
60.05000 125.039
60.06000 131.112
60.07000 136.466
60.08000 138.647
60.09000 140.453
60.10000 141.819
60.11000 138.817
60.12000 136.243
60.13000 133.811
60.14000 131.661
60.15000 129.517
60.16000 129.481
60.17000 132.171
60.18000 134.869
60.19000 135.410
60.20000 134.177
60.21000 132.947
60.22000 131.850
60.23000 130.824
60.24000 129.695
60.25000 126.777
60.26000 123.208
60.27000 119.928
60.28000 122.414
60.29000 125.877
60.30000 129.168
60.31000 131.501
60.32000 133.686
60.33000 134.867
60.34000 132.422
60.35000 129.650
60.36000 127.666
60.37000 128.880
60.38000 129.915
60.39000 129.852
60.40000 128.018
60.41000 126.161
60.42000 124.948
60.43000 124.409
60.44000 123.873
60.45000 125.677
60.46000 129.009
60.47000 132.277
60.48000 133.823
60.49000 134.598
60.50000 135.275
60.51000 134.726
60.52000 133.810
60.53000 132.989
60.54000 132.222
60.55000 131.561
60.56000 131.361
60.57000 133.240
60.58000 135.370
60.59000 136.047
60.60000 132.406
60.61000 128.479
60.62000 125.840
60.63000 127.523
60.64000 128.862
60.65000 132.348
60.66000 138.668
60.67000 144.988
60.68000 143.964
60.69000 136.760
60.70000 129.650
60.71000 129.637
60.72000 133.440
60.73000 137.070
60.74000 137.568
60.75000 136.908
60.76000 135.939
60.77000 132.075
60.78000 127.497
60.79000 123.524
60.80000 127.354
60.81000 131.665
60.82000 135.089
60.83000 135.244
60.84000 135.096
60.85000 134.367
60.86000 132.214
60.87000 129.995
60.88000 128.607
60.89000 127.625
60.90000 126.920
60.91000 128.584
60.92000 132.782
60.93000 136.940
60.94000 136.342
60.95000 132.484
60.96000 128.718
60.97000 125.206
60.98000 121.956
60.99000 119.169
61.00000 122.345
61.01000 127.343
61.02000 131.607
61.03000 130.505
61.04000 128.326
61.05000 126.502
61.06000 124.258
61.07000 122.348
61.08000 122.382
61.09000 128.298
61.10000 134.618
61.11000 138.463
61.12000 137.279
61.13000 135.948
61.14000 135.183
61.15000 137.385
61.16000 138.935
61.17000 138.848
61.18000 137.357
61.19000 135.892
61.20000 135.801
61.21000 136.484
61.22000 137.141
61.23000 139.576
61.24000 142.490
61.25000 144.765
61.26000 140.856
61.27000 135.395
61.28000 130.943
61.29000 132.352
61.30000 134.706
61.31000 136.598
61.32000 137.281
61.33000 137.741
61.34000 137.440
61.35000 135.233
61.36000 132.935
61.37000 131.295
61.38000 130.757
61.39000 130.236
61.40000 129.965
61.41000 132.824
61.42000 134.757
61.43000 136.484
61.44000 138.066
61.45000 139.631
61.46000 140.699
61.47000 141.536
61.48000 142.327
61.49000 145.115
61.50000 148.250
61.51000 152.493
61.52000 165.024
61.53000 179.252
61.54000 193.218
61.55000 205.953
61.56000 218.531
61.57000 228.188
61.58000 245.322
61.59000 259.283
61.60000 270.159
61.61000 274.648
61.62000 278.942
61.63000 281.394
61.64000 281.313
61.65000 281.217
61.66000 282.073
61.67000 283.761
61.68000 285.478
61.69000 288.746
61.70000 292.903
61.71000 296.884
61.72000 297.459
61.73000 296.723
61.74000 296.041
61.75000 288.501
61.76000 280.144
61.77000 270.722
61.78000 254.986
61.79000 238.209
61.80000 223.589
61.81000 217.213
61.82000 211.647
61.83000 207.594
61.84000 181.088
61.85000 159.824
61.86000 147.099
61.87000 148.960
61.88000 151.066
61.89000 150.367
61.90000 146.536
61.91000 142.719
61.92000 141.031
61.93000 140.864
61.94000 140.768
61.95000 142.919
61.96000 146.134
61.97000 149.130
61.98000 149.112
61.99000 148.137
62.00000 147.258
62.01000 148.182
62.02000 149.325
62.03000 149.182
62.04000 142.890
62.05000 135.796
62.06000 131.198
62.07000 134.454
62.08000 138.282
62.09000 140.906
62.10000 141.269
62.11000 141.486
62.12000 138.780
62.13000 131.974
62.14000 125.146
62.15000 126.653
62.16000 135.625
62.17000 144.502
62.18000 145.465
62.19000 141.881
62.20000 138.460
62.21000 138.338
62.22000 139.509
62.23000 140.393
62.24000 138.370
62.25000 135.586
62.26000 133.147
62.27000 136.365
62.28000 139.944
62.29000 141.612
62.30000 135.827
62.31000 129.291
62.32000 125.405
62.33000 128.403
62.34000 131.756
62.35000 133.899
62.36000 134.072
62.37000 134.171
62.38000 133.827
62.39000 132.977
62.40000 132.140
62.41000 133.537
62.42000 136.559
62.43000 139.520
62.44000 140.471
62.45000 140.453
62.46000 140.424
62.47000 140.250
62.48000 140.028
62.49000 139.685
62.50000 138.397
62.51000 136.908
62.52000 135.647
62.53000 140.357
62.54000 144.969
62.55000 149.359
62.56000 153.035
62.57000 156.658
62.58000 156.300
62.59000 147.390
62.60000 138.191
62.61000 132.761
62.62000 136.956
62.63000 139.970
62.64000 141.772
62.65000 142.467
62.66000 143.170
62.67000 144.333
62.68000 145.770
62.69000 147.160
62.70000 145.127
62.71000 141.919
62.72000 138.827
62.73000 136.951
62.74000 135.399
62.75000 134.475
62.76000 137.450
62.77000 141.095
62.78000 144.064
62.79000 145.030
62.80000 145.649
62.81000 145.503
62.82000 143.332
62.83000 141.053
62.84000 139.161
62.85000 137.959
62.86000 136.770
62.87000 136.130
62.88000 137.608
62.89000 138.611
62.90000 138.064
62.91000 136.365
62.92000 134.794
62.93000 137.613
62.94000 142.590
62.95000 147.323
62.96000 147.993
62.97000 147.373
62.98000 146.638
62.99000 144.980
63.00000 143.120
63.01000 141.772
63.02000 142.968
63.03000 144.512
63.04000 145.714
63.05000 150.672
63.06000 154.852
63.07000 156.055
63.08000 150.735
63.09000 145.184
63.10000 140.402
63.11000 136.740
63.12000 133.088
63.13000 133.919
63.14000 138.937
63.15000 143.926
63.16000 146.887
63.17000 148.617
63.18000 150.361
63.19000 152.438
63.20000 154.651
63.21000 156.712
63.22000 153.151
63.23000 148.547
63.24000 144.225
63.25000 141.693
63.26000 139.475
63.27000 138.507
63.28000 142.606
63.29000 147.244
63.30000 150.676
63.31000 145.165
63.32000 140.504
63.33000 138.429
63.34000 141.031
63.35000 143.729
63.36000 145.777
63.37000 147.054
63.38000 148.326
63.39000 146.752
63.40000 143.050
63.41000 139.491
63.42000 141.116
63.43000 145.339
63.44000 149.378
63.45000 150.658
63.46000 151.010
63.47000 151.331
63.48000 145.333
63.49000 138.786
63.50000 133.863
63.51000 137.204
63.52000 141.701
63.53000 145.324
63.54000 146.032
63.55000 146.508
63.56000 146.840
63.57000 151.268
63.58000 154.727
63.59000 155.362
63.60000 151.799
63.61000 148.196
63.62000 145.065
63.63000 142.383
63.64000 139.723
63.65000 140.427
63.66000 143.163
63.67000 145.901
63.68000 148.660
63.69000 151.427
63.70000 153.776
63.71000 151.489
63.72000 147.918
63.73000 144.760
63.74000 150.309
63.75000 156.456
63.76000 160.917
63.77000 158.403
63.78000 155.129
63.79000 152.674
63.80000 152.470
63.81000 152.395
63.82000 152.346
63.83000 157.710
63.84000 161.735
63.85000 161.711
63.86000 156.779
63.87000 151.845
63.88000 149.016
63.89000 147.812
63.90000 146.630
63.91000 148.390
63.92000 151.544
63.93000 154.527
63.94000 154.839
63.95000 154.236
63.96000 153.947
63.97000 156.300
63.98000 159.252
63.99000 161.778
64.00000 159.578
64.01000 157.150
64.02000 156.164
64.03000 160.068
64.04000 164.375
64.05000 166.076
64.06000 161.852
64.07000 157.399
64.08000 154.705
64.09000 153.200
64.10000 152.137
64.11000 151.901
64.12000 152.473
64.13000 153.073
64.14000 155.889
64.15000 160.106
64.16000 164.200
64.17000 161.037
64.18000 155.126
64.19000 149.467
64.20000 146.675
64.21000 144.694
64.22000 143.194
64.23000 144.889
64.24000 147.172
64.25000 149.053
64.26000 154.694
64.27000 159.683
64.28000 163.617
64.29000 164.596
64.30000 165.399
64.31000 164.642
64.32000 160.955
64.33000 157.200
64.34000 155.121
64.35000 155.360
64.36000 155.531
64.37000 156.082
64.38000 156.932
64.39000 157.732
64.40000 156.479
64.41000 154.159
64.42000 151.941
64.43000 156.508
64.44000 162.962
64.45000 168.766
64.46000 168.943
64.47000 167.818
64.48000 166.811
64.49000 166.424
64.50000 166.129
64.51000 165.895
64.52000 172.033
64.53000 177.392
64.54000 179.552
64.55000 174.305
64.56000 168.759
64.57000 164.774
64.58000 163.202
64.59000 161.658
64.60000 160.320
64.61000 159.187
64.62000 158.116
64.63000 162.522
64.64000 170.453
64.65000 178.051
64.66000 177.487
64.67000 173.412
64.68000 169.590
64.69000 169.293
64.70000 169.947
64.71000 170.655
64.72000 171.732
64.73000 172.880
64.74000 174.207
64.75000 176.311
64.76000 178.504
64.77000 180.152
64.78000 183.932
64.79000 186.990
64.80000 188.561
64.81000 187.284
64.82000 185.938
64.83000 186.759
64.84000 190.316
64.85000 193.877
64.86000 192.175
64.87000 186.265
64.88000 180.492
64.89000 180.595
64.90000 183.814
64.91000 186.742
64.92000 184.841
64.93000 181.223
64.94000 177.907
64.95000 178.663
64.96000 180.191
64.97000 182.440
64.98000 188.603
64.99000 195.352
65.00000 201.752
65.01000 206.917
65.02000 211.974
65.03000 215.569
65.04000 212.033
65.05000 209.112
65.06000 209.067
65.07000 213.556
65.08000 218.100
65.09000 220.623
65.10000 221.086
65.11000 221.546
65.12000 224.439
65.13000 228.866
65.14000 233.309
65.15000 238.200
65.16000 243.288
65.17000 247.567
65.18000 242.106
65.19000 233.787
65.20000 226.365
65.21000 239.782
65.22000 254.930
65.23000 268.046
65.24000 272.233
65.25000 275.370
65.26000 277.968
65.27000 278.997
65.28000 279.926
65.29000 280.545
65.30000 291.696
65.31000 300.155
65.32000 303.973
65.33000 301.808
65.34000 299.635
65.35000 304.163
65.36000 314.192
65.37000 324.078
65.38000 329.034
65.39000 331.261
65.40000 333.708
65.41000 339.961
65.42000 347.591
65.43000 355.134
65.44000 361.879
65.45000 368.432
65.46000 374.098
65.47000 381.984
65.48000 388.974
65.49000 393.996
65.50000 391.944
65.51000 389.258
65.52000 390.303
65.53000 400.317
65.54000 410.724
65.55000 417.171
65.56000 431.540
65.57000 441.948
65.58000 449.818
65.59000 455.042
65.60000 460.254
65.61000 464.303
65.62000 467.572
65.63000 470.759
65.64000 486.556
65.65000 507.008
65.66000 527.321
65.67000 545.908
65.68000 563.979
65.69000 584.314
65.70000 620.736
65.71000 660.304
65.72000 693.302
65.73000 771.393
65.74000 840.649
65.75000 906.454
65.76000 962.035
65.77000 1016.944
65.78000 1071.513
65.79000 1125.410
65.80000 1179.288
65.81000 1209.954
65.82000 1220.810
65.83000 1228.320
65.84000 1238.777
65.85000 1251.705
65.86000 1264.422
65.87000 1267.010
65.88000 1264.022
65.89000 1261.151
65.90000 1235.831
65.91000 1204.373
65.92000 1173.615
65.93000 1149.416
65.94000 1126.827
65.95000 1094.970
65.96000 1010.689
65.97000 918.180
65.98000 844.158
65.99000 770.398
66.00000 710.777
66.01000 653.672
66.02000 602.727
66.03000 552.063
66.04000 506.658
66.05000 469.868
66.06000 433.203
66.07000 414.294
66.08000 388.494
66.09000 371.153
66.10000 358.236
66.11000 348.341
66.12000 338.436
66.13000 328.262
66.14000 317.965
66.15000 308.250
66.16000 306.170
66.17000 306.397
66.18000 306.948
66.19000 309.857
66.20000 313.237
66.21000 316.949
66.22000 322.181
66.23000 327.602
66.24000 331.739
66.25000 345.385
66.26000 356.649
66.27000 367.318
66.28000 376.784
66.29000 386.216
66.30000 395.900
66.31000 405.923
66.32000 415.939
66.33000 426.360
66.34000 437.103
66.35000 447.761
66.36000 454.131
66.37000 458.093
66.38000 461.775
66.39000 460.271
66.40000 456.817
66.41000 453.628
66.42000 467.003
66.43000 482.712
66.44000 495.044
66.45000 487.858
66.46000 477.540
66.47000 467.141
66.48000 456.442
66.49000 445.713
66.50000 437.955
66.51000 425.585
66.52000 415.925
66.53000 407.017
66.54000 399.366
66.55000 391.734
66.56000 382.598
66.57000 371.827
66.58000 361.104
66.59000 354.549
66.60000 350.935
66.61000 347.171
66.62000 338.961
66.63000 328.692
66.64000 319.055
66.65000 317.742
66.66000 319.016
66.67000 320.162
66.68000 320.957
66.69000 321.591
66.70000 321.705
66.71000 319.393
66.72000 316.773
66.73000 316.075
66.74000 321.286
66.75000 326.912
66.76000 330.739
66.77000 331.810
66.78000 332.547
66.79000 332.903
66.80000 332.738
66.81000 332.569
66.82000 332.531
66.83000 332.605
66.84000 332.678
66.85000 334.132
66.86000 336.322
66.87000 338.203
66.88000 334.168
66.89000 327.865
66.90000 322.881
66.91000 330.902
66.92000 342.243
66.93000 352.144
66.94000 342.293
66.95000 331.089
66.96000 322.435
66.97000 323.494
66.98000 325.502
66.99000 326.331
67.00000 324.167
67.01000 321.856
67.02000 320.391
67.03000 347.669
67.04000 367.806
67.05000 374.323
67.06000 365.711
67.07000 357.138
67.08000 355.600
67.09000 359.059
67.10000 362.443
67.11000 366.884
67.12000 371.625
67.13000 375.764
67.14000 371.726
67.15000 365.100
67.16000 359.694
67.17000 363.592
67.18000 369.426
67.19000 374.347
67.20000 377.969
67.21000 380.852
67.22000 382.158
67.23000 378.517
67.24000 374.516
67.25000 374.295
67.26000 382.017
67.27000 389.992
67.28000 394.652
67.29000 391.250
67.30000 388.823
67.31000 390.974
67.32000 397.210
67.33000 403.333
67.34000 402.938
67.35000 398.742
67.36000 394.693
67.37000 395.090
67.38000 397.099
67.39000 399.268
67.40000 403.070
67.41000 407.296
67.42000 411.720
67.43000 417.333
67.44000 423.145
67.45000 427.855
67.46000 415.590
67.47000 404.213
67.48000 397.647
67.49000 403.538
67.50000 410.067
67.51000 417.371
67.52000 426.020
67.53000 434.694
67.54000 439.306
67.55000 429.365
67.56000 422.636
67.57000 423.576
67.58000 430.073
67.59000 436.397
67.60000 437.141
67.61000 435.201
67.62000 433.361
67.63000 438.569
67.64000 445.470
67.65000 451.237
67.66000 448.144
67.67000 443.168
67.68000 440.351
67.69000 448.027
67.70000 457.098
67.71000 464.123
67.72000 462.417
67.73000 460.544
67.74000 458.585
67.75000 456.445
67.76000 454.298
67.77000 460.128
67.78000 477.317
67.79000 494.587
67.80000 497.332
67.81000 486.850
67.82000 476.628
67.83000 482.680
67.84000 498.401
67.85000 513.443
67.86000 514.388
67.87000 509.727
67.88000 505.395
67.89000 504.941
67.90000 505.461
67.91000 506.438
67.92000 510.237
67.93000 514.520
67.94000 517.879
67.95000 517.572
67.96000 516.889
67.97000 516.387
67.98000 516.833
67.99000 517.217
68.00000 522.427
68.01000 536.170
68.02000 550.076
68.03000 554.124
68.04000 546.751
68.05000 539.387
68.06000 538.771
68.07000 543.108
68.08000 547.401
68.09000 550.218
68.10000 552.311
68.11000 554.710
68.12000 561.552
68.13000 569.854
68.14000 577.383
68.15000 579.159
68.16000 579.626
68.17000 579.956
68.18000 579.601
68.19000 579.154
68.20000 580.398
68.21000 587.149
68.22000 594.325
68.23000 599.299
68.24000 604.601
68.25000 608.600
68.26000 611.410
68.27000 612.491
68.28000 613.558
68.29000 618.750
68.30000 627.782
68.31000 636.731
68.32000 646.312
68.33000 656.076
68.34000 665.705
68.35000 672.409
68.36000 677.927
68.37000 683.232
68.38000 686.259
68.39000 688.671
68.40000 690.796
68.41000 705.858
68.42000 720.790
68.43000 733.990
68.44000 740.191
68.45000 745.652
68.46000 746.630
68.47000 735.558
68.48000 723.823
68.49000 716.221
68.50000 749.784
68.51000 774.955
68.52000 794.634
68.53000 807.817
68.54000 821.002
68.55000 836.906
68.56000 854.860
68.57000 872.485
68.58000 906.374
68.59000 946.900
68.60000 987.690
68.61000 1032.448
68.62000 1078.534
68.63000 1126.366
68.64000 1188.530
68.65000 1253.864
68.66000 1309.554
68.67000 1352.465
68.68000 1387.064
68.69000 1428.424
68.70000 1492.216
68.71000 1557.792
68.72000 1620.574
68.73000 1677.150
68.74000 1733.498
68.75000 1767.261
68.76000 1845.256
68.77000 1900.935
68.78000 1978.834
68.79000 2077.867
68.80000 2176.619
68.81000 2255.055
68.82000 2320.950
68.83000 2384.829
68.84000 2532.822
68.85000 2705.880
68.86000 2884.520
68.87000 3124.608
68.88000 3381.647
68.89000 3692.577
68.90000 4351.377
68.91000 5072.443
68.92000 5664.032
68.93000 7673.388
68.94000 9448.616
68.95000 11693.513
68.96000 15224.522
68.97000 18828.992
68.98000 22905.990
68.99000 27850.684
69.00000 32814.117
69.01000 35531.922
69.02000 42485.883
69.03000 47269.180
69.04000 51007.871
69.05000 53942.957
69.06000 56846.348
69.07000 58554.980
69.08000 59655.750
69.09000 60705.914
69.10000 61257.332
69.11000 61611.160
69.12000 61989.125
69.13000 62570.094
69.14000 63196.883
69.15000 63802.438
69.16000 64298.078
69.17000 64778.043
69.18000 65154.988
69.19000 64112.656
69.20000 63185.656
69.21000 61673.246
69.22000 58835.129
69.23000 55946.246
69.24000 52805.703
69.25000 49285.023
69.26000 45760.578
69.27000 42779.227
69.28000 40325.891
69.29000 37880.406
69.30000 36051.871
69.31000 34611.602
69.32000 33191.281
69.33000 32237.188
69.34000 31479.195
69.35000 30770.086
69.36000 29796.123
69.37000 28843.648
69.38000 27790.035
69.39000 26068.646
69.40000 24225.148
69.41000 22237.523
69.42000 19643.939
69.43000 16982.904
69.44000 14994.681
69.45000 12198.570
69.46000 9981.540
69.47000 8074.024
69.48000 6745.695
69.49000 5430.641
69.50000 4409.535
69.51000 3750.779
69.52000 3094.298
69.53000 2650.365
69.54000 2374.694
69.55000 2101.323
69.56000 1919.493
69.57000 1785.119
69.58000 1653.694
69.59000 1569.442
69.60000 1501.595
69.61000 1439.592
69.62000 1363.153
69.63000 1292.302
69.64000 1227.858
69.65000 1197.272
69.66000 1171.629
69.67000 1142.552
69.68000 1101.638
69.69000 1059.726
69.70000 1030.142
69.71000 988.886
69.72000 957.223
69.73000 934.559
69.74000 925.758
69.75000 917.111
69.76000 903.409
69.77000 884.685
69.78000 866.094
69.79000 851.590
69.80000 839.897
69.81000 828.148
69.82000 815.050
69.83000 801.373
69.84000 788.302
69.85000 782.301
69.86000 778.327
69.87000 774.793
69.88000 767.403
69.89000 760.364
69.90000 752.254
69.91000 739.545
69.92000 726.312
69.93000 716.882
69.94000 718.267
69.95000 720.314
69.96000 721.668
69.97000 699.654
69.98000 682.989
69.99000 673.001
70.00000 671.411
