20.00000 559.194
20.01000 556.500
20.02000 553.422
20.03000 551.728
20.04000 555.379
20.05000 559.563
20.06000 562.617
20.07000 560.096
20.08000 557.934
20.09000 558.829
20.10000 564.997
20.11000 571.256
20.12000 577.544
20.13000 583.864
20.14000 590.160
20.15000 587.597
20.16000 578.734
20.17000 569.967
20.18000 564.253
20.19000 559.999
20.20000 556.075
20.21000 556.742
20.22000 558.883
20.23000 560.817
20.24000 569.825
20.25000 579.063
20.26000 586.219
20.27000 583.311
20.28000 579.074
20.29000 573.679
20.30000 564.601
20.31000 555.251
20.32000 548.823
20.33000 549.157
20.34000 549.576
20.35000 551.208
20.36000 554.561
20.37000 557.927
20.38000 562.143
20.39000 567.131
20.40000 572.068
20.41000 568.884
20.42000 561.075
20.43000 553.552
20.44000 551.914
20.45000 552.604
20.46000 553.610
20.47000 557.892
20.48000 563.039
20.49000 567.556
20.50000 567.893
20.51000 567.571
20.52000 565.701
20.53000 557.732
20.54000 549.141
20.55000 543.837
20.56000 547.159
20.57000 550.935
20.58000 553.358
20.59000 559.706
20.60000 564.387
20.61000 561.998
20.62000 551.466
20.63000 540.991
20.64000 542.322
20.65000 552.325
20.66000 562.132
20.67000 557.036
20.68000 545.138
20.69000 533.700
20.70000 528.854
20.71000 526.162
20.72000 524.962
20.73000 535.619
20.74000 548.831
20.75000 560.042
20.76000 566.553
20.77000 571.479
20.78000 573.699
20.79000 567.154
20.80000 559.938
20.81000 555.359
20.82000 556.501
20.83000 557.841
20.84000 558.635
20.85000 549.278
20.86000 542.602
20.87000 540.928
20.88000 543.880
20.89000 546.776
20.90000 546.056
20.91000 543.157
20.92000 540.353
20.93000 543.113
20.94000 547.840
20.95000 551.996
20.96000 550.083
20.97000 546.537
20.98000 543.834
20.99000 546.423
21.00000 549.934
21.01000 552.798
21.02000 546.896
21.03000 541.316
21.04000 536.931
21.05000 535.742
21.06000 534.728
21.07000 535.575
21.08000 539.754
21.09000 544.000
21.10000 546.296
21.11000 551.058
21.12000 554.306
21.13000 554.520
21.14000 552.458
21.15000 550.548
21.16000 553.966
21.17000 560.030
21.18000 565.802
21.19000 561.054
21.20000 553.414
21.21000 546.283
21.22000 543.291
21.23000 541.209
21.24000 539.518
21.25000 539.793
21.26000 540.339
21.27000 540.766
21.28000 541.273
21.29000 541.682
21.30000 543.500
21.31000 548.431
21.32000 553.474
21.33000 554.173
21.34000 548.471
21.35000 542.713
21.36000 538.445
21.37000 535.585
21.38000 532.813
21.39000 536.248
21.40000 543.494
21.41000 550.427
21.42000 550.425
21.43000 547.575
21.44000 544.916
21.45000 547.791
21.46000 551.770
21.47000 556.004
21.48000 561.868
21.49000 568.022
21.50000 570.817
21.51000 559.852
21.52000 547.404
21.53000 538.167
21.54000 545.523
21.55000 551.968
21.56000 555.770
21.57000 554.747
21.58000 553.621
21.59000 550.626
21.60000 545.386
21.61000 540.154
21.62000 540.992
21.63000 546.437
21.64000 551.819
21.65000 554.856
21.66000 556.705
21.67000 558.070
21.68000 552.007
21.69000 543.422
21.70000 535.602
21.71000 546.617
21.72000 560.117
21.73000 570.453
21.74000 564.518
21.75000 556.279
21.76000 551.394
21.77000 557.794
21.78000 565.111
21.79000 570.235
21.80000 574.781
21.81000 578.201
21.82000 579.971
21.83000 579.260
21.84000 578.525
21.85000 581.011
21.86000 586.608
21.87000 592.161
21.88000 590.383
21.89000 584.131
21.90000 578.262
21.91000 581.254
21.92000 587.952
21.93000 593.977
21.94000 592.439
21.95000 588.786
21.96000 585.551
21.97000 580.526
21.98000 575.897
21.99000 574.076
22.00000 583.997
22.01000 595.215
22.02000 603.648
22.03000 604.353
22.04000 604.605
22.05000 604.771
22.06000 610.700
22.07000 615.156
22.08000 619.842
22.09000 624.811
22.10000 629.742
22.11000 624.442
22.12000 611.158
22.13000 598.094
22.14000 598.144
22.15000 604.734
22.16000 611.250
22.17000 616.603
22.18000 621.554
22.19000 625.813
22.20000 624.154
22.21000 621.140
22.22000 618.556
22.23000 612.357
22.24000 606.678
22.25000 599.832
22.26000 588.985
22.27000 577.803
22.28000 572.112
22.29000 579.019
22.30000 586.423
22.31000 590.922
22.32000 592.888
22.33000 594.272
22.34000 589.059
22.35000 577.335
22.36000 565.685
22.37000 560.263
22.38000 558.813
22.39000 557.404
22.40000 557.150
22.41000 557.376
22.42000 557.657
22.43000 558.571
22.44000 559.666
22.45000 560.471
22.46000 559.331
22.47000 557.830
22.48000 556.590
22.49000 550.521
22.50000 545.067
22.51000 541.339
22.52000 542.489
22.53000 543.935
22.54000 545.238
22.55000 546.270
22.56000 547.296
22.57000 547.867
22.58000 552.184
22.59000 555.161
22.60000 553.186
22.61000 547.266
22.62000 541.271
22.63000 532.156
22.64000 521.401
22.65000 511.110
22.66000 511.820
22.67000 516.093
22.68000 520.717
22.69000 528.423
22.70000 536.850
22.71000 543.441
22.72000 540.180
22.73000 535.457
22.74000 531.720
22.75000 529.522
22.76000 527.863
22.77000 527.106
22.78000 528.460
22.79000 529.900
22.80000 527.614
22.81000 519.509
22.82000 511.334
22.83000 507.229
22.84000 522.523
22.85000 532.567
22.86000 527.451
22.87000 512.472
22.88000 498.202
22.89000 501.712
22.90000 512.942
22.91000 523.486
22.92000 525.149
22.93000 524.313
22.94000 522.984
22.95000 518.272
22.96000 512.918
22.97000 508.439
22.98000 507.768
22.99000 507.539
23.00000 507.366
23.01000 514.632
23.02000 520.687
23.03000 520.795
23.04000 509.410
23.05000 497.736
23.06000 495.064
23.07000 503.884
23.08000 512.732
23.09000 515.911
23.10000 514.485
23.11000 513.129
23.12000 514.844
23.13000 518.202
23.14000 521.333
23.15000 520.616
23.16000 518.518
23.17000 516.593
23.18000 514.939
23.19000 513.522
23.20000 511.705
23.21000 507.693
23.22000 503.347
23.23000 499.458
23.24000 497.196
23.25000 495.079
23.26000 493.570
23.27000 491.208
23.28000 489.379
23.29000 489.526
23.30000 492.817
23.31000 496.149
23.32000 501.736
23.33000 509.649
23.34000 517.514
23.35000 521.640
23.36000 523.263
23.37000 524.582
23.38000 517.900
23.39000 507.679
23.40000 498.717
23.41000 505.180
23.42000 516.211
23.43000 526.068
23.44000 520.836
23.45000 513.733
23.46000 508.543
23.47000 511.839
23.48000 516.148
23.49000 516.311
23.50000 504.305
23.51000 491.510
23.52000 482.949
23.53000 496.330
23.54000 506.686
23.55000 516.122
23.56000 524.361
23.57000 532.566
23.58000 527.655
23.59000 511.862
23.60000 496.284
23.61000 487.382
23.62000 482.268
23.63000 477.843
23.64000 485.534
23.65000 497.657
23.66000 508.766
23.67000 510.503
23.68000 509.961
23.69000 509.491
23.70000 515.095
23.71000 520.666
23.72000 523.728
23.73000 517.684
23.74000 510.810
23.75000 506.809
23.76000 509.779
23.77000 513.061
23.78000 515.102
23.79000 514.804
23.80000 514.566
23.81000 512.275
23.82000 507.820
23.83000 503.458
23.84000 509.266
23.85000 521.955
23.86000 534.332
23.87000 540.012
23.88000 542.555
23.89000 544.598
23.90000 540.333
23.91000 534.163
23.92000 528.120
23.93000 522.985
23.94000 518.030
23.95000 513.890
23.96000 518.590
23.97000 523.389
23.98000 526.684
23.99000 525.481
24.00000 523.977
24.01000 524.213
24.02000 527.941
24.03000 531.766
24.04000 533.954
24.05000 536.437
24.06000 538.160
24.07000 533.053
24.08000 522.160
24.09000 511.477
24.10000 511.238
24.11000 516.806
24.12000 522.160
24.13000 525.966
24.14000 528.993
24.15000 531.500
24.16000 529.082
24.17000 525.443
24.18000 520.711
24.19000 509.728
24.20000 497.751
24.21000 488.147
24.22000 498.824
24.23000 509.006
24.24000 514.305
24.25000 507.530
24.26000 500.194
24.27000 496.238
24.28000 497.877
24.29000 499.600
24.30000 500.493
24.31000 501.111
24.32000 501.492
24.33000 497.515
24.34000 490.533
24.35000 483.987
24.36000 489.934
24.37000 501.618
24.38000 512.653
24.39000 513.531
24.40000 511.470
24.41000 508.038
24.42000 494.516
24.43000 478.958
24.44000 465.871
24.45000 464.204
24.46000 463.967
24.47000 463.785
24.48000 481.389
24.49000 496.251
24.50000 505.553
24.51000 503.488
24.52000 501.088
24.53000 495.237
24.54000 484.708
24.55000 474.160
24.56000 472.966
24.57000 479.850
24.58000 486.669
24.59000 490.047
24.60000 491.475
24.61000 492.845
24.62000 493.121
24.63000 492.982
24.64000 492.853
24.65000 489.203
24.66000 485.127
24.67000 481.820
24.68000 483.012
24.69000 484.935
24.70000 487.979
24.71000 495.259
24.72000 502.947
24.73000 508.523
24.74000 496.039
24.75000 485.773
24.76000 482.345
24.77000 490.447
24.78000 498.735
24.79000 498.213
24.80000 488.001
24.81000 477.828
24.82000 475.880
24.83000 479.678
24.84000 483.244
24.85000 479.816
24.86000 473.114
24.87000 467.380
24.88000 474.616
24.89000 485.920
24.90000 496.104
24.91000 488.444
24.92000 478.499
24.93000 471.066
24.94000 475.489
24.95000 481.431
24.96000 485.276
24.97000 482.601
24.98000 479.460
24.99000 477.317
25.00000 481.632
25.01000 485.009
25.02000 488.441
25.03000 491.948
25.04000 495.449
25.05000 492.292
25.06000 483.255
25.07000 474.318
25.08000 475.523
25.09000 482.420
25.10000 488.962
25.11000 488.528
25.12000 485.395
25.13000 482.278
25.14000 479.319
25.15000 476.401
25.16000 473.849
25.17000 477.693
25.18000 481.897
25.19000 484.667
25.20000 481.922
25.21000 478.631
25.22000 475.310
25.23000 471.908
25.24000 468.503
25.25000 466.336
25.26000 465.336
25.27000 464.625
25.28000 467.642
25.29000 474.847
25.30000 482.016
25.31000 483.164
25.32000 479.990
25.33000 476.883
25.34000 474.925
25.35000 473.570
25.36000 472.140
25.37000 469.660
25.38000 466.844
25.39000 464.784
25.40000 468.555
25.41000 473.552
25.42000 477.775
25.43000 468.804
25.44000 459.852
25.45000 454.442
25.46000 460.244
25.47000 466.873
25.48000 470.741
25.49000 468.750
25.50000 466.567
25.51000 465.286
25.52000 469.037
25.53000 471.704
25.54000 472.187
25.55000 470.700
25.56000 469.234
25.57000 469.020
25.58000 469.543
25.59000 470.049
25.60000 469.748
25.61000 469.165
25.62000 468.470
25.63000 466.617
25.64000 464.461
25.65000 462.369
25.66000 460.670
25.67000 459.037
25.68000 457.711
25.69000 462.519
25.70000 466.950
25.71000 469.512
25.72000 467.187
25.73000 464.608
25.74000 463.443
25.75000 464.757
25.76000 466.116
25.77000 466.843
25.78000 465.798
25.79000 465.064
25.80000 460.838
25.81000 454.057
25.82000 447.493
25.83000 448.161
25.84000 452.341
25.85000 456.311
25.86000 455.851
25.87000 454.094
25.88000 452.524
25.89000 452.438
25.90000 452.669
25.91000 454.386
25.92000 463.401
25.93000 473.398
25.94000 481.159
25.95000 472.104
25.96000 463.887
25.97000 457.483
25.98000 454.997
25.99000 452.645
26.00000 453.125
26.01000 457.681
26.02000 462.268
26.03000 465.108
26.04000 466.336
26.05000 467.535
26.06000 466.814
26.07000 464.940
26.08000 463.261
26.09000 465.690
26.10000 469.769
26.11000 473.564
26.12000 472.412
26.13000 470.171
26.14000 467.520
26.15000 462.302
26.16000 456.640
26.17000 452.156
26.18000 452.391
26.19000 453.118
26.20000 453.654
26.21000 449.412
26.22000 445.926
26.23000 445.536
26.24000 450.675
26.25000 455.923
26.26000 459.517
26.27000 461.172
26.28000 462.819
26.29000 458.935
26.30000 450.979
26.31000 443.393
26.32000 448.712
26.33000 460.416
26.34000 471.131
26.35000 467.244
26.36000 458.511
26.37000 450.581
26.38000 454.341
26.39000 459.925
26.40000 463.908
26.41000 459.862
26.42000 454.710
26.43000 451.969
26.44000 457.157
26.45000 462.967
26.46000 467.007
26.47000 463.301
26.48000 460.299
26.49000 456.164
26.50000 450.369
26.51000 444.559
26.52000 442.979
26.53000 445.380
26.54000 447.761
26.55000 446.199
26.56000 442.303
26.57000 438.739
26.58000 442.472
26.59000 449.192
26.60000 455.420
26.61000 456.314
26.62000 455.749
26.63000 455.250
26.64000 458.255
26.65000 461.384
26.66000 463.431
26.67000 461.068
26.68000 458.232
26.69000 454.538
26.70000 448.512
26.71000 442.356
26.72000 438.354
26.73000 452.340
26.74000 462.866
26.75000 463.844
26.76000 453.407
26.77000 442.977
26.78000 439.371
26.79000 440.965
26.80000 442.530
26.81000 447.452
26.82000 453.838
26.83000 459.588
26.84000 455.656
26.85000 448.451
26.86000 442.029
26.87000 442.123
26.88000 443.674
26.89000 444.998
26.90000 446.386
26.91000 447.563
26.92000 447.521
26.93000 443.394
26.94000 438.937
26.95000 437.673
26.96000 443.575
26.97000 449.745
26.98000 453.458
26.99000 445.913
27.00000 440.468
27.01000 434.725
27.02000 428.694
27.03000 422.799
27.04000 427.189
27.05000 437.992
27.06000 448.473
27.07000 455.268
27.08000 460.255
27.09000 464.514
27.10000 460.653
27.11000 454.530
27.12000 449.776
27.13000 453.967
27.14000 459.778
27.15000 464.555
27.16000 466.250
27.17000 467.364
27.18000 464.755
27.19000 451.853
27.20000 438.353
27.21000 431.326
27.22000 436.304
27.23000 441.550
27.24000 444.437
27.25000 446.298
27.26000 447.574
27.27000 447.927
27.28000 447.561
27.29000 447.164
27.30000 445.510
27.31000 443.212
27.32000 441.017
27.33000 440.425
27.34000 440.387
27.35000 440.627
27.36000 443.231
27.37000 446.374
27.38000 448.596
27.39000 445.999
27.40000 442.705
27.41000 440.113
27.42000 432.784
27.43000 426.597
27.44000 425.699
27.45000 436.895
27.46000 448.565
27.47000 454.303
27.48000 450.988
27.49000 447.576
27.50000 442.929
27.51000 437.067
27.52000 431.240
27.53000 428.392
27.54000 427.436
27.55000 426.648
27.56000 429.892
27.57000 434.847
27.58000 439.487
27.59000 437.307
27.60000 433.562
27.61000 430.639
27.62000 433.206
27.63000 436.788
27.64000 440.127
27.65000 442.429
27.66000 444.614
27.67000 446.252
27.68000 440.514
27.69000 435.688
27.70000 433.006
27.71000 434.377
27.72000 435.843
27.73000 435.721
27.74000 433.620
27.75000 431.517
27.76000 430.528
27.77000 430.423
27.78000 430.442
27.79000 435.552
27.80000 443.328
27.81000 450.376
27.82000 445.557
27.83000 436.570
27.84000 428.348
27.85000 429.469
27.86000 432.400
27.87000 434.319
27.88000 430.837
27.89000 426.557
27.90000 424.151
27.91000 428.270
27.92000 432.948
27.93000 436.260
27.94000 429.053
27.95000 423.249
27.96000 423.259
27.97000 432.314
27.98000 441.474
27.99000 445.893
28.00000 445.549
28.01000 445.207
28.02000 441.819
28.03000 436.539
28.04000 431.393
28.05000 429.601
28.06000 429.260
28.07000 429.018
28.08000 429.935
28.09000 431.188
28.10000 432.304
28.11000 437.055
28.12000 441.779
28.13000 444.692
28.14000 439.758
28.15000 433.915
28.16000 429.491
28.17000 429.141
28.18000 429.044
28.19000 428.980
28.20000 429.396
28.21000 429.713
28.22000 429.928
28.23000 430.016
28.24000 430.106
28.25000 431.500
28.26000 433.948
28.27000 436.361
28.28000 435.736
28.29000 433.558
28.30000 431.313
28.31000 427.956
28.32000 424.200
28.33000 421.025
28.34000 423.053
28.35000 426.317
28.36000 429.133
28.37000 434.788
28.38000 439.950
28.39000 443.026
28.40000 438.695
28.41000 433.711
28.42000 430.368
28.43000 430.918
28.44000 431.635
28.45000 432.077
28.46000 427.863
28.47000 424.797
28.48000 424.130
28.49000 425.927
28.50000 427.668
28.51000 423.840
28.52000 416.332
28.53000 409.020
28.54000 412.490
28.55000 420.330
28.56000 427.509
28.57000 426.634
28.58000 423.381
28.59000 420.591
28.60000 421.044
28.61000 422.122
28.62000 423.019
28.63000 418.574
28.64000 414.370
28.65000 410.066
28.66000 405.466
28.67000 400.847
28.68000 398.198
28.69000 399.417
28.70000 400.738
28.71000 401.485
28.72000 415.284
28.73000 424.896
28.74000 424.412
28.75000 415.584
28.76000 406.910
28.77000 405.351
28.78000 407.661
28.79000 409.877
28.80000 410.225
28.81000 409.914
28.82000 410.380
28.83000 417.983
28.84000 427.315
28.85000 434.172
28.86000 427.230
28.87000 418.155
28.88000 410.914
28.89000 416.364
28.90000 421.691
28.91000 425.143
28.92000 424.062
28.93000 422.779
28.94000 421.564
28.95000 420.458
28.96000 419.353
28.97000 418.788
28.98000 422.294
28.99000 424.626
29.00000 424.283
29.01000 422.138
29.02000 420.139
29.03000 422.138
29.04000 425.931
29.05000 429.506
29.06000 425.178
29.07000 419.041
29.08000 413.512
29.09000 412.338
29.10000 412.022
29.11000 412.023
29.12000 413.452
29.13000 415.054
29.14000 416.273
29.15000 424.215
29.16000 430.814
29.17000 431.111
29.18000 418.808
29.19000 406.154
29.20000 402.770
29.21000 411.658
29.22000 420.596
29.23000 419.421
29.24000 409.738
29.25000 400.228
29.26000 399.248
29.27000 402.992
29.28000 406.587
29.29000 407.469
29.30000 407.343
29.31000 407.227
29.32000 404.868
29.33000 402.260
29.34000 400.179
29.35000 401.100
29.36000 402.496
29.37000 404.914
29.38000 411.102
29.39000 417.641
29.40000 422.352
29.41000 419.968
29.42000 417.890
29.43000 416.455
29.44000 416.078
29.45000 415.717
29.46000 413.668
29.47000 409.808
29.48000 405.967
29.49000 405.122
29.50000 406.322
29.51000 407.369
29.52000 404.042
29.53000 398.715
29.54000 393.978
29.55000 396.865
29.56000 402.090
29.57000 406.782
29.58000 404.707
29.59000 401.702
29.60000 398.235
29.61000 392.637
29.62000 386.774
29.63000 384.279
29.64000 392.014
29.65000 400.453
29.66000 406.167
29.67000 418.027
29.68000 427.000
29.69000 429.924
29.70000 424.678
29.71000 419.387
29.72000 413.516
29.73000 407.145
29.74000 400.852
29.75000 405.024
29.76000 414.853
29.77000 424.236
29.78000 425.256
29.79000 423.111
29.80000 420.451
29.81000 412.792
29.82000 403.875
29.83000 396.107
29.84000 396.168
29.85000 397.303
29.86000 400.703
29.87000 412.625
29.88000 425.365
29.89000 433.063
29.90000 428.112
29.91000 422.553
29.92000 419.047
29.93000 416.698
29.94000 415.011
29.95000 416.001
29.96000 419.925
29.97000 423.805
29.98000 421.616
29.99000 415.175
30.00000 408.878
30.01000 404.090
30.02000 400.175
30.03000 397.172
30.04000 406.337
30.05000 419.304
30.06000 429.843
30.07000 422.156
30.08000 410.729
30.09000 401.115
30.10000 411.364
30.11000 422.026
30.12000 428.841
30.13000 423.752
30.14000 417.818
30.15000 414.869
30.16000 418.115
30.17000 421.552
30.18000 423.548
30.19000 422.429
30.20000 421.630
30.21000 420.874
30.22000 420.155
30.23000 419.439
30.24000 418.842
30.25000 418.313
30.26000 417.803
30.27000 417.815
30.28000 418.016
30.29000 418.106
30.30000 417.093
30.31000 415.796
30.32000 414.779
30.33000 415.423
30.34000 416.341
30.35000 417.083
30.36000 411.465
30.37000 406.387
30.38000 402.740
30.39000 402.749
30.40000 402.941
30.41000 403.996
30.42000 406.530
30.43000 409.089
30.44000 410.440
30.45000 408.457
30.46000 407.120
30.47000 407.533
30.48000 409.198
30.49000 411.147
30.50000 421.973
30.51000 437.016
30.52000 451.272
30.53000 442.711
30.54000 428.131
30.55000 415.550
30.56000 418.335
30.57000 424.341
30.58000 429.998
30.59000 433.982
30.60000 437.748
30.61000 440.655
30.62000 438.734
30.63000 436.930
30.64000 435.300
30.65000 434.037
30.66000 432.786
30.67000 433.466
30.68000 436.861
30.69000 440.273
30.70000 444.467
30.71000 449.359
30.72000 454.144
30.73000 452.598
30.74000 447.339
30.75000 442.289
30.76000 441.450
30.77000 442.265
30.78000 443.022
30.79000 446.459
30.80000 450.189
30.81000 452.709
30.82000 447.868
30.83000 441.783
30.84000 438.086
30.85000 443.727
30.86000 450.311
30.87000 455.136
30.88000 467.118
30.89000 476.657
30.90000 481.629
30.91000 478.629
30.92000 475.483
30.93000 477.042
30.94000 483.975
30.95000 490.891
30.96000 495.654
30.97000 498.822
30.98000 502.082
30.99000 508.387
31.00000 516.167
31.01000 523.855
31.02000 530.251
31.03000 536.226
31.04000 541.636
31.05000 560.752
31.06000 580.173
31.07000 599.353
31.08000 617.346
31.09000 635.181
31.10000 651.896
31.11000 665.010
31.12000 677.853
31.13000 686.717
31.14000 736.103
31.15000 774.245
31.16000 800.642
31.17000 810.201
31.18000 819.635
31.19000 840.781
31.20000 872.677
31.21000 904.264
31.22000 941.129
31.23000 980.318
31.24000 1018.869
31.25000 1044.010
31.26000 1063.785
31.27000 1085.366
31.28000 1125.931
31.29000 1171.567
31.30000 1211.699
31.31000 1237.371
31.32000 1257.312
31.33000 1277.122
31.34000 1296.410
31.35000 1315.644
31.36000 1336.581
31.37000 1362.042
31.38000 1387.745
31.39000 1404.314
31.40000 1399.664
31.41000 1395.966
31.42000 1384.738
31.43000 1364.726
31.44000 1344.689
31.45000 1322.267
31.46000 1298.071
31.47000 1274.335
31.48000 1252.291
31.49000 1231.853
31.50000 1210.342
31.51000 1173.112
31.52000 1130.683
31.53000 1089.256
31.54000 1055.920
31.55000 1024.350
31.56000 997.504
31.57000 963.086
31.58000 933.307
31.59000 901.345
31.60000 862.225
31.61000 822.548
31.62000 783.276
31.63000 744.894
31.64000 706.544
31.65000 683.690
31.66000 667.345
31.67000 655.799
31.68000 639.480
31.69000 618.685
31.70000 597.942
31.71000 580.769
31.72000 565.771
31.73000 551.245
31.74000 544.970
31.75000 542.215
31.76000 539.189
31.77000 533.217
31.78000 526.444
31.79000 518.079
31.80000 499.591
31.81000 479.318
31.82000 462.729
31.83000 460.350
31.84000 459.642
31.85000 459.601
31.86000 461.361
31.87000 463.221
31.88000 463.311
31.89000 460.191
31.90000 457.004
31.91000 455.270
31.92000 452.539
31.93000 450.645
31.94000 444.724
31.95000 435.745
31.96000 426.986
31.97000 426.236
31.98000 429.510
31.99000 432.630
32.00000 435.199
32.01000 437.407
32.02000 438.471
32.03000 430.073
32.04000 419.567
32.05000 410.601
32.06000 409.487
32.07000 409.476
32.08000 409.467
32.09000 424.192
32.10000 436.899
32.11000 444.237
32.12000 439.567
32.13000 434.451
32.14000 429.559
32.15000 425.003
32.16000 420.451
32.17000 418.441
32.18000 418.866
32.19000 419.270
32.20000 418.102
32.21000 415.957
32.22000 413.558
32.23000 405.373
32.24000 394.784
32.25000 384.892
32.26000 389.659
32.27000 397.676
32.28000 404.884
32.29000 406.832
32.30000 407.832
32.31000 408.528
32.32000 407.965
32.33000 407.264
32.34000 406.742
32.35000 404.210
32.36000 402.149
32.37000 400.203
32.38000 398.469
32.39000 396.739
32.40000 395.776
32.41000 395.744
32.42000 395.714
32.43000 397.018
32.44000 399.340
32.45000 401.598
32.46000 401.386
32.47000 399.909
32.48000 398.216
32.49000 393.163
32.50000 386.955
32.51000 381.291
32.52000 378.224
32.53000 376.026
32.54000 374.727
32.55000 378.111
32.56000 382.169
32.57000 386.637
32.58000 392.504
32.59000 398.486
32.60000 402.691
32.61000 395.708
32.62000 390.089
32.63000 384.252
32.64000 378.086
32.65000 371.916
32.66000 370.995
32.67000 375.211
32.68000 379.396
32.69000 381.605
32.70000 382.546
32.71000 383.168
32.72000 376.207
32.73000 366.036
32.74000 357.722
32.75000 370.640
32.76000 389.568
32.77000 406.363
32.78000 399.735
32.79000 390.254
32.80000 383.600
32.81000 388.909
32.82000 395.561
32.83000 403.321
32.84000 414.192
32.85000 425.249
32.86000 432.528
32.87000 443.485
32.88000 451.620
32.89000 457.347
32.90000 460.088
32.91000 462.813
32.92000 463.514
32.93000 462.615
32.94000 461.730
32.95000 457.670
32.96000 452.134
32.97000 446.858
32.98000 445.780
32.99000 446.172
33.00000 446.275
33.01000 443.881
33.02000 440.908
33.03000 438.353
33.04000 431.458
33.05000 425.086
33.06000 417.770
33.07000 407.178
33.08000 396.308
33.09000 388.758
33.10000 388.915
33.11000 389.385
33.12000 389.672
33.13000 377.149
33.14000 368.089
33.15000 362.446
33.16000 360.222
33.17000 358.047
33.18000 360.190
33.19000 365.123
33.20000 369.921
33.21000 367.317
33.22000 361.805
33.23000 356.223
33.24000 349.831
33.25000 343.204
33.26000 337.857
33.27000 341.222
33.28000 346.226
33.29000 350.370
33.30000 343.065
33.31000 335.947
33.32000 331.541
33.33000 334.892
33.34000 338.722
33.35000 341.743
33.36000 343.209
33.37000 344.636
33.38000 345.435
33.39000 332.301
33.40000 323.186
33.41000 320.247
33.42000 322.291
33.43000 324.461
33.44000 332.011
33.45000 342.420
33.46000 352.391
33.47000 352.535
33.48000 349.402
33.49000 346.293
33.50000 343.401
33.51000 340.561
33.52000 339.006
33.53000 344.434
33.54000 350.913
33.55000 356.055
33.56000 354.108
33.57000 352.042
33.58000 352.095
33.59000 357.163
33.60000 362.443
33.61000 361.615
33.62000 351.135
33.63000 340.535
33.64000 335.175
33.65000 331.773
33.66000 329.559
33.67000 333.306
33.68000 340.979
33.69000 348.451
33.70000 350.728
33.71000 350.724
33.72000 350.720
33.73000 352.757
33.74000 355.166
33.75000 355.884
33.76000 344.830
33.77000 331.516
33.78000 321.612
33.79000 326.733
33.80000 333.627
33.81000 338.841
33.82000 341.753
33.83000 343.921
33.84000 344.152
33.85000 340.598
33.86000 336.944
33.87000 335.030
33.88000 335.365
33.89000 335.709
33.90000 337.593
33.91000 340.735
33.92000 343.906
33.93000 348.415
33.94000 353.648
33.95000 358.002
33.96000 347.108
33.97000 330.675
33.98000 315.571
33.99000 323.086
34.00000 334.668
34.01000 343.556
34.02000 337.474
34.03000 329.089
34.04000 324.145
34.05000 331.609
34.06000 340.191
34.07000 346.333
34.08000 342.302
34.09000 338.882
34.10000 337.113
34.11000 338.002
34.12000 338.928
34.13000 342.477
34.14000 348.767
34.15000 355.022
34.16000 354.568
34.17000 349.675
34.18000 345.082
34.19000 348.588
34.20000 355.719
34.21000 362.143
34.22000 359.751
34.23000 354.717
34.24000 350.212
34.25000 355.702
34.26000 362.203
34.27000 366.463
34.28000 360.652
34.29000 353.621
34.30000 347.752
34.31000 345.330
34.32000 343.137
34.33000 341.664
34.34000 334.017
34.35000 328.210
34.36000 329.525
34.37000 340.233
34.38000 350.968
34.39000 353.350
34.40000 348.710
34.41000 344.131
34.42000 344.455
34.43000 347.403
34.44000 350.168
34.45000 349.623
34.46000 347.853
34.47000 345.709
34.48000 340.050
34.49000 333.525
34.50000 327.862
34.51000 333.683
34.52000 340.183
34.53000 345.379
34.54000 345.788
34.55000 345.753
34.56000 347.350
34.57000 352.956
34.58000 358.745
34.59000 362.363
34.60000 351.576
34.61000 343.642
34.62000 338.648
34.63000 336.793
34.64000 334.937
34.65000 332.888
34.66000 330.706
34.67000 328.576
34.68000 328.702
34.69000 329.807
34.70000 330.654
34.71000 328.178
34.72000 324.686
34.73000 321.562
34.74000 321.122
34.75000 321.218
34.76000 321.300
34.77000 315.829
34.78000 310.708
34.79000 307.781
34.80000 311.497
34.81000 315.666
34.82000 320.163
34.83000 325.321
34.84000 330.500
34.85000 333.477
34.86000 330.850
34.87000 328.991
34.88000 326.586
34.89000 323.713
34.90000 320.857
34.91000 318.888
34.92000 317.416
34.93000 316.000
34.94000 319.618
34.95000 324.794
34.96000 329.066
34.97000 324.617
34.98000 317.979
34.99000 312.870
35.00000 316.622
35.01000 321.801
35.02000 325.965
35.03000 317.355
35.04000 309.386
35.05000 306.549
35.06000 316.548
35.07000 327.160
35.08000 331.139
35.09000 324.014
35.10000 316.714
35.11000 312.905
35.12000 316.138
35.13000 318.308
35.14000 318.120
35.15000 316.287
35.16000 314.534
35.17000 315.170
35.18000 316.917
35.19000 318.568
35.20000 316.086
35.21000 312.623
35.22000 309.929
35.23000 312.981
35.24000 317.208
35.25000 320.690
35.26000 320.684
35.27000 320.235
35.28000 319.890
35.29000 320.948
35.30000 321.863
35.31000 321.563
35.32000 318.753
35.33000 315.866
35.34000 315.566
35.35000 318.818
35.36000 322.089
35.37000 322.435
35.38000 320.222
35.39000 318.017
35.40000 316.291
35.41000 314.839
35.42000 313.390
35.43000 311.995
35.44000 310.621
35.45000 309.349
35.46000 313.018
35.47000 317.454
35.48000 321.097
35.49000 320.050
35.50000 318.230
35.51000 317.507
35.52000 320.973
35.53000 324.850
35.54000 327.671
35.55000 331.367
35.56000 334.245
35.57000 333.845
35.58000 327.850
35.59000 321.760
35.60000 315.315
35.61000 308.472
35.62000 301.656
35.63000 303.369
35.64000 311.082
35.65000 318.666
35.66000 322.282
35.67000 324.020
35.68000 325.470
35.69000 322.989
35.70000 319.260
35.71000 315.894
35.72000 317.722
35.73000 320.280
35.74000 321.343
35.75000 315.269
35.76000 308.265
35.77000 301.833
35.78000 297.199
35.79000 292.695
35.80000 289.611
35.81000 297.589
35.82000 303.830
35.83000 307.016
35.84000 305.924
35.85000 304.805
35.86000 305.569
35.87000 308.019
35.88000 310.442
35.89000 310.548
35.90000 309.326
35.91000 308.003
35.92000 304.642
35.93000 300.483
35.94000 296.448
35.95000 293.673
35.96000 291.227
35.97000 289.084
35.98000 298.995
35.99000 309.238
36.00000 317.512
36.01000 318.114
36.02000 317.943
36.03000 317.080
36.04000 314.423
36.05000 311.672
36.06000 309.915
36.07000 310.942
36.08000 311.726
36.09000 308.430
36.10000 300.492
36.11000 292.613
36.12000 295.113
36.13000 305.152
36.14000 314.987
36.15000 317.273
36.16000 315.970
36.17000 314.933
36.18000 317.643
36.19000 321.566
36.20000 324.834
36.21000 322.977
36.22000 320.028
36.23000 317.531
36.24000 311.408
36.25000 305.876
36.26000 301.190
36.27000 299.213
36.28000 297.440
36.29000 297.160
36.30000 300.085
36.31000 303.118
36.32000 304.907
36.33000 305.170
36.34000 305.346
36.35000 303.828
36.36000 300.761
36.37000 297.766
36.38000 299.296
36.39000 303.523
36.40000 307.609
36.41000 304.690
36.42000 299.299
36.43000 294.766
36.44000 299.200
36.45000 306.021
36.46000 311.447
36.47000 308.236
36.48000 303.540
36.49000 299.716
36.50000 298.011
36.51000 296.797
36.52000 296.432
36.53000 298.312
36.54000 300.313
36.55000 300.283
36.56000 296.656
36.57000 292.959
36.58000 290.971
36.59000 292.532
36.60000 293.603
36.61000 294.887
36.62000 296.330
36.63000 297.768
36.64000 299.015
36.65000 300.167
36.66000 301.264
36.67000 299.545
36.68000 297.098
36.69000 294.875
36.70000 294.450
36.71000 294.416
36.72000 293.913
36.73000 291.079
36.74000 287.927
36.75000 285.473
36.76000 292.354
36.77000 298.409
36.78000 302.518
36.79000 302.367
36.80000 302.066
36.81000 301.663
36.82000 301.110
36.83000 300.556
36.84000 301.077
36.85000 302.601
36.86000 304.132
36.87000 306.158
36.88000 308.485
36.89000 310.742
36.90000 311.480
36.91000 311.599
36.92000 311.711
36.93000 313.154
36.94000 314.787
36.95000 316.025
36.96000 314.766
36.97000 313.068
36.98000 311.130
36.99000 308.222
37.00000 305.212
37.01000 302.985
37.02000 301.554
37.03000 300.479
37.04000 302.594
37.05000 310.474
37.06000 318.472
37.07000 321.046
37.08000 317.187
37.09000 313.326
37.10000 307.425
37.11000 300.032
37.12000 292.865
37.13000 293.814
37.14000 298.826
37.15000 303.893
37.16000 309.782
37.17000 315.946
37.18000 321.553
37.19000 316.168
37.20000 309.248
37.21000 302.947
37.22000 299.798
37.23000 297.090
37.24000 295.192
37.25000 295.992
37.26000 297.008
37.27000 297.717
37.28000 294.744
37.29000 292.396
37.30000 293.474
37.31000 299.639
37.32000 305.851
37.33000 307.145
37.34000 303.748
37.35000 300.379
37.36000 299.887
37.37000 301.151
37.38000 302.409
37.39000 303.511
37.40000 304.549
37.41000 305.359
37.42000 303.646
37.43000 301.236
37.44000 299.105
37.45000 300.260
37.46000 301.768
37.47000 303.159
37.48000 304.066
37.49000 304.920
37.50000 305.263
37.51000 304.205
37.52000 303.066
37.53000 302.322
37.54000 300.568
37.55000 299.263
37.56000 295.923
37.57000 290.116
37.58000 284.330
37.59000 285.193
37.60000 291.184
37.61000 297.073
37.62000 302.194
37.63000 306.765
37.64000 310.549
37.65000 302.107
37.66000 289.482
37.67000 278.204
37.68000 278.286
37.69000 280.941
37.70000 283.213
37.71000 292.791
37.72000 301.752
37.73000 307.849
37.74000 304.231
37.75000 299.815
37.76000 296.391
37.77000 295.220
37.78000 294.136
37.79000 293.480
37.80000 295.050
37.81000 296.186
37.82000 295.948
37.83000 294.372
37.84000 292.844
37.85000 295.159
37.86000 299.899
37.87000 304.501
37.88000 302.337
37.89000 297.575
37.90000 293.025
37.91000 290.897
37.92000 289.451
37.93000 288.198
37.94000 288.223
37.95000 288.484
37.96000 288.698
37.97000 297.059
37.98000 304.688
37.99000 310.042
38.00000 309.033
38.01000 307.645
38.02000 304.975
38.03000 299.900
38.04000 294.770
38.05000 291.930
38.06000 290.666
38.07000 289.796
38.08000 288.679
38.09000 287.366
38.10000 286.152
38.11000 288.884
38.12000 293.668
38.13000 298.240
38.14000 301.596
38.15000 304.325
38.16000 307.087
38.17000 310.142
38.18000 313.266
38.19000 315.557
38.20000 313.437
38.21000 310.670
38.22000 308.486
38.23000 308.557
38.24000 308.766
38.25000 310.403
38.26000 315.342
38.27000 320.414
38.28000 323.783
38.29000 324.523
38.30000 325.234
38.31000 330.506
38.32000 340.321
38.33000 350.038
38.34000 351.247
38.35000 346.982
38.36000 343.198
38.37000 351.200
38.38000 364.266
38.39000 376.518
38.40000 385.171
38.41000 392.109
38.42000 399.765
38.43000 412.287
38.44000 425.721
38.45000 441.772
38.46000 469.084
38.47000 497.685
38.48000 519.182
38.49000 551.919
38.50000 578.057
38.51000 601.566
38.52000 620.050
38.53000 638.412
38.54000 668.737
38.55000 714.155
38.56000 759.550
38.57000 801.551
38.58000 840.662
38.59000 880.082
38.60000 932.658
38.61000 992.204
38.62000 1050.501
38.63000 1088.030
38.64000 1118.182
38.65000 1145.814
38.66000 1181.581
38.67000 1215.139
38.68000 1248.065
38.69000 1277.566
38.70000 1306.554
38.71000 1331.000
38.72000 1339.442
38.73000 1346.489
38.74000 1351.496
38.75000 1330.319
38.76000 1313.361
38.77000 1301.578
38.78000 1297.941
38.79000 1294.404
38.80000 1274.948
38.81000 1239.277
38.82000 1203.834
38.83000 1168.421
38.84000 1133.541
38.85000 1098.556
38.86000 1060.880
38.87000 1022.027
38.88000 982.077
38.89000 928.936
38.90000 871.929
38.91000 821.078
38.92000 777.138
38.93000 740.056
38.94000 700.788
38.95000 651.928
38.96000 601.941
38.97000 558.399
38.98000 533.574
38.99000 509.940
39.00000 494.188
39.01000 481.961
39.02000 472.977
39.03000 451.725
39.04000 414.677
39.05000 377.621
39.06000 362.830
39.07000 366.298
39.08000 369.717
39.09000 364.081
39.10000 353.860
39.11000 343.774
39.12000 336.007
39.13000 329.081
39.14000 322.010
39.15000 313.628
39.16000 304.931
39.17000 297.412
39.18000 296.177
39.19000 295.945
39.20000 295.525
39.21000 294.423
39.22000 293.260
39.23000 292.760
39.24000 293.850
39.25000 295.010
39.26000 295.728
39.27000 291.508
39.28000 288.427
39.29000 288.974
39.30000 293.299
39.31000 297.543
39.32000 293.436
39.33000 283.743
39.34000 274.295
39.35000 273.671
39.36000 276.832
39.37000 280.001
39.38000 283.277
39.39000 286.585
39.40000 289.358
39.41000 288.341
39.42000 286.582
39.43000 285.116
39.44000 289.939
39.45000 294.566
39.46000 297.698
39.47000 296.408
39.48000 294.827
39.49000 293.555
39.50000 292.896
39.51000 292.253
39.52000 291.888
39.53000 297.325
39.54000 301.119
39.55000 298.691
39.56000 291.054
39.57000 283.495
39.58000 279.740
39.59000 278.076
39.60000 276.477
39.61000 272.460
39.62000 267.866
39.63000 264.090
39.64000 267.964
39.65000 273.712
39.66000 278.295
39.67000 276.292
39.68000 273.257
39.69000 270.829
39.70000 264.113
39.71000 258.364
39.72000 256.301
39.73000 263.255
39.74000 270.620
39.75000 274.119
39.76000 271.293
39.77000 268.375
39.78000 266.872
39.79000 263.210
39.80000 260.742
39.81000 258.118
39.82000 255.387
39.83000 252.849
39.84000 255.702
39.85000 261.003
39.86000 266.005
39.87000 268.881
39.88000 270.925
39.89000 272.112
39.90000 267.081
39.91000 260.809
39.92000 256.644
39.93000 262.106
39.94000 268.756
39.95000 273.831
39.96000 271.969
39.97000 270.130
39.98000 269.438
39.99000 271.067
40.00000 272.762
40.01000 272.320
40.02000 269.013
40.03000 265.694
40.04000 263.389
40.05000 261.954
40.06000 260.524
40.07000 259.346
40.08000 258.309
40.09000 257.357
40.10000 257.979
40.11000 259.192
40.12000 260.312
40.13000 261.921
40.14000 263.473
40.15000 264.917
40.16000 265.740
40.17000 266.462
40.18000 265.055
40.19000 255.691
40.20000 245.573
40.21000 238.258
40.22000 248.699
40.23000 257.355
40.24000 262.155
40.25000 260.522
40.26000 258.789
40.27000 257.872
40.28000 257.841
40.29000 257.810
40.30000 256.780
40.31000 255.072
40.32000 253.568
40.33000 258.002
40.34000 265.185
40.35000 271.535
40.36000 266.922
40.37000 258.907
40.38000 251.698
40.39000 253.460
40.40000 256.605
40.41000 258.944
40.42000 257.527
40.43000 255.634
40.44000 254.022
40.45000 253.272
40.46000 252.583
40.47000 252.114
40.48000 266.126
40.49000 276.914
40.50000 277.453
40.51000 263.978
40.52000 250.428
40.53000 243.310
40.54000 241.805
40.55000 240.318
40.56000 240.817
40.57000 242.412
40.58000 243.955
40.59000 244.505
40.60000 244.674
40.61000 245.209
40.62000 249.352
40.63000 254.415
40.64000 258.835
40.65000 258.598
40.66000 257.742
40.67000 256.518
40.68000 253.889
40.69000 251.124
40.70000 249.700
40.71000 251.682
40.72000 253.832
40.73000 255.194
40.74000 258.616
40.75000 261.123
40.76000 262.001
40.77000 261.071
40.78000 260.140
40.79000 259.217
40.80000 258.301
40.81000 257.405
40.82000 256.375
40.83000 255.327
40.84000 254.411
40.85000 255.278
40.86000 256.708
40.87000 257.919
40.88000 257.448
40.89000 256.629
40.90000 255.937
40.91000 252.608
40.92000 249.541
40.93000 247.831
40.94000 250.368
40.95000 253.212
40.96000 253.321
40.97000 247.690
40.98000 241.877
40.99000 238.481
41.00000 240.493
41.01000 241.934
41.02000 242.577
41.03000 242.509
41.04000 242.435
41.05000 241.981
41.06000 241.304
41.07000 240.652
41.08000 241.544
41.09000 242.953
41.10000 244.482
41.11000 247.239
41.12000 250.315
41.13000 253.162
41.14000 254.625
41.15000 255.857
41.16000 256.855
41.17000 259.285
41.18000 261.382
41.19000 260.567
41.20000 252.221
41.21000 243.491
41.22000 237.672
41.23000 236.898
41.24000 236.213
41.25000 235.850
41.26000 239.126
41.27000 241.369
41.28000 245.435
41.29000 250.819
41.30000 255.926
41.31000 252.069
41.32000 243.905
41.33000 236.159
41.34000 237.101
41.35000 240.552
41.36000 243.727
41.37000 244.745
41.38000 245.306
41.39000 244.926
41.40000 239.971
41.41000 234.410
41.42000 230.104
41.43000 235.018
41.44000 239.466
41.45000 244.296
41.46000 249.942
41.47000 255.616
41.48000 258.154
41.49000 256.232
41.50000 254.278
41.51000 251.193
41.52000 247.082
41.53000 242.973
41.54000 238.996
41.55000 235.098
41.56000 231.577
41.57000 235.872
41.58000 243.272
41.59000 250.149
41.60000 244.782
41.61000 237.007
41.62000 230.696
41.63000 233.404
41.64000 237.657
41.65000 241.809
41.66000 245.564
41.67000 249.279
41.68000 252.009
41.69000 253.396
41.70000 254.414
41.71000 253.529
41.72000 249.285
41.73000 244.977
41.74000 242.505
41.75000 242.156
41.76000 241.811
41.77000 241.885
41.78000 242.264
41.79000 242.667
41.80000 243.884
41.81000 245.499
41.82000 246.919
41.83000 245.513
41.84000 243.179
41.85000 241.063
41.86000 254.031
41.87000 268.354
41.88000 278.146
41.89000 265.475
41.90000 249.749
41.91000 237.725
41.92000 237.740
41.93000 238.684
41.94000 239.337
41.95000 237.895
41.96000 236.754
41.97000 238.600
41.98000 244.779
41.99000 250.993
42.00000 252.692
42.01000 250.194
42.02000 247.719
42.03000 243.092
42.04000 237.281
42.05000 231.864
42.06000 234.899
42.07000 241.356
42.08000 247.269
42.09000 247.366
42.10000 245.890
42.11000 244.590
42.12000 244.933
42.13000 245.478
42.14000 247.099
42.15000 253.069
42.16000 259.497
42.17000 261.561
42.18000 251.903
42.19000 241.601
42.20000 234.930
42.21000 238.529
42.22000 241.315
42.23000 241.551
42.24000 238.774
42.25000 236.016
42.26000 238.316
42.27000 244.425
42.28000 250.422
42.29000 250.877
42.30000 248.650
42.31000 246.241
42.32000 241.114
42.33000 235.078
42.34000 229.919
42.35000 231.954
42.36000 235.579
42.37000 238.668
42.38000 237.309
42.39000 235.645
42.40000 235.020
42.41000 237.836
42.42000 240.926
42.43000 242.060
42.44000 238.852
42.45000 235.484
42.46000 233.468
42.47000 242.087
42.48000 248.275
42.49000 250.283
42.50000 248.319
42.51000 246.381
42.52000 246.330
42.53000 247.443
42.54000 248.522
42.55000 246.203
42.56000 242.679
42.57000 238.985
42.58000 233.411
42.59000 227.320
42.60000 222.514
42.61000 225.994
42.62000 230.957
42.63000 235.027
42.64000 238.488
42.65000 241.274
42.66000 243.531
42.67000 244.342
42.68000 245.070
42.69000 243.965
42.70000 239.497
42.71000 234.957
42.72000 232.472
42.73000 238.148
42.74000 242.056
42.75000 244.541
42.76000 245.932
42.77000 247.107
42.78000 240.180
42.79000 229.135
42.80000 218.598
42.81000 221.437
42.82000 228.305
42.83000 234.503
42.84000 235.066
42.85000 234.360
42.86000 233.691
42.87000 233.218
42.88000 232.773
42.89000 232.424
42.90000 233.009
42.91000 233.538
42.92000 233.528
42.93000 232.299
42.94000 231.024
42.95000 231.427
42.96000 234.362
42.97000 237.323
42.98000 238.007
42.99000 236.481
43.00000 234.932
43.01000 231.558
43.02000 227.036
43.03000 222.673
43.04000 222.004
43.05000 222.888
43.06000 223.715
43.07000 230.184
43.08000 237.501
43.09000 244.005
43.10000 245.147
43.11000 245.310
43.12000 243.745
43.13000 234.921
43.14000 225.291
43.15000 218.097
43.16000 221.044
43.17000 223.809
43.18000 223.282
43.19000 216.604
43.20000 209.785
43.21000 210.306
43.22000 219.866
43.23000 229.430
43.24000 233.509
43.25000 233.287
43.26000 232.967
43.27000 228.740
43.28000 222.490
43.29000 216.727
43.30000 218.757
43.31000 223.496
43.32000 227.825
43.33000 228.552
43.34000 228.462
43.35000 228.045
43.36000 225.901
43.37000 223.505
43.38000 222.102
43.39000 224.115
43.40000 226.416
43.41000 228.040
43.42000 235.249
43.43000 240.887
43.44000 241.469
43.45000 234.270
43.46000 226.984
43.47000 222.662
43.48000 221.281
43.49000 219.910
43.50000 223.124
43.51000 229.178
43.52000 234.913
43.53000 232.875
43.54000 227.510
43.55000 222.477
43.56000 221.317
43.57000 221.265
43.58000 221.219
43.59000 220.543
43.60000 219.854
43.61000 219.928
43.62000 223.268
43.63000 226.982
43.64000 227.984
43.65000 221.284
43.66000 214.114
43.67000 209.373
43.68000 212.881
43.69000 215.616
43.70000 218.440
43.71000 221.375
43.72000 224.297
43.73000 222.816
43.74000 217.811
43.75000 212.882
43.76000 216.752
43.77000 225.006
43.78000 232.515
43.79000 227.731
43.80000 218.596
43.81000 210.690
43.82000 213.649
43.83000 219.157
43.84000 223.900
43.85000 226.179
43.86000 227.797
43.87000 228.784
43.88000 227.550
43.89000 226.125
43.90000 223.713
43.91000 218.985
43.92000 214.161
43.93000 211.201
43.94000 224.208
43.95000 233.665
43.96000 235.663
43.97000 230.094
43.98000 224.572
43.99000 223.274
44.00000 224.737
44.01000 226.161
44.02000 221.869
44.03000 215.408
44.04000 209.708
44.05000 213.135
44.06000 219.226
44.07000 224.538
44.08000 224.471
44.09000 223.378
44.10000 222.471
44.11000 225.660
44.12000 228.692
44.13000 230.365
44.14000 228.109
44.15000 225.605
44.16000 223.956
44.17000 223.968
44.18000 224.022
44.19000 224.052
44.20000 221.197
44.21000 219.206
44.22000 216.627
44.23000 213.570
44.24000 210.591
44.25000 211.116
44.26000 213.527
44.27000 215.839
44.28000 220.917
44.29000 226.590
44.30000 231.409
44.31000 228.484
44.32000 223.706
44.33000 220.232
44.34000 223.946
44.35000 228.756
44.36000 232.585
44.37000 231.038
44.38000 229.404
44.39000 228.406
44.40000 228.928
44.41000 229.516
44.42000 228.933
44.43000 226.475
44.44000 223.994
44.45000 222.730
44.46000 219.749
44.47000 217.765
44.48000 217.410
44.49000 218.140
44.50000 218.984
44.51000 222.864
44.52000 228.094
44.53000 233.016
44.54000 233.086
44.55000 231.829
44.56000 230.752
44.57000 230.941
44.58000 231.377
44.59000 231.163
44.60000 228.045
44.61000 224.580
44.62000 221.952
44.63000 221.620
44.64000 221.477
44.65000 223.119
44.66000 228.294
44.67000 233.564
44.68000 236.258
44.69000 235.581
44.70000 234.891
44.71000 234.622
44.72000 234.704
44.73000 234.706
44.74000 230.926
44.75000 225.073
44.76000 219.945
44.77000 227.675
44.78000 240.130
44.79000 251.595
44.80000 249.371
44.81000 244.394
44.82000 241.020
44.83000 246.672
44.84000 253.733
44.85000 258.545
44.86000 255.148
44.87000 250.998
44.88000 248.018
44.89000 254.752
44.90000 260.239
44.91000 262.774
44.92000 260.500
44.93000 258.157
44.94000 257.510
44.95000 258.661
44.96000 259.805
44.97000 258.433
44.98000 255.388
44.99000 252.712
45.00000 260.271
45.01000 272.463
45.02000 283.959
45.03000 286.610
45.04000 286.578
45.05000 286.549
45.06000 274.116
45.07000 261.099
45.08000 251.738
45.09000 259.013
45.10000 268.334
45.11000 276.123
45.12000 279.310
45.13000 282.185
45.14000 284.125
45.15000 277.946
45.16000 273.176
45.17000 272.735
45.18000 278.077
45.19000 283.433
45.20000 280.137
45.21000 269.474
45.22000 258.946
45.23000 257.341
45.24000 260.633
45.25000 263.585
45.26000 260.283
45.27000 254.639
45.28000 249.426
45.29000 248.324
45.30000 248.246
45.31000 248.178
45.32000 248.371
45.33000 248.571
45.34000 249.056
45.35000 250.601
45.36000 252.246
45.37000 253.895
45.38000 255.553
45.39000 257.211
45.40000 258.252
45.41000 254.386
45.42000 251.538
45.43000 248.226
45.44000 244.414
45.45000 240.651
45.46000 243.139
45.47000 249.959
45.48000 256.621
45.49000 252.995
45.50000 244.978
45.51000 237.109
45.52000 231.169
45.53000 225.826
45.54000 221.578
45.55000 225.442
45.56000 230.951
45.57000 235.577
45.58000 233.598
45.59000 231.258
45.60000 229.124
45.61000 227.621
45.62000 226.163
45.63000 223.976
45.64000 220.295
45.65000 216.568
45.66000 214.414
45.67000 216.970
45.68000 218.782
45.69000 222.562
45.70000 228.051
45.71000 233.428
45.72000 232.735
45.73000 228.587
45.74000 224.590
45.75000 219.879
45.76000 215.196
45.77000 210.894
45.78000 210.314
45.79000 210.680
45.80000 211.169
45.81000 212.377
45.82000 213.702
45.83000 214.770
45.84000 205.008
45.85000 196.227
45.86000 192.436
45.87000 201.267
45.88000 210.715
45.89000 216.416
45.90000 215.769
45.91000 215.018
45.92000 214.624
45.93000 218.601
45.94000 221.259
45.95000 218.600
45.96000 212.182
45.97000 206.071
45.98000 209.266
45.99000 216.835
46.00000 224.000
46.01000 220.853
46.02000 214.968
46.03000 209.487
46.04000 207.065
46.05000 205.276
46.06000 204.295
46.07000 207.140
46.08000 210.480
46.09000 213.051
46.10000 218.490
46.11000 222.959
46.12000 223.539
46.13000 215.980
46.14000 208.164
46.15000 205.368
46.16000 209.547
46.17000 213.769
46.18000 215.170
46.19000 214.067
46.20000 212.949
46.21000 210.991
46.22000 208.546
46.23000 206.264
46.24000 207.199
46.25000 209.383
46.26000 211.409
46.27000 210.950
46.28000 209.958
46.29000 209.005
46.30000 208.290
46.31000 207.615
46.32000 207.109
46.33000 207.258
46.34000 207.472
46.35000 207.628
46.36000 206.094
46.37000 204.845
46.38000 204.837
46.39000 206.973
46.40000 209.147
46.41000 209.504
46.42000 207.811
46.43000 206.122
46.44000 205.190
46.45000 204.806
46.46000 204.402
46.47000 203.362
46.48000 202.017
46.49000 200.526
46.50000 196.989
46.51000 192.796
46.52000 189.006
46.53000 195.132
46.54000 202.367
46.55000 208.270
46.56000 207.733
46.57000 206.344
46.58000 205.253
46.59000 205.111
46.60000 205.039
46.61000 204.989
46.62000 198.392
46.63000 193.281
46.64000 193.131
46.65000 200.012
46.66000 206.942
46.67000 207.662
46.68000 202.753
46.69000 197.893
46.70000 196.882
46.71000 198.119
46.72000 199.281
46.73000 198.898
46.74000 197.903
46.75000 197.175
46.76000 199.206
46.77000 201.966
46.78000 204.389
46.79000 203.206
46.80000 201.661
46.81000 200.912
46.82000 203.301
46.83000 206.011
46.84000 206.520
46.85000 201.250
46.86000 195.676
46.87000 192.098
46.88000 196.926
46.89000 200.562
46.90000 201.999
46.91000 200.899
46.92000 199.794
46.93000 198.242
46.94000 196.362
46.95000 194.519
46.96000 197.719
46.97000 203.167
46.98000 208.255
46.99000 208.142
47.00000 206.329
47.01000 204.711
47.02000 204.653
47.03000 204.931
47.04000 205.166
47.05000 202.142
47.06000 199.236
47.07000 196.572
47.08000 194.696
47.09000 192.881
47.10000 190.813
47.11000 188.197
47.12000 185.562
47.13000 184.000
47.14000 187.550
47.15000 190.091
47.16000 192.911
47.17000 195.989
47.18000 199.019
47.19000 198.849
47.20000 196.750
47.21000 194.719
47.22000 195.421
47.23000 197.127
47.24000 198.914
47.25000 201.560
47.26000 204.437
47.27000 207.256
47.28000 209.710
47.29000 212.100
47.30000 214.051
47.31000 199.913
47.32000 186.962
47.33000 177.219
47.34000 176.056
47.35000 175.362
47.36000 174.864
47.37000 174.720
47.38000 174.582
47.39000 174.508
47.40000 180.857
47.41000 185.220
47.42000 191.200
47.43000 198.394
47.44000 205.284
47.45000 201.427
47.46000 192.227
47.47000 183.470
47.48000 182.432
47.49000 183.852
47.50000 185.367
47.51000 187.644
47.52000 190.089
47.53000 192.026
47.54000 191.403
47.55000 190.425
47.56000 189.661
47.57000 188.099
47.58000 186.802
47.59000 186.621
47.60000 188.906
47.61000 191.281
47.62000 191.917
47.63000 189.987
47.64000 188.034
47.65000 187.511
47.66000 188.340
47.67000 189.132
47.68000 187.226
47.69000 183.663
47.70000 180.265
47.71000 180.533
47.72000 182.307
47.73000 183.962
47.74000 185.043
47.75000 185.879
47.76000 186.724
47.77000 187.624
47.78000 188.534
47.79000 189.119
47.80000 188.366
47.81000 187.468
47.82000 186.802
47.83000 185.484
47.84000 184.431
47.85000 184.756
47.86000 187.598
47.87000 190.495
47.88000 191.431
47.89000 190.013
47.90000 188.594
47.91000 191.582
47.92000 197.907
47.93000 204.125
47.94000 206.359
47.95000 206.576
47.96000 206.702
47.97000 205.435
47.98000 203.694
47.99000 202.108
48.00000 199.003
48.01000 195.951
48.02000 192.573
48.03000 187.520
48.04000 182.228
48.05000 179.143
48.06000 183.485
48.07000 188.431
48.08000 191.896
48.09000 186.045
48.10000 181.352
48.11000 179.349
48.12000 181.391
48.13000 183.473
48.14000 184.452
48.15000 184.365
48.16000 184.280
48.17000 186.197
48.18000 189.314
48.19000 192.352
48.20000 193.586
48.21000 194.064
48.22000 194.099
48.23000 189.146
48.24000 182.796
48.25000 177.172
48.26000 182.738
48.27000 189.316
48.28000 195.146
48.29000 197.847
48.30000 200.203
48.31000 199.816
48.32000 191.815
48.33000 183.367
48.34000 177.827
48.35000 177.591
48.36000 177.505
48.37000 178.266
48.38000 180.065
48.39000 181.875
48.40000 185.810
48.41000 191.405
48.42000 196.909
48.43000 193.408
48.44000 185.524
48.45000 178.038
48.46000 176.859
48.47000 177.863
48.48000 179.115
48.49000 182.491
48.50000 186.354
48.51000 189.667
48.52000 187.118
48.53000 184.247
48.54000 182.305
48.55000 183.554
48.56000 185.070
48.57000 185.863
48.58000 184.995
48.59000 184.062
48.60000 183.494
48.61000 183.861
48.62000 184.130
48.63000 183.789
48.64000 182.845
48.65000 181.904
48.66000 181.194
48.67000 180.632
48.68000 180.085
48.69000 178.206
48.70000 175.881
48.71000 173.935
48.72000 176.389
48.73000 180.099
48.74000 183.435
48.75000 184.252
48.76000 184.601
48.77000 184.890
48.78000 184.961
48.79000 185.000
48.80000 184.175
48.81000 180.909
48.82000 177.495
48.83000 176.025
48.84000 178.244
48.85000 180.552
48.86000 181.837
48.87000 176.245
48.88000 172.379
48.89000 173.516
48.90000 178.642
48.91000 183.668
48.92000 184.528
48.93000 183.197
48.94000 181.923
48.95000 187.628
48.96000 195.237
48.97000 201.550
48.98000 196.481
48.99000 188.749
49.00000 182.870
49.01000 186.938
49.02000 192.484
49.03000 196.875
49.04000 192.870
49.05000 189.071
49.06000 186.093
49.07000 185.038
49.08000 184.064
49.09000 185.970
49.10000 192.381
49.11000 198.846
49.12000 202.094
49.13000 184.318
49.14000 172.540
49.15000 169.159
49.16000 171.245
49.17000 173.377
49.18000 176.666
49.19000 180.457
49.20000 184.017
49.21000 182.315
49.22000 179.368
49.23000 177.242
49.24000 180.766
49.25000 185.362
49.26000 188.266
49.27000 183.798
49.28000 178.473
49.29000 174.458
49.30000 177.384
49.31000 180.016
49.32000 181.087
49.33000 179.136
49.34000 177.109
49.35000 176.664
49.36000 178.242
49.37000 179.824
49.38000 181.327
49.39000 182.759
49.40000 184.217
49.41000 186.813
49.42000 190.018
49.43000 192.795
49.44000 188.300
49.45000 181.192
49.46000 174.668
49.47000 177.447
49.48000 181.905
49.49000 185.138
49.50000 181.654
49.51000 177.148
49.52000 173.988
49.53000 175.622
49.54000 177.682
49.55000 179.151
49.56000 178.327
49.57000 177.623
49.58000 175.119
49.59000 169.746
49.60000 164.335
49.61000 168.514
49.62000 182.589
49.63000 196.582
49.64000 196.613
49.65000 187.501
49.66000 178.600
49.67000 175.215
49.68000 174.274
49.69000 173.831
49.70000 179.501
49.71000 186.985
49.72000 193.672
49.73000 185.481
49.74000 175.831
49.75000 168.194
49.76000 169.507
49.77000 171.887
49.78000 173.798
49.79000 174.329
49.80000 174.771
49.81000 175.066
49.82000 172.041
49.83000 169.731
49.84000 169.507
49.85000 172.004
49.86000 174.512
49.87000 177.218
49.88000 180.088
49.89000 182.919
49.90000 188.552
49.91000 195.516
49.92000 201.882
49.93000 197.737
49.94000 189.742
49.95000 182.463
49.96000 181.808
49.97000 182.764
49.98000 183.592
49.99000 180.305
50.00000 176.963
50.01000 174.450
50.02000 174.947
50.03000 175.719
50.04000 176.323
50.05000 176.520
50.06000 176.698
50.07000 176.809
50.08000 177.422
50.09000 177.868
50.10000 178.234
50.11000 178.515
50.12000 178.766
50.13000 175.608
50.14000 170.144
50.15000 164.812
50.16000 167.389
50.17000 173.259
50.18000 178.891
50.19000 181.525
50.20000 183.252
50.21000 184.252
50.22000 180.014
50.23000 174.741
50.24000 170.333
50.25000 178.159
50.26000 185.898
50.27000 190.689
50.28000 186.652
50.29000 182.022
50.30000 179.163
50.31000 179.861
50.32000 180.660
50.33000 181.116
50.34000 176.516
50.35000 173.289
50.36000 171.440
50.37000 170.760
50.38000 170.135
50.39000 172.192
50.40000 175.742
50.41000 179.156
50.42000 179.056
50.43000 177.734
50.44000 176.863
50.45000 180.289
50.46000 184.781
50.47000 188.842
50.48000 190.435
50.49000 191.635
50.50000 192.598
50.51000 188.085
50.52000 184.014
50.53000 182.650
50.54000 187.983
50.55000 193.628
50.56000 195.848
50.57000 192.397
50.58000 188.861
50.59000 187.027
50.60000 193.593
50.61000 197.981
50.62000 196.735
50.63000 191.600
50.64000 186.620
50.65000 186.129
50.66000 187.700
50.67000 189.185
50.68000 190.601
50.69000 191.883
50.70000 192.883
50.71000 191.810
50.72000 190.319
50.73000 189.588
50.74000 192.374
50.75000 195.600
50.76000 198.069
50.77000 191.642
50.78000 186.083
50.79000 185.390
50.80000 194.652
50.81000 204.210
50.82000 205.550
50.83000 195.737
50.84000 185.868
50.85000 184.132
50.86000 189.427
50.87000 194.582
50.88000 192.336
50.89000 185.891
50.90000 179.612
50.91000 176.489
50.92000 174.566
50.93000 172.788
50.94000 177.482
50.95000 183.166
50.96000 187.671
50.97000 185.272
50.98000 181.750
50.99000 178.245
51.00000 174.804
51.01000 171.369
51.02000 168.877
51.03000 166.751
51.04000 165.130
51.05000 166.631
51.06000 173.402
51.07000 180.257
51.08000 181.882
51.09000 177.747
51.10000 173.626
51.11000 172.033
51.12000 172.218
51.13000 172.448
51.14000 174.046
51.15000 176.283
51.16000 178.389
51.17000 178.726
51.18000 178.508
51.19000 178.312
51.20000 178.933
51.21000 179.626
51.22000 180.616
51.23000 183.006
51.24000 185.576
51.25000 186.358
51.26000 181.581
51.27000 176.407
51.28000 172.875
51.29000 172.830
51.30000 172.878
51.31000 174.778
51.32000 179.243
51.33000 183.719
51.34000 183.244
51.35000 178.393
51.36000 173.595
51.37000 169.273
51.38000 165.320
51.39000 161.563
51.40000 161.640
51.41000 163.201
51.42000 164.482
51.43000 162.945
51.44000 160.682
51.45000 158.703
51.46000 158.568
51.47000 158.714
51.48000 158.052
51.49000 154.271
51.50000 150.181
51.51000 147.471
51.52000 148.306
51.53000 149.319
51.54000 149.964
51.55000 161.987
51.56000 170.867
51.57000 175.254
51.58000 174.589
51.59000 173.898
51.60000 170.056
51.61000 163.951
51.62000 157.973
51.63000 156.399
51.64000 156.907
51.65000 157.499
51.66000 159.264
51.67000 161.403
51.68000 163.392
51.69000 164.213
51.70000 164.788
51.71000 165.275
51.72000 166.717
51.73000 168.028
51.74000 168.859
51.75000 168.164
51.76000 167.357
51.77000 166.540
51.78000 165.699
51.79000 164.857
51.80000 164.363
51.81000 162.320
51.82000 160.873
51.83000 161.461
51.84000 163.886
51.85000 166.308
51.86000 168.525
51.87000 170.621
51.88000 172.646
51.89000 169.593
51.90000 164.826
51.91000 160.620
51.92000 162.193
51.93000 165.287
51.94000 167.279
51.95000 162.537
51.96000 156.652
51.97000 151.871
51.98000 156.317
51.99000 160.710
52.00000 165.264
52.01000 170.239
52.02000 175.237
52.03000 175.187
52.04000 166.287
52.05000 157.222
52.06000 152.374
52.07000 164.451
52.08000 172.649
52.09000 172.073
52.10000 165.068
52.11000 158.288
52.12000 159.016
52.13000 163.393
52.14000 167.550
52.15000 164.947
52.16000 160.506
52.17000 156.688
52.18000 157.799
52.19000 159.970
52.20000 161.668
52.21000 161.042
52.22000 160.102
52.23000 159.373
52.24000 160.993
52.25000 162.425
52.26000 164.503
52.27000 167.982
52.28000 171.510
52.29000 172.538
52.30000 169.968
52.31000 167.369
52.32000 164.110
52.33000 160.242
52.34000 156.452
52.35000 157.641
52.36000 161.821
52.37000 165.839
52.38000 166.433
52.39000 165.651
52.40000 164.923
52.41000 162.700
52.42000 160.329
52.43000 158.057
52.44000 156.412
52.45000 154.874
52.46000 154.093
52.47000 156.342
52.48000 158.907
52.49000 160.799
52.50000 158.072
52.51000 155.764
52.52000 154.282
52.53000 154.275
52.54000 154.297
52.55000 154.595
52.56000 155.214
52.57000 155.833
52.58000 155.043
52.59000 153.215
52.60000 151.418
52.61000 150.720
52.62000 150.568
52.63000 150.446
52.64000 150.788
52.65000 151.283
52.66000 151.733
52.67000 155.532
52.68000 159.537
52.69000 162.827
52.70000 162.527
52.71000 161.731
52.72000 161.243
52.73000 161.768
52.74000 162.373
52.75000 162.794
52.76000 157.412
52.77000 153.197
52.78000 151.220
52.79000 152.530
52.80000 153.869
52.81000 155.638
52.82000 157.811
52.83000 159.965
52.84000 157.634
52.85000 152.654
52.86000 148.058
52.87000 151.937
52.88000 159.287
52.89000 165.931
52.90000 164.898
52.91000 161.765
52.92000 158.998
52.93000 159.553
52.94000 160.540
52.95000 161.605
52.96000 162.991
52.97000 164.410
52.98000 164.374
52.99000 160.384
53.00000 156.172
53.01000 153.432
53.02000 158.018
53.03000 161.492
53.04000 161.114
53.05000 156.124
53.06000 151.143
53.07000 150.396
53.08000 152.878
53.09000 155.317
53.10000 158.839
53.11000 162.768
53.12000 166.186
53.13000 161.800
53.14000 154.773
53.15000 148.911
53.16000 152.744
53.17000 158.747
53.18000 163.874
53.19000 161.728
53.20000 159.055
53.21000 157.216
53.22000 158.177
53.23000 159.363
53.24000 161.748
53.25000 166.822
53.26000 171.998
53.27000 175.114
53.28000 168.453
53.29000 163.647
53.30000 163.875
53.31000 168.949
53.32000 173.968
53.33000 174.872
53.34000 173.206
53.35000 171.590
53.36000 169.147
53.37000 166.505
53.38000 163.936
53.39000 162.200
53.40000 160.695
53.41000 159.620
53.42000 161.352
53.43000 163.593
53.44000 165.436
53.45000 166.260
53.46000 166.844
53.47000 167.916
53.48000 170.334
53.49000 172.831
53.50000 173.531
53.51000 170.897
53.52000 168.188
53.53000 166.697
53.54000 167.822
53.55000 168.597
53.56000 168.157
53.57000 166.771
53.58000 165.343
53.59000 162.302
53.60000 158.431
53.61000 154.734
53.62000 157.246
53.63000 161.571
53.64000 165.386
53.65000 164.841
53.66000 163.301
53.67000 162.414
53.68000 164.948
53.69000 167.977
53.70000 170.362
53.71000 168.087
53.72000 165.953
53.73000 163.442
53.74000 160.068
53.75000 156.660
53.76000 156.033
53.77000 159.656
53.78000 163.325
53.79000 162.362
53.80000 156.842
53.81000 151.415
53.82000 153.648
53.83000 160.756
53.84000 167.568
53.85000 167.321
53.86000 164.072
53.87000 161.028
53.88000 163.421
53.89000 167.004
53.90000 169.706
53.91000 166.521
53.92000 162.247
53.93000 158.926
53.94000 159.663
53.95000 160.858
53.96000 161.753
53.97000 161.600
53.98000 161.432
53.99000 159.938
54.00000 155.938
54.01000 151.879
54.02000 151.512
54.03000 155.751
54.04000 159.995
54.05000 159.489
54.06000 155.231
54.07000 151.072
54.08000 150.986
54.09000 153.034
54.10000 154.922
54.11000 154.219
54.12000 152.604
54.13000 151.126
54.14000 153.662
54.15000 156.750
54.16000 159.510
54.17000 160.526
54.18000 161.283
54.19000 160.783
54.20000 155.904
54.21000 150.649
54.22000 146.927
54.23000 152.574
54.24000 157.157
54.25000 159.587
54.26000 158.664
54.27000 157.702
54.28000 155.299
54.29000 151.448
54.30000 147.622
54.31000 149.538
54.32000 155.092
54.33000 160.468
54.34000 161.388
54.35000 160.378
54.36000 159.311
54.37000 157.562
54.38000 155.616
54.39000 153.883
54.40000 154.287
54.41000 154.989
54.42000 155.944
54.43000 158.002
54.44000 160.188
54.45000 160.770
54.46000 156.743
54.47000 152.429
54.48000 149.564
54.49000 158.347
54.50000 165.056
54.51000 167.564
54.52000 164.728
54.53000 161.877
54.54000 160.760
54.55000 161.047
54.56000 161.330
54.57000 164.629
54.58000 169.391
54.59000 173.873
54.60000 173.617
54.61000 171.664
54.62000 169.458
54.63000 164.978
54.64000 159.959
54.65000 155.628
54.66000 157.339
54.67000 159.566
54.68000 160.909
54.69000 159.109
54.70000 157.032
54.71000 157.077
54.72000 162.164
54.73000 167.467
54.74000 170.736
54.75000 170.329
54.76000 170.003
54.77000 169.207
54.78000 167.926
54.79000 166.663
54.80000 167.075
54.81000 168.596
54.82000 170.078
54.83000 171.092
54.84000 171.863
54.85000 172.221
54.86000 167.553
54.87000 161.400
54.88000 156.584
54.89000 161.134
54.90000 167.493
54.91000 172.783
54.92000 166.638
54.93000 160.427
54.94000 156.589
54.95000 159.697
54.96000 163.254
54.97000 164.948
54.98000 162.986
54.99000 160.927
55.00000 159.762
55.01000 161.757
55.02000 163.158
55.03000 166.515
55.04000 171.488
55.05000 176.311
55.06000 174.175
55.07000 168.252
55.08000 162.567
55.09000 161.301
55.10000 161.626
55.11000 162.595
55.12000 169.494
55.13000 177.829
55.14000 183.628
55.15000 175.266
55.16000 164.713
55.17000 156.292
55.18000 163.592
55.19000 170.637
55.20000 175.339
55.21000 174.371
55.22000 173.151
55.23000 173.932
55.24000 177.952
55.25000 182.016
55.26000 184.099
55.27000 183.531
55.28000 183.187
55.29000 186.859
55.30000 193.240
55.31000 199.194
55.32000 193.531
55.33000 182.645
55.34000 172.387
55.35000 174.319
55.36000 179.449
55.37000 183.677
55.38000 181.441
55.39000 177.931
55.40000 176.076
55.41000 181.695
55.42000 188.223
55.43000 193.191
55.44000 204.084
55.45000 212.965
55.46000 219.052
55.47000 219.547
55.48000 219.886
55.49000 220.284
55.50000 220.760
55.51000 221.236
55.52000 223.004
55.53000 225.855
55.54000 228.826
55.55000 237.658
55.56000 249.741
55.57000 261.538
55.58000 268.147
55.59000 272.826
55.60000 277.140
55.61000 279.939
55.62000 282.110
55.63000 285.454
55.64000 295.484
55.65000 306.573
55.66000 318.372
55.67000 332.799
55.68000 347.470
55.69000 358.043
55.70000 367.338
55.71000 374.415
55.72000 381.539
55.73000 388.743
55.74000 395.947
55.75000 409.167
55.76000 428.844
55.77000 448.425
55.78000 467.888
55.79000 487.043
55.80000 506.288
55.81000 528.061
55.82000 550.992
55.83000 572.855
55.84000 580.877
55.85000 584.651
55.86000 588.040
55.87000 597.889
55.88000 607.644
55.89000 618.383
55.90000 633.652
55.91000 649.486
55.92000 663.650
55.93000 672.736
55.94000 681.471
55.95000 687.388
55.96000 688.208
55.97000 688.707
55.98000 685.774
55.99000 678.200
56.00000 670.601
56.01000 663.316
56.02000 656.302
56.03000 649.372
56.04000 645.184
56.05000 642.612
56.06000 639.482
56.07000 625.882
56.08000 608.316
56.09000 591.381
56.10000 580.561
56.11000 571.283
56.12000 563.199
56.13000 547.596
56.14000 533.224
56.15000 517.761
56.16000 498.195
56.17000 478.234
56.18000 458.734
56.19000 440.390
56.20000 422.102
56.21000 410.565
56.22000 408.012
56.23000 406.266
56.24000 394.785
56.25000 372.630
56.26000 350.538
56.27000 337.679
56.28000 331.297
56.29000 325.057
56.30000 312.957
56.31000 298.738
56.32000 284.773
56.33000 274.210
56.34000 264.711
56.35000 255.808
56.36000 251.380
56.37000 247.870
56.38000 244.918
56.39000 234.903
56.40000 225.798
56.41000 217.364
56.42000 211.007
56.43000 204.797
56.44000 200.676
56.45000 200.896
56.46000 201.250
56.47000 201.455
56.48000 196.677
56.49000 193.304
56.50000 193.807
56.51000 197.724
56.52000 201.564
56.53000 201.097
56.54000 198.151
56.55000 195.309
56.56000 191.005
56.57000 186.426
56.58000 182.253
56.59000 182.121
56.60000 183.028
56.61000 183.723
56.62000 183.155
56.63000 182.379
56.64000 181.751
56.65000 180.698
56.66000 179.807
56.67000 177.562
56.68000 171.851
56.69000 165.967
56.70000 162.677
56.71000 163.835
56.72000 165.070
56.73000 165.722
56.74000 166.770
56.75000 167.478
56.76000 167.497
56.77000 167.023
56.78000 166.503
56.79000 164.517
56.80000 161.835
56.81000 159.294
56.82000 160.714
56.83000 163.185
56.84000 164.956
56.85000 161.329
56.86000 156.571
56.87000 152.857
56.88000 154.158
56.89000 156.116
56.90000 157.628
56.91000 158.600
56.92000 159.340
56.93000 158.192
56.94000 153.050
56.95000 147.779
56.96000 146.376
56.97000 150.416
56.98000 154.493
56.99000 154.645
57.00000 151.271
57.01000 147.936
57.02000 146.900
57.03000 147.213
57.04000 147.581
57.05000 149.059
57.06000 150.972
57.07000 152.748
57.08000 154.949
57.09000 157.033
57.10000 158.761
57.11000 158.317
57.12000 157.506
57.13000 156.647
57.14000 155.603
57.15000 154.541
57.16000 153.762
57.17000 146.819
57.18000 141.211
57.19000 139.110
57.20000 143.138
57.21000 147.278
57.22000 150.631
57.23000 153.085
57.24000 155.529
57.25000 156.828
57.26000 157.288
57.27000 157.606
57.28000 153.250
57.29000 146.629
57.30000 140.321
57.31000 138.452
57.32000 138.025
57.33000 137.638
57.34000 138.411
57.35000 139.311
57.36000 140.187
57.37000 140.949
57.38000 141.696
57.39000 142.372
57.40000 142.825
57.41000 143.260
57.42000 143.560
57.43000 147.785
57.44000 151.060
57.45000 152.838
57.46000 152.470
57.47000 152.085
57.48000 152.004
57.49000 152.201
57.50000 152.396
57.51000 150.889
57.52000 148.417
57.53000 146.101
57.54000 147.081
57.55000 149.379
57.56000 151.378
57.57000 150.213
57.58000 148.202
57.59000 146.433
57.60000 147.278
57.61000 148.394
57.62000 149.542
57.63000 150.816
57.64000 152.103
57.65000 152.485
57.66000 150.460
57.67000 148.305
57.68000 146.915
57.69000 145.572
57.70000 144.592
57.71000 145.464
57.72000 148.499
57.73000 151.520
57.74000 151.126
57.75000 148.190
57.76000 145.309
57.77000 144.224
57.78000 144.034
57.79000 143.854
57.80000 143.833
57.81000 143.864
57.82000 143.741
57.83000 142.371
57.84000 140.729
57.85000 139.332
57.86000 142.033
57.87000 144.774
57.88000 146.234
57.89000 143.493
57.90000 140.425
57.91000 138.393
57.92000 138.641
57.93000 138.970
57.94000 139.166
57.95000 143.910
57.96000 147.299
57.97000 149.579
57.98000 150.817
57.99000 152.023
58.00000 151.056
58.01000 148.762
58.02000 146.540
58.03000 144.975
58.04000 143.748
58.05000 142.743
58.06000 144.140
58.07000 146.192
58.08000 147.914
58.09000 147.537
58.10000 146.789
58.11000 146.178
58.12000 148.556
58.13000 150.766
58.14000 151.464
58.15000 148.066
58.16000 144.440
58.17000 142.804
58.18000 144.781
58.19000 146.833
58.20000 147.950
58.21000 145.358
58.22000 143.573
58.23000 141.420
58.24000 138.986
58.25000 136.615
58.26000 136.489
58.27000 137.492
58.28000 138.448
58.29000 141.207
58.30000 144.329
58.31000 147.042
58.32000 146.377
58.33000 144.958
58.34000 143.529
58.35000 142.051
58.36000 140.565
58.37000 139.402
58.38000 143.673
58.39000 147.434
58.40000 148.692
58.41000 144.350
58.42000 139.799
58.43000 137.849
58.44000 139.781
58.45000 141.749
58.46000 143.455
58.47000 144.908
58.48000 146.338
58.49000 146.072
58.50000 144.751
58.51000 143.475
58.52000 143.231
58.53000 143.416
58.54000 143.589
58.55000 137.567
58.56000 130.542
58.57000 124.866
58.58000 127.977
58.59000 132.673
58.60000 136.345
58.61000 135.764
58.62000 134.718
58.63000 133.939
58.64000 132.689
58.65000 131.694
58.66000 130.742
58.67000 129.869
58.68000 128.997
58.69000 131.897
58.70000 139.386
58.71000 146.870
58.72000 146.815
58.73000 140.947
58.74000 135.159
58.75000 132.418
58.76000 131.239
58.77000 130.304
58.78000 133.207
58.79000 137.428
58.80000 141.280
58.81000 138.564
58.82000 134.828
58.83000 132.086
58.84000 134.525
58.85000 137.710
58.86000 140.695
58.87000 143.001
58.88000 145.250
58.89000 146.831
58.90000 140.132
58.91000 134.813
58.92000 133.923
58.93000 139.777
58.94000 145.701
58.95000 143.629
58.96000 133.722
58.97000 123.888
58.98000 121.702
58.99000 124.318
59.00000 126.885
59.01000 128.289
59.02000 129.200
59.03000 130.332
59.04000 133.997
59.05000 138.379
59.06000 142.268
59.07000 143.080
59.08000 143.292
59.09000 143.726
59.10000 145.100
59.11000 146.580
59.12000 146.635
59.13000 142.688
59.14000 138.502
59.15000 135.745
59.16000 139.635
59.17000 142.617
59.18000 141.232
59.19000 134.424
59.20000 127.616
59.21000 125.405
59.22000 126.830
59.23000 128.232
59.24000 127.404
59.25000 125.474
59.26000 123.725
59.27000 124.911
59.28000 127.125
59.29000 129.361
59.30000 131.793
59.31000 134.269
59.32000 136.397
59.33000 138.222
59.34000 139.728
59.35000 140.658
59.36000 139.587
59.37000 138.345
59.38000 136.671
59.39000 133.994
59.40000 131.276
59.41000 129.615
59.42000 132.799
59.43000 135.116
59.44000 134.825
59.45000 131.923
59.46000 129.058
59.47000 129.406
59.48000 131.830
59.49000 134.188
59.50000 136.859
59.51000 139.528
59.52000 142.001
59.53000 142.161
59.54000 141.652
59.55000 141.070
59.56000 139.989
59.57000 138.813
59.58000 137.840
59.59000 133.747
59.60000 130.072
59.61000 127.218
59.62000 126.714
59.63000 126.356
59.64000 129.803
59.65000 140.557
59.66000 151.493
59.67000 157.616
59.68000 146.455
59.69000 138.693
59.70000 135.916
59.71000 137.161
59.72000 138.359
59.73000 137.499
59.74000 135.543
59.75000 133.669
59.76000 133.291
59.77000 133.435
59.78000 133.564
59.79000 133.558
59.80000 133.520
59.81000 133.163
59.82000 131.073
59.83000 128.722
59.84000 126.856
59.85000 129.439
59.86000 131.832
59.87000 134.238
59.88000 136.674
59.89000 139.111
59.90000 139.661
59.91000 137.225
59.92000 134.752
59.93000 133.500
59.94000 133.239
59.95000 133.069
59.96000 133.482
59.97000 134.278
59.98000 135.005
59.99000 133.927
60.00000 132.056
60.01000 130.297
60.02000 133.236
60.03000 137.183
60.04000 140.328
60.05000 137.889
60.06000 134.377
60.07000 131.315
60.08000 130.242
60.09000 129.404
60.10000 128.770
60.11000 132.584
60.12000 135.799
60.13000 136.616
60.14000 132.741
60.15000 128.742
60.16000 128.281
60.17000 132.396
60.18000 136.524
60.19000 136.830
60.20000 133.995
60.21000 131.189
60.22000 129.658
60.23000 128.818
60.24000 128.098
60.25000 129.453
60.26000 131.561
60.27000 133.500
60.28000 134.953
60.29000 136.145
60.30000 137.003
60.31000 136.001
60.32000 134.712
60.33000 134.172
60.34000 136.333
60.35000 138.739
60.36000 140.461
60.37000 139.426
60.38000 138.544
60.39000 137.899
60.40000 137.639
60.41000 137.384
60.42000 136.775
60.43000 135.796
60.44000 134.822
60.45000 135.386
60.46000 136.962
60.47000 138.375
60.48000 135.358
60.49000 130.357
60.50000 126.030
60.51000 130.123
60.52000 136.743
60.53000 142.669
60.54000 140.276
60.55000 136.762
60.56000 134.056
60.57000 134.984
60.58000 136.353
60.59000 136.987
60.60000 135.437
60.61000 133.742
60.62000 132.603
60.63000 136.619
60.64000 139.709
60.65000 140.342
60.66000 137.732
60.67000 135.111
60.68000 134.593
60.69000 135.845
60.70000 137.080
60.71000 134.073
60.72000 128.866
60.73000 124.057
60.74000 126.420
60.75000 131.440
60.76000 136.092
60.77000 137.287
60.78000 137.630
60.79000 137.928
60.80000 138.183
60.81000 138.394
60.82000 138.388
60.83000 137.582
60.84000 136.702
60.85000 136.051
60.86000 135.964
60.87000 135.904
60.88000 135.866
60.89000 135.212
60.90000 134.733
60.91000 135.110
60.92000 136.400
60.93000 137.682
60.94000 138.039
60.95000 137.760
60.96000 137.489
60.97000 137.535
60.98000 137.718
60.99000 137.996
61.00000 139.494
61.01000 141.365
61.02000 142.946
61.03000 142.408
61.04000 141.446
61.05000 140.640
61.06000 143.670
61.07000 146.585
61.08000 147.388
61.09000 141.790
61.10000 135.755
61.11000 133.311
61.12000 138.164
61.13000 143.230
61.14000 146.145
61.15000 140.060
61.16000 135.774
61.17000 135.398
61.18000 138.380
61.19000 141.349
61.20000 143.670
61.21000 145.625
61.22000 147.508
61.23000 144.528
61.24000 140.009
61.25000 135.827
61.26000 134.894
61.27000 134.778
61.28000 134.657
61.29000 134.506
61.30000 134.351
61.31000 134.226
61.32000 139.571
61.33000 144.330
61.34000 147.298
61.35000 145.785
61.36000 144.057
61.37000 141.956
61.38000 139.232
61.39000 136.497
61.40000 135.070
61.41000 136.790
61.42000 137.945
61.43000 137.787
61.44000 136.712
61.45000 135.757
61.46000 138.362
61.47000 142.623
61.48000 146.652
61.49000 145.934
61.50000 143.915
61.51000 143.165
61.52000 151.913
61.53000 162.605
61.54000 173.722
61.55000 186.827
61.56000 200.184
61.57000 210.439
61.58000 215.519
61.59000 219.244
61.60000 224.719
61.61000 233.813
61.62000 243.019
61.63000 250.593
61.64000 255.928
61.65000 261.246
61.66000 265.671
61.67000 269.308
61.68000 272.874
61.69000 272.496
61.70000 269.855
61.71000 267.306
61.72000 266.550
61.73000 266.482
61.74000 266.419
61.75000 259.578
61.76000 251.868
61.77000 244.054
61.78000 235.626
61.79000 227.097
61.80000 217.655
61.81000 204.719
61.82000 191.440
61.83000 181.773
61.84000 174.698
61.85000 169.350
61.86000 164.831
61.87000 161.727
61.88000 158.646
61.89000 154.596
61.90000 149.464
61.91000 144.351
61.92000 143.647
61.93000 146.062
61.94000 148.444
61.95000 149.795
61.96000 150.657
61.97000 151.289
61.98000 148.758
61.99000 145.222
62.00000 142.030
62.01000 144.329
62.02000 147.357
62.03000 149.776
62.04000 149.284
62.05000 148.414
62.06000 147.861
62.07000 148.311
62.08000 148.833
62.09000 149.191
62.10000 144.612
62.11000 141.063
62.12000 139.173
62.13000 139.607
62.14000 140.056
62.15000 138.509
62.16000 135.173
62.17000 131.873
62.18000 133.612
62.19000 138.192
62.20000 142.471
62.21000 140.680
62.22000 136.510
62.23000 133.009
62.24000 136.317
62.25000 141.405
62.26000 145.863
62.27000 148.105
62.28000 149.709
62.29000 150.686
62.30000 149.221
62.31000 147.510
62.32000 146.328
62.33000 146.520
62.34000 146.783
62.35000 146.951
62.36000 142.393
62.37000 139.013
62.38000 137.301
62.39000 137.491
62.40000 137.693
62.41000 139.649
62.42000 142.881
62.43000 146.048
62.44000 146.107
62.45000 144.722
62.46000 143.208
62.47000 139.873
62.48000 135.950
62.49000 132.911
62.50000 136.815
62.51000 142.199
62.52000 146.760
62.53000 146.816
62.54000 146.360
62.55000 146.107
62.56000 146.507
62.57000 146.956
62.58000 145.453
62.59000 139.758
62.60000 133.921
62.61000 130.476
62.62000 138.178
62.63000 143.675
62.64000 143.235
62.65000 137.362
62.66000 131.573
62.67000 131.015
62.68000 133.578
62.69000 136.056
62.70000 141.213
62.71000 147.090
62.72000 152.178
62.73000 149.017
62.74000 143.659
62.75000 139.168
62.76000 140.057
62.77000 141.873
62.78000 143.352
62.79000 143.500
62.80000 143.508
62.81000 143.228
62.82000 142.185
62.83000 141.100
62.84000 141.544
62.85000 144.700
62.86000 147.908
62.87000 149.634
62.88000 148.812
62.89000 148.237
62.90000 145.617
62.91000 141.482
62.92000 137.456
62.93000 137.184
62.94000 138.759
62.95000 140.256
62.96000 141.469
62.97000 142.505
62.98000 142.951
62.99000 138.659
63.00000 133.335
63.01000 130.168
63.02000 137.749
63.03000 146.799
63.04000 153.848
63.05000 149.874
63.06000 146.029
63.07000 143.704
63.08000 144.709
63.09000 145.832
63.10000 146.567
63.11000 146.734
63.12000 146.898
63.13000 149.432
63.14000 154.181
63.15000 158.825
63.16000 156.355
63.17000 149.561
63.18000 143.044
63.19000 142.517
63.20000 144.427
63.21000 146.207
63.22000 146.524
63.23000 146.450
63.24000 146.304
63.25000 145.699
63.26000 145.014
63.27000 144.679
63.28000 145.763
63.29000 146.998
63.30000 147.912
63.31000 149.171
63.32000 150.163
63.33000 149.504
63.34000 145.861
63.35000 142.157
63.36000 140.085
63.37000 139.953
63.38000 139.825
63.39000 142.481
63.40000 147.213
63.41000 151.802
63.42000 151.218
63.43000 148.042
63.44000 144.887
63.45000 142.043
63.46000 139.303
63.47000 136.810
63.48000 138.504
63.49000 140.825
63.50000 142.668
63.51000 142.074
63.52000 141.139
63.53000 140.757
63.54000 142.220
63.55000 143.830
63.56000 144.954
63.57000 146.167
63.58000 147.086
63.59000 148.434
63.60000 150.419
63.61000 152.410
63.62000 152.486
63.63000 150.735
63.64000 148.998
63.65000 147.541
63.66000 146.281
63.67000 145.063
63.68000 144.809
63.69000 144.953
63.70000 145.531
63.71000 150.896
63.72000 157.588
63.73000 163.506
63.74000 159.384
63.75000 154.262
63.76000 150.109
63.77000 149.965
63.78000 150.257
63.79000 150.747
63.80000 151.782
63.81000 152.849
63.82000 153.545
63.83000 149.964
63.84000 147.265
63.85000 149.069
63.86000 156.331
63.87000 163.576
63.88000 163.837
63.89000 158.705
63.90000 153.660
63.91000 152.260
63.92000 152.705
63.93000 153.122
63.94000 153.112
63.95000 152.954
63.96000 152.626
63.97000 150.851
63.98000 148.749
63.99000 146.949
64.00000 149.616
64.01000 152.405
64.02000 154.418
64.03000 153.792
64.04000 152.949
64.05000 153.572
64.06000 157.525
64.07000 161.607
64.08000 164.077
64.09000 170.568
64.10000 175.223
64.11000 174.723
64.12000 169.192
64.13000 163.679
64.14000 159.669
64.15000 156.610
64.16000 153.639
64.17000 153.676
64.18000 154.917
64.19000 156.004
64.20000 155.330
64.21000 154.159
64.22000 153.569
64.23000 156.823
64.24000 160.784
64.25000 164.049
64.26000 159.247
64.27000 154.552
64.28000 151.204
64.29000 151.627
64.30000 152.274
64.31000 153.039
64.32000 154.024
64.33000 155.013
64.34000 155.561
64.35000 162.437
64.36000 167.180
64.37000 167.733
64.38000 164.982
64.39000 162.305
64.40000 162.545
64.41000 164.305
64.42000 165.986
64.43000 164.123
64.44000 161.238
64.45000 158.472
64.46000 156.734
64.47000 155.234
64.48000 154.553
64.49000 158.218
64.50000 162.521
64.51000 165.918
64.52000 165.677
64.53000 165.236
64.54000 165.154
64.55000 165.901
64.56000 166.683
64.57000 166.874
64.58000 166.152
64.59000 165.421
64.60000 163.024
64.61000 158.968
64.62000 154.987
64.63000 157.610
64.64000 164.486
64.65000 171.112
64.66000 171.594
64.67000 169.434
64.68000 167.409
64.69000 169.667
64.70000 172.846
64.71000 175.642
64.72000 175.838
64.73000 175.546
64.74000 175.114
64.75000 174.080
64.76000 172.976
64.77000 172.147
64.78000 175.178
64.79000 177.735
64.80000 176.371
64.81000 167.503
64.82000 158.452
64.83000 157.929
64.84000 168.178
64.85000 178.446
64.86000 182.121
64.87000 180.500
64.88000 178.893
64.89000 177.926
64.90000 177.299
64.91000 176.696
64.92000 176.510
64.93000 176.471
64.94000 176.436
64.95000 177.275
64.96000 178.206
64.97000 179.700
64.98000 184.241
64.99000 189.238
65.00000 191.714
65.01000 185.296
65.02000 178.101
65.03000 172.987
65.04000 180.485
65.05000 186.598
65.06000 188.724
65.07000 184.566
65.08000 180.331
65.09000 181.290
65.10000 187.543
65.11000 193.757
65.12000 198.153
65.13000 201.310
65.14000 204.288
65.15000 202.671
65.16000 199.042
65.17000 195.957
65.18000 199.439
65.19000 204.848
65.20000 209.673
65.21000 214.827
65.22000 219.366
65.23000 223.079
65.24000 223.166
65.25000 222.826
65.26000 222.534
65.27000 222.382
65.28000 222.238
65.29000 222.142
65.30000 218.813
65.31000 216.285
65.32000 217.119
65.33000 222.285
65.34000 227.463
65.35000 230.438
65.36000 231.604
65.37000 232.753
65.38000 235.575
65.39000 239.194
65.40000 242.665
65.41000 243.601
65.42000 243.618
65.43000 243.886
65.44000 246.447
65.45000 249.560
65.46000 252.252
65.47000 257.905
65.48000 263.095
65.49000 267.526
65.50000 269.230
65.51000 270.690
65.52000 271.325
65.53000 269.975
65.54000 268.539
65.55000 267.649
65.56000 269.768
65.57000 271.320
65.58000 274.143
65.59000 278.291
65.60000 282.449
65.61000 287.671
65.62000 293.604
65.63000 299.388
65.64000 320.519
65.65000 347.228
65.66000 373.148
65.67000 389.263
65.68000 402.448
65.69000 418.875
65.70000 458.350
65.71000 502.332
65.72000 539.011
65.73000 602.861
65.74000 658.518
65.75000 712.782
65.76000 762.920
65.77000 812.787
65.78000 858.470
65.79000 895.844
65.80000 932.989
65.81000 954.132
65.82000 991.584
65.83000 1017.727
65.84000 1037.813
65.85000 1052.821
65.86000 1067.689
65.87000 1075.793
65.88000 1080.174
65.89000 1084.383
65.90000 1070.959
65.91000 1052.300
65.92000 1032.762
65.93000 1005.002
65.94000 975.225
65.95000 941.367
65.96000 884.433
65.97000 823.876
65.98000 775.421
65.99000 703.315
66.00000 643.246
66.01000 585.113
66.02000 531.718
66.03000 478.540
66.04000 433.265
66.05000 400.935
66.06000 368.792
66.07000 352.216
66.08000 343.034
66.09000 336.836
66.10000 329.002
66.11000 320.050
66.12000 311.386
66.13000 310.811
66.14000 313.914
66.15000 316.842
66.16000 307.721
66.17000 295.995
66.18000 285.239
66.19000 281.533
66.20000 279.235
66.21000 278.956
66.22000 287.907
66.23000 297.999
66.24000 305.702
66.25000 320.982
66.26000 333.429
66.27000 344.160
66.28000 351.417
66.29000 358.574
66.30000 367.544
66.31000 378.948
66.32000 390.355
66.33000 398.945
66.34000 405.111
66.35000 411.276
66.36000 417.396
66.37000 423.490
66.38000 429.580
66.39000 435.594
66.40000 441.579
66.41000 447.105
66.42000 440.129
66.43000 431.070
66.44000 423.084
66.45000 421.299
66.46000 420.510
66.47000 420.451
66.48000 423.123
66.49000 426.054
66.50000 428.174
66.51000 407.573
66.52000 390.935
66.53000 377.000
66.54000 367.576
66.55000 358.221
66.56000 351.967
66.57000 349.084
66.58000 346.215
66.59000 339.242
66.60000 329.517
66.61000 319.876
66.62000 312.705
66.63000 306.678
66.64000 301.678
66.65000 310.215
66.66000 322.955
66.67000 334.418
66.68000 328.722
66.69000 320.667
66.70000 314.154
66.71000 314.843
66.72000 316.443
66.73000 317.448
66.74000 316.619
66.75000 315.661
66.76000 315.010
66.77000 316.010
66.78000 316.795
66.79000 319.058
66.80000 323.346
66.81000 327.643
66.82000 328.703
66.83000 326.935
66.84000 325.188
66.85000 322.370
66.86000 319.023
66.87000 315.853
66.88000 316.074
66.89000 317.595
66.90000 319.160
66.91000 321.163
66.92000 323.278
66.93000 325.124
66.94000 322.679
66.95000 319.985
66.96000 319.879
66.97000 329.637
66.98000 340.357
66.99000 346.109
67.00000 339.234
67.01000 331.737
67.02000 326.985
67.03000 340.672
67.04000 350.823
67.05000 355.192
67.06000 353.138
67.07000 351.090
67.08000 350.506
67.09000 350.962
67.10000 351.408
67.11000 355.384
67.12000 360.799
67.13000 365.986
67.14000 368.076
67.15000 369.184
67.16000 369.882
67.17000 367.448
67.18000 364.361
67.19000 361.759
67.20000 366.863
67.21000 371.961
67.22000 375.182
67.23000 372.517
67.24000 369.425
67.25000 367.332
67.26000 367.339
67.27000 367.412
67.28000 367.455
67.29000 369.489
67.30000 370.934
67.31000 377.144
67.32000 387.606
67.33000 397.848
67.34000 395.324
67.35000 385.358
67.36000 375.739
67.37000 382.827
67.38000 395.643
67.39000 406.743
67.40000 400.453
67.41000 389.638
67.42000 381.347
67.43000 388.297
67.44000 397.804
67.45000 405.509
67.46000 402.480
67.47000 399.136
67.48000 398.559
67.49000 405.147
67.50000 412.102
67.51000 413.911
67.52000 406.796
67.53000 399.520
67.54000 395.652
67.55000 416.715
67.56000 431.007
67.57000 435.520
67.58000 432.949
67.59000 430.545
67.60000 433.535
67.61000 439.121
67.62000 444.420
67.63000 445.273
67.64000 444.736
67.65000 444.186
67.66000 443.525
67.67000 442.842
67.68000 441.811
67.69000 439.088
67.70000 436.140
67.71000 433.858
67.72000 446.451
67.73000 457.335
67.74000 463.786
67.75000 460.741
67.76000 457.378
67.77000 457.313
67.78000 461.944
67.79000 466.609
67.80000 472.044
67.81000 478.178
67.82000 484.123
67.83000 478.289
67.84000 465.459
67.85000 453.539
67.86000 460.505
67.87000 474.983
67.88000 488.440
67.89000 491.918
67.90000 492.668
67.91000 494.083
67.92000 499.610
67.93000 505.841
67.94000 511.175
67.95000 512.955
67.96000 514.369
67.97000 515.409
67.98000 510.775
67.99000 506.957
68.00000 507.545
68.01000 515.923
68.02000 524.449
68.03000 529.738
68.04000 531.275
68.05000 532.803
68.06000 539.383
68.07000 549.616
68.08000 559.531
68.09000 558.628
68.10000 552.425
68.11000 547.181
68.12000 555.850
68.13000 569.091
68.14000 581.100
68.15000 572.005
68.16000 559.945
68.17000 551.339
68.18000 559.881
68.19000 570.757
68.20000 581.909
68.21000 593.962
68.22000 606.084
68.23000 614.486
68.24000 608.623
68.25000 603.834
68.26000 602.934
68.27000 607.685
68.28000 612.483
68.29000 615.263
68.30000 616.164
68.31000 617.058
68.32000 620.993
68.33000 626.655
68.34000 632.538
68.35000 643.191
68.36000 655.777
68.37000 667.385
68.38000 668.524
68.39000 666.830
68.40000 665.337
68.41000 682.864
68.42000 700.838
68.43000 715.763
68.44000 718.363
68.45000 719.661
68.46000 720.985
68.47000 722.380
68.48000 723.779
68.49000 724.686
68.50000 733.341
68.51000 739.789
68.52000 750.975
68.53000 767.764
68.54000 784.552
68.55000 798.977
68.56000 811.623
68.57000 824.036
68.58000 856.512
68.59000 897.504
68.60000 937.875
68.61000 968.945
68.62000 996.901
68.63000 1026.266
68.64000 1067.194
68.65000 1110.681
68.66000 1147.748
68.67000 1207.215
68.68000 1259.866
68.69000 1310.481
68.70000 1354.341
68.71000 1397.664
68.72000 1440.949
68.73000 1484.149
68.74000 1527.346
68.75000 1553.230
68.76000 1615.539
68.77000 1660.027
68.78000 1717.082
68.79000 1786.090
68.80000 1854.903
68.81000 1909.614
68.82000 1955.618
68.83000 2000.215
68.84000 2093.240
68.85000 2200.284
68.86000 2312.634
68.87000 2483.394
68.88000 2670.267
68.89000 2884.424
68.90000 3274.702
68.91000 3696.503
68.92000 4042.565
68.93000 5512.643
68.94000 6819.153
68.95000 8565.393
68.96000 11515.759
68.97000 14534.902
68.98000 18064.186
68.99000 22530.227
69.00000 27016.500
69.01000 29473.025
69.02000 35914.352
69.03000 40345.398
69.04000 43874.941
69.05000 46710.965
69.06000 49515.078
69.07000 51116.273
69.08000 52105.461
69.09000 53049.176
69.10000 53433.996
69.11000 53614.137
69.12000 53829.195
69.13000 54337.930
69.14000 54912.961
69.15000 55519.664
69.16000 56290.281
69.17000 57084.281
69.18000 57707.859
69.19000 57122.699
69.20000 56575.293
69.21000 55468.633
69.22000 53095.488
69.23000 50673.852
69.24000 47861.262
69.25000 44458.141
69.26000 41049.113
69.27000 38181.668
69.28000 35840.762
69.29000 33507.461
69.30000 31772.045
69.31000 30412.896
69.32000 29078.598
69.33000 28325.133
69.34000 27815.977
69.35000 27339.654
69.36000 26532.457
69.37000 25714.611
69.38000 24822.246
69.39000 23437.846
69.40000 21963.473
69.41000 20350.111
69.42000 18152.381
69.43000 15889.603
69.44000 14198.942
69.45000 11452.587
69.46000 9262.917
69.47000 7394.604
69.48000 6127.637
69.49000 4874.453
69.50000 3927.682
69.51000 3358.624
69.52000 2791.704
69.53000 2395.566
69.54000 2134.829
69.55000 1876.816
69.56000 1727.302
69.57000 1634.035
69.58000 1542.169
69.59000 1472.705
69.60000 1411.031
69.61000 1354.669
69.62000 1301.281
69.63000 1254.467
69.64000 1207.331
69.65000 1158.488
69.66000 1109.397
69.67000 1065.687
69.68000 1040.527
69.69000 1016.931
69.70000 1000.277
69.71000 968.190
69.72000 943.371
69.73000 920.896
69.74000 902.031
69.75000 883.207
69.76000 868.286
69.77000 857.244
69.78000 846.281
69.79000 835.583
69.80000 825.225
69.81000 814.811
69.82000 803.064
69.83000 790.746
69.84000 778.019
69.85000 760.526
69.86000 741.666
69.87000 724.898
69.88000 719.799
69.89000 717.266
69.90000 713.110
69.91000 701.997
69.92000 690.090
69.93000 678.843
69.94000 669.474
69.95000 660.220
69.96000 654.100
69.97000 662.021
69.98000 668.117
69.99000 670.572
70.00000 668.444
