20.00000 573.678
20.01000 560.720
20.02000 545.910
20.03000 536.617
20.04000 548.639
20.05000 562.781
20.06000 573.106
20.07000 577.142
20.08000 580.008
20.09000 576.664
20.10000 562.605
20.11000 548.359
20.12000 545.621
20.13000 555.860
20.14000 566.072
20.15000 562.948
20.16000 550.333
20.17000 538.096
20.18000 537.887
20.19000 543.431
20.20000 548.355
20.21000 544.634
20.22000 538.141
20.23000 532.272
20.24000 534.289
20.25000 537.528
20.26000 541.832
20.27000 551.283
20.28000 561.413
20.29000 568.365
20.30000 565.221
20.31000 561.328
20.32000 558.651
20.33000 557.275
20.34000 556.276
20.35000 554.466
20.36000 551.509
20.37000 548.546
20.38000 549.875
20.39000 555.090
20.40000 560.252
20.41000 561.200
20.42000 559.692
20.43000 558.219
20.44000 557.468
20.45000 557.003
20.46000 556.576
20.47000 556.545
20.48000 556.619
20.49000 556.683
20.50000 553.732
20.51000 550.756
20.52000 549.593
20.53000 555.572
20.54000 562.282
20.55000 565.826
20.56000 561.063
20.57000 555.865
20.58000 552.528
20.59000 553.174
20.60000 553.699
20.61000 554.000
20.62000 554.045
20.63000 554.085
20.64000 553.506
20.65000 552.472
20.66000 551.458
20.67000 545.939
20.68000 538.513
20.69000 531.728
20.70000 534.146
20.71000 539.572
20.72000 544.410
20.73000 544.568
20.74000 543.717
20.75000 542.996
20.76000 541.453
20.77000 540.067
20.78000 538.666
20.79000 537.221
20.80000 535.772
20.81000 536.750
20.82000 542.994
20.83000 549.420
20.84000 553.229
20.85000 549.613
20.86000 547.012
20.87000 545.464
20.88000 544.890
20.89000 544.309
20.90000 543.361
20.91000 542.190
20.92000 541.057
20.93000 540.814
20.94000 540.924
20.95000 541.798
20.96000 550.786
20.97000 561.959
20.98000 570.235
20.99000 560.346
21.00000 547.295
21.01000 536.643
21.02000 536.249
21.03000 536.807
21.04000 539.121
21.05000 546.131
21.06000 553.397
21.07000 555.687
21.08000 549.062
21.09000 542.260
21.10000 538.581
21.11000 553.883
21.12000 564.326
21.13000 564.063
21.14000 555.775
21.15000 547.734
21.16000 548.392
21.17000 553.371
21.18000 558.110
21.19000 558.095
21.20000 556.617
21.21000 555.750
21.22000 559.873
21.23000 565.093
21.24000 567.590
21.25000 556.373
21.26000 543.257
21.27000 533.018
21.28000 543.150
21.29000 552.511
21.30000 557.164
21.31000 551.411
21.32000 545.281
21.33000 542.096
21.34000 543.249
21.35000 544.440
21.36000 546.239
21.37000 548.610
21.38000 550.905
21.39000 547.847
21.40000 541.503
21.41000 535.604
21.42000 539.583
21.43000 547.618
21.44000 555.114
21.45000 553.681
21.46000 550.162
21.47000 547.936
21.48000 553.994
21.49000 561.526
21.50000 567.705
21.51000 568.334
21.52000 568.367
21.53000 568.390
21.54000 559.327
21.55000 551.887
21.56000 548.368
21.57000 552.013
21.58000 555.810
21.59000 558.924
21.60000 561.219
21.61000 563.506
21.62000 561.814
21.63000 557.107
21.64000 552.626
21.65000 556.546
21.66000 564.716
21.67000 572.424
21.68000 573.048
21.69000 571.267
21.70000 569.645
21.71000 569.476
21.72000 569.615
21.73000 568.795
21.74000 563.042
21.75000 556.589
21.76000 554.401
21.77000 566.553
21.78000 579.870
21.79000 589.197
21.80000 597.803
21.81000 604.291
21.82000 607.206
21.83000 604.754
21.84000 602.249
21.85000 605.299
21.86000 613.713
21.87000 622.060
21.88000 627.366
21.89000 630.711
21.90000 634.153
21.91000 639.859
21.92000 646.511
21.93000 653.306
21.94000 661.694
21.95000 670.529
21.96000 678.354
21.97000 685.576
21.98000 691.729
21.99000 697.433
22.00000 701.259
22.01000 704.878
22.02000 709.360
22.03000 716.240
22.04000 723.261
22.05000 727.863
22.06000 712.486
22.07000 700.848
22.08000 700.491
22.09000 713.957
22.10000 727.411
22.11000 728.358
22.12000 719.543
22.13000 710.874
22.14000 706.888
22.15000 705.370
22.16000 703.379
22.17000 693.910
22.18000 681.855
22.19000 670.634
22.20000 666.549
22.21000 664.098
22.22000 661.997
22.23000 641.735
22.24000 622.396
22.25000 608.410
22.26000 612.773
22.27000 618.672
22.28000 624.332
22.29000 629.447
22.30000 634.539
22.31000 637.633
22.32000 613.449
22.33000 595.975
22.34000 588.102
22.35000 589.707
22.36000 591.236
22.37000 586.510
22.38000 577.794
22.39000 569.324
22.40000 567.295
22.41000 567.977
22.42000 568.933
22.43000 573.067
22.44000 578.107
22.45000 581.627
22.46000 574.949
22.47000 566.378
22.48000 559.298
22.49000 554.069
22.50000 549.933
22.51000 547.768
22.52000 551.174
22.53000 554.918
22.54000 554.681
22.55000 546.894
22.56000 538.927
22.57000 534.494
22.58000 530.898
22.59000 528.404
22.60000 523.109
22.61000 515.582
22.62000 508.282
22.63000 510.380
22.64000 517.415
22.65000 524.146
22.66000 524.806
22.67000 523.427
22.68000 521.877
22.69000 518.820
22.70000 515.411
22.71000 513.323
22.72000 518.320
22.73000 524.369
22.74000 529.157
22.75000 518.336
22.76000 508.560
22.77000 502.745
22.78000 506.186
22.79000 510.009
22.80000 513.882
22.81000 517.835
22.82000 521.789
22.83000 523.774
22.84000 519.741
22.85000 517.127
22.86000 521.634
22.87000 530.774
22.88000 539.574
22.89000 539.835
22.90000 536.390
22.91000 533.155
22.92000 517.720
22.93000 500.413
22.94000 486.604
22.95000 496.814
22.96000 511.579
22.97000 522.567
22.98000 517.127
22.99000 509.778
23.00000 504.238
23.01000 498.842
23.02000 494.624
23.03000 493.237
23.04000 497.323
23.05000 501.547
23.06000 505.917
23.07000 510.472
23.08000 515.021
23.09000 513.546
23.10000 507.198
23.11000 501.102
23.12000 506.087
23.13000 517.005
23.14000 527.562
23.15000 531.994
23.16000 534.226
23.17000 536.275
23.18000 530.838
23.19000 524.399
23.20000 518.535
23.21000 515.825
23.22000 513.593
23.23000 509.793
23.24000 500.410
23.25000 490.532
23.26000 483.489
23.27000 495.065
23.28000 504.501
23.29000 512.663
23.30000 518.797
23.31000 524.904
23.32000 522.829
23.33000 512.317
23.34000 501.868
23.35000 498.806
23.36000 500.620
23.37000 502.550
23.38000 507.545
23.39000 513.895
23.40000 519.556
23.41000 516.768
23.42000 511.478
23.43000 506.751
23.44000 501.354
23.45000 496.539
23.46000 494.091
23.47000 502.149
23.48000 511.460
23.49000 514.986
23.50000 501.532
23.51000 486.977
23.52000 477.239
23.53000 491.467
23.54000 502.492
23.55000 507.081
23.56000 503.288
23.57000 499.469
23.58000 500.667
23.59000 506.025
23.60000 511.311
23.61000 509.885
23.62000 504.938
23.63000 500.231
23.64000 499.742
23.65000 500.796
23.66000 500.481
23.67000 487.509
23.68000 471.461
23.69000 457.561
23.70000 471.624
23.71000 487.281
23.72000 499.205
23.73000 497.575
23.74000 494.709
23.75000 495.031
23.76000 503.087
23.77000 511.489
23.78000 516.715
23.79000 503.629
23.80000 494.021
23.81000 488.836
23.82000 488.312
23.83000 487.791
23.84000 487.499
23.85000 487.362
23.86000 487.228
23.87000 491.824
23.88000 498.252
23.89000 503.926
23.90000 500.090
23.91000 493.383
23.92000 488.041
23.93000 492.511
23.94000 498.922
23.95000 504.279
23.96000 486.573
23.97000 469.534
23.98000 461.036
23.99000 478.083
24.00000 496.843
24.01000 506.210
24.02000 496.732
24.03000 486.723
24.04000 481.001
24.05000 494.195
24.06000 503.453
24.07000 502.036
24.08000 491.578
24.09000 481.271
24.10000 478.490
24.11000 479.893
24.12000 481.243
24.13000 489.743
24.14000 500.207
24.15000 509.435
24.16000 506.949
24.17000 501.558
24.18000 496.581
24.19000 493.965
24.20000 491.724
24.21000 489.927
24.22000 498.554
24.23000 506.329
24.24000 509.523
24.25000 501.391
24.26000 492.732
24.27000 485.946
24.28000 482.259
24.29000 478.619
24.30000 476.731
24.31000 485.881
24.32000 492.017
24.33000 493.075
24.34000 490.630
24.35000 487.957
24.36000 478.731
24.37000 466.497
24.38000 454.941
24.39000 454.302
24.40000 456.798
24.41000 459.276
24.42000 461.628
24.43000 463.954
24.44000 466.649
24.45000 471.053
24.46000 475.672
24.47000 479.206
24.48000 483.520
24.49000 486.967
24.50000 489.571
24.51000 490.453
24.52000 491.285
24.53000 492.024
24.54000 492.640
24.55000 493.254
24.56000 492.590
24.57000 490.824
24.58000 489.073
24.59000 488.076
24.60000 487.506
24.61000 487.267
24.62000 493.273
24.63000 501.651
24.64000 509.394
24.65000 499.956
24.66000 487.585
24.67000 477.219
24.68000 478.573
24.69000 481.830
24.70000 484.376
24.71000 484.236
24.72000 483.837
24.73000 483.547
24.74000 486.603
24.75000 489.076
24.76000 490.315
24.77000 489.472
24.78000 488.595
24.79000 486.460
24.80000 482.942
24.81000 479.438
24.82000 481.673
24.83000 487.880
24.84000 493.792
24.85000 490.813
24.86000 483.674
24.87000 477.149
24.88000 478.847
24.89000 483.124
24.90000 486.978
24.91000 488.670
24.92000 489.764
24.93000 489.202
24.94000 480.829
24.95000 471.455
24.96000 465.882
24.97000 472.116
24.98000 479.193
24.99000 484.022
25.00000 496.421
25.01000 505.867
25.02000 504.525
25.03000 488.260
25.04000 471.910
25.05000 464.510
25.06000 465.015
25.07000 465.514
25.08000 472.035
25.09000 481.800
25.10000 490.924
25.11000 487.495
25.12000 479.209
25.13000 471.459
25.14000 469.080
25.15000 468.085
25.16000 467.215
25.17000 467.048
25.18000 467.005
25.19000 467.672
25.20000 471.068
25.21000 474.735
25.22000 477.140
25.23000 476.307
25.24000 475.310
25.25000 474.677
25.26000 484.135
25.27000 491.134
25.28000 492.769
25.29000 488.380
25.30000 483.971
25.31000 477.450
25.32000 469.413
25.33000 461.545
25.34000 465.300
25.35000 474.231
25.36000 482.575
25.37000 482.818
25.38000 480.471
25.39000 478.113
25.40000 475.670
25.41000 473.209
25.42000 471.130
25.43000 465.983
25.44000 461.342
25.45000 458.896
25.46000 463.398
25.47000 468.412
25.48000 474.988
25.49000 484.877
25.50000 494.875
25.51000 500.743
25.52000 479.740
25.53000 464.809
25.54000 456.985
25.55000 455.573
25.56000 454.318
25.57000 462.581
25.58000 476.447
25.59000 489.840
25.60000 481.236
25.61000 464.952
25.62000 450.645
25.63000 456.669
25.64000 468.039
25.65000 477.741
25.66000 477.258
25.67000 475.047
25.68000 473.252
25.69000 469.467
25.70000 466.215
25.71000 463.257
25.72000 461.067
25.73000 458.917
25.74000 456.645
25.75000 454.156
25.76000 451.664
25.77000 450.332
25.78000 457.316
25.79000 462.064
25.80000 463.333
25.81000 462.055
25.82000 460.873
25.83000 462.893
25.84000 466.467
25.85000 469.861
25.86000 471.152
25.87000 471.711
25.88000 471.481
25.89000 465.010
25.90000 457.198
25.91000 450.777
25.92000 451.189
25.93000 452.520
25.94000 453.553
25.95000 456.034
25.96000 458.094
25.97000 460.498
25.98000 463.647
25.99000 466.821
26.00000 467.833
26.01000 465.733
26.02000 463.609
26.03000 464.118
26.04000 467.050
26.05000 469.902
26.06000 467.562
26.07000 462.107
26.08000 456.807
26.09000 454.800
26.10000 454.116
26.11000 453.479
26.12000 452.957
26.13000 452.513
26.14000 452.617
26.15000 456.142
26.16000 460.260
26.17000 463.945
26.18000 465.896
26.19000 467.667
26.20000 468.973
26.21000 472.150
26.22000 474.690
26.23000 473.696
26.24000 466.393
26.25000 458.965
26.26000 454.591
26.27000 453.794
26.28000 453.005
26.29000 450.616
26.30000 447.060
26.31000 443.581
26.32000 442.820
26.33000 443.404
26.34000 443.819
26.35000 441.751
26.36000 438.858
26.37000 436.232
26.38000 438.637
26.39000 441.735
26.40000 444.269
26.41000 443.974
26.42000 443.290
26.43000 442.619
26.44000 441.991
26.45000 441.366
26.46000 440.931
26.47000 442.982
26.48000 444.595
26.49000 444.300
26.50000 441.204
26.51000 438.085
26.52000 439.964
26.53000 446.549
26.54000 453.075
26.55000 454.083
26.56000 451.762
26.57000 449.492
26.58000 448.359
26.59000 447.691
26.60000 447.141
26.61000 447.865
26.62000 448.937
26.63000 449.883
26.64000 450.629
26.65000 451.243
26.66000 450.874
26.67000 446.496
26.68000 441.687
26.69000 439.410
26.70000 443.999
26.71000 448.974
26.72000 452.208
26.73000 455.779
26.74000 458.401
26.75000 457.560
26.76000 452.576
26.77000 447.601
26.78000 446.501
26.79000 448.355
26.80000 450.175
26.81000 452.191
26.82000 454.232
26.83000 456.372
26.84000 460.010
26.85000 464.154
26.86000 467.705
26.87000 466.329
26.88000 463.852
26.89000 461.736
26.90000 451.848
26.91000 442.595
26.92000 434.911
26.93000 432.480
26.94000 430.473
26.95000 429.487
26.96000 430.790
26.97000 432.179
26.98000 433.015
26.99000 437.833
27.00000 441.287
27.01000 440.813
27.02000 436.560
27.03000 432.358
27.04000 432.007
27.05000 434.058
27.06000 436.047
27.07000 443.803
27.08000 453.435
27.09000 462.096
27.10000 459.920
27.11000 454.724
27.12000 450.002
27.13000 448.374
27.14000 447.307
27.15000 446.429
27.16000 449.967
27.17000 453.274
27.18000 453.126
27.19000 443.427
27.20000 433.172
27.21000 426.068
27.22000 424.810
27.23000 423.682
27.24000 423.061
27.25000 429.945
27.26000 434.685
27.27000 435.893
27.28000 434.354
27.29000 432.846
27.30000 432.533
27.31000 432.832
27.32000 433.118
27.33000 432.862
27.34000 432.450
27.35000 431.665
27.36000 427.706
27.37000 423.024
27.38000 419.695
27.39000 423.453
27.40000 428.235
27.41000 431.999
27.42000 436.053
27.43000 439.321
27.44000 440.693
27.45000 437.727
27.46000 434.591
27.47000 435.538
27.48000 442.715
27.49000 449.958
27.50000 449.090
27.51000 440.250
27.52000 431.517
27.53000 431.610
27.54000 437.314
27.55000 442.731
27.56000 441.283
27.57000 436.921
27.58000 432.836
27.59000 431.811
27.60000 431.668
27.61000 432.039
27.62000 435.838
27.63000 440.271
27.64000 443.124
27.65000 439.266
27.66000 434.651
27.67000 431.194
27.68000 434.402
27.69000 437.220
27.70000 440.313
27.71000 443.924
27.72000 447.548
27.73000 443.416
27.74000 429.621
27.75000 415.823
27.76000 415.544
27.77000 425.943
27.78000 436.142
27.79000 438.162
27.80000 435.899
27.81000 433.299
27.82000 425.191
27.83000 415.149
27.84000 405.961
27.85000 407.092
27.86000 410.235
27.87000 414.079
27.88000 421.673
27.89000 429.821
27.90000 435.132
27.91000 430.566
27.92000 425.154
27.93000 421.323
27.94000 416.635
27.95000 413.046
27.96000 414.636
27.97000 424.283
27.98000 434.024
27.99000 438.878
28.00000 438.824
28.01000 438.769
28.02000 437.439
28.03000 435.315
28.04000 433.231
28.05000 432.137
28.06000 431.472
28.07000 430.677
28.08000 428.349
28.09000 425.577
28.10000 423.108
28.11000 426.730
28.12000 430.876
28.13000 435.358
28.14000 441.296
28.15000 447.401
28.16000 450.067
28.17000 442.855
28.18000 435.028
28.19000 429.833
28.20000 424.503
28.21000 420.561
28.22000 419.415
28.23000 421.825
28.24000 424.246
28.25000 425.888
28.26000 426.900
28.27000 427.896
28.28000 428.965
28.29000 430.038
28.30000 431.279
28.31000 435.339
28.32000 440.408
28.33000 444.836
28.34000 443.515
28.35000 440.830
28.36000 438.514
28.37000 447.024
28.38000 455.631
28.39000 459.733
28.40000 447.841
28.41000 434.540
28.42000 426.458
28.43000 430.760
28.44000 435.591
28.45000 438.568
28.46000 435.723
28.47000 433.629
28.48000 432.473
28.49000 432.282
28.50000 432.111
28.51000 434.010
28.52000 437.276
28.53000 440.458
28.54000 433.789
28.55000 423.293
28.56000 413.935
28.57000 418.452
28.58000 427.065
28.59000 433.885
28.60000 428.161
28.61000 420.018
28.62000 413.245
28.63000 416.368
28.64000 419.925
28.65000 422.830
28.66000 423.825
28.67000 424.697
28.68000 424.496
28.69000 422.190
28.70000 419.829
28.71000 418.493
28.72000 414.762
28.73000 412.166
28.74000 411.999
28.75000 413.840
28.76000 415.659
28.77000 416.492
28.78000 416.789
28.79000 417.075
28.80000 420.493
28.81000 424.757
28.82000 428.390
28.83000 426.229
28.84000 422.665
28.85000 420.117
28.86000 423.237
28.87000 427.234
28.88000 430.423
28.89000 431.069
28.90000 431.404
28.91000 426.735
28.92000 409.965
28.93000 392.658
28.94000 389.153
28.95000 407.965
28.96000 427.083
28.97000 436.873
28.98000 426.332
28.99000 419.289
29.00000 416.845
29.01000 417.502
29.02000 418.324
29.03000 423.658
29.04000 431.016
29.05000 437.951
29.06000 430.341
29.07000 419.371
29.08000 410.037
29.09000 412.418
29.10000 417.107
29.11000 419.754
29.12000 413.189
29.13000 405.504
29.14000 399.658
29.15000 405.178
29.16000 410.116
29.17000 414.924
29.18000 419.473
29.19000 424.014
29.20000 424.047
29.21000 418.113
29.22000 412.156
29.23000 413.412
29.24000 420.735
29.25000 427.859
29.26000 425.199
29.27000 417.119
29.28000 409.378
29.29000 407.786
29.30000 408.478
29.31000 409.116
29.32000 411.425
29.33000 413.862
29.34000 415.797
29.35000 414.874
29.36000 413.499
29.37000 412.652
29.38000 413.755
29.39000 415.039
29.40000 415.964
29.41000 414.822
29.42000 413.875
29.43000 414.332
29.44000 417.106
29.45000 419.914
29.46000 418.447
29.47000 412.397
29.48000 406.376
29.49000 402.907
29.50000 401.211
29.51000 399.728
29.52000 404.327
29.53000 411.709
29.54000 418.689
29.55000 420.471
29.56000 420.659
29.57000 420.827
29.58000 427.323
29.59000 434.119
29.60000 438.759
29.61000 433.468
29.62000 426.939
29.63000 421.475
29.64000 419.247
29.65000 417.242
29.66000 415.884
29.67000 421.790
29.68000 426.351
29.69000 428.319
29.70000 426.787
29.71000 425.232
29.72000 420.626
29.73000 413.392
29.74000 406.246
29.75000 408.674
29.76000 416.312
29.77000 423.297
29.78000 418.053
29.79000 408.181
29.80000 400.406
29.81000 412.945
29.82000 430.601
29.83000 445.983
29.84000 450.158
29.85000 452.178
29.86000 453.357
29.87000 451.377
29.88000 449.094
29.89000 448.633
29.90000 452.747
29.91000 457.080
29.92000 459.813
29.93000 456.073
29.94000 453.290
29.95000 453.383
29.96000 456.623
29.97000 459.873
29.98000 464.105
29.99000 469.026
30.00000 473.836
30.01000 468.477
30.02000 458.794
30.03000 450.251
30.04000 456.902
30.05000 468.302
30.06000 477.743
30.07000 472.481
30.08000 464.202
30.09000 457.236
30.10000 455.043
30.11000 453.723
30.12000 453.221
30.13000 455.254
30.14000 457.468
30.15000 456.490
30.16000 448.890
30.17000 441.086
30.18000 436.552
30.19000 438.041
30.20000 439.111
30.21000 438.253
30.22000 435.698
30.23000 433.183
30.24000 432.895
30.25000 433.890
30.26000 434.849
30.27000 441.239
30.28000 449.217
30.29000 456.162
30.30000 452.821
30.31000 446.838
30.32000 441.812
30.33000 442.484
30.34000 444.098
30.35000 445.403
30.36000 439.249
30.37000 433.647
30.38000 430.848
30.39000 435.214
30.40000 439.937
30.41000 442.593
30.42000 441.709
30.43000 440.764
30.44000 440.264
30.45000 429.071
30.46000 421.533
30.47000 424.348
30.48000 434.564
30.49000 444.687
30.50000 451.938
30.51000 457.823
30.52000 463.402
30.53000 456.535
30.54000 446.559
30.55000 437.610
30.56000 436.555
30.57000 437.153
30.58000 437.886
30.59000 439.261
30.60000 440.720
30.61000 441.847
30.62000 440.825
30.63000 439.891
30.64000 439.458
30.65000 440.083
30.66000 440.742
30.67000 441.274
30.68000 441.627
30.69000 441.979
30.70000 445.991
30.71000 453.286
30.72000 460.531
30.73000 464.826
30.74000 467.392
30.75000 469.892
30.76000 471.061
30.77000 471.706
30.78000 472.305
30.79000 470.782
30.80000 468.909
30.81000 467.884
30.82000 472.010
30.83000 477.006
30.84000 481.490
30.85000 483.968
30.86000 486.243
30.87000 487.910
30.88000 490.116
30.89000 491.841
30.90000 496.283
30.91000 505.469
30.92000 514.742
30.93000 520.334
30.94000 521.722
30.95000 523.101
30.96000 537.264
30.97000 560.552
30.98000 583.621
30.99000 599.521
31.00000 611.952
31.01000 625.368
31.02000 652.764
31.03000 684.696
31.04000 713.605
31.05000 740.591
31.06000 764.002
31.07000 791.311
31.08000 837.708
31.09000 886.662
31.10000 939.876
31.11000 1006.781
31.12000 1074.722
31.13000 1121.613
31.14000 1206.740
31.15000 1271.679
31.16000 1356.486
31.17000 1469.772
31.18000 1583.277
31.19000 1688.159
31.20000 1785.129
31.21000 1881.160
31.22000 2003.587
31.23000 2138.919
31.24000 2273.514
31.25000 2392.612
31.26000 2505.507
31.27000 2619.409
31.28000 2743.887
31.29000 2871.191
31.30000 2983.142
31.31000 3093.012
31.32000 3187.236
31.33000 3275.745
31.34000 3341.459
31.35000 3404.806
31.36000 3456.095
31.37000 3475.378
31.38000 3492.940
31.39000 3504.261
31.40000 3489.309
31.41000 3478.015
31.42000 3441.019
31.43000 3374.038
31.44000 3307.036
31.45000 3244.494
31.46000 3185.268
31.47000 3127.169
31.48000 3018.601
31.49000 2890.005
31.50000 2761.302
31.51000 2631.029
31.52000 2500.236
31.53000 2369.986
31.54000 2244.125
31.55000 2119.222
31.56000 2013.008
31.57000 1877.815
31.58000 1760.932
31.59000 1652.784
31.60000 1573.249
31.61000 1495.943
31.62000 1407.683
31.63000 1295.375
31.64000 1182.212
31.65000 1114.778
31.66000 1042.825
31.67000 991.807
31.68000 946.037
31.69000 905.187
31.70000 864.285
31.71000 819.721
31.72000 772.925
31.73000 727.603
31.74000 693.974
31.75000 666.673
31.76000 640.533
31.77000 626.946
31.78000 616.778
31.79000 605.950
31.80000 590.929
31.81000 575.169
31.82000 562.273
31.83000 549.245
31.84000 538.560
31.85000 526.535
31.86000 510.890
31.87000 495.043
31.88000 484.240
31.89000 482.582
31.90000 481.114
31.91000 480.315
31.92000 464.864
31.93000 454.260
31.94000 446.791
31.95000 441.703
31.96000 436.738
31.97000 436.254
31.98000 438.022
31.99000 439.707
32.00000 437.081
32.01000 433.300
32.02000 430.179
32.03000 432.527
32.04000 436.091
32.05000 438.976
32.06000 438.392
32.07000 437.320
32.08000 436.480
32.09000 425.944
32.10000 416.905
32.11000 410.639
32.12000 410.574
32.13000 410.739
32.14000 409.730
32.15000 406.973
32.16000 404.199
32.17000 403.688
32.18000 405.344
32.19000 407.009
32.20000 409.400
32.21000 412.241
32.22000 415.063
32.23000 417.446
32.24000 419.646
32.25000 421.702
32.26000 413.143
32.27000 402.706
32.28000 393.268
32.29000 390.333
32.30000 388.569
32.31000 387.961
32.32000 392.148
32.33000 396.859
32.34000 400.366
32.35000 395.792
32.36000 391.868
32.37000 391.017
32.38000 395.841
32.39000 400.791
32.40000 400.665
32.41000 394.367
32.42000 388.070
32.43000 383.799
32.44000 381.114
32.45000 378.502
32.46000 378.698
32.47000 380.332
32.48000 382.202
32.49000 387.781
32.50000 394.634
32.51000 400.885
32.52000 396.423
32.53000 390.305
32.54000 386.173
32.55000 392.386
32.56000 400.087
32.57000 402.745
32.58000 388.242
32.59000 372.321
32.60000 361.127
32.61000 373.420
32.62000 383.424
32.63000 388.420
32.64000 385.803
32.65000 383.108
32.66000 381.881
32.67000 382.092
32.68000 382.301
32.69000 385.223
32.70000 389.785
32.71000 394.092
32.72000 392.355
32.73000 388.059
32.74000 384.065
32.75000 383.527
32.76000 383.966
32.77000 384.356
32.78000 388.447
32.79000 392.581
32.80000 397.326
32.81000 404.655
32.82000 412.273
32.83000 422.261
32.84000 438.899
32.85000 455.936
32.86000 467.152
32.87000 476.196
32.88000 482.820
32.89000 481.088
32.90000 468.987
32.91000 456.901
32.92000 458.444
32.93000 470.757
32.94000 482.874
32.95000 483.007
32.96000 477.081
32.97000 471.746
32.98000 475.968
32.99000 483.533
33.00000 489.620
33.01000 482.852
33.02000 473.104
33.03000 464.729
33.04000 460.637
33.05000 457.709
33.06000 450.823
33.07000 430.206
33.08000 408.421
33.09000 390.014
33.10000 379.452
33.11000 369.208
33.12000 362.953
33.13000 360.209
33.14000 358.276
33.15000 358.888
33.16000 362.047
33.17000 365.181
33.18000 366.142
33.19000 365.700
33.20000 365.270
33.21000 364.722
33.22000 364.151
33.23000 363.220
33.24000 358.048
33.25000 351.653
33.26000 346.198
33.27000 347.153
33.28000 349.312
33.29000 351.100
33.30000 349.801
33.31000 348.435
33.32000 347.321
33.33000 346.924
33.34000 346.573
33.35000 347.940
33.36000 352.607
33.37000 357.356
33.38000 360.013
33.39000 345.884
33.40000 336.080
33.41000 334.864
33.42000 340.574
33.43000 346.111
33.44000 344.205
33.45000 338.343
33.46000 332.728
33.47000 339.070
33.48000 348.959
33.49000 357.514
33.50000 354.164
33.51000 347.998
33.52000 342.461
33.53000 340.338
33.54000 338.730
33.55000 337.453
33.56000 333.907
33.57000 330.894
33.58000 330.693
33.59000 337.142
33.60000 343.872
33.61000 350.440
33.62000 356.749
33.63000 363.055
33.64000 366.244
33.65000 350.572
33.66000 340.181
33.67000 339.019
33.68000 343.933
33.69000 348.626
33.70000 347.624
33.71000 344.120
33.72000 340.827
33.73000 338.362
33.74000 336.333
33.75000 334.502
33.76000 334.041
33.77000 333.843
33.78000 333.319
33.79000 331.353
33.80000 329.218
33.81000 327.603
33.82000 332.107
33.83000 335.947
33.84000 337.813
33.85000 335.818
33.86000 333.722
33.87000 331.872
33.88000 330.339
33.89000 328.809
33.90000 329.330
33.91000 331.530
33.92000 333.729
33.93000 335.854
33.94000 337.938
33.95000 340.051
33.96000 342.664
33.97000 345.459
33.98000 348.027
33.99000 342.983
34.00000 336.840
34.01000 331.469
34.02000 330.393
34.03000 329.977
34.04000 328.624
34.05000 323.895
34.06000 318.862
34.07000 315.260
34.08000 328.734
34.09000 339.598
34.10000 342.045
34.11000 330.931
34.12000 319.634
34.13000 316.672
34.14000 322.422
34.15000 328.140
34.16000 333.404
34.17000 338.298
34.18000 343.046
34.19000 343.866
34.20000 342.927
34.21000 341.936
34.22000 340.293
34.23000 338.455
34.24000 336.810
34.25000 333.662
34.26000 330.659
34.27000 328.597
34.28000 330.762
34.29000 333.439
34.30000 335.211
34.31000 334.296
34.32000 333.203
34.33000 332.469
34.34000 325.415
34.35000 320.045
34.36000 317.867
34.37000 319.897
34.38000 321.950
34.39000 326.000
34.40000 331.729
34.41000 337.382
34.42000 339.869
34.43000 340.588
34.44000 341.237
34.45000 340.624
34.46000 339.544
34.47000 338.297
34.48000 335.487
34.49000 332.292
34.50000 329.519
34.51000 332.937
34.52000 336.680
34.53000 337.802
34.54000 329.290
34.55000 319.886
34.56000 315.280
34.57000 322.455
34.58000 330.171
34.59000 334.992
34.60000 332.958
34.61000 331.419
34.62000 329.421
34.63000 326.933
34.64000 324.477
34.65000 325.708
34.66000 329.463
34.67000 333.130
34.68000 329.772
34.69000 323.496
34.70000 317.514
34.71000 315.317
34.72000 314.276
34.73000 313.062
34.74000 310.579
34.75000 307.843
34.76000 305.551
34.77000 320.192
34.78000 334.112
34.79000 343.327
34.80000 338.299
34.81000 332.297
34.82000 329.482
34.83000 333.136
34.84000 336.978
34.85000 339.187
34.86000 340.719
34.87000 341.780
34.88000 337.825
34.89000 329.565
34.90000 321.446
34.91000 320.598
34.92000 323.840
34.93000 326.960
34.94000 325.179
34.95000 321.775
34.96000 318.313
34.97000 314.295
34.98000 310.138
34.99000 307.057
35.00000 310.215
35.01000 314.377
35.02000 317.724
35.03000 317.033
35.04000 316.160
35.05000 316.570
35.06000 320.186
35.07000 323.955
35.08000 322.026
35.09000 310.559
35.10000 298.943
35.11000 292.881
35.12000 310.622
35.13000 322.519
35.14000 320.149
35.15000 307.818
35.16000 295.922
35.17000 296.852
35.18000 303.740
35.19000 310.254
35.20000 310.346
35.21000 308.595
35.22000 307.113
35.23000 307.653
35.24000 308.606
35.25000 308.732
35.26000 304.983
35.27000 300.743
35.28000 297.488
35.29000 297.206
35.30000 297.149
35.31000 299.298
35.32000 306.009
35.33000 312.858
35.34000 314.262
35.35000 308.191
35.36000 302.078
35.37000 300.579
35.38000 303.120
35.39000 305.671
35.40000 308.774
35.41000 312.194
35.42000 315.566
35.43000 318.004
35.44000 320.082
35.45000 322.005
35.46000 323.108
35.47000 323.911
35.48000 323.859
35.49000 318.745
35.50000 312.798
35.51000 307.215
35.52000 303.020
35.53000 298.960
35.54000 296.006
35.55000 303.452
35.56000 309.580
35.57000 310.980
35.58000 304.313
35.59000 297.510
35.60000 295.644
35.61000 299.279
35.62000 302.904
35.63000 309.276
35.64000 317.524
35.65000 325.482
35.66000 324.438
35.67000 319.133
35.68000 314.149
35.69000 313.536
35.70000 314.311
35.71000 315.010
35.72000 309.947
35.73000 304.442
35.74000 301.265
35.75000 309.208
35.76000 318.600
35.77000 325.022
35.78000 322.111
35.79000 318.521
35.80000 316.061
35.81000 311.118
35.82000 307.356
35.83000 304.344
35.84000 302.380
35.85000 300.424
35.86000 297.563
35.87000 293.893
35.88000 290.262
35.89000 294.483
35.90000 303.094
35.91000 311.270
35.92000 310.707
35.93000 306.724
35.94000 303.287
35.95000 305.398
35.96000 308.957
35.97000 312.075
35.98000 310.125
35.99000 307.721
36.00000 305.022
36.01000 301.177
36.02000 297.216
36.03000 294.789
36.04000 296.342
36.05000 298.100
36.06000 299.223
36.07000 297.514
36.08000 296.232
36.09000 295.855
36.10000 296.507
36.11000 297.153
36.12000 296.551
36.13000 295.044
36.14000 293.567
36.15000 294.431
36.16000 296.349
36.17000 298.124
36.18000 297.895
36.19000 297.018
36.20000 296.690
36.21000 300.672
36.22000 305.573
36.23000 309.722
36.24000 299.746
36.25000 289.813
36.26000 283.392
36.27000 288.220
36.28000 293.893
36.29000 296.821
36.30000 293.856
36.31000 290.692
36.32000 288.826
36.33000 300.302
36.34000 308.473
36.35000 310.229
36.36000 306.120
36.37000 302.006
36.38000 297.545
36.39000 292.877
36.40000 288.363
36.41000 290.828
36.42000 295.780
36.43000 300.445
36.44000 302.106
36.45000 302.967
36.46000 303.096
36.47000 298.687
36.48000 293.497
36.49000 289.271
36.50000 286.578
36.51000 284.507
36.52000 285.218
36.53000 293.287
36.54000 301.749
36.55000 307.979
36.56000 310.250
36.57000 312.445
36.58000 313.626
36.59000 300.576
36.60000 291.684
36.61000 289.845
36.62000 293.233
36.63000 296.595
36.64000 299.065
36.65000 301.097
36.66000 303.030
36.67000 303.785
36.68000 304.124
36.69000 303.635
36.70000 296.502
36.71000 287.924
36.72000 281.189
36.73000 283.627
36.74000 287.318
36.75000 290.192
36.76000 292.913
36.77000 295.070
36.78000 298.806
36.79000 305.996
36.80000 313.308
36.81000 315.395
36.82000 309.871
36.83000 304.285
36.84000 300.159
36.85000 297.400
36.86000 294.740
36.87000 298.863
36.88000 307.105
36.89000 315.240
36.90000 321.091
36.91000 326.013
36.92000 330.599
36.93000 327.337
36.94000 322.459
36.95000 317.785
36.96000 314.403
36.97000 311.249
36.98000 309.073
36.99000 310.863
37.00000 313.073
37.01000 314.708
37.02000 312.919
37.03000 311.384
37.04000 313.898
37.05000 323.728
37.06000 333.708
37.07000 335.886
37.08000 328.808
37.09000 321.732
37.10000 317.559
37.11000 315.592
37.12000 313.475
37.13000 305.902
37.14000 295.598
37.15000 286.033
37.16000 287.590
37.17000 292.882
37.18000 297.695
37.19000 303.973
37.20000 309.813
37.21000 314.194
37.22000 311.158
37.23000 307.086
37.24000 303.305
37.25000 300.496
37.26000 297.765
37.27000 295.859
37.28000 293.352
37.29000 291.443
37.30000 290.835
37.31000 292.159
37.32000 293.501
37.33000 296.651
37.34000 301.525
37.35000 306.358
37.36000 308.975
37.37000 310.196
37.38000 311.167
37.39000 306.480
37.40000 299.451
37.41000 293.111
37.42000 294.384
37.43000 297.763
37.44000 300.751
37.45000 296.598
37.46000 291.902
37.47000 289.651
37.48000 297.509
37.49000 306.468
37.50000 312.021
37.51000 308.226
37.52000 303.895
37.53000 301.067
37.54000 298.649
37.55000 296.882
37.56000 295.916
37.57000 295.923
37.58000 295.928
37.59000 295.127
37.60000 293.703
37.61000 292.304
37.62000 292.188
37.63000 292.708
37.64000 293.230
37.65000 293.782
37.66000 294.343
37.67000 295.171
37.68000 298.249
37.69000 301.836
37.70000 304.906
37.71000 298.641
37.72000 292.230
37.73000 288.162
37.74000 292.040
37.75000 296.572
37.76000 299.660
37.77000 299.470
37.78000 299.153
37.79000 298.962
37.80000 304.746
37.81000 308.911
37.82000 306.293
37.83000 297.060
37.84000 287.928
37.85000 286.788
37.86000 290.692
37.87000 294.482
37.88000 294.451
37.89000 292.893
37.90000 291.421
37.91000 290.928
37.92000 290.710
37.93000 290.831
37.94000 293.197
37.95000 295.975
37.96000 298.265
37.97000 300.168
37.98000 301.700
37.99000 302.193
38.00000 299.783
38.01000 297.201
38.02000 297.298
38.03000 302.423
38.04000 307.663
38.05000 310.564
38.06000 304.178
38.07000 299.780
38.08000 303.086
38.09000 312.456
38.10000 321.540
38.11000 319.116
38.12000 310.710
38.13000 302.675
38.14000 306.273
38.15000 313.394
38.16000 320.141
38.17000 323.651
38.18000 326.414
38.19000 328.982
38.20000 330.518
38.21000 331.902
38.22000 332.995
38.23000 324.557
38.24000 317.138
38.25000 314.184
38.26000 321.558
38.27000 329.348
38.28000 336.997
38.29000 344.430
38.30000 351.860
38.31000 357.135
38.32000 360.262
38.33000 363.468
38.34000 373.512
38.35000 387.956
38.36000 402.081
38.37000 408.404
38.38000 411.374
38.39000 414.159
38.40000 438.743
38.41000 466.837
38.42000 494.201
38.43000 516.612
38.44000 538.095
38.45000 560.514
38.46000 586.959
38.47000 613.865
38.48000 634.087
38.49000 677.295
38.50000 712.184
38.51000 745.686
38.52000 776.536
38.53000 807.320
38.54000 851.253
38.55000 911.775
38.56000 972.254
38.57000 1027.492
38.58000 1078.305
38.59000 1128.994
38.60000 1174.412
38.61000 1217.038
38.62000 1260.072
38.63000 1309.903
38.64000 1362.150
38.65000 1410.031
38.66000 1441.196
38.67000 1465.443
38.68000 1486.424
38.69000 1489.723
38.70000 1490.372
38.71000 1492.245
38.72000 1498.426
38.73000 1504.983
38.74000 1509.643
38.75000 1485.526
38.76000 1466.249
38.77000 1432.989
38.78000 1377.710
38.79000 1322.161
38.80000 1269.842
38.81000 1220.812
38.82000 1172.094
38.83000 1128.760
38.84000 1089.535
38.85000 1049.938
38.86000 1000.838
38.87000 947.577
38.88000 894.007
38.89000 836.710
38.90000 778.320
38.91000 726.236
38.92000 688.821
38.93000 658.708
38.94000 626.278
38.95000 583.677
38.96000 539.882
38.97000 502.786
38.98000 485.148
38.99000 468.748
39.00000 457.817
39.01000 441.913
39.02000 430.045
39.03000 415.130
39.04000 396.293
39.05000 377.461
39.06000 366.688
39.07000 362.524
39.08000 358.419
39.09000 353.449
39.10000 348.168
39.11000 343.001
39.12000 339.799
39.13000 337.308
39.14000 334.339
39.15000 327.023
39.16000 318.663
39.17000 311.436
39.18000 313.296
39.19000 316.060
39.20000 317.211
39.21000 312.568
39.22000 307.405
39.23000 301.753
39.24000 294.927
39.25000 288.050
39.26000 283.791
39.27000 291.420
39.28000 297.018
39.29000 297.870
39.30000 293.782
39.31000 289.705
39.32000 286.729
39.33000 284.489
39.34000 282.306
39.35000 283.766
39.36000 286.710
39.37000 289.089
39.38000 284.464
39.39000 277.745
39.40000 272.039
39.41000 273.515
39.42000 276.395
39.43000 278.796
39.44000 284.763
39.45000 290.067
39.46000 292.007
39.47000 283.998
39.48000 275.334
39.49000 270.247
39.50000 272.261
39.51000 274.470
39.52000 275.726
39.53000 272.304
39.54000 269.911
39.55000 271.160
39.56000 275.456
39.57000 279.710
39.58000 281.878
39.59000 282.900
39.60000 283.882
39.61000 284.293
39.62000 284.480
39.63000 284.378
39.64000 281.572
39.65000 278.103
39.66000 274.675
39.67000 271.481
39.68000 268.323
39.69000 265.798
39.70000 275.202
39.71000 283.694
39.72000 288.850
39.73000 285.844
39.74000 282.466
39.75000 277.779
39.76000 270.948
39.77000 264.085
39.78000 260.548
39.79000 274.951
39.80000 284.585
39.81000 286.499
39.82000 283.145
39.83000 279.755
39.84000 275.370
39.85000 270.531
39.86000 265.967
39.87000 265.435
39.88000 266.072
39.89000 266.422
39.90000 264.691
39.91000 262.544
39.92000 261.633
39.93000 266.368
39.94000 271.801
39.95000 275.946
39.96000 264.061
39.97000 253.839
39.98000 247.327
39.99000 248.321
40.00000 249.531
40.01000 250.395
40.02000 250.795
40.03000 251.193
40.04000 254.258
40.05000 259.592
40.06000 264.888
40.07000 268.296
40.08000 270.645
40.09000 272.791
40.10000 271.198
40.11000 268.199
40.12000 265.431
40.13000 262.070
40.14000 258.923
40.15000 256.189
40.16000 255.832
40.17000 255.856
40.18000 255.268
40.19000 252.394
40.20000 249.304
40.21000 247.069
40.22000 253.247
40.23000 258.292
40.24000 261.872
40.25000 263.005
40.26000 264.101
40.27000 262.753
40.28000 258.751
40.29000 254.766
40.30000 256.133
40.31000 261.166
40.32000 266.028
40.33000 265.858
40.34000 263.358
40.35000 260.587
40.36000 254.234
40.37000 246.770
40.38000 240.055
40.39000 247.121
40.40000 255.770
40.41000 262.903
40.42000 262.962
40.43000 262.126
40.44000 260.966
40.45000 258.810
40.46000 256.584
40.47000 255.070
40.48000 264.444
40.49000 271.687
40.50000 272.112
40.51000 263.213
40.52000 254.264
40.53000 249.438
40.54000 248.211
40.55000 246.998
40.56000 249.547
40.57000 254.129
40.58000 258.459
40.59000 257.921
40.60000 255.520
40.61000 252.934
40.62000 248.524
40.63000 243.649
40.64000 239.394
40.65000 248.212
40.66000 257.590
40.67000 263.967
40.68000 258.918
40.69000 252.757
40.70000 249.396
40.71000 253.144
40.72000 257.241
40.73000 259.837
40.74000 257.271
40.75000 255.347
40.76000 254.490
40.77000 254.818
40.78000 255.142
40.79000 254.781
40.80000 253.933
40.81000 253.104
40.82000 251.635
40.83000 249.935
40.84000 248.274
40.85000 247.127
40.86000 246.142
40.87000 245.470
40.88000 247.184
40.89000 249.395
40.90000 251.258
40.91000 255.255
40.92000 258.824
40.93000 261.030
40.94000 258.970
40.95000 256.601
40.96000 254.154
40.97000 251.546
40.98000 248.933
40.99000 247.407
41.00000 245.623
41.01000 244.369
41.02000 245.662
41.03000 249.227
41.04000 252.728
41.05000 252.551
41.06000 250.231
41.07000 247.993
41.08000 247.235
41.09000 247.065
41.10000 246.671
41.11000 244.012
41.12000 240.764
41.13000 238.316
41.14000 240.690
41.15000 243.873
41.16000 246.451
41.17000 250.927
41.18000 254.728
41.19000 255.758
41.20000 249.621
41.21000 243.117
41.22000 239.214
41.23000 239.817
41.24000 240.500
41.25000 240.863
41.26000 238.048
41.27000 236.144
41.28000 236.604
41.29000 238.774
41.30000 240.889
41.31000 241.207
41.32000 240.661
41.33000 240.143
41.34000 243.305
41.35000 247.315
41.36000 250.678
41.37000 248.997
41.38000 246.244
41.39000 244.448
41.40000 247.294
41.41000 250.757
41.42000 253.439
41.43000 252.884
41.44000 252.252
41.45000 249.979
41.46000 244.197
41.47000 238.299
41.48000 237.659
41.49000 244.501
41.50000 251.397
41.51000 252.915
41.52000 249.540
41.53000 246.224
41.54000 246.555
41.55000 249.050
41.56000 251.279
41.57000 247.979
41.58000 242.482
41.59000 237.374
41.60000 240.776
41.61000 245.884
41.62000 249.859
41.63000 246.857
41.64000 242.661
41.65000 239.165
41.66000 238.444
41.67000 238.009
41.68000 237.689
41.69000 240.768
41.70000 243.288
41.71000 245.618
41.72000 247.611
41.73000 249.598
41.74000 247.224
41.75000 239.801
41.76000 232.396
41.77000 228.373
41.78000 226.857
41.79000 225.419
41.80000 226.581
41.81000 229.016
41.82000 231.604
41.83000 236.397
41.84000 241.915
41.85000 246.919
41.86000 245.690
41.87000 243.416
41.88000 241.228
41.89000 239.469
41.90000 237.768
41.91000 236.868
41.92000 238.573
41.93000 240.478
41.94000 241.798
41.95000 249.656
41.96000 255.742
41.97000 256.145
41.98000 248.300
41.99000 240.387
42.00000 236.076
42.01000 235.114
42.02000 234.161
42.03000 233.815
42.04000 233.836
42.05000 234.033
42.06000 238.031
42.07000 243.567
42.08000 248.234
42.09000 243.616
42.10000 236.489
42.11000 230.208
42.12000 233.673
42.13000 238.128
42.14000 241.289
42.15000 239.224
42.16000 236.607
42.17000 233.926
42.18000 231.073
42.19000 228.211
42.20000 226.357
42.21000 229.459
42.22000 231.802
42.23000 233.085
42.24000 233.116
42.25000 233.142
42.26000 232.571
42.27000 231.550
42.28000 230.548
42.29000 231.418
42.30000 233.159
42.31000 234.813
42.32000 235.191
42.33000 235.141
42.34000 234.698
42.35000 231.040
42.36000 226.670
42.37000 222.947
42.38000 230.036
42.39000 237.266
42.40000 241.360
42.41000 235.062
42.42000 227.938
42.43000 222.669
42.44000 221.520
42.45000 220.520
42.46000 219.922
42.47000 218.562
42.48000 217.592
42.49000 220.318
42.50000 226.554
42.51000 232.730
42.52000 234.549
42.53000 233.683
42.54000 232.843
42.55000 236.479
42.56000 241.671
42.57000 246.494
42.58000 247.259
42.59000 246.906
42.60000 245.636
42.61000 238.456
42.62000 230.219
42.63000 223.462
42.64000 225.667
42.65000 228.273
42.66000 229.780
42.67000 228.284
42.68000 226.616
42.69000 226.479
42.70000 229.152
42.71000 231.885
42.72000 233.381
42.73000 236.341
42.74000 238.368
42.75000 237.833
42.76000 235.329
42.77000 232.816
42.78000 229.981
42.79000 226.982
42.80000 224.121
42.81000 225.951
42.82000 229.135
42.83000 231.979
42.84000 231.972
42.85000 231.321
42.86000 231.622
42.87000 236.843
42.88000 242.765
42.89000 247.416
42.90000 242.910
42.91000 238.707
42.92000 234.217
42.93000 229.077
42.94000 223.912
42.95000 222.533
42.96000 226.864
42.97000 231.254
42.98000 230.237
42.99000 223.970
43.00000 217.808
43.01000 219.781
43.02000 226.870
43.03000 233.699
43.04000 234.499
43.05000 232.764
43.06000 231.141
43.07000 228.373
43.08000 225.568
43.09000 222.411
43.10000 216.936
43.11000 211.038
43.12000 207.313
43.13000 212.716
43.14000 219.135
43.15000 223.929
43.16000 221.485
43.17000 219.247
43.18000 219.891
43.19000 225.922
43.20000 232.076
43.21000 232.382
43.22000 225.485
43.23000 218.583
43.24000 217.065
43.25000 219.754
43.26000 222.498
43.27000 227.397
43.28000 233.412
43.29000 238.938
43.30000 236.659
43.31000 231.667
43.32000 227.105
43.33000 231.446
43.34000 237.120
43.35000 241.268
43.36000 237.358
43.37000 232.274
43.38000 228.176
43.39000 227.476
43.40000 227.063
43.41000 226.771
43.42000 224.507
43.43000 222.729
43.44000 221.262
43.45000 220.272
43.46000 219.288
43.47000 218.926
43.48000 219.183
43.49000 219.438
43.50000 222.334
43.51000 226.848
43.52000 231.193
43.53000 231.398
43.54000 229.832
43.55000 228.479
43.56000 229.607
43.57000 231.446
43.58000 233.080
43.59000 223.454
43.60000 213.279
43.61000 205.560
43.62000 208.369
43.63000 212.378
43.64000 216.675
43.65000 221.793
43.66000 226.960
43.67000 230.377
43.68000 221.877
43.69000 215.391
43.70000 214.740
43.71000 221.421
43.72000 228.110
43.73000 229.706
43.74000 227.228
43.75000 224.787
43.76000 222.160
43.77000 219.517
43.78000 217.039
43.79000 217.289
43.80000 218.505
43.81000 220.123
43.82000 225.301
43.83000 231.315
43.84000 236.493
43.85000 230.539
43.86000 224.088
43.87000 218.160
43.88000 214.070
43.89000 210.140
43.90000 208.498
43.91000 212.232
43.92000 216.190
43.93000 218.618
43.94000 218.170
43.95000 217.823
43.96000 218.165
43.97000 219.204
43.98000 220.218
43.99000 218.954
44.00000 216.202
44.01000 213.523
44.02000 216.284
44.03000 221.175
44.04000 225.766
44.05000 226.779
44.06000 226.747
44.07000 225.937
44.08000 219.759
44.09000 212.558
44.10000 206.582
44.11000 213.077
44.12000 219.651
44.13000 223.971
44.14000 221.767
44.15000 219.151
44.16000 216.073
44.17000 212.098
44.18000 208.099
44.19000 205.849
44.20000 221.072
44.21000 231.667
44.22000 234.779
44.23000 231.778
44.24000 228.805
44.25000 227.041
44.26000 225.928
44.27000 224.860
44.28000 224.331
44.29000 224.019
44.30000 223.875
44.31000 225.260
44.32000 227.011
44.33000 228.603
44.34000 229.322
44.35000 229.908
44.36000 230.374
44.37000 226.574
44.38000 223.204
44.39000 220.910
44.40000 221.190
44.41000 221.583
44.42000 223.587
44.43000 228.168
44.44000 232.783
44.45000 235.132
44.46000 232.704
44.47000 231.044
44.48000 226.184
44.49000 219.191
44.50000 212.533
44.51000 214.726
44.52000 220.852
44.53000 226.619
44.54000 230.333
44.55000 233.170
44.56000 235.326
44.57000 232.665
44.58000 229.066
44.59000 226.016
44.60000 225.413
44.61000 225.103
44.62000 224.868
44.63000 225.627
44.64000 226.274
44.65000 228.348
44.66000 233.243
44.67000 238.214
44.68000 240.087
44.69000 237.907
44.70000 235.711
44.71000 234.518
44.72000 234.162
44.73000 233.838
44.74000 235.013
44.75000 237.010
44.76000 239.192
44.77000 244.640
44.78000 251.289
44.79000 257.409
44.80000 263.663
44.81000 269.283
44.82000 275.201
44.83000 282.792
44.84000 290.643
44.85000 297.198
44.86000 299.023
44.87000 300.414
44.88000 301.413
44.89000 311.402
44.90000 319.354
44.91000 323.146
44.92000 320.157
44.93000 317.072
44.94000 321.215
44.95000 333.014
44.96000 344.752
44.97000 349.915
44.98000 350.601
44.99000 351.345
45.00000 353.693
45.01000 356.767
45.02000 359.501
45.03000 357.918
45.04000 355.026
45.05000 352.432
45.06000 358.967
45.07000 366.261
45.08000 370.156
45.09000 358.579
45.10000 345.101
45.11000 336.841
45.12000 344.263
45.13000 352.743
45.14000 358.464
45.15000 359.974
45.16000 361.008
45.17000 356.677
45.18000 345.182
45.19000 333.668
45.20000 333.095
45.21000 341.836
45.22000 350.467
45.23000 346.271
45.24000 335.206
45.25000 324.373
45.26000 317.781
45.27000 312.779
45.28000 308.206
45.29000 307.733
45.30000 308.282
45.31000 308.760
45.32000 301.021
45.33000 293.300
45.34000 288.134
45.35000 292.474
45.36000 297.710
45.37000 300.336
45.38000 296.482
45.39000 292.324
45.40000 289.713
45.41000 275.714
45.42000 265.470
45.43000 260.865
45.44000 262.362
45.45000 263.859
45.46000 265.033
45.47000 265.983
45.48000 266.912
45.49000 264.363
45.50000 260.388
45.51000 256.313
45.52000 250.937
45.53000 245.159
45.54000 240.159
45.55000 240.925
45.56000 242.859
45.57000 244.484
45.58000 249.042
45.59000 253.145
45.60000 256.678
45.61000 258.464
45.62000 260.128
45.63000 261.165
45.64000 260.912
45.65000 260.621
45.66000 260.453
45.67000 254.423
45.68000 250.173
45.69000 246.119
45.70000 242.235
45.71000 238.356
45.72000 234.713
45.73000 231.206
45.74000 227.827
45.75000 230.447
45.76000 235.059
45.77000 239.078
45.78000 237.296
45.79000 234.040
45.80000 231.281
45.81000 231.437
45.82000 232.069
45.83000 232.579
45.84000 233.360
45.85000 234.016
45.86000 233.933
45.87000 231.979
45.88000 229.934
45.89000 228.404
45.90000 227.746
45.91000 227.102
45.92000 226.764
45.93000 231.675
45.94000 234.950
45.95000 230.553
45.96000 220.733
45.97000 211.214
45.98000 210.863
45.99000 214.819
46.00000 218.564
46.01000 218.478
46.02000 217.289
46.03000 216.046
46.04000 214.391
46.05000 212.651
46.06000 211.316
46.07000 211.902
46.08000 212.736
46.09000 213.378
46.10000 207.760
46.11000 202.957
46.12000 199.549
46.13000 199.060
46.14000 198.662
46.15000 201.704
46.16000 209.525
46.17000 217.374
46.18000 218.183
46.19000 212.749
46.20000 207.438
46.21000 209.164
46.22000 214.972
46.23000 220.503
46.24000 220.524
46.25000 218.405
46.26000 216.441
46.27000 216.047
46.28000 216.059
46.29000 215.408
46.30000 210.772
46.31000 205.471
46.32000 202.206
46.33000 206.816
46.34000 212.210
46.35000 216.149
46.36000 205.624
46.37000 196.943
46.38000 192.516
46.39000 195.435
46.40000 198.484
46.41000 200.505
46.42000 201.366
46.43000 202.223
46.44000 202.158
46.45000 201.437
46.46000 200.827
46.47000 203.789
46.48000 208.462
46.49000 212.619
46.50000 209.577
46.51000 204.223
46.52000 199.384
46.53000 200.189
46.54000 201.946
46.55000 203.693
46.56000 205.391
46.57000 207.083
46.58000 209.163
46.59000 212.479
46.60000 215.887
46.61000 218.231
46.62000 214.458
46.63000 211.475
46.64000 209.168
46.65000 207.819
46.66000 206.478
46.67000 207.075
46.68000 209.428
46.69000 211.757
46.70000 206.497
46.71000 196.959
46.72000 187.686
46.73000 183.862
46.74000 182.195
46.75000 180.984
46.76000 184.493
46.77000 189.249
46.78000 193.424
46.79000 195.413
46.80000 196.801
46.81000 197.229
46.82000 193.868
46.83000 190.120
46.84000 189.461
46.85000 196.915
46.86000 204.797
46.87000 209.857
46.88000 197.404
46.89000 188.085
46.90000 184.393
46.91000 187.188
46.92000 189.990
46.93000 192.462
46.94000 194.692
46.95000 196.878
46.96000 197.757
46.97000 197.990
46.98000 198.002
46.99000 194.840
47.00000 190.639
47.01000 187.016
47.02000 187.991
47.03000 189.958
47.04000 191.627
47.05000 191.861
47.06000 191.894
47.07000 192.151
47.08000 193.132
47.09000 194.168
47.10000 194.600
47.11000 193.719
47.12000 192.792
47.13000 192.243
47.14000 188.544
47.15000 185.910
47.16000 184.651
47.17000 184.667
47.18000 184.731
47.19000 187.970
47.20000 193.124
47.21000 198.112
47.22000 197.292
47.23000 194.305
47.24000 191.420
47.25000 189.636
47.26000 188.148
47.27000 187.237
47.28000 189.951
47.29000 193.297
47.30000 196.029
47.31000 198.632
47.32000 200.751
47.33000 200.890
47.34000 195.731
47.35000 190.282
47.36000 188.239
47.37000 192.301
47.38000 196.487
47.39000 198.751
47.40000 195.435
47.41000 193.157
47.42000 190.688
47.43000 188.076
47.44000 185.568
47.45000 186.699
47.46000 189.639
47.47000 192.439
47.48000 186.707
47.49000 178.768
47.50000 172.046
47.51000 175.261
47.52000 180.662
47.53000 184.429
47.54000 179.946
47.55000 174.321
47.56000 169.928
47.57000 179.378
47.58000 187.786
47.59000 192.213
47.60000 187.828
47.61000 183.124
47.62000 184.417
47.63000 194.553
47.64000 204.768
47.65000 204.770
47.66000 195.111
47.67000 185.493
47.68000 178.743
47.69000 173.755
47.70000 169.250
47.71000 175.474
47.72000 186.108
47.73000 196.030
47.74000 198.581
47.75000 199.058
47.76000 199.080
47.77000 196.178
47.78000 192.755
47.79000 190.604
47.80000 193.672
47.81000 197.303
47.82000 199.998
47.83000 194.324
47.84000 189.546
47.85000 185.925
47.86000 184.417
47.87000 182.955
47.88000 183.773
47.89000 187.333
47.90000 190.889
47.91000 189.255
47.92000 183.681
47.93000 178.263
47.94000 178.629
47.95000 181.925
47.96000 185.015
47.97000 184.945
47.98000 183.802
47.99000 182.761
48.00000 180.758
48.01000 178.794
48.02000 177.760
48.03000 181.520
48.04000 185.961
48.05000 188.764
48.06000 186.053
48.07000 182.894
48.08000 180.681
48.09000 185.381
48.10000 189.134
48.11000 189.994
48.12000 186.502
48.13000 182.968
48.14000 180.617
48.15000 179.410
48.16000 178.213
48.17000 181.040
48.18000 186.294
48.19000 191.357
48.20000 191.986
48.21000 190.758
48.22000 189.561
48.23000 188.706
48.24000 187.946
48.25000 187.273
48.26000 187.843
48.27000 188.532
48.28000 189.138
48.29000 189.402
48.30000 189.627
48.31000 189.264
48.32000 187.265
48.33000 185.169
48.34000 183.795
48.35000 181.290
48.36000 179.429
48.37000 178.356
48.38000 178.247
48.39000 178.146
48.40000 179.279
48.41000 181.378
48.42000 183.442
48.43000 183.726
48.44000 183.111
48.45000 182.543
48.46000 182.710
48.47000 183.131
48.48000 183.351
48.49000 181.853
48.50000 179.960
48.51000 178.337
48.52000 179.296
48.53000 180.423
48.54000 181.499
48.55000 182.401
48.56000 183.289
48.57000 184.966
48.58000 188.453
48.59000 192.012
48.60000 194.175
48.61000 180.187
48.62000 170.076
48.63000 168.347
48.64000 174.901
48.65000 181.400
48.66000 183.363
48.67000 182.429
48.68000 181.522
48.69000 182.054
48.70000 183.144
48.71000 183.888
48.72000 180.632
48.73000 176.235
48.74000 172.599
48.75000 174.078
48.76000 176.508
48.77000 178.515
48.78000 174.139
48.79000 169.934
48.80000 167.761
48.81000 171.338
48.82000 175.264
48.83000 178.847
48.84000 181.779
48.85000 184.696
48.86000 186.319
48.87000 182.267
48.88000 179.458
48.89000 178.403
48.90000 178.746
48.91000 179.092
48.92000 179.583
48.93000 180.150
48.94000 180.692
48.95000 178.591
48.96000 175.766
48.97000 173.614
48.98000 177.388
48.99000 182.547
49.00000 187.187
49.01000 189.035
49.02000 190.468
49.03000 191.603
49.04000 185.952
49.05000 180.941
49.06000 178.441
49.07000 181.816
49.08000 185.434
49.09000 187.312
49.10000 186.470
49.11000 185.596
49.12000 185.157
49.13000 184.715
49.14000 184.406
49.15000 182.870
49.16000 180.534
49.17000 178.306
49.18000 178.796
49.19000 180.467
49.20000 182.035
49.21000 185.282
49.22000 188.688
49.23000 191.368
49.24000 189.055
49.25000 185.794
49.26000 182.135
49.27000 176.739
49.28000 171.141
49.29000 166.920
49.30000 174.012
49.31000 180.122
49.32000 184.172
49.33000 184.233
49.34000 184.194
49.35000 183.661
49.36000 182.499
49.37000 181.337
49.38000 177.552
49.39000 171.654
49.40000 165.914
49.41000 167.080
49.42000 171.947
49.43000 176.563
49.44000 176.911
49.45000 175.725
49.46000 174.637
49.47000 174.662
49.48000 174.922
49.49000 174.870
49.50000 173.113
49.51000 171.097
49.52000 169.108
49.53000 167.215
49.54000 165.331
49.55000 163.988
49.56000 162.917
49.57000 162.110
49.58000 163.926
49.59000 169.922
49.60000 175.973
49.61000 176.848
49.62000 172.383
49.63000 167.944
49.64000 168.178
49.65000 171.470
49.66000 174.711
49.67000 176.635
49.68000 177.976
49.69000 179.439
49.70000 182.387
49.71000 185.776
49.72000 188.804
49.73000 187.073
49.74000 184.762
49.75000 182.965
49.76000 183.456
49.77000 184.220
49.78000 184.467
49.79000 183.195
49.80000 181.824
49.81000 180.907
49.82000 183.861
49.83000 186.128
49.84000 187.088
49.85000 186.345
49.86000 185.593
49.87000 184.216
49.88000 182.318
49.89000 180.447
49.90000 182.642
49.91000 186.936
49.92000 190.805
49.93000 187.191
49.94000 180.836
49.95000 175.044
49.96000 174.457
49.97000 175.138
49.98000 175.728
49.99000 172.874
50.00000 169.991
50.01000 169.129
50.02000 175.609
50.03000 182.759
50.04000 186.788
50.05000 183.234
50.06000 179.341
50.07000 176.919
50.08000 176.688
50.09000 176.544
50.10000 176.353
50.11000 176.114
50.12000 175.877
50.13000 175.782
50.14000 175.784
50.15000 175.785
50.16000 176.191
50.17000 176.754
50.18000 177.501
50.19000 180.580
50.20000 184.364
50.21000 187.455
50.22000 185.546
50.23000 182.649
50.24000 180.227
50.25000 180.012
50.26000 180.057
50.27000 179.926
50.28000 179.265
50.29000 178.570
50.30000 177.416
50.31000 175.343
50.32000 173.243
50.33000 172.042
50.34000 182.492
50.35000 189.820
50.36000 192.758
50.37000 191.971
50.38000 191.241
50.39000 193.375
50.40000 197.104
50.41000 200.688
50.42000 201.740
50.43000 201.840
50.44000 202.238
50.45000 205.458
50.46000 209.378
50.47000 213.236
50.48000 216.737
50.49000 220.180
50.50000 222.942
50.51000 224.327
50.52000 225.344
50.53000 227.284
50.54000 231.504
50.55000 235.832
50.56000 240.973
50.57000 247.461
50.58000 253.969
50.59000 257.345
50.60000 254.569
50.61000 252.725
50.62000 254.697
50.63000 259.304
50.64000 263.826
50.65000 265.917
50.66000 266.891
50.67000 267.810
50.68000 266.713
50.69000 265.135
50.70000 263.277
50.71000 259.357
50.72000 255.020
50.73000 251.099
50.74000 249.099
50.75000 247.341
50.76000 245.995
50.77000 250.680
50.78000 254.707
50.79000 256.266
50.80000 252.775
50.81000 249.134
50.82000 244.248
50.83000 237.673
50.84000 231.094
50.85000 229.153
50.86000 231.226
50.87000 233.276
50.88000 234.166
50.89000 234.397
50.90000 234.344
50.91000 228.914
50.92000 221.440
50.93000 214.531
50.94000 209.637
50.95000 205.701
50.96000 202.759
50.97000 205.633
50.98000 209.452
50.99000 212.641
51.00000 213.445
51.01000 214.020
51.02000 214.437
51.03000 203.347
51.04000 194.395
51.05000 189.227
51.06000 190.446
51.07000 191.769
51.08000 191.263
51.09000 188.741
51.10000 186.229
51.11000 182.664
51.12000 178.401
51.13000 174.380
51.14000 177.629
51.15000 184.283
51.16000 190.305
51.17000 187.833
51.18000 182.695
51.19000 178.066
51.20000 177.308
51.21000 177.344
51.22000 177.106
51.23000 175.573
51.24000 173.874
51.25000 173.911
51.26000 179.345
51.27000 185.165
51.28000 189.138
51.29000 174.742
51.30000 163.548
51.31000 159.386
51.32000 164.959
51.33000 170.591
51.34000 173.530
51.35000 174.088
51.36000 174.639
51.37000 177.274
51.38000 181.023
51.39000 184.386
51.40000 180.152
51.41000 172.976
51.42000 166.557
51.43000 167.728
51.44000 170.858
51.45000 173.595
51.46000 171.964
51.47000 169.945
51.48000 168.178
51.49000 167.386
51.50000 166.690
51.51000 167.019
51.52000 169.979
51.53000 173.072
51.54000 175.041
51.55000 172.424
51.56000 170.465
51.57000 168.477
51.58000 166.455
51.59000 164.459
51.60000 166.239
51.61000 170.733
51.62000 175.133
51.63000 174.937
51.64000 172.643
51.65000 170.301
51.66000 167.303
51.67000 164.094
51.68000 161.433
51.69000 162.999
51.70000 165.455
51.71000 167.530
51.72000 163.319
51.73000 159.105
51.74000 156.757
51.75000 160.321
51.76000 164.321
51.77000 168.351
51.78000 172.446
51.79000 176.543
51.80000 178.949
51.81000 172.457
51.82000 167.837
51.83000 163.794
51.84000 160.272
51.85000 156.802
51.86000 156.452
51.87000 157.941
51.88000 159.380
51.89000 159.987
51.90000 160.250
51.91000 160.350
51.92000 158.776
51.93000 156.761
51.94000 155.582
51.95000 159.515
51.96000 164.316
51.97000 168.217
51.98000 166.817
51.99000 165.234
52.00000 164.656
52.01000 166.705
52.02000 168.891
52.03000 169.971
52.04000 169.110
52.05000 168.212
52.06000 167.732
52.07000 161.737
52.08000 157.655
52.09000 155.628
52.10000 155.105
52.11000 154.608
52.12000 154.959
52.13000 155.722
52.14000 156.447
52.15000 157.488
52.16000 158.544
52.17000 159.787
52.18000 162.512
52.19000 165.556
52.20000 168.274
52.21000 169.385
52.22000 170.280
52.23000 170.975
52.24000 168.672
52.25000 166.659
52.26000 164.364
52.27000 161.458
52.28000 158.532
52.29000 156.942
52.30000 157.278
52.31000 157.629
52.32000 159.500
52.33000 162.771
52.34000 166.012
52.35000 167.305
52.36000 167.427
52.37000 167.436
52.38000 165.050
52.39000 161.701
52.40000 158.585
52.41000 156.713
52.42000 155.324
52.43000 154.044
52.44000 153.452
52.45000 152.979
52.46000 153.002
52.47000 155.009
52.48000 157.224
52.49000 158.858
52.50000 163.901
52.51000 167.950
52.52000 169.802
52.53000 167.726
52.54000 165.572
52.55000 163.618
52.56000 161.897
52.57000 160.181
52.58000 161.109
52.59000 163.993
52.60000 166.811
52.61000 167.322
52.62000 166.691
52.63000 165.972
52.64000 163.958
52.65000 161.514
52.66000 159.294
52.67000 155.521
52.68000 151.886
52.69000 149.299
52.70000 151.975
52.71000 155.377
52.72000 158.190
52.73000 159.066
52.74000 159.790
52.75000 160.293
52.76000 158.218
52.77000 156.584
52.78000 155.268
52.79000 154.419
52.80000 153.574
52.81000 153.792
52.82000 155.011
52.83000 156.219
52.84000 158.497
52.85000 161.374
52.86000 164.045
52.87000 162.190
52.88000 158.482
52.89000 155.258
52.90000 157.294
52.91000 160.770
52.92000 163.839
52.93000 161.614
52.94000 158.884
52.95000 156.795
52.96000 157.323
52.97000 158.132
52.98000 159.117
52.99000 160.581
53.00000 162.072
53.01000 163.042
53.02000 154.986
53.03000 148.942
53.04000 148.533
53.05000 154.870
53.06000 161.198
53.07000 162.683
53.08000 160.475
53.09000 158.305
53.10000 158.347
53.11000 159.466
53.12000 160.615
53.13000 162.231
53.14000 164.005
53.15000 165.406
53.16000 163.703
53.17000 161.306
53.18000 159.259
53.19000 157.745
53.20000 156.533
53.21000 155.239
53.22000 153.671
53.23000 152.081
53.24000 152.657
53.25000 158.103
53.26000 163.731
53.27000 167.120
53.28000 169.627
53.29000 171.404
53.30000 171.174
53.31000 169.013
53.32000 166.866
53.33000 165.770
53.34000 165.329
53.35000 164.902
53.36000 165.949
53.37000 167.524
53.38000 169.112
53.39000 170.838
53.40000 172.603
53.41000 174.138
53.42000 174.169
53.43000 173.927
53.44000 173.728
53.45000 162.324
53.46000 151.938
53.47000 146.558
53.48000 155.033
53.49000 164.315
53.50000 170.752
53.51000 171.910
53.52000 172.951
53.53000 173.523
53.54000 164.983
53.55000 159.095
53.56000 156.166
53.57000 155.538
53.58000 154.949
53.59000 155.912
53.60000 157.672
53.61000 159.353
53.62000 157.923
53.63000 155.596
53.64000 153.897
53.65000 157.559
53.66000 162.445
53.67000 165.944
53.68000 162.176
53.69000 157.357
53.70000 153.563
53.71000 159.505
53.72000 164.916
53.73000 167.815
53.74000 164.966
53.75000 161.891
53.76000 159.080
53.77000 156.674
53.78000 154.272
53.79000 153.491
53.80000 154.304
53.81000 155.129
53.82000 156.908
53.83000 159.295
53.84000 161.518
53.85000 159.798
53.86000 156.402
53.87000 153.222
53.88000 151.644
53.89000 150.623
53.90000 149.958
53.91000 151.668
53.92000 153.818
53.93000 155.157
53.94000 153.049
53.95000 150.551
53.96000 148.680
53.97000 150.481
53.98000 152.060
53.99000 153.025
54.00000 152.826
54.01000 152.599
54.02000 154.186
54.03000 158.035
54.04000 161.884
54.05000 161.697
54.06000 158.321
54.07000 155.053
54.08000 156.198
54.09000 159.656
54.10000 162.760
54.11000 160.088
54.12000 155.386
54.13000 151.084
54.14000 154.908
54.15000 159.992
54.16000 163.594
54.17000 159.261
54.18000 153.755
54.19000 150.254
54.20000 153.746
54.21000 157.836
54.22000 160.734
54.23000 165.088
54.24000 168.443
54.25000 168.529
54.26000 163.526
54.27000 158.464
54.28000 155.569
54.29000 154.854
54.30000 154.143
54.31000 157.477
54.32000 163.344
54.33000 168.855
54.34000 165.471
54.35000 158.236
54.36000 151.375
54.37000 148.943
54.38000 147.794
54.39000 146.772
54.40000 149.812
54.41000 153.121
54.42000 155.793
54.43000 155.700
54.44000 155.286
54.45000 155.319
54.46000 156.638
54.47000 158.037
54.48000 158.966
54.49000 160.675
54.50000 161.952
54.51000 163.591
54.52000 165.691
54.53000 167.781
54.54000 165.713
54.55000 160.276
54.56000 154.918
54.57000 155.075
54.58000 158.083
54.59000 160.863
54.60000 159.769
54.61000 157.288
54.62000 155.377
54.63000 158.579
54.64000 162.996
54.65000 166.807
54.66000 166.201
54.67000 165.119
54.68000 164.456
54.69000 165.277
54.70000 166.229
54.71000 166.706
54.72000 166.055
54.73000 165.355
54.74000 164.924
54.75000 164.685
54.76000 164.515
54.77000 164.839
54.78000 165.670
54.79000 166.513
54.80000 168.472
54.81000 171.170
54.82000 173.799
54.83000 170.796
54.84000 165.564
54.85000 160.562
54.86000 158.364
54.87000 156.995
54.88000 155.300
54.89000 151.319
54.90000 146.898
54.91000 143.219
54.92000 151.842
54.93000 160.191
54.94000 165.633
54.95000 162.566
54.96000 158.949
54.97000 157.840
54.98000 161.653
54.99000 165.598
55.00000 167.830
55.01000 165.266
55.02000 163.475
55.03000 164.006
55.04000 166.461
55.05000 168.835
55.06000 167.494
55.07000 164.131
55.08000 160.904
55.09000 162.961
55.10000 166.688
55.11000 169.982
55.12000 169.299
55.13000 167.651
55.14000 165.553
55.15000 160.941
55.16000 155.940
55.17000 151.949
55.18000 158.218
55.19000 164.030
55.20000 167.962
55.21000 167.340
55.22000 166.516
55.23000 164.702
55.24000 161.286
55.25000 157.847
55.26000 156.086
55.27000 166.862
55.28000 174.108
55.29000 181.527
55.30000 189.063
55.31000 196.204
55.32000 192.583
55.33000 184.123
55.34000 176.151
55.35000 178.319
55.36000 183.099
55.37000 187.343
55.38000 187.740
55.39000 187.379
55.40000 187.367
55.41000 188.926
55.42000 190.677
55.43000 192.009
55.44000 202.674
55.45000 211.555
55.46000 216.225
55.47000 212.467
55.48000 208.474
55.49000 209.007
55.50000 215.539
55.51000 222.093
55.52000 229.112
55.53000 236.505
55.54000 243.879
55.55000 250.342
55.56000 256.299
55.57000 262.012
55.58000 263.294
55.59000 262.928
55.60000 262.591
55.61000 273.710
55.62000 286.203
55.63000 299.943
55.64000 320.799
55.65000 342.781
55.66000 362.383
55.67000 373.197
55.68000 383.191
55.69000 390.394
55.70000 408.831
55.71000 423.355
55.72000 441.717
55.73000 466.411
55.74000 491.198
55.75000 520.619
55.76000 555.015
55.77000 589.241
55.78000 615.024
55.79000 634.767
55.80000 654.500
55.81000 673.981
55.82000 693.345
55.83000 712.805
55.84000 733.502
55.85000 754.578
55.86000 773.507
55.87000 800.833
55.88000 826.222
55.89000 846.115
55.90000 840.682
55.91000 832.089
55.92000 827.766
55.93000 836.423
55.94000 845.975
55.95000 852.445
55.96000 844.964
55.97000 839.083
55.98000 832.966
55.99000 826.528
56.00000 820.078
56.01000 805.969
56.02000 785.257
56.03000 764.795
56.04000 746.482
56.05000 729.811
56.06000 712.908
56.07000 691.654
56.08000 668.751
56.09000 645.973
56.10000 624.408
56.11000 603.148
56.12000 584.623
56.13000 551.535
56.14000 521.248
56.15000 497.206
56.16000 496.682
56.17000 498.413
56.18000 491.278
56.19000 461.873
56.20000 431.395
56.21000 412.169
56.22000 392.098
56.23000 377.554
56.24000 362.973
56.25000 348.352
56.26000 333.731
56.27000 319.220
56.28000 304.785
56.29000 290.672
56.30000 282.007
56.31000 276.136
56.32000 270.208
56.33000 263.495
56.34000 256.538
56.35000 249.703
56.36000 243.788
56.37000 238.062
56.38000 233.244
56.39000 224.933
56.40000 217.630
56.41000 210.442
56.42000 203.612
56.43000 196.807
56.44000 195.481
56.45000 205.536
56.46000 215.943
56.47000 221.991
56.48000 208.287
56.49000 198.578
56.50000 190.752
56.51000 184.584
56.52000 178.509
56.53000 177.672
56.54000 179.851
56.55000 181.953
56.56000 182.962
56.57000 183.514
56.58000 183.835
56.59000 181.852
56.60000 179.278
56.61000 177.447
56.62000 180.046
56.63000 183.377
56.64000 186.070
56.65000 176.385
56.66000 167.516
56.67000 162.289
56.68000 166.384
56.69000 170.945
56.70000 173.304
56.71000 171.890
56.72000 170.411
56.73000 169.630
56.74000 166.537
56.75000 164.454
56.76000 165.145
56.77000 167.823
56.78000 170.337
56.79000 167.739
56.80000 162.710
56.81000 157.943
56.82000 159.460
56.83000 162.702
56.84000 164.957
56.85000 159.610
56.86000 152.668
56.87000 146.855
56.88000 146.459
56.89000 146.772
56.90000 147.014
56.91000 152.667
56.92000 157.464
56.93000 160.052
56.94000 157.966
56.95000 155.728
56.96000 152.627
56.97000 148.313
56.98000 143.992
56.99000 143.649
57.00000 146.880
57.01000 150.067
57.02000 150.624
57.03000 149.637
57.04000 148.722
57.05000 149.238
57.06000 150.317
57.07000 151.319
57.08000 153.914
57.09000 156.630
57.10000 158.712
57.11000 156.936
57.12000 154.509
57.13000 152.078
57.14000 149.635
57.15000 147.191
57.16000 145.401
57.17000 142.037
57.18000 139.377
57.19000 136.315
57.20000 132.553
57.21000 128.779
57.22000 132.951
57.23000 146.211
57.24000 159.436
57.25000 162.478
57.26000 158.124
57.27000 153.741
57.28000 148.401
57.29000 142.597
57.30000 137.250
57.31000 138.409
57.32000 141.680
57.33000 144.643
57.34000 144.939
57.35000 144.697
57.36000 144.552
57.37000 144.881
57.38000 145.273
57.39000 144.965
57.40000 142.406
57.41000 139.676
57.42000 137.792
57.43000 141.609
57.44000 144.623
57.45000 145.226
57.46000 142.369
57.47000 139.486
57.48000 137.472
57.49000 136.256
57.50000 135.053
57.51000 136.586
57.52000 139.692
57.53000 142.667
57.54000 142.894
57.55000 142.020
57.56000 141.186
57.57000 140.771
57.58000 140.468
57.59000 140.202
57.60000 144.503
57.61000 148.884
57.62000 151.732
57.63000 148.464
57.64000 144.559
57.65000 142.039
57.66000 143.195
57.67000 144.549
57.68000 145.422
57.69000 152.194
57.70000 157.226
57.71000 156.264
57.72000 148.304
57.73000 140.354
57.74000 136.349
57.75000 135.281
57.76000 134.233
57.77000 134.194
57.78000 134.637
57.79000 135.049
57.80000 135.016
57.81000 134.837
57.82000 134.854
57.83000 136.464
57.84000 138.422
57.85000 140.088
57.86000 140.975
57.87000 141.631
57.88000 142.158
57.89000 142.262
57.90000 142.334
57.91000 143.514
57.92000 147.133
57.93000 150.837
57.94000 153.046
57.95000 152.820
57.96000 152.644
57.97000 149.836
57.98000 144.559
57.99000 139.326
58.00000 137.124
58.01000 136.770
58.02000 136.427
58.03000 135.825
58.04000 135.156
58.05000 134.792
58.06000 137.734
58.07000 141.577
58.08000 144.347
58.09000 140.282
58.10000 135.010
58.11000 130.696
58.12000 135.065
58.13000 139.405
58.14000 143.055
58.15000 144.839
58.16000 146.519
58.17000 147.302
58.18000 146.459
58.19000 145.582
58.20000 145.105
58.21000 147.049
58.22000 148.376
58.23000 147.505
58.24000 144.963
58.25000 142.446
58.26000 140.861
58.27000 139.743
58.28000 138.677
58.29000 141.377
58.30000 145.056
58.31000 148.328
58.32000 148.227
58.33000 147.373
58.34000 146.823
58.35000 147.828
58.36000 149.051
58.37000 150.008
58.38000 146.849
58.39000 144.061
58.40000 141.942
58.41000 141.320
58.42000 140.754
58.43000 139.357
58.44000 136.719
58.45000 134.069
58.46000 133.575
58.47000 135.149
58.48000 136.714
58.49000 137.625
58.50000 138.129
58.51000 138.539
58.52000 136.818
58.53000 134.211
58.54000 131.775
58.55000 132.988
58.56000 135.007
58.57000 136.522
58.58000 134.754
58.59000 132.394
58.60000 130.900
58.61000 133.000
58.62000 135.494
58.63000 137.352
58.64000 135.657
58.65000 134.178
58.66000 133.233
58.67000 133.275
58.68000 133.339
58.69000 133.426
58.70000 133.540
58.71000 133.654
58.72000 135.262
58.73000 138.013
58.74000 140.752
58.75000 143.064
58.76000 145.157
58.77000 146.795
58.78000 141.292
58.79000 133.335
58.80000 126.075
58.81000 131.804
58.82000 139.507
58.83000 145.696
58.84000 143.985
58.85000 141.138
58.86000 138.456
58.87000 136.336
58.88000 134.263
58.89000 132.805
58.90000 136.209
58.91000 138.931
58.92000 140.052
58.93000 138.738
58.94000 137.397
58.95000 136.153
58.96000 135.003
58.97000 133.861
58.98000 133.702
58.99000 134.157
59.00000 134.494
59.01000 132.025
59.02000 128.367
59.03000 125.344
59.04000 129.581
59.05000 135.874
59.06000 141.459
59.07000 136.641
59.08000 130.803
59.09000 126.361
59.10000 127.830
59.11000 129.962
59.12000 132.421
59.13000 135.794
59.14000 139.221
59.15000 141.479
59.16000 139.391
59.17000 137.779
59.18000 136.021
59.19000 134.084
59.20000 132.155
59.21000 132.966
59.22000 135.943
59.23000 138.874
59.24000 138.597
59.25000 136.706
59.26000 134.803
59.27000 132.698
59.28000 130.522
59.29000 128.913
59.30000 132.241
59.31000 136.716
59.32000 140.561
59.33000 137.406
59.34000 133.864
59.35000 130.509
59.36000 127.801
59.37000 125.149
59.38000 123.409
59.39000 123.790
59.40000 124.257
59.41000 124.543
59.42000 125.823
59.43000 126.747
59.44000 128.601
59.45000 131.388
59.46000 134.158
59.47000 135.489
59.48000 135.889
59.49000 136.279
59.50000 135.438
59.51000 134.132
59.52000 132.991
59.53000 133.782
59.54000 135.131
59.55000 135.927
59.56000 132.954
59.57000 129.270
59.58000 126.220
59.59000 128.945
59.60000 131.744
59.61000 134.523
59.62000 137.245
59.63000 139.963
59.64000 140.756
59.65000 137.853
59.66000 134.857
59.67000 133.180
59.68000 132.200
59.69000 131.524
59.70000 131.274
59.71000 131.369
59.72000 131.481
59.73000 132.348
59.74000 133.615
59.75000 134.830
59.76000 136.957
59.77000 139.244
59.78000 140.693
59.79000 134.653
59.80000 126.839
59.81000 121.287
59.82000 128.043
59.83000 136.653
59.84000 143.488
59.85000 137.746
59.86000 132.236
59.87000 128.465
59.88000 128.809
59.89000 129.327
59.90000 128.876
59.91000 126.894
59.92000 124.892
59.93000 123.880
59.94000 132.047
59.95000 137.474
59.96000 139.038
59.97000 138.056
59.98000 137.027
59.99000 134.773
60.00000 131.980
60.01000 129.354
60.02000 127.719
60.03000 126.491
60.04000 125.863
60.05000 129.412
60.06000 133.765
60.07000 136.618
60.08000 132.861
60.09000 128.322
60.10000 124.889
60.11000 124.187
60.12000 123.773
60.13000 124.635
60.14000 127.991
60.15000 131.413
60.16000 133.109
60.17000 132.572
60.18000 132.027
60.19000 133.025
60.20000 135.287
60.21000 137.495
60.22000 137.295
60.23000 135.787
60.24000 134.399
60.25000 135.070
60.26000 136.489
60.27000 137.794
60.28000 135.080
60.29000 131.789
60.30000 129.417
60.31000 132.150
60.32000 135.671
60.33000 137.724
60.34000 134.483
60.35000 130.764
60.36000 128.102
60.37000 127.891
60.38000 127.813
60.39000 127.242
60.40000 125.876
60.41000 124.499
60.42000 125.428
60.43000 128.769
60.44000 132.092
60.45000 134.396
60.46000 135.996
60.47000 137.587
60.48000 138.957
60.49000 140.229
60.50000 141.239
60.51000 138.983
60.52000 135.747
60.53000 132.851
60.54000 133.933
60.55000 135.560
60.56000 136.799
60.57000 136.291
60.58000 135.571
60.59000 134.932
60.60000 134.531
60.61000 134.146
60.62000 133.887
60.63000 133.442
60.64000 133.108
60.65000 130.462
60.66000 124.765
60.67000 119.062
60.68000 118.005
60.69000 120.856
60.70000 123.670
60.71000 126.903
60.72000 130.274
60.73000 133.466
60.74000 133.449
60.75000 132.244
60.76000 130.941
60.77000 128.724
60.78000 126.282
60.79000 124.162
60.80000 127.665
60.81000 131.406
60.82000 134.071
60.83000 132.783
60.84000 131.127
60.85000 130.645
60.86000 133.046
60.87000 135.580
60.88000 137.164
60.89000 135.065
60.90000 133.511
60.91000 133.679
60.92000 135.688
60.93000 137.685
60.94000 138.222
60.95000 137.756
60.96000 137.302
60.97000 134.527
60.98000 130.858
60.99000 127.596
61.00000 129.567
61.01000 133.139
61.02000 136.081
61.03000 134.424
61.04000 131.844
61.05000 129.684
61.06000 131.475
61.07000 133.372
61.08000 134.848
61.09000 135.045
61.10000 135.154
61.11000 134.568
61.12000 132.568
61.13000 130.527
61.14000 129.354
61.15000 138.014
61.16000 144.101
61.17000 143.743
61.18000 137.849
61.19000 132.065
61.20000 131.948
61.21000 135.023
61.22000 137.983
61.23000 135.308
61.24000 130.802
61.25000 126.788
61.26000 127.529
61.27000 129.465
61.28000 131.008
61.29000 130.271
61.30000 129.166
61.31000 128.278
61.32000 127.466
61.33000 126.813
61.34000 128.065
61.35000 134.085
61.36000 140.334
61.37000 142.970
61.38000 139.551
61.39000 136.038
61.40000 134.203
61.41000 142.452
61.42000 147.979
61.43000 146.142
61.44000 139.159
61.45000 132.375
61.46000 131.484
61.47000 133.335
61.48000 135.085
61.49000 142.713
61.50000 151.406
61.51000 160.143
61.52000 169.211
61.53000 178.346
61.54000 187.611
61.55000 197.489
61.56000 207.446
61.57000 215.089
61.58000 227.114
61.59000 236.863
61.60000 245.128
61.61000 250.319
61.62000 255.417
61.63000 260.555
61.64000 265.749
61.65000 270.940
61.66000 273.777
61.67000 274.548
61.68000 275.331
61.69000 276.742
61.70000 278.513
61.71000 280.254
61.72000 281.433
61.73000 282.395
61.74000 283.286
61.75000 276.010
61.76000 267.589
61.77000 259.248
61.78000 251.389
61.79000 243.610
61.80000 233.986
61.81000 217.311
61.82000 199.944
61.83000 187.300
61.84000 181.439
61.85000 177.187
61.86000 172.832
61.87000 168.303
61.88000 163.771
61.89000 158.925
61.90000 153.727
61.91000 148.551
61.92000 144.753
61.93000 141.966
61.94000 139.286
61.95000 139.952
61.96000 142.202
61.97000 144.265
61.98000 143.768
61.99000 142.458
62.00000 141.275
62.01000 139.972
62.02000 138.805
62.03000 138.393
62.04000 141.593
62.05000 145.264
62.06000 147.659
62.07000 146.041
62.08000 144.130
62.09000 142.820
62.10000 146.193
62.11000 148.832
62.12000 147.113
62.13000 139.288
62.14000 131.427
62.15000 132.368
62.16000 141.194
62.17000 149.927
62.18000 149.155
62.19000 142.965
62.20000 137.127
62.21000 138.342
62.22000 142.322
62.23000 146.311
62.24000 150.402
62.25000 154.519
62.26000 158.127
62.27000 151.681
62.28000 144.698
62.29000 139.338
62.30000 140.311
62.31000 141.923
62.32000 143.386
62.33000 144.462
62.34000 145.518
62.35000 146.194
62.36000 143.651
62.37000 141.758
62.38000 141.372
62.39000 142.705
62.40000 144.028
62.41000 143.328
62.42000 141.157
62.43000 139.030
62.44000 138.776
62.45000 139.400
62.46000 140.004
62.47000 140.313
62.48000 140.527
62.49000 140.886
62.50000 142.380
62.51000 144.115
62.52000 145.586
62.53000 144.876
62.54000 144.039
62.55000 144.135
62.56000 147.226
62.57000 150.543
62.58000 151.496
62.59000 147.368
62.60000 143.069
62.61000 140.532
62.62000 136.639
62.63000 133.883
62.64000 130.844
62.65000 127.546
62.66000 124.350
62.67000 127.618
62.68000 134.741
62.69000 141.629
62.70000 142.813
62.71000 141.783
62.72000 140.878
62.73000 141.295
62.74000 142.064
62.75000 142.292
62.76000 139.167
62.77000 135.464
62.78000 132.448
62.79000 137.033
62.80000 141.421
62.81000 143.589
62.82000 139.879
62.83000 135.854
62.84000 134.238
62.85000 136.896
62.86000 139.636
62.87000 141.111
62.88000 138.490
62.89000 136.718
62.90000 139.314
62.91000 145.151
62.92000 150.852
62.93000 151.897
62.94000 150.654
62.95000 149.472
62.96000 148.057
62.97000 146.678
62.98000 145.604
62.99000 146.982
63.00000 148.895
63.01000 150.219
63.02000 148.607
63.03000 146.593
63.04000 145.025
63.05000 139.930
63.06000 135.654
63.07000 134.061
63.08000 138.340
63.09000 142.827
63.10000 144.978
63.11000 143.724
63.12000 142.441
63.13000 141.911
63.14000 142.086
63.15000 142.263
63.16000 142.607
63.17000 143.053
63.18000 143.511
63.19000 144.246
63.20000 145.094
63.21000 145.884
63.22000 143.540
63.23000 140.649
63.24000 137.980
63.25000 136.721
63.26000 135.708
63.27000 135.403
63.28000 137.966
63.29000 140.834
63.30000 142.956
63.31000 143.786
63.32000 144.375
63.33000 144.673
63.34000 144.445
63.35000 144.207
63.36000 144.753
63.37000 146.231
63.38000 147.706
63.39000 149.477
63.40000 151.460
63.41000 153.503
63.42000 157.742
63.43000 163.082
63.44000 167.961
63.45000 165.893
63.46000 161.490
63.47000 157.484
63.48000 152.543
63.49000 147.988
63.50000 144.812
63.51000 148.648
63.52000 153.467
63.53000 156.252
63.54000 152.268
63.55000 147.744
63.56000 144.585
63.57000 149.815
63.58000 154.000
63.59000 156.893
63.60000 157.867
63.61000 158.823
63.62000 157.071
63.63000 152.733
63.64000 148.432
63.65000 148.395
63.66000 150.953
63.67000 153.363
63.68000 152.422
63.69000 150.093
63.70000 147.867
63.71000 146.777
63.72000 146.000
63.73000 145.314
63.74000 145.895
63.75000 146.594
63.76000 147.170
63.77000 147.243
63.78000 147.260
63.79000 147.294
63.80000 147.372
63.81000 147.452
63.82000 147.505
63.83000 151.589
63.84000 154.653
63.85000 155.167
63.86000 152.590
63.87000 150.021
63.88000 151.327
63.89000 155.624
63.90000 159.848
63.91000 157.500
63.92000 151.987
63.93000 146.780
63.94000 146.347
63.95000 147.549
63.96000 149.051
63.97000 153.093
63.98000 157.711
63.99000 161.664
64.00000 158.863
64.01000 155.683
64.02000 152.686
64.03000 150.308
64.04000 147.982
64.05000 146.982
64.06000 148.998
64.07000 151.131
64.08000 152.421
64.09000 153.745
64.10000 154.689
64.11000 155.298
64.12000 155.580
64.13000 155.860
64.14000 155.947
64.15000 155.911
64.16000 155.877
64.17000 157.738
64.18000 160.264
64.19000 162.403
64.20000 160.142
64.21000 156.638
64.22000 153.516
64.23000 152.923
64.24000 152.794
64.25000 152.688
64.26000 150.138
64.27000 147.814
64.28000 146.769
64.29000 149.302
64.30000 152.049
64.31000 154.738
64.32000 157.317
64.33000 159.894
64.34000 161.321
64.35000 157.745
64.36000 155.272
64.37000 154.118
64.38000 154.004
64.39000 153.902
64.40000 154.322
64.41000 155.014
64.42000 155.674
64.43000 157.016
64.44000 158.484
64.45000 159.721
64.46000 158.949
64.47000 157.712
64.48000 156.710
64.49000 156.961
64.50000 157.396
64.51000 157.739
64.52000 158.683
64.53000 159.482
64.54000 159.987
64.55000 159.814
64.56000 159.613
64.57000 160.522
64.58000 163.146
64.59000 165.790
64.60000 166.819
64.61000 166.236
64.62000 165.703
64.63000 169.421
64.64000 175.877
64.65000 182.091
64.66000 182.361
64.67000 180.075
64.68000 177.930
64.69000 175.170
64.70000 172.494
64.71000 170.031
64.72000 169.013
64.73000 168.267
64.74000 167.517
64.75000 166.752
64.76000 165.986
64.77000 165.409
64.78000 166.140
64.79000 166.774
64.80000 167.816
64.81000 169.636
64.82000 171.476
64.83000 173.116
64.84000 174.506
64.85000 175.892
64.86000 175.391
64.87000 173.381
64.88000 171.486
64.89000 174.458
64.90000 180.012
64.91000 185.236
64.92000 184.968
64.93000 182.747
64.94000 180.710
64.95000 185.195
64.96000 190.559
64.97000 194.811
64.98000 193.040
64.99000 190.365
65.00000 188.089
65.01000 187.216
65.02000 186.465
65.03000 185.932
65.04000 191.425
65.05000 195.799
65.06000 199.865
65.07000 203.444
65.08000 207.016
65.09000 211.545
65.10000 217.048
65.11000 222.516
65.12000 224.379
65.13000 223.882
65.14000 223.536
65.15000 227.076
65.16000 232.319
65.17000 237.247
65.18000 238.371
65.19000 238.379
65.20000 238.386
65.21000 246.296
65.22000 254.496
65.23000 260.811
65.24000 258.846
65.25000 255.907
65.26000 255.516
65.27000 262.533
65.28000 270.021
65.29000 275.014
65.30000 278.292
65.31000 280.686
65.32000 284.820
65.33000 291.197
65.34000 297.584
65.35000 304.679
65.36000 312.355
65.37000 319.923
65.38000 325.176
65.39000 329.064
65.40000 333.273
65.41000 343.034
65.42000 354.805
65.43000 365.357
65.44000 364.788
65.45000 361.543
65.46000 358.737
65.47000 360.060
65.48000 361.721
65.49000 366.047
65.50000 379.951
65.51000 394.715
65.52000 406.851
65.53000 412.672
65.54000 418.216
65.55000 421.650
65.56000 420.589
65.57000 419.782
65.58000 425.419
65.59000 437.770
65.60000 450.045
65.61000 454.403
65.62000 453.459
65.63000 452.540
65.64000 460.708
65.65000 472.378
65.66000 485.004
65.67000 509.516
65.68000 537.582
65.69000 567.897
65.70000 614.192
65.71000 663.614
65.72000 704.829
65.73000 766.124
65.74000 818.952
65.75000 875.019
65.76000 940.681
65.77000 1006.975
65.78000 1062.111
65.79000 1095.076
65.80000 1127.435
65.81000 1145.852
65.82000 1176.633
65.83000 1198.112
65.84000 1212.382
65.85000 1220.612
65.86000 1228.596
65.87000 1224.782
65.88000 1214.474
65.89000 1204.571
65.90000 1184.789
65.91000 1162.858
65.92000 1140.605
65.93000 1115.340
65.94000 1089.336
65.95000 1055.169
65.96000 974.825
65.97000 887.234
65.98000 817.147
65.99000 749.424
66.00000 694.842
66.01000 641.129
66.02000 589.542
66.03000 538.053
66.04000 491.729
66.05000 453.864
66.06000 416.122
66.07000 396.658
66.08000 381.496
66.09000 371.272
66.10000 359.819
66.11000 347.526
66.12000 335.452
66.13000 329.513
66.14000 326.363
66.15000 323.392
66.16000 322.577
66.17000 322.432
66.18000 322.316
66.19000 322.406
66.20000 322.537
66.21000 322.164
66.22000 319.488
66.23000 316.527
66.24000 314.267
66.25000 336.053
66.26000 354.510
66.27000 367.732
66.28000 370.354
66.29000 372.670
66.30000 377.926
66.31000 387.127
66.32000 396.340
66.33000 406.592
66.34000 417.708
66.35000 428.859
66.36000 441.797
66.37000 455.738
66.38000 468.979
66.39000 469.249
66.40000 464.642
66.41000 460.388
66.42000 465.091
66.43000 471.319
66.44000 476.076
66.45000 472.338
66.46000 467.238
66.47000 460.535
66.48000 447.846
66.49000 434.590
66.50000 425.002
66.51000 415.049
66.52000 407.397
66.53000 397.869
66.54000 385.209
66.55000 372.501
66.56000 363.735
66.57000 359.255
66.58000 354.797
66.59000 347.146
66.60000 337.378
66.61000 327.777
66.62000 323.051
66.63000 320.584
66.64000 318.391
66.65000 319.819
66.66000 322.370
66.67000 324.666
66.68000 321.907
66.69000 318.587
66.70000 315.726
66.71000 315.009
66.72000 314.564
66.73000 314.351
66.74000 314.855
66.75000 315.409
66.76000 315.785
66.77000 313.766
66.78000 312.204
66.79000 311.507
66.80000 311.994
66.81000 312.488
66.82000 313.610
66.83000 315.280
66.84000 316.930
66.85000 319.558
66.86000 322.669
66.87000 325.758
66.88000 328.446
66.89000 330.980
66.90000 332.604
66.91000 325.253
66.92000 315.611
66.93000 307.193
66.94000 312.433
66.95000 318.835
66.96000 326.277
66.97000 337.678
66.98000 349.466
66.99000 356.484
67.00000 351.379
67.01000 345.677
67.02000 342.063
67.03000 342.794
67.04000 343.376
67.05000 347.148
67.06000 354.462
67.07000 361.717
67.08000 360.055
67.09000 352.061
67.10000 344.239
67.11000 346.816
67.12000 354.000
67.13000 361.168
67.14000 368.117
67.15000 374.998
67.16000 381.551
67.17000 385.605
67.18000 389.140
67.19000 392.121
67.20000 383.477
67.21000 374.998
67.22000 368.348
67.23000 367.432
67.24000 366.931
67.25000 365.729
67.26000 363.051
67.27000 360.327
67.28000 358.735
67.29000 372.155
67.30000 381.665
67.31000 387.275
67.32000 389.406
67.33000 391.534
67.34000 393.458
67.35000 395.262
67.36000 397.004
67.37000 404.696
67.38000 414.128
67.39000 422.020
67.40000 414.309
67.41000 402.536
67.42000 392.858
67.43000 395.826
67.44000 400.915
67.45000 405.039
67.46000 409.687
67.47000 413.517
67.48000 416.337
67.49000 416.542
67.50000 416.614
67.51000 418.815
67.52000 424.708
67.53000 430.668
67.54000 433.837
67.55000 421.430
67.56000 413.012
67.57000 410.574
67.58000 412.469
67.59000 414.283
67.60000 413.502
67.61000 411.471
67.62000 409.544
67.63000 416.670
67.64000 425.938
67.65000 434.894
67.66000 441.425
67.67000 447.441
67.68000 452.598
67.69000 453.579
67.70000 454.006
67.71000 454.336
67.72000 453.155
67.73000 452.127
67.74000 452.765
67.75000 456.971
67.76000 461.296
67.77000 462.271
67.78000 458.475
67.79000 454.644
67.80000 458.517
67.81000 469.403
67.82000 480.247
67.83000 488.460
67.84000 495.111
67.85000 501.238
67.86000 496.488
67.87000 487.411
67.88000 478.975
67.89000 485.200
67.90000 494.330
67.91000 502.544
67.92000 505.106
67.93000 506.700
67.94000 507.199
67.95000 503.362
67.96000 499.079
67.97000 495.929
67.98000 512.804
67.99000 526.679
68.00000 534.405
68.01000 531.257
68.02000 527.901
68.03000 521.762
68.04000 512.398
68.05000 503.059
68.06000 507.703
68.07000 522.565
68.08000 537.343
68.09000 549.261
68.10000 559.778
68.11000 569.234
68.12000 563.313
68.13000 552.337
68.14000 542.384
68.15000 549.132
68.16000 558.280
68.17000 565.403
68.18000 562.471
68.19000 558.170
68.20000 555.547
68.21000 558.386
68.22000 561.646
68.23000 563.905
68.24000 579.596
68.25000 591.761
68.26000 602.639
68.27000 611.647
68.28000 620.638
68.29000 625.147
68.30000 625.485
68.31000 625.819
68.32000 631.468
68.33000 640.158
68.34000 648.500
68.35000 649.338
68.36000 647.137
68.37000 645.757
68.38000 653.174
68.39000 662.972
68.40000 671.605
68.41000 675.168
68.42000 677.472
68.43000 682.061
68.44000 695.882
68.45000 710.679
68.46000 721.829
68.47000 723.179
68.48000 723.989
68.49000 724.514
68.50000 741.033
68.51000 753.358
68.52000 770.991
68.53000 794.904
68.54000 818.790
68.55000 835.064
68.56000 845.597
68.57000 855.937
68.58000 886.232
68.59000 925.068
68.60000 963.976
68.61000 1003.956
68.62000 1044.293
68.63000 1084.884
68.64000 1127.547
68.65000 1170.669
68.66000 1207.425
68.67000 1279.886
68.68000 1345.028
68.69000 1406.390
68.70000 1455.214
68.71000 1503.040
68.72000 1548.326
68.73000 1587.965
68.74000 1627.397
68.75000 1651.024
68.76000 1755.444
68.77000 1830.125
68.78000 1907.026
68.79000 1986.040
68.80000 2064.893
68.81000 2132.137
68.82000 2192.215
68.83000 2250.455
68.84000 2362.664
68.85000 2490.044
68.86000 2625.993
68.87000 2856.267
68.88000 3112.564
68.89000 3410.193
68.90000 3974.627
68.91000 4586.819
68.92000 5089.082
68.93000 6882.092
68.94000 8468.463
68.95000 10504.827
68.96000 13773.424
68.97000 17112.402
68.98000 20952.418
68.99000 25712.479
69.00000 30492.410
69.01000 33109.734
69.02000 39608.391
69.03000 44078.691
69.04000 47645.969
69.05000 50518.555
69.06000 53360.414
69.07000 55044.113
69.08000 56138.563
69.09000 57182.703
69.10000 57713.344
69.11000 58043.219
69.12000 58396.063
69.13000 58942.074
69.14000 59531.691
69.15000 60115.863
69.16000 60671.840
69.17000 61223.797
69.18000 61657.285
69.19000 60851.988
69.20000 60126.477
69.21000 58786.375
69.22000 56054.477
69.23000 53269.281
69.24000 50222.559
69.25000 46780.789
69.26000 43335.105
69.27000 40437.949
69.28000 38074.090
69.29000 35718.246
69.30000 33992.613
69.31000 32663.594
69.32000 31353.145
69.33000 30476.754
69.34000 29782.936
69.35000 29133.863
69.36000 28260.879
69.37000 27410.598
69.38000 26462.441
69.39000 24868.051
69.40000 23155.488
69.41000 21301.797
69.42000 18854.736
69.43000 16341.626
69.44000 14463.929
69.45000 11810.491
69.46000 9706.168
69.47000 7877.059
69.48000 6562.953
69.49000 5260.650
69.50000 4254.987
69.51000 3614.991
69.52000 2977.242
69.53000 2544.715
69.54000 2274.671
69.55000 2007.314
69.56000 1846.894
69.57000 1741.913
69.58000 1637.821
69.59000 1547.948
69.60000 1463.020
69.61000 1385.406
69.62000 1315.340
69.63000 1254.647
69.64000 1198.271
69.65000 1164.713
69.66000 1134.486
69.67000 1103.061
69.68000 1067.505
69.69000 1031.600
69.70000 1006.258
69.71000 977.181
69.72000 955.001
69.73000 934.622
69.74000 917.016
69.75000 899.440
69.76000 884.139
69.77000 871.097
69.78000 858.147
69.79000 843.926
69.80000 829.128
69.81000 814.521
69.82000 804.555
69.83000 796.577
69.84000 788.053
69.85000 773.160
69.86000 756.442
69.87000 741.578
69.88000 733.245
69.89000 727.072
69.90000 719.878
69.91000 708.311
69.92000 696.243
69.93000 687.557
69.94000 688.485
69.95000 690.000
69.96000 691.003
69.97000 672.673
69.98000 658.799
69.99000 652.516
70.00000 655.782
