20.00000 570.227
20.01000 561.949
20.02000 552.488
20.03000 547.668
20.04000 560.776
20.05000 575.666
20.06000 586.539
20.07000 571.780
20.08000 559.402
20.09000 554.542
20.10000 562.655
20.11000 570.994
20.12000 574.396
20.13000 572.233
20.14000 570.072
20.15000 565.659
20.16000 559.678
20.17000 554.053
20.18000 559.782
20.19000 570.943
20.20000 581.477
20.21000 583.289
20.22000 582.303
20.23000 581.411
20.24000 571.816
20.25000 561.758
20.26000 553.159
20.27000 551.615
20.28000 551.003
20.29000 552.851
20.30000 562.514
20.31000 572.758
20.32000 579.800
20.33000 568.798
20.34000 560.098
20.35000 559.640
20.36000 570.853
20.37000 582.141
20.38000 578.821
20.39000 562.272
20.40000 545.891
20.41000 543.977
20.42000 550.465
20.43000 556.623
20.44000 556.013
20.45000 552.727
20.46000 550.209
20.47000 555.632
20.48000 563.152
20.49000 569.752
20.50000 568.725
20.51000 566.727
20.52000 565.090
20.53000 564.879
20.54000 564.814
20.55000 564.036
20.56000 561.389
20.57000 558.644
20.58000 556.882
20.59000 557.117
20.60000 557.316
20.61000 558.685
20.62000 561.403
20.63000 564.094
20.64000 561.717
20.65000 555.617
20.66000 549.637
20.67000 559.617
20.68000 576.711
20.69000 592.236
20.70000 585.241
20.71000 570.883
20.72000 556.635
20.73000 543.265
20.74000 530.084
20.75000 518.901
20.76000 536.910
20.77000 555.322
20.78000 568.783
20.79000 566.210
20.80000 562.412
20.81000 561.216
20.82000 565.668
20.83000 570.314
20.84000 573.069
20.85000 558.102
20.86000 547.417
20.87000 544.729
20.88000 549.441
20.89000 554.029
20.90000 550.545
20.91000 542.200
20.92000 534.124
20.93000 537.394
20.94000 544.805
20.95000 552.151
20.96000 558.821
20.97000 565.309
20.98000 570.782
20.99000 569.890
21.00000 567.889
21.01000 566.257
21.02000 559.058
21.03000 552.691
21.04000 546.615
21.05000 541.316
21.06000 536.060
21.07000 536.026
21.08000 545.350
21.09000 554.861
21.10000 560.005
21.11000 556.658
21.12000 554.364
21.13000 553.489
21.14000 553.676
21.15000 553.918
21.16000 556.094
21.17000 559.230
21.18000 562.215
21.19000 563.259
21.20000 563.627
21.21000 563.176
21.22000 556.047
21.23000 547.449
21.24000 540.475
21.25000 541.680
21.26000 544.017
21.27000 545.841
21.28000 549.023
21.29000 551.646
21.30000 553.247
21.31000 552.587
21.32000 551.846
21.33000 553.097
21.34000 557.283
21.35000 561.494
21.36000 560.239
21.37000 553.819
21.38000 547.448
21.39000 544.634
21.40000 544.003
21.41000 543.476
21.42000 545.254
21.43000 547.979
21.44000 550.521
21.45000 556.057
21.46000 561.815
21.47000 566.041
21.48000 560.436
21.49000 553.081
21.50000 548.022
21.51000 552.369
21.52000 557.729
21.53000 561.707
21.54000 561.082
21.55000 560.394
21.56000 560.627
21.57000 562.541
21.58000 564.491
21.59000 568.323
21.60000 574.415
21.61000 580.497
21.62000 579.704
21.63000 573.690
21.64000 567.873
21.65000 569.339
21.66000 574.492
21.67000 579.608
21.68000 584.178
21.69000 588.561
21.70000 592.553
21.71000 597.739
21.72000 602.569
21.73000 608.039
21.74000 616.795
21.75000 626.017
21.76000 637.621
21.77000 657.237
21.78000 677.503
21.79000 691.697
21.80000 695.351
21.81000 697.812
21.82000 710.186
21.83000 737.449
21.84000 764.858
21.85000 782.217
21.86000 789.872
21.87000 797.465
21.88000 811.656
21.89000 829.653
21.90000 847.889
21.91000 871.616
21.92000 897.640
21.93000 922.828
21.94000 938.621
21.95000 951.787
21.96000 963.448
21.97000 973.471
21.98000 981.886
21.99000 989.835
22.00000 995.839
22.01000 1001.629
22.02000 1006.171
22.03000 1007.253
22.04000 1008.132
22.05000 1008.708
22.06000 977.526
22.07000 954.072
22.08000 937.859
22.09000 930.521
22.10000 923.180
22.11000 908.969
22.12000 889.396
22.13000 870.148
22.14000 845.070
22.15000 817.900
22.16000 791.352
22.17000 774.654
22.18000 761.362
22.19000 747.878
22.20000 732.745
22.21000 717.234
22.22000 703.935
22.23000 693.216
22.24000 684.479
22.25000 673.317
22.26000 653.844
22.27000 633.675
22.28000 619.163
22.29000 617.630
22.30000 616.611
22.31000 615.991
22.32000 612.259
22.33000 609.572
22.34000 603.177
22.35000 593.123
22.36000 583.148
22.37000 579.744
22.38000 580.533
22.39000 581.300
22.40000 573.954
22.41000 563.688
22.42000 554.539
22.43000 558.293
22.44000 565.725
22.45000 571.565
22.46000 566.714
22.47000 559.879
22.48000 554.234
22.49000 561.124
22.50000 567.973
22.51000 569.605
22.52000 556.487
22.53000 542.475
22.54000 534.281
22.55000 537.121
22.56000 540.225
22.57000 541.952
22.58000 556.698
22.59000 566.892
22.60000 567.678
22.61000 560.971
22.62000 554.302
22.63000 549.178
22.64000 544.867
22.65000 540.742
22.66000 533.621
22.67000 526.005
22.68000 519.129
22.69000 518.737
22.70000 519.860
22.71000 521.175
22.72000 523.516
22.73000 526.009
22.74000 527.982
22.75000 521.307
22.76000 515.344
22.77000 509.625
22.78000 504.477
22.79000 499.352
22.80000 500.529
22.81000 511.547
22.82000 522.681
22.83000 528.273
22.84000 528.789
22.85000 529.087
22.86000 525.080
22.87000 518.275
22.88000 512.000
22.89000 519.055
22.90000 531.899
22.91000 543.958
22.92000 539.709
22.93000 531.514
22.94000 524.169
22.95000 522.654
22.96000 522.246
22.97000 520.892
22.98000 515.424
22.99000 509.478
23.00000 504.996
23.01000 515.441
23.02000 524.354
23.03000 526.246
23.04000 514.572
23.05000 502.555
23.06000 501.039
23.07000 512.928
23.08000 524.847
23.09000 531.759
23.10000 534.588
23.11000 537.222
23.12000 531.339
23.13000 520.894
23.14000 511.275
23.15000 515.641
23.16000 525.030
23.17000 533.647
23.18000 527.571
23.19000 519.031
23.20000 510.891
23.21000 504.938
23.22000 499.318
23.23000 495.016
23.24000 495.411
23.25000 496.223
23.26000 496.802
23.27000 500.856
23.28000 504.061
23.29000 506.162
23.30000 506.508
23.31000 506.832
23.32000 509.118
23.33000 513.427
23.34000 517.710
23.35000 513.729
23.36000 504.396
23.37000 495.498
23.38000 497.977
23.39000 505.489
23.40000 512.014
23.41000 506.442
23.42000 497.288
23.43000 489.108
23.44000 488.129
23.45000 488.491
23.46000 491.226
23.47000 504.491
23.48000 519.012
23.49000 529.045
23.50000 525.906
23.51000 521.912
23.52000 519.239
23.53000 510.020
23.54000 503.054
23.55000 500.163
23.56000 502.578
23.57000 505.022
23.58000 510.253
23.59000 517.796
23.60000 525.236
23.61000 522.229
23.62000 513.765
23.63000 506.055
23.64000 511.617
23.65000 522.034
23.66000 530.022
23.67000 515.563
23.68000 495.649
23.69000 478.401
23.70000 484.261
23.71000 492.299
23.72000 497.475
23.73000 492.253
23.74000 486.085
23.75000 485.008
23.76000 496.287
23.77000 508.119
23.78000 515.479
23.79000 508.204
23.80000 502.818
23.81000 500.005
23.82000 499.905
23.83000 499.797
23.84000 498.874
23.85000 497.400
23.86000 495.962
23.87000 496.152
23.88000 497.034
23.89000 497.784
23.90000 496.866
23.91000 495.445
23.92000 494.729
23.93000 499.082
23.94000 504.438
23.95000 508.913
23.96000 508.751
23.97000 508.146
23.98000 509.133
23.99000 514.878
24.00000 520.942
24.01000 524.120
24.02000 521.506
24.03000 518.729
24.04000 517.141
24.05000 501.873
24.06000 491.182
24.07000 488.891
24.08000 493.716
24.09000 498.504
24.10000 501.437
24.11000 503.340
24.12000 505.170
24.13000 493.336
24.14000 477.474
24.15000 464.049
24.16000 473.738
24.17000 489.157
24.18000 502.363
24.19000 502.908
24.20000 501.443
24.21000 500.268
24.22000 496.606
24.23000 493.452
24.24000 490.777
24.25000 489.284
24.26000 487.846
24.27000 483.917
24.28000 475.864
24.29000 467.749
24.30000 463.542
24.31000 473.680
24.32000 480.521
24.33000 486.981
24.34000 493.176
24.35000 499.025
24.36000 494.898
24.37000 486.191
24.38000 477.967
24.39000 476.305
24.40000 476.632
24.41000 477.191
24.42000 479.455
24.43000 482.063
24.44000 484.189
24.45000 484.084
24.46000 483.699
24.47000 483.405
24.48000 484.060
24.49000 484.628
24.50000 486.154
24.51000 489.640
24.52000 493.183
24.53000 491.599
24.54000 483.063
24.55000 474.495
24.56000 472.107
24.57000 475.058
24.58000 477.947
24.59000 477.518
24.60000 475.209
24.61000 473.533
24.62000 483.828
24.63000 498.669
24.64000 512.386
24.65000 502.683
24.66000 488.656
24.67000 475.426
24.68000 466.848
24.69000 459.026
24.70000 456.325
24.71000 472.959
24.72000 491.456
24.73000 504.871
24.74000 495.128
24.75000 486.779
24.76000 481.911
24.77000 482.915
24.78000 484.012
24.79000 483.449
24.80000 481.059
24.81000 478.679
24.82000 481.649
24.83000 488.313
24.84000 494.722
24.85000 493.465
24.86000 488.621
24.87000 484.397
24.88000 488.487
24.89000 495.185
24.90000 501.219
24.91000 495.483
24.92000 488.323
24.93000 482.415
24.94000 482.419
24.95000 483.181
24.96000 482.368
24.97000 476.666
24.98000 470.615
24.99000 466.486
25.00000 473.581
25.01000 479.148
25.02000 480.508
25.03000 476.052
25.04000 471.561
25.05000 469.341
25.06000 469.127
25.07000 468.915
25.08000 474.101
25.09000 482.210
25.10000 489.833
25.11000 487.918
25.12000 482.313
25.13000 477.601
25.14000 481.815
25.15000 488.331
25.16000 494.029
25.17000 488.791
25.18000 482.748
25.19000 477.630
25.20000 476.069
25.21000 474.861
25.22000 472.195
25.23000 465.791
25.24000 459.198
25.25000 455.004
25.26000 457.747
25.27000 459.828
25.28000 463.396
25.29000 468.636
25.30000 473.897
25.31000 482.200
25.32000 492.684
25.33000 502.948
25.34000 497.554
25.35000 485.203
25.36000 473.557
25.37000 471.661
25.38000 472.881
25.39000 473.740
25.40000 471.802
25.41000 469.277
25.42000 467.144
25.43000 468.623
25.44000 470.257
25.45000 471.655
25.46000 472.305
25.47000 472.901
25.48000 472.049
25.49000 468.127
25.50000 464.105
25.51000 461.744
25.52000 465.182
25.53000 467.633
25.54000 468.472
25.55000 467.859
25.56000 467.239
25.57000 466.193
25.58000 464.894
25.59000 463.640
25.60000 458.110
25.61000 451.307
25.62000 445.893
25.63000 454.745
25.64000 467.350
25.65000 477.856
25.66000 475.554
25.67000 471.079
25.68000 467.445
25.69000 474.925
25.70000 481.948
25.71000 485.022
25.72000 477.768
25.73000 469.976
25.74000 466.575
25.75000 470.867
25.76000 475.302
25.77000 477.672
25.78000 471.189
25.79000 466.783
25.80000 466.073
25.81000 468.069
25.82000 470.118
25.83000 473.931
25.84000 478.602
25.85000 483.039
25.86000 479.397
25.87000 473.605
25.88000 468.687
25.89000 470.687
25.90000 474.174
25.91000 476.841
25.92000 475.481
25.93000 473.580
25.94000 472.104
25.95000 473.809
25.96000 475.358
25.97000 477.460
25.98000 480.759
25.99000 484.099
26.00000 482.611
26.01000 474.177
26.02000 465.689
26.03000 462.400
26.04000 463.899
26.05000 465.452
26.06000 470.463
26.07000 477.549
26.08000 484.167
26.09000 480.876
26.10000 473.607
26.11000 466.842
26.12000 462.933
26.13000 460.093
26.14000 457.646
26.15000 457.658
26.16000 458.096
26.17000 459.947
26.18000 467.456
26.19000 475.556
26.20000 481.528
26.21000 462.985
26.22000 447.594
26.23000 440.528
26.24000 448.328
26.25000 456.421
26.26000 466.769
26.27000 479.759
26.28000 492.715
26.29000 490.302
26.30000 476.513
26.31000 463.064
26.32000 461.471
26.33000 465.746
26.34000 469.512
26.35000 465.800
26.36000 459.605
26.37000 453.979
26.38000 455.888
26.39000 459.033
26.40000 460.138
26.41000 451.006
26.42000 440.463
26.43000 433.054
26.44000 435.950
26.45000 439.653
26.46000 442.228
26.47000 449.781
26.48000 455.610
26.49000 460.354
26.50000 463.508
26.51000 466.647
26.52000 470.067
26.53000 473.751
26.54000 477.403
26.55000 473.468
26.56000 465.058
26.57000 456.929
26.58000 454.991
26.59000 455.586
26.60000 455.831
26.61000 452.264
26.62000 447.655
26.63000 443.587
26.64000 440.734
26.65000 438.459
26.66000 437.063
26.67000 439.260
26.68000 441.842
26.69000 444.446
26.70000 447.107
26.71000 449.772
26.72000 451.504
26.73000 466.482
26.74000 477.662
26.75000 479.773
26.76000 471.042
26.77000 462.303
26.78000 456.536
26.79000 453.035
26.80000 449.596
26.81000 447.104
26.82000 445.159
26.83000 443.621
26.84000 448.271
26.85000 455.016
26.86000 461.519
26.87000 466.016
26.88000 470.064
26.89000 473.521
26.90000 476.034
26.91000 478.038
26.92000 478.258
26.93000 472.500
26.94000 466.259
26.95000 460.804
26.96000 457.114
26.97000 453.490
26.98000 451.310
26.99000 439.663
27.00000 431.315
27.01000 435.734
27.02000 452.434
27.03000 468.926
27.04000 469.691
27.05000 460.650
27.06000 451.879
27.07000 446.524
27.08000 442.798
27.09000 439.514
27.10000 441.163
27.11000 444.187
27.12000 447.982
27.13000 456.810
27.14000 466.549
27.15000 474.555
27.16000 464.163
27.17000 453.962
27.18000 445.085
27.19000 439.871
27.20000 434.871
27.21000 434.004
27.22000 440.801
27.23000 447.769
27.24000 451.603
27.25000 447.650
27.26000 444.916
27.27000 442.787
27.28000 441.127
27.29000 439.508
27.30000 439.485
27.31000 440.283
27.32000 441.045
27.33000 443.330
27.34000 445.942
27.35000 448.093
27.36000 446.323
27.37000 443.659
27.38000 441.505
27.39000 442.024
27.40000 442.928
27.41000 443.639
27.42000 443.410
27.43000 443.165
27.44000 443.070
27.45000 443.321
27.46000 443.586
27.47000 442.422
27.48000 439.077
27.49000 435.709
27.50000 438.658
27.51000 447.817
27.52000 456.880
27.53000 458.099
27.54000 454.332
27.55000 450.666
27.56000 449.438
27.57000 449.246
27.58000 449.066
27.59000 448.888
27.60000 448.727
27.61000 447.953
27.62000 443.088
27.63000 437.467
27.64000 432.890
27.65000 432.746
27.66000 433.103
27.67000 433.371
27.68000 434.075
27.69000 434.646
27.70000 436.528
27.71000 440.888
27.72000 445.307
27.73000 448.924
27.74000 451.543
27.75000 454.154
27.76000 453.157
27.77000 449.315
27.78000 445.375
27.79000 437.375
27.80000 427.250
27.81000 417.853
27.82000 420.314
27.83000 426.939
27.84000 433.001
27.85000 440.305
27.86000 447.056
27.87000 452.329
27.88000 449.698
27.89000 445.900
27.90000 442.093
27.91000 438.256
27.92000 434.416
27.93000 431.698
27.94000 439.133
27.95000 445.098
27.96000 448.001
27.97000 446.139
27.98000 444.222
27.99000 441.950
28.00000 439.322
28.01000 436.712
28.02000 430.833
28.03000 422.956
28.04000 415.676
28.05000 423.260
28.06000 437.276
28.07000 450.124
28.08000 449.172
28.09000 444.222
28.10000 439.815
28.11000 438.336
28.12000 437.532
28.13000 436.996
28.14000 437.624
28.15000 438.386
28.16000 440.132
28.17000 444.701
28.18000 449.447
28.19000 452.596
28.20000 451.549
28.21000 450.697
28.22000 449.049
28.23000 446.389
28.24000 443.729
28.25000 442.413
28.26000 442.187
28.27000 441.963
28.28000 444.291
28.29000 447.869
28.30000 451.347
28.31000 453.127
28.32000 454.301
28.33000 454.589
28.34000 446.942
28.35000 437.412
28.36000 429.191
28.37000 427.619
28.38000 427.137
28.39000 428.472
28.40000 436.253
28.41000 444.602
28.42000 451.003
28.43000 452.782
28.44000 454.365
28.45000 455.340
28.46000 445.951
28.47000 439.119
28.48000 437.444
28.49000 441.066
28.50000 444.657
28.51000 445.149
28.52000 443.594
28.53000 442.079
28.54000 431.001
28.55000 416.421
28.56000 403.152
28.57000 405.863
28.58000 413.290
28.59000 420.525
28.60000 426.420
28.61000 432.056
28.62000 436.744
28.63000 431.297
28.64000 425.792
28.65000 423.894
28.66000 432.547
28.67000 441.879
28.68000 445.355
28.69000 437.336
28.70000 429.015
28.71000 424.307
28.72000 421.534
28.73000 419.619
28.74000 421.761
28.75000 427.255
28.76000 432.593
28.77000 430.759
28.78000 425.025
28.79000 419.522
28.80000 424.109
28.81000 431.837
28.82000 438.380
28.83000 434.040
28.84000 427.064
28.85000 420.376
28.86000 415.296
28.87000 410.465
28.88000 406.611
28.89000 415.803
28.90000 424.177
28.91000 430.282
28.92000 430.900
28.93000 431.274
28.94000 431.779
28.95000 432.496
28.96000 433.216
28.97000 433.585
28.98000 424.792
28.99000 418.942
29.00000 419.437
29.01000 424.209
29.02000 428.654
29.03000 424.219
29.04000 415.796
29.05000 407.859
29.06000 411.906
29.07000 418.911
29.08000 425.426
29.09000 428.429
29.10000 430.741
29.11000 431.698
29.12000 426.549
29.13000 420.657
29.14000 416.174
29.15000 421.735
29.16000 426.636
29.17000 429.027
29.18000 426.401
29.19000 423.636
29.20000 422.008
29.21000 421.887
29.22000 421.773
29.23000 424.171
29.24000 428.679
29.25000 433.027
29.26000 429.609
29.27000 421.886
29.28000 414.470
29.29000 412.592
29.30000 412.771
29.31000 412.936
29.32000 412.164
29.33000 411.266
29.34000 411.031
29.35000 414.572
29.36000 418.710
29.37000 421.696
29.38000 420.430
29.39000 418.767
29.40000 417.570
29.41000 423.072
29.42000 427.524
29.43000 427.074
29.44000 418.544
29.45000 409.893
29.46000 409.407
29.47000 417.674
29.48000 425.903
29.49000 427.337
29.50000 424.140
29.51000 420.988
29.52000 419.105
29.53000 417.804
29.54000 416.596
29.55000 416.588
29.56000 416.949
29.57000 417.273
29.58000 419.058
29.59000 420.876
29.60000 421.759
29.61000 418.332
29.62000 414.368
29.63000 411.875
29.64000 413.849
29.65000 416.131
29.66000 417.675
29.67000 419.390
29.68000 420.672
29.69000 424.545
29.70000 431.920
29.71000 439.299
29.72000 436.638
29.73000 425.325
29.74000 414.150
29.75000 409.241
29.76000 407.905
29.77000 407.034
29.78000 414.869
29.79000 425.999
29.80000 436.673
29.81000 442.938
29.82000 448.091
29.83000 452.580
29.84000 459.921
29.85000 466.586
29.86000 472.688
29.87000 476.669
29.88000 480.446
29.89000 482.441
29.90000 479.963
29.91000 477.270
29.92000 475.572
29.93000 470.023
29.94000 465.960
29.95000 467.710
29.96000 475.824
29.97000 483.832
29.98000 477.315
29.99000 460.619
30.00000 444.295
30.01000 445.232
30.02000 453.842
30.03000 462.158
30.04000 466.554
30.05000 469.725
30.06000 472.038
30.07000 467.915
30.08000 462.470
30.09000 457.889
30.10000 458.425
30.11000 459.417
30.12000 459.185
30.13000 455.169
30.14000 450.885
30.15000 450.866
30.16000 459.702
30.17000 468.811
30.18000 474.102
30.19000 465.308
30.20000 459.076
30.21000 457.323
30.22000 459.508
30.23000 461.585
30.24000 457.642
30.25000 450.235
30.26000 443.092
30.27000 441.656
30.28000 442.374
30.29000 443.236
30.30000 445.542
30.31000 448.219
30.32000 450.176
30.33000 447.854
30.34000 444.824
30.35000 442.375
30.36000 445.999
30.37000 449.433
30.38000 451.224
30.39000 448.815
30.40000 446.196
30.41000 443.949
30.42000 442.339
30.43000 440.740
30.44000 439.896
30.45000 438.017
30.46000 436.739
30.47000 435.364
30.48000 433.920
30.49000 432.625
30.50000 436.021
30.51000 441.645
30.52000 446.975
30.53000 452.643
30.54000 457.963
30.55000 462.569
30.56000 461.680
30.57000 459.640
30.58000 458.461
30.59000 461.407
30.60000 464.893
30.61000 467.584
30.62000 464.328
30.63000 461.401
30.64000 458.452
30.65000 455.455
30.66000 452.457
30.67000 455.779
30.68000 467.984
30.69000 480.246
30.70000 482.545
30.71000 475.900
30.72000 469.301
30.73000 465.452
30.74000 463.217
30.75000 461.177
30.76000 463.079
30.77000 466.530
30.78000 469.733
30.79000 480.313
30.80000 491.590
30.81000 501.099
30.82000 499.858
30.83000 496.802
30.84000 496.696
30.85000 508.132
30.86000 520.736
30.87000 529.969
30.88000 537.487
30.89000 543.223
30.90000 551.039
30.91000 562.485
30.92000 573.997
30.93000 584.512
30.94000 593.888
30.95000 603.229
30.96000 610.689
30.97000 616.724
30.98000 623.355
30.99000 649.585
31.00000 685.299
31.01000 721.002
31.02000 756.557
31.03000 792.065
31.04000 824.210
31.05000 880.840
31.06000 935.339
31.07000 992.047
31.08000 1059.570
31.09000 1128.543
31.10000 1204.800
31.11000 1304.474
31.12000 1405.918
31.13000 1475.933
31.14000 1617.513
31.15000 1725.723
31.16000 1854.484
31.17000 2012.706
31.18000 2171.157
31.19000 2326.173
31.20000 2478.038
31.21000 2628.433
31.22000 2808.083
31.23000 3001.121
31.24000 3192.545
31.25000 3350.052
31.26000 3493.987
31.27000 3638.307
31.28000 3786.680
31.29000 3936.135
31.30000 4067.567
31.31000 4135.436
31.32000 4184.388
31.33000 4241.832
31.34000 4333.146
31.35000 4427.976
31.36000 4486.923
31.37000 4450.625
31.38000 4409.204
31.39000 4382.504
31.40000 4266.774
31.41000 4180.987
31.42000 4093.797
31.43000 4004.970
31.44000 3915.927
31.45000 3786.197
31.46000 3626.202
31.47000 3469.250
31.48000 3290.600
31.49000 3108.146
31.50000 2926.310
31.51000 2753.543
31.52000 2583.775
31.53000 2415.197
31.54000 2256.221
31.55000 2099.341
31.56000 1965.934
31.57000 1836.786
31.58000 1728.811
31.59000 1618.831
31.60000 1502.280
31.61000 1385.217
31.62000 1275.011
31.63000 1179.858
31.64000 1085.241
31.65000 1028.858
31.66000 976.477
31.67000 939.378
31.68000 894.889
31.69000 843.471
31.70000 792.322
31.71000 759.729
31.72000 738.445
31.73000 717.831
31.74000 689.737
31.75000 660.277
31.76000 631.787
31.77000 613.770
31.78000 598.605
31.79000 584.014
31.80000 573.069
31.81000 562.768
31.82000 554.339
31.83000 534.157
31.84000 516.596
31.85000 501.113
31.86000 491.250
31.87000 481.702
31.88000 474.976
31.89000 473.369
31.90000 471.868
31.91000 471.051
31.92000 472.690
31.93000 473.796
31.94000 470.198
31.95000 463.028
31.96000 455.965
31.97000 452.764
31.98000 451.504
31.99000 450.304
32.00000 449.229
32.01000 448.271
32.02000 446.272
32.03000 435.662
32.04000 423.133
32.05000 414.815
32.06000 427.989
32.07000 444.181
32.08000 456.858
32.09000 450.426
32.10000 444.063
32.11000 437.811
32.12000 431.806
32.13000 425.811
32.14000 419.895
32.15000 414.096
32.16000 408.300
32.17000 401.956
32.18000 395.090
32.19000 388.368
32.20000 392.334
32.21000 402.941
32.22000 413.245
32.23000 416.675
32.24000 417.248
32.25000 417.784
32.26000 414.460
32.27000 410.473
32.28000 406.912
32.29000 406.124
32.30000 405.837
32.31000 406.546
32.32000 411.388
32.33000 416.683
32.34000 420.625
32.35000 412.876
32.36000 406.320
32.37000 401.540
32.38000 400.043
32.39000 398.619
32.40000 399.595
32.41000 403.489
32.42000 407.382
32.43000 407.099
32.44000 403.604
32.45000 400.008
32.46000 392.512
32.47000 383.021
32.48000 374.334
32.49000 378.225
32.50000 386.436
32.51000 393.926
32.52000 399.481
32.53000 404.018
32.54000 407.277
32.55000 403.875
32.56000 399.515
32.57000 393.788
32.58000 383.409
32.59000 372.646
32.60000 365.079
32.61000 386.497
32.62000 403.575
32.63000 410.377
32.64000 401.558
32.65000 392.576
32.66000 389.632
32.67000 392.599
32.68000 395.543
32.69000 398.691
32.70000 401.911
32.71000 404.790
32.72000 399.571
32.73000 390.926
32.74000 383.825
32.75000 394.380
32.76000 409.933
32.77000 423.733
32.78000 426.017
32.79000 426.157
32.80000 431.773
32.81000 460.558
32.82000 491.945
32.83000 519.817
32.84000 537.821
32.85000 555.234
32.86000 566.699
32.87000 595.603
32.88000 617.193
32.89000 633.405
32.90000 642.940
32.91000 652.455
32.92000 661.290
32.93000 669.589
32.94000 677.756
32.95000 674.496
32.96000 665.567
32.97000 656.828
32.98000 651.174
32.99000 646.601
33.00000 642.265
33.01000 639.997
33.02000 638.209
33.03000 636.672
33.04000 617.285
33.05000 598.663
33.06000 577.792
33.07000 549.119
33.08000 519.782
33.09000 495.593
33.10000 483.358
33.11000 471.606
33.12000 464.432
33.13000 432.555
33.14000 409.557
33.15000 398.251
33.16000 398.644
33.17000 398.981
33.18000 394.367
33.19000 386.556
33.20000 378.959
33.21000 378.861
33.22000 381.844
33.23000 384.622
33.24000 384.999
33.25000 384.683
33.26000 383.389
33.27000 375.431
33.28000 366.220
33.29000 358.593
33.30000 361.324
33.31000 364.563
33.32000 365.098
33.33000 357.904
33.34000 350.231
33.35000 346.145
33.36000 348.942
33.37000 351.910
33.38000 353.571
33.39000 353.456
33.40000 353.366
33.41000 351.072
33.42000 347.001
33.43000 342.987
33.44000 341.442
33.45000 341.210
33.46000 340.987
33.47000 350.279
33.48000 362.108
33.49000 372.103
33.50000 365.729
33.51000 355.484
33.52000 347.288
33.53000 350.235
33.54000 354.859
33.55000 358.529
33.56000 352.118
33.57000 346.248
33.58000 341.854
33.59000 340.952
33.60000 340.198
33.61000 342.995
33.62000 351.402
33.63000 359.879
33.64000 364.165
33.65000 363.320
33.66000 362.716
33.67000 358.317
33.68000 351.420
33.69000 344.619
33.70000 340.299
33.71000 337.070
33.72000 334.035
33.73000 342.161
33.74000 352.578
33.75000 361.757
33.76000 362.312
33.77000 361.212
33.78000 359.857
33.79000 357.387
33.80000 354.785
33.81000 352.818
33.82000 345.126
33.83000 338.807
33.84000 336.127
33.85000 340.562
33.86000 345.183
33.87000 347.959
33.88000 348.351
33.89000 348.733
33.90000 346.938
33.91000 343.362
33.92000 339.847
33.93000 339.103
33.94000 339.859
33.95000 340.343
33.96000 336.111
33.97000 330.166
33.98000 324.701
33.99000 328.374
34.00000 333.621
34.01000 337.957
34.02000 337.231
34.03000 335.726
34.04000 334.879
34.05000 336.403
34.06000 338.142
34.07000 339.386
34.08000 342.122
34.09000 344.261
34.10000 346.535
34.11000 349.026
34.12000 351.520
34.13000 350.576
34.14000 346.039
34.15000 341.528
34.16000 341.809
34.17000 345.263
34.18000 348.519
34.19000 346.449
34.20000 341.995
34.21000 337.930
34.22000 338.714
34.23000 340.951
34.24000 342.954
34.25000 337.701
34.26000 331.877
34.27000 327.657
34.28000 330.649
34.29000 334.514
34.30000 337.563
34.31000 338.189
34.32000 338.655
34.33000 338.968
34.34000 340.608
34.35000 341.854
34.36000 339.763
34.37000 333.272
34.38000 326.764
34.39000 322.455
34.40000 319.994
34.41000 317.566
34.42000 322.706
34.43000 331.775
34.44000 340.515
34.45000 343.357
34.46000 344.017
34.47000 344.160
34.48000 339.459
34.49000 333.566
34.50000 328.451
34.51000 326.214
34.52000 324.695
34.53000 323.234
34.54000 321.990
34.55000 320.766
34.56000 319.379
34.57000 317.593
34.58000 315.788
34.59000 314.660
34.60000 323.075
34.61000 329.247
34.62000 333.563
34.63000 335.897
34.64000 338.227
34.65000 340.151
34.66000 341.796
34.67000 343.403
34.68000 340.672
34.69000 336.168
34.70000 331.682
34.71000 327.418
34.72000 323.223
34.73000 319.816
34.74000 322.167
34.75000 325.670
34.76000 328.604
34.77000 327.051
34.78000 325.297
34.79000 324.499
34.80000 326.597
34.81000 328.893
34.82000 330.189
34.83000 329.454
34.84000 328.660
34.85000 328.204
34.86000 330.042
34.87000 331.329
34.88000 327.911
34.89000 320.457
34.90000 313.180
34.91000 315.048
34.92000 322.062
34.93000 328.812
34.94000 329.644
34.95000 328.331
34.96000 327.603
34.97000 332.514
34.98000 338.841
34.99000 343.196
35.00000 336.125
35.01000 327.214
35.02000 320.049
35.03000 324.733
35.04000 329.446
35.05000 330.877
35.06000 324.098
35.07000 316.927
35.08000 312.120
35.09000 311.271
35.10000 310.483
35.11000 310.072
35.12000 317.275
35.13000 322.146
35.14000 326.667
35.15000 330.944
35.16000 334.968
35.17000 331.530
35.18000 324.624
35.19000 318.095
35.20000 319.421
35.21000 322.887
35.22000 325.414
35.23000 320.933
35.24000 315.018
35.25000 310.739
35.26000 314.115
35.27000 318.464
35.28000 321.802
35.29000 314.049
35.30000 307.303
35.31000 302.593
35.32000 302.094
35.33000 301.723
35.34000 302.095
35.35000 303.487
35.36000 304.883
35.37000 308.540
35.38000 314.167
35.39000 319.690
35.40000 319.551
35.41000 316.164
35.42000 313.056
35.43000 315.335
35.44000 319.684
35.45000 323.709
35.46000 321.289
35.47000 317.631
35.48000 314.884
35.49000 317.536
35.50000 321.077
35.51000 323.436
35.52000 321.275
35.53000 318.672
35.54000 316.778
35.55000 316.984
35.56000 317.223
35.57000 313.185
35.58000 301.848
35.59000 290.387
35.60000 288.877
35.61000 298.451
35.62000 307.995
35.63000 314.575
35.64000 319.000
35.65000 323.200
35.66000 320.416
35.67000 314.327
35.68000 308.642
35.69000 308.488
35.70000 310.088
35.71000 311.532
35.72000 311.340
35.73000 310.871
35.74000 311.225
35.75000 315.510
35.76000 320.307
35.77000 322.750
35.78000 317.792
35.79000 312.295
35.80000 308.530
35.81000 309.574
35.82000 310.472
35.83000 308.961
35.84000 304.076
35.85000 299.173
35.86000 299.397
35.87000 304.210
35.88000 308.971
35.89000 306.969
35.90000 301.147
35.91000 295.731
35.92000 298.465
35.93000 304.389
35.94000 309.963
35.95000 311.977
35.96000 313.061
35.97000 314.011
35.98000 311.855
35.99000 309.557
36.00000 307.517
36.01000 306.482
36.02000 305.549
36.03000 304.885
36.04000 304.921
36.05000 304.994
36.06000 305.040
36.07000 301.974
36.08000 299.701
36.09000 299.221
36.10000 300.779
36.11000 302.348
36.12000 305.208
36.13000 309.005
36.14000 312.725
36.15000 317.356
36.16000 322.231
36.17000 326.326
36.18000 319.410
36.19000 308.934
36.20000 299.510
36.21000 298.332
36.22000 298.912
36.23000 299.403
36.24000 302.497
36.25000 305.379
36.26000 305.673
36.27000 297.674
36.28000 289.052
36.29000 286.861
36.30000 298.474
36.31000 310.552
36.32000 317.678
36.33000 307.797
36.34000 300.730
36.35000 298.412
36.36000 300.432
36.37000 302.456
36.38000 304.708
36.39000 307.097
36.40000 309.407
36.41000 312.403
36.42000 315.490
36.43000 318.429
36.44000 319.813
36.45000 320.784
36.46000 320.831
36.47000 315.158
36.48000 308.501
36.49000 303.080
36.50000 305.717
36.51000 308.551
36.52000 312.028
36.53000 317.206
36.54000 322.474
36.55000 322.739
36.56000 314.137
36.57000 305.364
36.58000 300.645
36.59000 298.675
36.60000 297.340
36.61000 297.580
36.62000 298.987
36.63000 300.329
36.64000 299.461
36.65000 297.506
36.66000 295.647
36.67000 297.256
36.68000 299.800
36.69000 302.469
36.70000 306.152
36.71000 310.055
36.72000 312.850
36.73000 310.128
36.74000 306.652
36.75000 303.946
36.76000 303.987
36.77000 304.188
36.78000 305.216
36.79000 308.052
36.80000 310.952
36.81000 312.040
36.82000 310.490
36.83000 308.917
36.84000 307.826
36.85000 307.186
36.86000 306.613
36.87000 310.625
36.88000 317.420
36.89000 323.697
36.90000 318.709
36.91000 309.146
36.92000 300.235
36.93000 299.875
36.94000 301.649
36.95000 303.455
36.96000 305.455
36.97000 307.490
36.98000 309.522
36.99000 311.541
37.00000 313.559
37.01000 315.053
37.02000 314.824
37.03000 314.573
37.04000 313.829
37.05000 312.195
37.06000 310.542
37.07000 306.633
37.08000 300.047
37.09000 293.473
37.10000 296.573
37.11000 306.919
37.12000 316.884
37.13000 313.148
37.14000 302.553
37.15000 292.292
37.16000 287.074
37.17000 283.548
37.18000 280.342
37.19000 286.915
37.20000 294.649
37.21000 301.458
37.22000 303.566
37.23000 305.016
37.24000 304.390
37.25000 296.856
37.26000 288.770
37.27000 283.126
37.28000 289.848
37.29000 295.267
37.30000 298.875
37.31000 299.789
37.32000 300.679
37.33000 299.826
37.34000 297.312
37.35000 294.819
37.36000 290.726
37.37000 285.735
37.38000 281.017
37.39000 282.452
37.40000 286.435
37.41000 290.537
37.42000 295.959
37.43000 301.747
37.44000 306.865
37.45000 302.681
37.46000 297.623
37.47000 293.103
37.48000 290.806
37.49000 288.752
37.50000 289.405
37.51000 297.494
37.52000 306.010
37.53000 311.570
37.54000 300.793
37.55000 292.621
37.56000 289.382
37.57000 292.119
37.58000 294.860
37.59000 295.212
37.60000 293.722
37.61000 292.258
37.62000 290.798
37.63000 289.390
37.64000 288.087
37.65000 288.417
37.66000 289.305
37.67000 290.462
37.68000 293.882
37.69000 297.815
37.70000 301.181
37.71000 299.243
37.72000 296.969
37.73000 295.421
37.74000 296.338
37.75000 297.457
37.76000 295.543
37.77000 286.740
37.78000 277.671
37.79000 272.187
37.80000 281.341
37.81000 287.971
37.82000 289.158
37.83000 285.039
37.84000 280.981
37.85000 281.856
37.86000 285.842
37.87000 289.712
37.88000 295.878
37.89000 302.649
37.90000 308.291
37.91000 301.094
37.92000 290.277
37.93000 281.243
37.94000 284.018
37.95000 288.960
37.96000 293.033
37.97000 299.692
37.98000 305.409
37.99000 308.019
38.00000 301.938
38.01000 295.340
38.02000 289.954
38.03000 286.840
38.04000 283.779
38.05000 282.084
38.06000 289.362
38.07000 294.401
38.08000 299.272
38.09000 304.011
38.10000 308.701
38.11000 311.454
38.12000 313.198
38.13000 314.866
38.14000 314.612
38.15000 313.752
38.16000 312.774
38.17000 310.772
38.18000 308.533
38.19000 307.965
38.20000 316.253
38.21000 325.837
38.22000 333.404
38.23000 335.388
38.24000 336.602
38.25000 337.747
38.26000 338.734
38.27000 339.715
38.28000 340.715
38.29000 341.746
38.30000 342.777
38.31000 348.402
38.32000 358.603
38.33000 368.704
38.34000 370.155
38.35000 366.039
38.36000 362.358
38.37000 369.334
38.38000 380.890
38.39000 391.726
38.40000 409.688
38.41000 427.912
38.42000 445.148
38.43000 455.694
38.44000 464.986
38.45000 476.885
38.46000 499.995
38.47000 524.391
38.48000 542.726
38.49000 564.446
38.50000 581.591
38.51000 599.592
38.52000 619.230
38.53000 638.908
38.54000 655.726
38.55000 668.935
38.56000 682.110
38.57000 700.694
38.58000 723.529
38.59000 746.394
38.60000 770.577
38.61000 795.458
38.62000 820.086
38.63000 840.508
38.64000 859.435
38.65000 876.781
38.66000 874.620
38.67000 868.603
38.68000 863.708
38.69000 864.888
38.70000 866.979
38.71000 866.935
38.72000 859.372
38.73000 851.154
38.74000 845.313
38.75000 796.321
38.76000 757.649
38.77000 733.971
38.78000 733.903
38.79000 734.124
38.80000 718.866
38.81000 687.844
38.82000 657.019
38.83000 627.460
38.84000 599.148
38.85000 570.953
38.86000 545.759
38.87000 521.880
38.88000 498.389
38.89000 479.592
38.90000 462.169
38.91000 446.628
38.92000 434.952
38.93000 425.438
38.94000 415.512
38.95000 403.782
38.96000 391.840
38.97000 380.984
38.98000 373.279
38.99000 365.775
39.00000 360.773
39.01000 361.336
39.02000 361.859
39.03000 357.098
39.04000 345.535
39.05000 333.945
39.06000 322.213
39.07000 310.364
39.08000 298.684
39.09000 297.906
39.10000 302.866
39.11000 307.153
39.12000 299.850
39.13000 288.352
39.14000 277.816
39.15000 276.037
39.16000 276.363
39.17000 276.645
39.18000 280.795
39.19000 284.825
39.20000 288.261
39.21000 289.563
39.22000 290.674
39.23000 290.593
39.24000 287.651
39.25000 284.585
39.26000 282.685
39.27000 282.255
39.28000 281.960
39.29000 279.321
39.30000 274.242
39.31000 269.217
39.32000 269.848
39.33000 274.261
39.34000 278.564
39.35000 278.309
39.36000 276.126
39.37000 274.534
39.38000 280.275
39.39000 288.206
39.40000 293.928
39.41000 283.979
39.42000 270.969
39.43000 260.121
39.44000 270.181
39.45000 280.610
39.46000 287.656
39.47000 284.691
39.48000 281.068
39.49000 278.413
39.50000 277.677
39.51000 276.994
39.52000 276.605
39.53000 273.161
39.54000 270.750
39.55000 267.797
39.56000 264.390
39.57000 261.054
39.58000 261.133
39.59000 263.091
39.60000 264.972
39.61000 267.119
39.62000 269.219
39.63000 271.316
39.64000 273.372
39.65000 275.418
39.66000 276.687
39.67000 273.565
39.68000 269.756
39.69000 266.708
39.70000 268.805
39.71000 270.884
39.72000 272.934
39.73000 274.911
39.74000 276.884
39.75000 278.712
39.76000 280.300
39.77000 281.886
39.78000 282.703
39.79000 277.809
39.80000 274.522
39.81000 272.388
39.82000 271.038
39.83000 269.629
39.84000 266.540
39.85000 262.688
39.86000 259.054
39.87000 256.946
39.88000 255.439
39.89000 254.275
39.90000 255.605
39.91000 257.433
39.92000 259.489
39.93000 262.586
39.94000 265.811
39.95000 268.272
39.96000 266.365
39.97000 264.628
39.98000 264.049
39.99000 265.810
40.00000 267.638
40.01000 270.947
40.02000 276.240
40.03000 281.538
40.04000 279.587
40.05000 271.457
40.06000 263.444
40.07000 261.358
40.08000 262.595
40.09000 263.879
40.10000 266.027
40.11000 268.499
40.12000 270.781
40.13000 265.595
40.14000 259.271
40.15000 253.117
40.16000 247.939
40.17000 242.919
40.18000 239.869
40.19000 244.179
40.20000 249.186
40.21000 252.806
40.22000 260.857
40.23000 267.195
40.24000 269.567
40.25000 265.322
40.26000 260.974
40.27000 256.685
40.28000 252.461
40.29000 248.255
40.30000 248.334
40.31000 251.359
40.32000 254.393
40.33000 257.700
40.34000 261.132
40.35000 263.929
40.36000 258.348
40.37000 250.167
40.38000 242.809
40.39000 250.452
40.40000 259.826
40.41000 267.521
40.42000 267.388
40.43000 266.263
40.44000 265.506
40.45000 265.876
40.46000 266.324
40.47000 266.629
40.48000 265.990
40.49000 265.492
40.50000 267.794
40.51000 273.927
40.52000 280.075
40.53000 278.920
40.54000 271.393
40.55000 263.952
40.56000 259.853
40.57000 257.717
40.58000 255.473
40.59000 251.170
40.60000 246.078
40.61000 241.730
40.62000 244.706
40.63000 249.549
40.64000 253.777
40.65000 253.271
40.66000 252.174
40.67000 250.786
40.68000 248.293
40.69000 245.693
40.70000 246.058
40.71000 253.950
40.72000 262.213
40.73000 267.447
40.74000 265.803
40.75000 264.528
40.76000 261.782
40.77000 257.403
40.78000 253.049
40.79000 252.350
40.80000 254.244
40.81000 256.097
40.82000 257.518
40.83000 258.687
40.84000 259.546
40.85000 256.218
40.86000 251.564
40.87000 247.871
40.88000 251.486
40.89000 256.620
40.90000 260.949
40.91000 261.424
40.92000 261.403
40.93000 260.042
40.94000 254.480
40.95000 248.615
40.96000 243.984
40.97000 241.947
40.98000 239.991
40.99000 238.849
41.00000 245.065
41.01000 249.470
41.02000 250.294
41.03000 247.926
41.04000 245.541
41.05000 242.184
41.06000 238.262
41.07000 234.476
41.08000 239.142
41.09000 246.639
41.10000 252.946
41.11000 247.212
41.12000 238.346
41.13000 231.200
41.14000 234.428
41.15000 239.394
41.16000 243.418
41.17000 246.826
41.18000 249.551
41.19000 251.010
41.20000 249.191
41.21000 247.205
41.22000 244.215
41.23000 239.486
41.24000 234.725
41.25000 232.195
41.26000 237.362
41.27000 240.875
41.28000 243.027
41.29000 244.195
41.30000 245.266
41.31000 243.224
41.32000 239.686
41.33000 236.329
41.34000 241.857
41.35000 249.597
41.36000 255.945
41.37000 251.423
41.38000 244.594
41.39000 239.755
41.40000 244.576
41.41000 250.680
41.42000 255.407
41.43000 254.312
41.44000 253.099
41.45000 251.143
41.46000 247.602
41.47000 244.008
41.48000 241.148
41.49000 239.335
41.50000 237.530
41.51000 238.947
41.52000 243.294
41.53000 247.580
41.54000 248.040
41.55000 246.231
41.56000 244.516
41.57000 244.753
41.58000 245.765
41.59000 246.706
41.60000 245.608
41.61000 244.129
41.62000 242.765
41.63000 242.109
41.64000 241.575
41.65000 241.929
41.66000 245.803
41.67000 250.039
41.68000 253.152
41.69000 247.650
41.70000 243.041
41.71000 242.791
41.72000 250.240
41.73000 257.836
41.74000 258.828
41.75000 252.178
41.76000 245.539
41.77000 241.798
41.78000 240.209
41.79000 238.708
41.80000 240.192
41.81000 243.137
41.82000 246.058
41.83000 248.635
41.84000 251.099
41.85000 253.334
41.86000 248.096
41.87000 242.047
41.88000 236.980
41.89000 236.779
41.90000 237.241
41.91000 236.850
41.92000 233.686
41.93000 230.309
41.94000 227.968
41.95000 234.963
41.96000 240.474
41.97000 242.806
41.98000 240.526
41.99000 238.208
42.00000 236.655
42.01000 235.814
42.02000 234.980
42.03000 233.318
42.04000 231.197
42.05000 229.331
42.06000 232.939
42.07000 238.763
42.08000 244.048
42.09000 243.575
42.10000 241.546
42.11000 239.758
42.12000 238.958
42.13000 238.418
42.14000 236.830
42.15000 231.011
42.16000 224.746
42.17000 221.017
42.18000 224.096
42.19000 227.550
42.20000 229.786
42.21000 232.139
42.22000 233.862
42.23000 232.544
42.24000 227.632
42.25000 222.757
42.26000 226.665
42.27000 237.189
42.28000 247.520
42.29000 250.072
42.30000 248.791
42.31000 247.532
42.32000 246.599
42.33000 245.775
42.34000 245.064
42.35000 245.274
42.36000 245.688
42.37000 246.041
42.38000 240.976
42.39000 236.082
42.40000 232.347
42.41000 232.455
42.42000 232.868
42.43000 233.585
42.44000 234.977
42.45000 236.393
42.46000 237.242
42.47000 238.994
42.48000 240.243
42.49000 238.723
42.50000 234.573
42.51000 230.521
42.52000 233.646
42.53000 241.196
42.54000 248.514
42.55000 246.462
42.56000 240.858
42.57000 235.552
42.58000 233.524
42.59000 232.400
42.60000 231.632
42.61000 233.162
42.62000 235.102
42.63000 236.695
42.64000 234.152
42.65000 231.698
42.66000 230.948
42.67000 234.862
42.68000 239.042
42.69000 241.309
42.70000 240.068
42.71000 238.752
42.72000 238.032
42.73000 232.846
42.74000 229.291
42.75000 229.533
42.76000 232.694
42.77000 235.791
42.78000 236.495
42.79000 235.983
42.80000 235.494
42.81000 237.032
42.82000 239.100
42.83000 240.448
42.84000 235.747
42.85000 229.683
42.86000 224.805
42.87000 226.065
42.88000 228.199
42.89000 229.875
42.90000 233.466
42.91000 236.465
42.92000 237.723
42.93000 235.043
42.94000 232.212
42.95000 231.423
42.96000 233.713
42.97000 236.034
42.98000 238.314
42.99000 240.555
43.00000 242.784
43.01000 244.000
43.02000 244.581
43.03000 244.930
43.04000 239.873
43.05000 232.545
43.06000 225.690
43.07000 227.540
43.08000 231.442
43.09000 234.174
43.10000 229.188
43.11000 222.792
43.12000 218.033
43.13000 220.150
43.14000 223.032
43.15000 225.184
43.16000 228.757
43.17000 231.607
43.18000 232.442
43.19000 229.510
43.20000 226.493
43.21000 224.064
43.22000 222.360
43.23000 220.662
43.24000 218.443
43.25000 215.830
43.26000 213.319
43.27000 214.892
43.28000 218.581
43.29000 222.196
43.30000 224.651
43.31000 226.703
43.32000 228.577
43.33000 224.632
43.34000 219.938
43.35000 216.908
43.36000 222.664
43.37000 229.702
43.38000 234.643
43.39000 232.361
43.40000 229.471
43.41000 227.432
43.42000 230.065
43.43000 232.205
43.44000 232.948
43.45000 231.541
43.46000 230.111
43.47000 227.994
43.48000 225.198
43.49000 222.421
43.50000 223.196
43.51000 226.198
43.52000 229.035
43.53000 227.869
43.54000 224.989
43.55000 222.533
43.56000 225.007
43.57000 228.893
43.58000 232.348
43.59000 229.332
43.60000 225.667
43.61000 222.714
43.62000 222.808
43.63000 223.250
43.64000 224.999
43.65000 230.462
43.66000 236.151
43.67000 239.913
43.68000 232.520
43.69000 226.865
43.70000 224.534
43.71000 226.380
43.72000 228.233
43.73000 228.307
43.74000 226.955
43.75000 225.624
43.76000 224.843
43.77000 224.367
43.78000 223.552
43.79000 217.122
43.80000 208.705
43.81000 201.907
43.82000 209.421
43.83000 220.294
43.84000 229.656
43.85000 229.808
43.86000 228.773
43.87000 227.580
43.88000 225.831
43.89000 224.034
43.90000 221.649
43.91000 217.884
43.92000 214.061
43.93000 211.716
43.94000 220.877
43.95000 227.540
43.96000 229.742
43.97000 227.418
43.98000 225.083
43.99000 221.743
44.00000 217.747
44.01000 213.857
44.02000 215.593
44.03000 219.582
44.04000 223.338
44.05000 224.297
44.06000 224.439
44.07000 225.167
44.08000 229.943
44.09000 235.491
44.10000 240.096
44.11000 233.102
44.12000 226.200
44.13000 221.511
44.14000 223.224
44.15000 225.342
44.16000 227.132
44.17000 228.288
44.18000 229.427
44.19000 230.068
44.20000 228.637
44.21000 227.638
44.22000 226.574
44.23000 225.456
44.24000 224.377
44.25000 225.067
44.26000 226.709
44.27000 228.282
44.28000 234.895
44.29000 242.767
44.30000 249.076
44.31000 241.227
44.32000 229.987
44.33000 220.928
44.34000 223.882
44.35000 228.669
44.36000 232.479
44.37000 233.955
44.38000 234.976
44.39000 236.278
44.40000 238.250
44.41000 240.251
44.42000 241.626
44.43000 241.999
44.44000 242.360
44.45000 242.543
44.46000 247.017
44.47000 250.001
44.48000 251.370
44.49000 251.661
44.50000 251.878
44.51000 250.138
44.52000 247.529
44.53000 245.072
44.54000 248.904
44.55000 254.117
44.56000 259.120
44.57000 262.637
44.58000 265.865
44.59000 269.425
44.60000 274.462
44.61000 279.676
44.62000 283.631
44.63000 301.432
44.64000 316.127
44.65000 328.213
44.66000 335.139
44.67000 341.926
44.68000 344.418
44.69000 341.290
44.70000 338.141
44.71000 342.367
44.72000 352.714
44.73000 362.986
44.74000 369.708
44.75000 374.484
44.76000 380.154
44.77000 401.670
44.78000 429.010
44.79000 454.175
44.80000 476.936
44.81000 496.762
44.82000 515.550
44.83000 528.496
44.84000 540.529
44.85000 551.663
44.86000 559.516
44.87000 567.069
44.88000 572.492
44.89000 582.346
44.90000 590.036
44.91000 598.353
44.92000 607.690
44.93000 617.042
44.94000 626.128
44.95000 634.933
44.96000 643.691
44.97000 643.231
44.98000 636.588
44.99000 630.199
45.00000 630.832
45.01000 634.644
45.02000 637.780
45.03000 632.333
45.04000 624.282
45.05000 617.063
45.06000 600.364
45.07000 584.128
45.08000 568.417
45.09000 555.094
45.10000 542.065
45.11000 527.486
45.12000 508.251
45.13000 488.701
45.14000 475.514
45.15000 468.812
45.16000 463.963
45.17000 455.267
45.18000 441.433
45.19000 427.580
45.20000 417.776
45.21000 411.419
45.22000 405.143
45.23000 388.052
45.24000 365.522
45.25000 343.929
45.26000 339.533
45.27000 341.576
45.28000 343.328
45.29000 342.304
45.30000 340.590
45.31000 339.099
45.32000 321.983
45.33000 305.252
45.34000 293.112
45.35000 298.047
45.36000 304.592
45.37000 306.998
45.38000 299.123
45.39000 290.765
45.40000 285.517
45.41000 279.150
45.42000 274.535
45.43000 273.864
45.44000 277.461
45.45000 281.021
45.46000 279.895
45.47000 275.522
45.48000 271.250
45.49000 270.386
45.50000 271.064
45.51000 271.536
45.52000 269.301
45.53000 266.231
45.54000 263.379
45.55000 262.144
45.56000 261.237
45.57000 260.476
45.58000 254.280
45.59000 248.552
45.60000 243.339
45.61000 239.707
45.62000 236.185
45.63000 236.794
45.64000 245.887
45.65000 255.234
45.66000 260.638
45.67000 254.260
45.68000 249.743
45.69000 245.869
45.70000 242.554
45.71000 239.192
45.72000 233.328
45.73000 226.040
45.74000 219.018
45.75000 219.393
45.76000 222.396
45.77000 225.082
45.78000 224.667
45.79000 223.464
45.80000 222.707
45.81000 224.571
45.82000 226.862
45.83000 228.709
45.84000 228.410
45.85000 227.997
45.86000 228.231
45.87000 230.097
45.88000 232.044
45.89000 230.439
45.90000 222.818
45.91000 215.099
45.92000 211.045
45.93000 214.600
45.94000 217.004
45.95000 218.182
45.96000 218.493
45.97000 218.662
45.98000 214.521
45.99000 208.355
46.00000 202.517
46.01000 208.436
46.02000 217.290
46.03000 224.819
46.04000 222.306
46.05000 217.712
46.06000 213.823
46.07000 213.274
46.08000 213.157
46.09000 213.067
46.10000 208.430
46.11000 204.500
46.12000 202.055
46.13000 202.718
46.14000 203.480
46.15000 205.518
46.16000 209.330
46.17000 213.153
46.18000 213.070
46.19000 209.524
46.20000 206.061
46.21000 207.268
46.22000 211.185
46.23000 214.912
46.24000 214.884
46.25000 213.397
46.26000 212.019
46.27000 210.908
46.28000 209.970
46.29000 208.784
46.30000 206.112
46.31000 203.191
46.32000 201.991
46.33000 207.445
46.34000 213.562
46.35000 218.029
46.36000 218.210
46.37000 218.182
46.38000 215.854
46.39000 209.553
46.40000 203.182
46.41000 202.247
46.42000 207.448
46.43000 212.635
46.44000 212.753
46.45000 209.248
46.46000 205.844
46.47000 205.680
46.48000 207.068
46.49000 208.407
46.50000 209.082
46.51000 209.544
46.52000 209.961
46.53000 204.466
46.54000 198.532
46.55000 194.236
46.56000 197.863
46.57000 202.536
46.58000 206.846
46.59000 209.999
46.60000 213.066
46.61000 215.175
46.62000 211.488
46.63000 208.577
46.64000 206.478
46.65000 205.529
46.66000 204.588
46.67000 203.821
46.68000 203.211
46.69000 202.607
46.70000 204.038
46.71000 206.615
46.72000 209.076
46.73000 209.137
46.74000 208.247
46.75000 207.150
46.76000 203.911
46.77000 200.105
46.78000 196.765
46.79000 200.659
46.80000 205.066
46.81000 207.943
46.82000 204.782
46.83000 201.004
46.84000 196.923
46.85000 192.045
46.86000 187.125
46.87000 183.967
46.88000 193.900
46.89000 201.322
46.90000 204.070
46.91000 201.432
46.92000 198.785
46.93000 195.772
46.94000 192.491
46.95000 189.275
46.96000 188.215
46.97000 188.208
46.98000 188.260
46.99000 189.170
47.00000 190.359
47.01000 191.995
47.02000 197.178
47.03000 203.127
47.04000 208.175
47.05000 202.606
47.06000 196.729
47.07000 192.324
47.08000 192.687
47.09000 193.416
47.10000 196.596
47.11000 205.102
47.12000 213.793
47.13000 218.947
47.14000 200.024
47.15000 186.503
47.16000 186.510
47.17000 199.044
47.18000 211.369
47.19000 209.841
47.20000 199.962
47.21000 190.402
47.22000 186.955
47.23000 186.028
47.24000 185.443
47.25000 188.481
47.26000 192.495
47.27000 194.840
47.28000 186.707
47.29000 176.746
47.30000 168.616
47.31000 175.789
47.32000 182.973
47.33000 189.710
47.34000 195.248
47.35000 200.720
47.36000 202.376
47.37000 197.183
47.38000 191.854
47.39000 188.970
47.40000 192.996
47.41000 195.751
47.42000 196.541
47.43000 195.858
47.44000 195.182
47.45000 194.754
47.46000 194.449
47.47000 194.159
47.48000 189.691
47.49000 184.264
47.50000 179.356
47.51000 178.689
47.52000 178.955
47.53000 180.257
47.54000 186.783
47.55000 194.032
47.56000 199.693
47.57000 192.204
47.58000 185.403
47.59000 181.854
47.60000 185.504
47.61000 189.414
47.62000 188.652
47.63000 181.001
47.64000 173.289
47.65000 172.502
47.66000 178.265
47.67000 184.027
47.68000 189.728
47.69000 195.392
47.70000 200.799
47.71000 200.478
47.72000 197.804
47.73000 195.309
47.74000 188.981
47.75000 182.293
47.76000 177.004
47.77000 180.690
47.78000 185.975
47.79000 191.197
47.80000 196.163
47.81000 201.102
47.82000 204.768
47.83000 198.505
47.84000 193.201
47.85000 187.968
47.86000 182.865
47.87000 177.765
47.88000 177.756
47.89000 183.865
47.90000 189.971
47.91000 192.953
47.92000 193.538
47.93000 194.064
47.94000 192.362
47.95000 189.530
47.96000 186.936
47.97000 187.986
47.98000 190.274
47.99000 192.359
48.00000 185.232
48.01000 177.086
48.02000 171.161
48.03000 176.675
48.04000 183.811
48.05000 190.304
48.06000 194.634
48.07000 198.789
48.08000 201.699
48.09000 200.617
48.10000 199.684
48.11000 197.775
48.12000 194.400
48.13000 191.010
48.14000 188.875
48.15000 187.952
48.16000 187.036
48.17000 186.616
48.18000 186.509
48.19000 186.429
48.20000 187.002
48.21000 187.848
48.22000 188.467
48.23000 186.542
48.24000 183.904
48.25000 181.568
48.26000 182.925
48.27000 184.682
48.28000 185.790
48.29000 184.188
48.30000 182.285
48.31000 181.109
48.32000 181.947
48.33000 182.903
48.34000 183.530
48.35000 185.760
48.36000 187.427
48.37000 186.600
48.38000 182.713
48.39000 178.829
48.40000 177.761
48.41000 178.894
48.42000 180.007
48.43000 182.629
48.44000 185.920
48.45000 188.954
48.46000 187.925
48.47000 185.489
48.48000 183.551
48.49000 185.871
48.50000 189.167
48.51000 191.994
48.52000 194.871
48.53000 197.308
48.54000 198.799
48.55000 197.046
48.56000 195.021
48.57000 191.940
48.58000 186.434
48.59000 180.831
48.60000 177.426
48.61000 180.663
48.62000 183.026
48.63000 185.257
48.64000 187.359
48.65000 189.433
48.66000 189.235
48.67000 187.584
48.68000 185.981
48.69000 185.878
48.70000 186.389
48.71000 186.942
48.72000 187.983
48.73000 189.163
48.74000 190.552
48.75000 193.346
48.76000 196.401
48.77000 198.924
48.78000 194.864
48.79000 190.902
48.80000 187.018
48.81000 183.354
48.82000 179.703
48.83000 179.216
48.84000 184.737
48.85000 190.400
48.86000 193.554
48.87000 187.003
48.88000 182.466
48.89000 182.535
48.90000 186.276
48.91000 189.883
48.92000 187.948
48.93000 183.099
48.94000 178.459
48.95000 180.562
48.96000 184.738
48.97000 188.307
48.98000 186.540
48.99000 183.527
49.00000 181.111
49.01000 181.905
49.02000 183.177
49.03000 184.184
49.04000 183.076
49.05000 182.040
49.06000 182.418
49.07000 186.105
49.08000 189.930
49.09000 192.605
49.10000 193.483
49.11000 194.340
49.12000 194.771
49.13000 189.487
49.14000 185.959
49.15000 182.469
49.16000 179.005
49.17000 175.579
49.18000 173.118
49.19000 171.075
49.20000 169.157
49.21000 171.371
49.22000 174.486
49.23000 177.925
49.24000 183.589
49.25000 189.676
49.26000 193.793
49.27000 189.331
49.28000 183.870
49.29000 179.753
49.30000 176.566
49.31000 174.116
49.32000 172.487
49.33000 172.450
49.34000 172.452
49.35000 173.586
49.36000 176.165
49.37000 178.745
49.38000 180.576
49.39000 181.793
49.40000 183.007
49.41000 184.148
49.42000 185.248
49.43000 185.892
49.44000 178.766
49.45000 168.849
49.46000 159.746
49.47000 166.961
49.48000 176.866
49.49000 184.684
49.50000 181.052
49.51000 175.681
49.52000 170.926
49.53000 168.372
49.54000 166.013
49.55000 164.330
49.56000 174.195
49.57000 182.096
49.58000 186.034
49.59000 183.657
49.60000 181.199
49.61000 182.210
49.62000 186.804
49.63000 191.371
49.64000 192.932
49.65000 192.504
49.66000 191.934
49.67000 187.635
49.68000 181.685
49.69000 176.013
49.70000 173.744
49.71000 172.484
49.72000 171.359
49.73000 171.938
49.74000 172.731
49.75000 173.828
49.76000 176.278
49.77000 178.889
49.78000 179.961
49.79000 176.506
49.80000 172.758
49.81000 170.250
49.82000 171.639
49.83000 172.747
49.84000 175.411
49.85000 180.106
49.86000 184.803
49.87000 186.029
49.88000 184.373
49.89000 182.739
49.90000 181.726
49.91000 181.071
49.92000 180.793
49.93000 187.149
49.94000 195.934
49.95000 203.318
49.96000 197.731
49.97000 188.988
49.98000 181.415
49.99000 178.436
50.00000 176.509
50.01000 175.484
50.02000 177.742
50.03000 180.300
50.04000 182.033
50.05000 181.763
50.06000 181.402
50.07000 181.178
50.08000 185.402
50.09000 188.489
50.10000 189.585
50.11000 188.580
50.12000 187.574
50.13000 186.466
50.14000 185.288
50.15000 184.139
50.16000 184.387
50.17000 185.227
50.18000 186.248
50.19000 189.551
50.20000 193.545
50.21000 196.882
50.22000 195.499
50.23000 193.182
50.24000 191.245
50.25000 193.890
50.26000 196.551
50.27000 198.529
50.28000 198.461
50.29000 198.256
50.30000 199.483
50.31000 203.586
50.32000 207.770
50.33000 210.163
50.34000 209.299
50.35000 208.690
50.36000 211.212
50.37000 216.389
50.38000 221.531
50.39000 224.876
50.40000 227.222
50.41000 229.478
50.42000 231.555
50.43000 233.441
50.44000 235.496
50.45000 239.175
50.46000 243.256
50.47000 247.447
50.48000 252.270
50.49000 257.194
50.50000 261.143
50.51000 268.277
50.52000 274.295
50.53000 279.746
50.54000 283.796
50.55000 287.781
50.56000 291.784
50.57000 295.818
50.58000 299.852
50.59000 301.945
50.60000 301.733
50.61000 301.581
50.62000 300.394
50.63000 298.492
50.64000 296.709
50.65000 298.347
50.66000 301.558
50.67000 304.590
50.68000 299.152
50.69000 291.767
50.70000 285.470
50.71000 287.198
50.72000 290.547
50.73000 291.902
50.74000 284.024
50.75000 274.990
50.76000 268.075
50.77000 269.981
50.78000 271.967
50.79000 272.337
50.80000 269.396
50.81000 266.357
50.82000 261.498
50.83000 254.169
50.84000 246.831
50.85000 242.169
50.86000 239.827
50.87000 237.539
50.88000 238.102
50.89000 240.281
50.90000 242.169
50.91000 238.545
50.92000 232.826
50.93000 227.540
50.94000 221.277
50.95000 215.432
50.96000 209.699
50.97000 204.620
50.98000 199.647
50.99000 195.582
51.00000 194.944
51.01000 194.638
51.02000 194.415
51.03000 197.991
51.04000 200.880
51.05000 200.547
51.06000 194.773
51.07000 188.911
51.08000 189.448
51.09000 197.031
51.10000 204.585
51.11000 204.362
51.12000 198.720
51.13000 193.129
51.14000 189.044
51.15000 185.665
51.16000 182.538
51.17000 182.791
51.18000 184.106
51.19000 185.291
51.20000 184.638
51.21000 183.732
51.22000 183.249
51.23000 184.759
51.24000 186.526
51.25000 187.461
51.26000 185.810
51.27000 183.975
51.28000 182.721
51.29000 179.390
51.30000 176.850
51.31000 174.540
51.32000 172.546
51.33000 170.558
51.34000 172.262
51.35000 177.229
51.36000 182.141
51.37000 182.657
51.38000 180.679
51.39000 178.756
51.40000 177.913
51.41000 177.488
51.42000 176.901
51.43000 174.683
51.44000 172.045
51.45000 169.738
51.46000 171.256
51.47000 173.102
51.48000 174.696
51.49000 175.320
51.50000 175.848
51.51000 175.396
51.52000 172.425
51.53000 169.328
51.54000 167.357
51.55000 177.576
51.56000 185.156
51.57000 188.216
51.58000 186.194
51.59000 184.161
51.60000 180.922
51.61000 176.818
51.62000 172.800
51.63000 168.956
51.64000 165.344
51.65000 162.151
51.66000 164.776
51.67000 169.262
51.68000 173.094
51.69000 171.864
51.70000 169.568
51.71000 167.628
51.72000 169.108
51.73000 170.723
51.74000 171.188
51.75000 168.012
51.76000 164.567
51.77000 162.332
51.78000 162.668
51.79000 163.087
51.80000 163.333
51.81000 157.374
51.82000 153.145
51.83000 154.503
51.84000 160.907
51.85000 167.217
51.86000 167.918
51.87000 165.313
51.88000 162.797
51.89000 164.746
51.90000 168.245
51.91000 171.251
51.92000 169.189
51.93000 165.793
51.94000 163.099
51.95000 164.700
51.96000 167.029
51.97000 168.922
51.98000 171.502
51.99000 173.663
52.00000 172.913
52.01000 164.545
52.02000 155.778
52.03000 152.862
52.04000 160.206
52.05000 167.741
52.06000 171.771
52.07000 165.627
52.08000 161.444
52.09000 160.015
52.10000 160.602
52.11000 161.184
52.12000 161.613
52.13000 161.968
52.14000 162.305
52.15000 163.116
52.16000 164.008
52.17000 164.732
52.18000 164.128
52.19000 163.237
52.20000 162.740
52.21000 164.174
52.22000 165.868
52.23000 167.184
52.24000 163.330
52.25000 159.953
52.26000 155.953
52.27000 150.605
52.28000 145.211
52.29000 146.452
52.30000 157.250
52.31000 168.121
52.32000 170.763
52.33000 165.818
52.34000 160.902
52.35000 157.874
52.36000 155.979
52.37000 154.136
52.38000 153.376
52.39000 153.052
52.40000 152.751
52.41000 155.229
52.42000 158.144
52.43000 160.844
52.44000 162.207
52.45000 163.338
52.46000 164.547
52.47000 166.071
52.48000 167.627
52.49000 168.774
52.50000 170.523
52.51000 171.902
52.52000 170.796
52.53000 165.248
52.54000 159.612
52.55000 157.975
52.56000 161.028
52.57000 164.079
52.58000 165.532
52.59000 165.788
52.60000 166.018
52.61000 165.323
52.62000 164.169
52.63000 163.226
52.64000 165.401
52.65000 168.612
52.66000 171.528
52.67000 170.663
52.68000 169.167
52.69000 167.482
52.70000 164.852
52.71000 162.092
52.72000 159.536
52.73000 157.651
52.74000 155.819
52.75000 154.545
52.76000 158.702
52.77000 161.983
52.78000 162.116
52.79000 157.624
52.80000 153.091
52.81000 151.600
52.82000 152.977
52.83000 154.342
52.84000 155.351
52.85000 156.128
52.86000 156.939
52.87000 158.509
52.88000 160.391
52.89000 161.787
52.90000 157.904
52.91000 152.577
52.92000 147.874
52.93000 152.620
52.94000 158.161
52.95000 161.984
52.96000 158.781
52.97000 154.825
52.98000 150.856
52.99000 146.854
53.00000 142.850
53.01000 140.246
53.02000 142.724
53.03000 144.618
53.04000 149.732
53.05000 158.699
53.06000 167.658
53.07000 172.995
53.08000 175.570
53.09000 178.099
53.10000 174.522
53.11000 168.092
53.12000 161.933
53.13000 159.905
53.14000 159.276
53.15000 158.775
53.16000 159.337
53.17000 160.136
53.18000 160.819
53.19000 159.915
53.20000 158.965
53.21000 158.043
53.22000 157.213
53.23000 156.390
53.24000 157.801
53.25000 164.230
53.26000 170.847
53.27000 174.831
53.28000 171.098
53.29000 168.390
53.30000 169.161
53.31000 173.282
53.32000 177.335
53.33000 176.208
53.34000 171.847
53.35000 167.616
53.36000 162.892
53.37000 158.218
53.38000 154.124
53.39000 156.518
53.40000 160.721
53.41000 164.983
53.42000 169.635
53.43000 174.358
53.44000 178.241
53.45000 175.046
53.46000 171.780
53.47000 168.834
53.48000 166.776
53.49000 164.769
53.50000 165.459
53.51000 171.154
53.52000 176.960
53.53000 180.157
53.54000 171.587
53.55000 165.681
53.56000 164.449
53.57000 166.855
53.58000 169.088
53.59000 164.655
53.60000 156.793
53.61000 149.285
53.62000 149.357
53.63000 151.854
53.64000 154.431
53.65000 157.682
53.66000 161.088
53.67000 163.175
53.68000 158.351
53.69000 152.528
53.70000 147.943
53.71000 152.315
53.72000 156.415
53.73000 160.655
53.74000 165.213
53.75000 169.783
53.76000 172.642
53.77000 172.887
53.78000 173.104
53.79000 170.601
53.80000 165.420
53.81000 160.262
53.82000 156.890
53.83000 154.656
53.84000 152.555
53.85000 153.658
53.86000 156.121
53.87000 158.429
53.88000 161.539
53.89000 164.575
53.90000 167.128
53.91000 166.446
53.92000 165.166
53.93000 163.707
53.94000 161.491
53.95000 159.190
53.96000 157.465
53.97000 161.168
53.98000 164.315
53.99000 166.642
54.00000 167.420
54.01000 168.161
54.02000 166.736
54.03000 162.609
54.04000 158.483
54.05000 155.711
54.06000 154.024
54.07000 152.398
54.08000 153.270
54.09000 155.451
54.10000 157.771
54.11000 162.370
54.12000 167.769
54.13000 172.709
54.14000 168.949
54.15000 163.801
54.16000 160.192
54.17000 164.812
54.18000 170.650
54.19000 174.033
54.20000 168.866
54.21000 162.965
54.22000 158.786
54.23000 161.877
54.24000 164.453
54.25000 166.337
54.26000 167.144
54.27000 167.939
54.28000 165.358
54.29000 159.381
54.30000 153.445
54.31000 152.794
54.32000 155.530
54.33000 158.158
54.34000 158.076
54.35000 156.819
54.36000 155.811
54.37000 157.745
54.38000 160.531
54.39000 163.012
54.40000 160.444
54.41000 157.383
54.42000 155.565
54.43000 159.138
54.44000 163.336
54.45000 165.571
54.46000 162.162
54.47000 158.400
54.48000 155.903
54.49000 163.399
54.50000 169.125
54.51000 170.798
54.52000 167.311
54.53000 163.805
54.54000 159.761
54.55000 155.280
54.56000 150.866
54.57000 150.548
54.58000 152.361
54.59000 154.123
54.60000 155.004
54.61000 155.570
54.62000 156.409
54.63000 159.703
54.64000 163.581
54.65000 166.927
54.66000 169.070
54.67000 170.734
54.68000 170.438
54.69000 163.178
54.70000 155.304
54.71000 151.767
54.72000 158.533
54.73000 165.740
54.74000 170.184
54.75000 169.203
54.76000 168.450
54.77000 166.427
54.78000 163.100
54.79000 159.794
54.80000 158.535
54.81000 158.631
54.82000 158.724
54.83000 160.388
54.84000 162.635
54.85000 164.494
54.86000 161.620
54.87000 157.348
54.88000 153.735
54.89000 154.738
54.90000 156.633
54.91000 158.209
54.92000 163.840
54.93000 168.900
54.94000 171.071
54.95000 164.785
54.96000 157.953
54.97000 154.842
54.98000 159.036
54.99000 163.424
55.00000 165.907
55.01000 168.886
55.02000 170.954
55.03000 170.196
55.04000 167.102
55.05000 164.085
55.06000 164.654
55.07000 167.174
55.08000 169.593
55.09000 172.657
55.10000 175.742
55.11000 178.019
55.12000 172.860
55.13000 165.898
55.14000 160.277
55.15000 162.139
55.16000 165.159
55.17000 167.569
55.18000 167.775
55.19000 167.780
55.20000 168.968
55.21000 173.021
55.22000 177.201
55.23000 179.022
55.24000 177.027
55.25000 174.980
55.26000 173.931
55.27000 183.765
55.28000 190.331
55.29000 191.971
55.30000 190.289
55.31000 188.554
55.32000 185.397
55.33000 181.600
55.34000 178.023
55.35000 180.560
55.36000 184.569
55.37000 189.234
55.38000 198.598
55.39000 208.888
55.40000 217.739
55.41000 220.088
55.42000 221.645
55.43000 222.829
55.44000 228.696
55.45000 233.558
55.46000 239.365
55.47000 247.064
55.48000 254.816
55.49000 260.217
55.50000 262.502
55.51000 264.771
55.52000 269.897
55.53000 277.418
55.54000 284.990
55.55000 295.031
55.56000 306.442
55.57000 318.027
55.58000 332.773
55.59000 348.694
55.60000 363.370
55.61000 378.825
55.62000 392.835
55.63000 408.942
55.64000 437.013
55.65000 466.977
55.66000 493.980
55.67000 510.051
55.68000 525.101
55.69000 535.948
55.70000 557.311
55.71000 574.052
55.72000 595.579
55.73000 625.003
55.74000 654.544
55.75000 676.212
55.76000 689.431
55.77000 702.581
55.78000 723.913
55.79000 750.560
55.80000 776.742
55.81000 789.656
55.82000 796.493
55.83000 803.649
55.84000 814.947
55.85000 827.515
55.86000 838.803
55.87000 844.433
55.88000 848.362
55.89000 849.706
55.90000 839.135
55.91000 827.077
55.92000 818.294
55.93000 819.467
55.94000 821.327
55.95000 822.586
55.96000 804.594
55.97000 790.761
55.98000 774.194
55.99000 753.930
56.00000 733.644
56.01000 712.886
56.02000 691.720
56.03000 670.810
56.04000 648.836
56.05000 626.826
56.06000 605.222
56.07000 591.260
56.08000 580.192
56.09000 567.877
56.10000 543.469
56.11000 516.011
56.12000 492.086
56.13000 470.454
56.14000 452.288
56.15000 434.061
56.16000 415.602
56.17000 397.121
56.18000 381.903
56.19000 374.884
56.20000 368.260
56.21000 364.081
56.22000 345.487
56.23000 331.856
56.24000 317.746
56.25000 303.110
56.26000 288.526
56.27000 280.820
56.28000 277.939
56.29000 275.122
56.30000 267.132
56.31000 257.157
56.32000 247.318
56.33000 239.301
56.34000 231.854
56.35000 224.661
56.36000 219.375
56.37000 214.482
56.38000 210.365
56.39000 209.965
56.40000 210.029
56.41000 209.364
56.42000 206.444
56.43000 203.363
56.44000 198.793
56.45000 191.130
56.46000 183.371
56.47000 178.861
56.48000 183.394
56.49000 186.613
56.50000 185.974
56.51000 181.938
56.52000 177.899
56.53000 173.695
56.54000 169.397
56.55000 165.252
56.56000 164.212
56.57000 164.361
56.58000 164.470
56.59000 164.190
56.60000 163.809
56.61000 163.531
56.62000 163.861
56.63000 164.291
56.64000 164.639
56.65000 160.134
56.66000 156.081
56.67000 154.676
56.68000 160.050
56.69000 165.764
56.70000 167.044
56.71000 160.725
56.72000 154.275
56.73000 150.867
56.74000 158.151
56.75000 163.093
56.76000 166.273
56.77000 168.192
56.78000 170.031
56.79000 169.377
56.80000 167.538
56.81000 165.795
56.82000 163.146
56.83000 160.439
56.84000 158.177
56.85000 159.337
56.86000 161.215
56.87000 163.097
56.88000 164.999
56.89000 166.904
56.90000 168.375
56.91000 165.127
56.92000 162.277
56.93000 160.231
56.94000 159.887
56.95000 159.598
56.96000 157.648
56.97000 153.362
56.98000 149.062
56.99000 147.594
57.00000 148.672
57.01000 149.722
57.02000 149.071
57.03000 147.421
57.04000 145.925
57.05000 147.530
57.06000 150.354
57.07000 152.975
57.08000 155.915
57.09000 158.640
57.10000 160.658
57.11000 158.368
57.12000 155.350
57.13000 152.935
57.14000 152.877
57.15000 153.057
57.16000 153.190
57.17000 146.363
57.18000 140.811
57.19000 138.189
57.20000 140.687
57.21000 143.277
57.22000 143.574
57.23000 141.247
57.24000 138.926
57.25000 142.677
57.26000 150.792
57.27000 158.722
57.28000 160.548
57.29000 159.416
57.30000 158.133
57.31000 154.699
57.32000 150.566
57.33000 146.823
57.34000 147.325
57.35000 148.567
57.36000 150.079
57.37000 152.915
57.38000 155.928
57.39000 156.033
57.40000 146.782
57.41000 136.822
57.42000 129.946
57.43000 140.264
57.44000 148.458
57.45000 154.427
57.46000 157.204
57.47000 159.955
57.48000 159.778
57.49000 156.911
57.50000 154.072
57.51000 151.646
57.52000 149.513
57.53000 147.425
57.54000 146.287
57.55000 145.531
57.56000 144.860
57.57000 145.087
57.58000 145.555
57.59000 145.966
57.60000 148.583
57.61000 151.163
57.62000 153.288
57.63000 153.599
57.64000 153.721
57.65000 151.950
57.66000 145.150
57.67000 138.078
57.68000 133.518
57.69000 132.209
57.70000 131.299
57.71000 133.544
57.72000 139.475
57.73000 145.377
57.74000 144.574
57.75000 138.779
57.76000 133.094
57.77000 137.432
57.78000 146.380
57.79000 154.600
57.80000 152.155
57.81000 146.179
57.82000 140.885
57.83000 141.101
57.84000 142.522
57.85000 143.729
57.86000 145.015
57.87000 146.103
57.88000 146.648
57.89000 145.409
57.90000 144.032
57.91000 142.375
57.92000 140.107
57.93000 137.817
57.94000 136.452
57.95000 143.334
57.96000 148.262
57.97000 152.440
57.98000 155.913
57.99000 159.292
58.00000 156.147
58.01000 149.021
58.02000 142.120
58.03000 142.118
58.04000 144.780
58.05000 147.259
58.06000 147.764
58.07000 147.730
58.08000 147.066
58.09000 142.391
58.10000 137.007
58.11000 132.601
58.12000 136.048
58.13000 139.559
58.14000 142.083
58.15000 141.932
58.16000 141.631
58.17000 140.937
58.18000 139.531
58.19000 138.109
58.20000 137.336
58.21000 138.578
58.22000 139.431
58.23000 139.774
58.24000 139.729
58.25000 139.721
58.26000 141.096
58.27000 143.165
58.28000 145.136
58.29000 144.580
58.30000 143.274
58.31000 142.330
58.32000 144.388
58.33000 147.115
58.34000 149.774
58.35000 152.083
58.36000 154.343
58.37000 156.113
58.38000 153.815
58.39000 151.718
58.40000 149.796
58.41000 148.266
58.42000 146.751
58.43000 146.093
58.44000 146.714
58.45000 147.347
58.46000 144.839
58.47000 139.317
58.48000 133.877
58.49000 134.446
58.50000 138.754
58.51000 142.885
58.52000 143.006
58.53000 141.459
58.54000 140.014
58.55000 136.284
58.56000 132.324
58.57000 129.630
58.58000 135.179
58.59000 142.215
58.60000 147.570
58.61000 145.947
58.62000 143.559
58.63000 141.781
58.64000 144.121
58.65000 146.128
58.66000 145.955
58.67000 141.753
58.68000 137.461
58.69000 134.791
58.70000 134.096
58.71000 133.407
58.72000 132.594
58.73000 131.691
58.74000 130.826
58.75000 131.430
58.76000 132.786
58.77000 134.336
58.78000 138.920
58.79000 144.546
58.80000 149.680
58.81000 145.204
58.82000 139.294
58.83000 134.236
58.84000 133.618
58.85000 133.639
58.86000 134.064
58.87000 135.864
58.88000 137.778
58.89000 139.124
58.90000 139.415
58.91000 139.604
58.92000 138.619
58.93000 135.847
58.94000 133.056
58.95000 132.321
58.96000 133.600
58.97000 134.870
58.98000 135.034
58.99000 134.505
59.00000 134.007
59.01000 134.235
59.02000 134.771
59.03000 135.210
59.04000 134.540
59.05000 133.556
59.06000 132.683
59.07000 133.698
59.08000 134.879
59.09000 135.546
59.10000 134.037
59.11000 132.283
59.12000 130.871
59.13000 130.420
59.14000 130.028
59.15000 129.769
59.16000 135.748
59.17000 140.260
59.18000 144.043
59.19000 146.920
59.20000 149.787
59.21000 150.687
59.22000 150.031
59.23000 149.385
59.24000 144.446
59.25000 137.491
59.26000 130.831
59.27000 128.940
59.28000 128.720
59.29000 128.924
59.30000 132.818
59.31000 137.569
59.32000 141.653
59.33000 140.864
59.34000 139.590
59.35000 138.156
59.36000 136.167
59.37000 134.130
59.38000 132.469
59.39000 131.680
59.40000 130.926
59.41000 130.466
59.42000 130.040
59.43000 129.736
59.44000 131.845
59.45000 136.370
59.46000 140.829
59.47000 139.423
59.48000 134.225
59.49000 129.170
59.50000 127.457
59.51000 127.200
59.52000 126.986
59.53000 127.287
59.54000 127.737
59.55000 129.136
59.56000 137.006
59.57000 146.094
59.58000 153.620
59.59000 143.580
59.60000 133.620
59.61000 127.705
59.62000 133.369
59.63000 139.751
59.64000 144.185
59.65000 144.879
59.66000 145.481
59.67000 145.817
59.68000 136.641
59.69000 130.280
59.70000 131.059
59.71000 137.605
59.72000 143.999
59.73000 143.877
59.74000 140.289
59.75000 136.852
59.76000 138.660
59.77000 142.091
59.78000 145.010
59.79000 143.345
59.80000 140.594
59.81000 138.521
59.82000 140.135
59.83000 142.305
59.84000 144.027
59.85000 144.816
59.86000 145.386
59.87000 145.218
59.88000 143.302
59.89000 141.312
59.90000 139.477
59.91000 137.887
59.92000 136.300
59.93000 135.497
59.94000 138.227
59.95000 140.019
59.96000 138.526
59.97000 134.868
59.98000 131.379
59.99000 132.266
60.00000 135.078
60.01000 137.722
60.02000 133.713
60.03000 128.265
60.04000 123.937
60.05000 127.424
60.06000 132.414
60.07000 136.550
60.08000 136.924
60.09000 136.852
60.10000 136.798
60.11000 137.980
60.12000 138.970
60.13000 139.717
60.14000 139.990
60.15000 140.250
60.16000 139.874
60.17000 138.675
60.18000 137.474
60.19000 137.409
60.20000 138.278
60.21000 139.140
60.22000 139.693
60.23000 140.079
60.24000 140.244
60.25000 136.571
60.26000 131.502
60.27000 126.842
60.28000 127.654
60.29000 129.559
60.30000 131.717
60.31000 135.282
60.32000 139.065
60.33000 141.410
60.34000 138.570
60.35000 135.262
60.36000 132.894
60.37000 130.297
60.38000 128.305
60.39000 127.739
60.40000 129.472
60.41000 131.237
60.42000 133.121
60.43000 135.131
60.44000 137.130
60.45000 136.388
60.46000 133.838
60.47000 131.476
60.48000 134.197
60.49000 139.195
60.50000 143.850
60.51000 144.226
60.52000 143.318
60.53000 142.505
60.54000 144.561
60.55000 146.848
60.56000 147.954
60.57000 143.750
60.58000 138.904
60.59000 134.534
60.60000 131.580
60.61000 128.720
60.62000 126.798
60.63000 130.758
60.64000 133.820
60.65000 134.635
60.66000 132.482
60.67000 130.320
60.68000 130.663
60.69000 133.113
60.70000 135.532
60.71000 134.046
60.72000 130.502
60.73000 127.294
60.74000 130.138
60.75000 135.224
60.76000 139.660
60.77000 137.982
60.78000 134.797
60.79000 132.034
60.80000 133.965
60.81000 136.241
60.82000 137.894
60.83000 137.251
60.84000 136.395
60.85000 133.985
60.86000 127.757
60.87000 121.353
60.88000 117.350
60.89000 126.235
60.90000 132.783
60.91000 133.868
60.92000 129.114
60.93000 124.396
60.94000 124.007
60.95000 126.585
60.96000 129.101
60.97000 130.492
60.98000 131.330
60.99000 132.199
61.00000 133.453
61.01000 134.825
61.02000 136.152
61.03000 137.151
61.04000 138.084
61.05000 138.866
61.06000 137.018
61.07000 135.210
61.08000 133.261
61.09000 130.883
61.10000 128.475
61.11000 127.517
61.12000 129.505
61.13000 131.579
61.14000 132.771
61.15000 135.823
61.16000 137.958
61.17000 135.516
61.18000 129.142
61.19000 122.917
61.20000 124.413
61.21000 130.256
61.22000 135.881
61.23000 134.603
61.24000 130.959
61.25000 128.354
61.26000 135.778
61.27000 145.722
61.28000 153.279
61.29000 146.976
61.30000 138.440
61.31000 131.575
61.32000 137.385
61.33000 143.077
61.34000 146.571
61.35000 144.560
61.36000 142.286
61.37000 139.815
61.38000 137.014
61.39000 134.207
61.40000 132.742
61.41000 137.007
61.42000 139.902
61.43000 143.845
61.44000 148.522
61.45000 153.039
61.46000 152.794
61.47000 150.336
61.48000 148.011
61.49000 154.933
61.50000 163.942
61.51000 173.427
61.52000 186.468
61.53000 200.237
61.54000 215.166
61.55000 235.534
61.56000 256.594
61.57000 272.763
61.58000 288.597
61.59000 301.094
61.60000 313.625
61.61000 326.228
61.62000 338.834
61.63000 348.636
61.64000 354.589
61.65000 360.514
61.66000 364.022
61.67000 365.407
61.68000 366.900
61.69000 374.326
61.70000 385.157
61.71000 395.469
61.72000 395.716
61.73000 392.092
61.74000 388.738
61.75000 373.840
61.76000 357.790
61.77000 341.242
61.78000 321.748
61.79000 301.769
61.80000 283.478
61.81000 271.648
61.82000 260.452
61.83000 252.300
61.84000 224.982
61.85000 203.219
61.86000 186.081
61.87000 176.846
61.88000 167.744
61.89000 161.941
61.90000 159.817
61.91000 157.704
61.92000 157.948
61.93000 159.855
61.94000 161.597
61.95000 158.209
61.96000 152.391
61.97000 146.853
61.98000 145.154
61.99000 144.674
62.00000 144.242
62.01000 143.177
62.02000 142.126
62.03000 140.864
62.04000 138.590
62.05000 136.184
62.06000 135.704
62.07000 141.280
62.08000 147.297
62.09000 151.421
62.10000 141.842
62.11000 134.337
62.12000 131.776
62.13000 136.145
62.14000 140.560
62.15000 143.670
62.16000 145.611
62.17000 147.531
62.18000 148.103
62.19000 147.890
62.20000 147.743
62.21000 148.901
62.22000 150.572
62.23000 151.670
62.24000 146.941
62.25000 140.690
62.26000 135.212
62.27000 138.053
62.28000 141.694
62.29000 144.688
62.30000 145.158
62.31000 145.373
62.32000 145.021
62.33000 143.194
62.34000 141.292
62.35000 140.076
62.36000 140.838
62.37000 141.420
62.38000 140.974
62.39000 139.358
62.40000 137.757
62.41000 138.715
62.42000 141.534
62.43000 144.296
62.44000 146.912
62.45000 149.360
62.46000 151.487
62.47000 149.085
62.48000 145.217
62.49000 142.010
62.50000 143.991
62.51000 147.078
62.52000 149.693
62.53000 147.054
62.54000 144.257
62.55000 142.290
62.56000 142.987
62.57000 143.885
62.58000 144.815
62.59000 145.813
62.60000 146.814
62.61000 147.405
62.62000 152.946
62.63000 156.882
62.64000 154.082
62.65000 145.117
62.66000 136.275
62.67000 135.191
62.68000 138.734
62.69000 142.159
62.70000 142.759
62.71000 142.261
62.72000 141.914
62.73000 143.136
62.74000 144.776
62.75000 146.147
62.76000 145.846
62.77000 145.257
62.78000 144.778
62.79000 145.305
62.80000 145.821
62.81000 146.267
62.82000 146.524
62.83000 146.771
62.84000 145.038
62.85000 139.793
62.86000 134.480
62.87000 131.621
62.88000 134.313
62.89000 136.154
62.90000 137.320
62.91000 137.987
62.92000 138.745
62.93000 142.667
62.94000 148.146
62.95000 153.356
62.96000 152.464
62.97000 149.777
62.98000 147.408
62.99000 147.597
63.00000 148.343
63.01000 148.624
63.02000 146.580
63.03000 144.219
63.04000 142.381
63.05000 146.321
63.06000 149.817
63.07000 151.566
63.08000 149.488
63.09000 147.276
63.10000 146.845
63.11000 149.011
63.12000 151.199
63.13000 152.055
63.14000 151.665
63.15000 151.266
63.16000 150.289
63.17000 148.960
63.18000 147.694
63.19000 147.804
63.20000 148.474
63.21000 149.099
63.22000 148.363
63.23000 147.363
63.24000 146.940
63.25000 150.170
63.26000 154.043
63.27000 156.991
63.28000 156.186
63.29000 154.983
63.30000 154.093
63.31000 152.297
63.32000 150.863
63.33000 149.817
63.34000 149.472
63.35000 149.140
63.36000 148.954
63.37000 148.940
63.38000 148.926
63.39000 150.056
63.40000 152.038
63.41000 153.965
63.42000 153.853
63.43000 152.719
63.44000 151.538
63.45000 149.629
63.46000 147.476
63.47000 145.517
63.48000 146.525
63.49000 148.000
63.50000 149.873
63.51000 153.776
63.52000 157.963
63.53000 160.754
63.54000 158.896
63.55000 156.666
63.56000 155.109
63.57000 150.070
63.58000 146.168
63.59000 145.737
63.60000 150.469
63.61000 155.249
63.62000 157.016
63.63000 155.906
63.64000 154.805
63.65000 152.796
63.66000 150.270
63.67000 147.990
63.68000 151.269
63.69000 156.852
63.70000 162.026
63.71000 162.672
63.72000 162.065
63.73000 161.528
63.74000 161.450
63.75000 161.455
63.76000 161.183
63.77000 159.764
63.78000 158.220
63.79000 156.401
63.80000 153.823
63.81000 151.201
63.82000 149.488
63.83000 154.904
63.84000 158.995
63.85000 161.069
63.86000 160.697
63.87000 160.317
63.88000 159.226
63.89000 157.586
63.90000 155.973
63.91000 154.605
63.92000 153.403
63.93000 152.167
63.94000 150.390
63.95000 148.428
63.96000 147.119
63.97000 151.317
63.98000 156.763
63.99000 161.424
64.00000 167.507
64.01000 172.810
64.02000 176.397
64.03000 174.162
64.04000 171.447
64.05000 169.660
64.06000 169.981
64.07000 170.383
64.08000 170.626
64.09000 163.548
64.10000 158.450
64.11000 159.295
64.12000 165.941
64.13000 172.502
64.14000 172.253
64.15000 167.702
64.16000 163.282
64.17000 161.969
64.18000 161.967
64.19000 162.318
64.20000 166.692
64.21000 172.203
64.22000 176.725
64.23000 174.698
64.24000 171.469
64.25000 168.807
64.26000 170.258
64.27000 171.831
64.28000 171.461
64.29000 165.649
64.30000 159.514
64.31000 156.815
64.32000 160.571
64.33000 164.476
64.34000 166.638
64.35000 167.543
64.36000 168.167
64.37000 169.344
64.38000 170.958
64.39000 172.629
64.40000 176.643
64.41000 181.875
64.42000 186.876
64.43000 183.657
64.44000 177.992
64.45000 172.857
64.46000 172.313
64.47000 172.831
64.48000 173.385
64.49000 174.124
64.50000 174.891
64.51000 175.497
64.52000 172.765
64.53000 170.346
64.54000 169.198
64.55000 170.996
64.56000 172.912
64.57000 173.574
64.58000 172.297
64.59000 170.999
64.60000 170.494
64.61000 170.779
64.62000 171.107
64.63000 175.174
64.64000 181.649
64.65000 187.760
64.66000 184.921
64.67000 178.235
64.68000 171.964
64.69000 174.877
64.70000 179.937
64.71000 184.335
64.72000 184.240
64.73000 183.302
64.74000 182.617
64.75000 183.022
64.76000 183.552
64.77000 183.951
64.78000 183.012
64.79000 182.213
64.80000 184.622
64.81000 193.172
64.82000 201.872
64.83000 203.866
64.84000 197.389
64.85000 190.894
64.86000 186.755
64.87000 184.520
64.88000 182.433
64.89000 186.701
64.90000 194.338
64.91000 201.702
64.92000 204.512
64.93000 205.702
64.94000 206.794
64.95000 206.652
64.96000 206.266
64.97000 207.059
64.98000 214.239
64.99000 222.376
65.00000 228.770
65.01000 229.014
65.02000 228.722
65.03000 228.514
65.04000 226.939
65.05000 225.697
65.06000 228.057
65.07000 236.094
65.08000 244.200
65.09000 251.669
65.10000 258.488
65.11000 265.264
65.12000 270.066
65.13000 273.521
65.14000 276.810
65.15000 275.832
65.16000 272.984
65.17000 270.784
65.18000 276.383
65.19000 284.271
65.20000 291.308
65.21000 301.220
65.22000 310.325
65.23000 317.865
65.24000 318.533
65.25000 318.392
65.26000 320.403
65.27000 328.673
65.28000 337.341
65.29000 343.121
65.30000 355.002
65.31000 363.917
65.32000 374.814
65.33000 388.266
65.34000 401.718
65.35000 410.837
65.36000 416.400
65.37000 421.884
65.38000 424.604
65.39000 425.796
65.40000 427.316
65.41000 434.520
65.42000 443.782
65.43000 451.945
65.44000 450.082
65.45000 445.808
65.46000 442.112
65.47000 453.258
65.48000 464.664
65.49000 476.945
65.50000 492.374
65.51000 508.086
65.52000 517.152
65.53000 510.244
65.54000 502.636
65.55000 497.922
65.56000 501.376
65.57000 503.937
65.58000 511.975
65.59000 525.719
65.60000 539.406
65.61000 547.091
65.62000 550.758
65.63000 554.332
65.64000 565.325
65.65000 578.980
65.66000 594.128
65.67000 627.834
65.68000 667.087
65.69000 708.984
65.70000 769.660
65.71000 834.009
65.72000 887.673
65.73000 979.887
65.74000 1060.197
65.75000 1141.960
65.76000 1228.024
65.77000 1314.372
65.78000 1397.357
65.79000 1473.661
65.80000 1549.783
65.81000 1593.109
65.82000 1655.307
65.83000 1698.673
65.84000 1717.697
65.85000 1716.323
65.86000 1715.345
65.87000 1733.329
65.88000 1761.753
65.89000 1789.061
65.90000 1778.627
65.91000 1755.818
65.92000 1728.922
65.93000 1663.799
65.94000 1589.294
65.95000 1511.642
65.96000 1416.187
65.97000 1317.937
65.98000 1239.321
65.99000 1119.162
66.00000 1018.902
66.01000 923.216
66.02000 838.726
66.03000 754.747
66.04000 680.947
66.05000 623.821
66.06000 566.935
66.07000 537.599
66.08000 499.246
66.09000 473.451
66.10000 452.343
66.11000 434.435
66.12000 416.723
66.13000 404.495
66.14000 394.760
66.15000 385.576
66.16000 373.714
66.17000 362.092
66.18000 353.581
66.19000 367.694
66.20000 386.325
66.21000 401.577
66.22000 401.372
66.23000 399.257
66.24000 397.642
66.25000 408.867
66.26000 418.401
66.27000 428.946
66.28000 441.537
66.29000 454.186
66.30000 472.183
66.31000 497.354
66.32000 522.543
66.33000 543.265
66.34000 560.130
66.35000 576.925
66.36000 590.155
66.37000 601.385
66.38000 612.302
66.39000 617.434
66.40000 620.390
66.41000 623.118
66.42000 618.012
66.43000 611.676
66.44000 606.651
66.45000 609.202
66.46000 612.969
66.47000 613.748
66.48000 603.365
66.49000 591.923
66.50000 583.647
66.51000 567.518
66.52000 554.855
66.53000 537.200
66.54000 511.211
66.55000 485.093
66.56000 461.201
66.57000 439.731
66.58000 418.361
66.59000 404.672
66.60000 396.422
66.61000 388.169
66.62000 379.857
66.63000 371.517
66.64000 363.329
66.65000 357.163
66.66000 351.623
66.67000 346.640
66.68000 350.163
66.69000 354.771
66.70000 359.057
66.71000 361.847
66.72000 364.447
66.73000 365.286
66.74000 360.707
66.75000 355.746
66.76000 352.373
66.77000 362.790
66.78000 370.879
66.79000 373.001
66.80000 366.953
66.81000 360.865
66.82000 362.354
66.83000 370.461
66.84000 378.475
66.85000 383.801
66.86000 387.497
66.87000 391.008
66.88000 390.940
66.89000 389.500
66.90000 387.803
66.91000 383.574
66.92000 378.698
66.93000 374.442
66.94000 377.949
66.95000 382.040
66.96000 385.997
66.97000 389.442
66.98000 392.836
66.99000 397.196
67.00000 404.009
67.01000 410.943
67.02000 415.338
67.03000 410.261
67.04000 406.463
67.05000 404.503
67.06000 404.585
67.07000 404.663
67.08000 404.074
67.09000 403.010
67.10000 401.970
67.11000 407.692
67.12000 416.246
67.13000 424.708
67.14000 431.903
67.15000 438.698
67.16000 445.172
67.17000 449.202
67.18000 452.723
67.19000 455.692
67.20000 450.430
67.21000 445.143
67.22000 441.672
67.23000 443.894
67.24000 446.528
67.25000 449.463
67.26000 453.031
67.27000 456.619
67.28000 458.716
67.29000 460.439
67.30000 461.651
67.31000 465.104
67.32000 470.555
67.33000 475.971
67.34000 479.392
67.35000 481.648
67.36000 483.827
67.37000 480.622
67.38000 475.625
67.39000 471.021
67.40000 470.408
67.41000 470.832
67.42000 471.533
67.43000 473.896
67.44000 476.539
67.45000 478.681
67.46000 485.821
67.47000 492.045
67.48000 495.333
67.49000 491.015
67.50000 486.308
67.51000 488.372
67.52000 502.179
67.53000 516.196
67.54000 523.650
67.55000 513.778
67.56000 507.060
67.57000 502.462
67.58000 499.400
67.59000 496.552
67.60000 500.639
67.61000 508.060
67.62000 515.102
67.63000 516.267
67.64000 515.593
67.65000 514.876
67.66000 513.820
67.67000 512.693
67.68000 512.740
67.69000 518.500
67.70000 525.020
67.71000 530.070
67.72000 534.956
67.73000 538.827
67.74000 541.245
67.75000 540.554
67.76000 539.758
67.77000 542.987
67.78000 551.948
67.79000 560.949
67.80000 571.363
67.81000 583.055
67.82000 594.597
67.83000 596.699
67.84000 593.193
67.85000 589.644
67.86000 585.204
67.87000 580.409
67.88000 575.953
67.89000 582.799
67.90000 591.686
67.91000 600.246
67.92000 606.795
67.93000 612.998
67.94000 617.636
67.95000 616.075
67.96000 613.875
67.97000 612.258
67.98000 623.806
67.99000 633.279
68.00000 637.618
68.01000 632.878
68.02000 627.964
68.03000 628.952
68.04000 636.777
68.05000 644.587
68.06000 646.067
68.07000 642.894
68.08000 639.909
68.09000 643.329
68.10000 649.888
68.11000 656.308
68.12000 660.725
68.13000 664.485
68.14000 667.894
68.15000 672.186
68.16000 676.141
68.17000 680.563
68.18000 687.305
68.19000 694.364
68.20000 700.776
68.21000 705.086
68.22000 709.233
68.23000 712.107
68.24000 721.184
68.25000 728.181
68.26000 735.731
68.27000 744.084
68.28000 752.444
68.29000 759.908
68.30000 766.537
68.31000 773.105
68.32000 771.871
68.33000 766.030
68.34000 760.758
68.35000 767.744
68.36000 779.696
68.37000 791.294
68.38000 799.093
68.39000 805.865
68.40000 811.832
68.41000 832.908
68.42000 853.352
68.43000 871.744
68.44000 881.843
68.45000 891.065
68.46000 901.637
68.47000 915.833
68.48000 930.229
68.49000 939.553
68.50000 967.526
68.51000 988.271
68.52000 1009.833
68.53000 1032.361
68.54000 1054.874
68.55000 1073.889
68.56000 1090.267
68.57000 1106.345
68.58000 1142.655
68.59000 1187.427
68.60000 1233.403
68.61000 1297.388
68.62000 1367.405
68.63000 1436.088
68.64000 1493.835
68.65000 1549.162
68.66000 1596.322
68.67000 1704.916
68.68000 1803.469
68.69000 1898.457
68.70000 1981.617
68.71000 2063.836
68.72000 2142.164
68.73000 2211.842
68.74000 2281.202
68.75000 2322.762
68.76000 2429.858
68.77000 2506.341
68.78000 2604.186
68.79000 2722.347
68.80000 2840.495
68.81000 2957.744
68.82000 3074.439
68.83000 3187.564
68.84000 3386.622
68.85000 3608.754
68.86000 3849.019
68.87000 4288.854
68.88000 4783.746
68.89000 5349.577
68.90000 6373.330
68.91000 7479.049
68.92000 8386.221
68.93000 11394.927
68.94000 14051.160
68.95000 17316.027
68.96000 22247.535
68.97000 27274.236
68.98000 32993.023
68.99000 39982.660
69.00000 46999.750
69.01000 50842.063
69.02000 60938.223
69.03000 67884.164
69.04000 73581.859
69.05000 78319.297
69.06000 83012.930
69.07000 86055.430
69.08000 88257.891
69.09000 90359.094
69.10000 91608.797
69.11000 92499.031
69.12000 93382.383
69.13000 94207.789
69.14000 95020.109
69.15000 95810.133
69.16000 96484.742
69.17000 97142.883
69.18000 97659.766
69.19000 96239.688
69.20000 94976.516
69.21000 92854.172
69.22000 88786.133
69.23000 84643.586
69.24000 80385.047
69.25000 75951.297
69.26000 71515.883
69.27000 67392.922
69.28000 63573.914
69.29000 59764.949
69.30000 56745.098
69.31000 54221.867
69.32000 51727.980
69.33000 49920.035
69.34000 48400.609
69.35000 46979.172
69.36000 45308.855
69.37000 43727.852
69.38000 42013.789
69.39000 39421.188
69.40000 36667.938
69.41000 33762.945
69.42000 30219.957
69.43000 26605.955
69.44000 23905.713
69.45000 19962.510
69.46000 16831.174
69.47000 14003.481
69.48000 11743.991
69.49000 9497.524
69.50000 7706.465
69.51000 6476.784
69.52000 5251.044
69.53000 4384.511
69.54000 3802.935
69.55000 3226.625
69.56000 2859.933
69.57000 2601.911
69.58000 2349.074
69.59000 2179.164
69.60000 2038.093
69.61000 1909.173
69.62000 1811.293
69.63000 1730.701
69.64000 1653.713
69.65000 1595.767
69.66000 1540.601
69.67000 1486.402
69.68000 1435.532
69.69000 1384.943
69.70000 1349.236
69.71000 1308.809
69.72000 1277.985
69.73000 1245.774
69.74000 1211.425
69.75000 1177.052
69.76000 1145.830
69.77000 1117.736
69.78000 1089.842
69.79000 1077.821
69.80000 1076.015
69.81000 1073.276
69.82000 1047.781
69.83000 1012.535
69.84000 979.020
69.85000 965.658
69.86000 958.074
69.87000 951.332
69.88000 941.611
69.89000 932.693
69.90000 921.996
69.91000 903.668
69.92000 884.469
69.93000 869.179
69.94000 865.004
69.95000 861.509
69.96000 859.198
69.97000 825.323
69.98000 799.759
69.99000 788.746
70.00000 796.042
