20.00000 553.747
20.01000 562.977
20.02000 573.526
20.03000 579.689
20.04000 568.909
20.05000 556.443
20.06000 547.342
20.07000 555.679
20.08000 562.788
20.09000 563.971
20.10000 554.931
20.11000 545.712
20.12000 543.818
20.13000 550.186
20.14000 556.538
20.15000 556.468
20.16000 551.817
20.17000 547.469
20.18000 552.796
20.19000 562.750
20.20000 572.101
20.21000 573.058
20.22000 571.322
20.23000 569.753
20.24000 565.335
20.25000 560.920
20.26000 557.413
20.27000 558.300
20.28000 559.766
20.29000 561.965
20.30000 566.488
20.31000 571.185
20.32000 574.413
20.33000 575.307
20.34000 575.920
20.35000 573.331
20.36000 566.207
20.37000 559.050
20.38000 551.420
20.39000 543.361
20.40000 535.384
20.41000 537.287
20.42000 544.858
20.43000 552.279
20.44000 556.615
20.45000 559.730
20.46000 562.458
20.47000 561.185
20.48000 558.857
20.49000 556.813
20.50000 561.719
20.51000 566.952
20.52000 570.226
20.53000 565.782
20.54000 560.549
20.55000 557.095
20.56000 558.308
20.57000 559.766
20.58000 560.702
20.59000 558.192
20.60000 556.315
20.61000 559.728
20.62000 569.230
20.63000 578.693
20.64000 579.922
20.65000 575.101
20.66000 570.376
20.67000 565.276
20.68000 560.192
20.69000 555.309
20.70000 553.323
20.71000 552.284
20.72000 550.842
20.73000 546.192
20.74000 540.850
20.75000 536.317
20.76000 541.417
20.77000 546.786
20.78000 552.237
20.79000 557.953
20.80000 563.689
20.81000 565.597
20.82000 559.198
20.83000 552.513
20.84000 548.549
20.85000 544.407
20.86000 541.476
20.87000 540.950
20.88000 542.648
20.89000 544.356
20.90000 546.671
20.91000 549.351
20.92000 551.944
20.93000 549.054
20.94000 544.236
20.95000 540.407
20.96000 547.071
20.97000 556.560
20.98000 565.092
20.99000 567.627
21.00000 569.118
21.01000 570.334
21.02000 561.406
21.03000 553.231
21.04000 547.669
21.05000 549.090
21.06000 550.892
21.07000 549.662
21.08000 542.999
21.09000 536.227
21.10000 532.565
21.11000 542.003
21.12000 548.460
21.13000 551.099
21.14000 550.877
21.15000 550.717
21.16000 552.752
21.17000 555.877
21.18000 558.852
21.19000 559.871
21.20000 560.211
21.21000 560.185
21.22000 557.179
21.23000 553.517
21.24000 549.816
21.25000 545.919
21.26000 541.994
21.27000 538.930
21.28000 551.889
21.29000 563.232
21.30000 571.430
21.31000 572.677
21.32000 573.672
21.33000 570.419
21.34000 560.908
21.35000 551.342
21.36000 545.319
21.37000 542.646
21.38000 540.046
21.39000 542.634
21.40000 548.406
21.41000 553.777
21.42000 550.251
21.43000 543.070
21.44000 536.371
21.45000 534.221
21.46000 533.405
21.47000 533.368
21.48000 538.335
21.49000 544.191
21.50000 549.903
21.51000 555.025
21.52000 560.084
21.53000 563.838
21.54000 559.916
21.55000 556.532
21.56000 553.367
21.57000 550.605
21.58000 547.851
21.59000 547.079
21.60000 548.688
21.61000 550.297
21.62000 556.237
21.63000 565.433
21.64000 574.394
21.65000 574.612
21.66000 570.406
21.67000 566.516
21.68000 567.467
21.69000 570.060
21.70000 572.422
21.71000 574.896
21.72000 577.109
21.73000 577.819
21.74000 570.790
21.75000 562.666
21.76000 559.403
21.77000 572.492
21.78000 586.908
21.79000 597.005
21.80000 602.198
21.81000 605.985
21.82000 613.637
21.83000 627.093
21.84000 640.605
21.85000 647.784
21.86000 648.846
21.87000 649.899
21.88000 658.275
21.89000 671.006
21.90000 683.733
21.91000 696.385
21.92000 709.005
21.93000 721.482
21.94000 732.360
21.95000 742.791
21.96000 752.031
21.97000 764.479
21.98000 775.753
21.99000 786.209
22.00000 793.239
22.01000 799.890
22.02000 804.853
22.03000 805.128
22.04000 805.129
22.05000 805.130
22.06000 815.299
22.07000 822.945
22.08000 825.573
22.09000 822.052
22.10000 818.525
22.11000 817.850
22.12000 819.399
22.13000 820.923
22.14000 812.117
22.15000 798.446
22.16000 785.134
22.17000 777.523
22.18000 771.885
22.19000 765.744
22.20000 755.303
22.21000 743.877
22.22000 734.080
22.23000 725.916
22.24000 719.221
22.25000 710.670
22.26000 695.757
22.27000 680.311
22.28000 667.478
22.29000 660.636
22.30000 654.032
22.31000 650.019
22.32000 638.693
22.33000 630.552
22.34000 626.573
22.35000 626.701
22.36000 626.778
22.37000 622.620
22.38000 615.761
22.39000 609.096
22.40000 598.010
22.41000 585.685
22.42000 574.282
22.43000 573.530
22.44000 575.814
22.45000 576.466
22.46000 566.162
22.47000 553.824
22.48000 543.633
22.49000 550.488
22.50000 557.729
22.51000 560.191
22.52000 549.142
22.53000 537.275
22.54000 531.591
22.55000 537.637
22.56000 543.962
22.57000 547.482
22.58000 537.038
22.59000 529.802
22.60000 527.380
22.61000 528.791
22.62000 530.362
22.63000 538.576
22.64000 550.280
22.65000 561.479
22.66000 550.531
22.67000 533.064
22.68000 517.105
22.69000 514.399
22.70000 514.789
22.71000 515.824
22.72000 520.323
22.73000 525.336
22.74000 529.304
22.75000 531.110
22.76000 532.412
22.77000 535.252
22.78000 541.686
22.79000 548.268
22.80000 545.783
22.81000 529.138
22.82000 512.326
22.83000 503.882
22.84000 518.556
22.85000 528.300
22.86000 533.170
22.87000 534.869
22.88000 536.316
22.89000 531.441
22.90000 523.820
22.91000 516.665
22.92000 520.663
22.93000 527.263
22.94000 532.378
22.95000 527.296
22.96000 520.280
22.97000 515.589
22.98000 521.014
22.99000 527.615
23.00000 532.590
23.01000 524.890
23.02000 518.238
23.03000 513.635
23.04000 512.991
23.05000 512.448
23.06000 514.129
23.07000 518.652
23.08000 523.178
23.09000 524.558
23.10000 523.384
23.11000 522.144
23.12000 517.957
23.13000 512.192
23.14000 506.644
23.15000 504.753
23.16000 504.175
23.17000 503.645
23.18000 503.634
23.19000 503.734
23.20000 503.640
23.21000 502.478
23.22000 501.154
23.23000 499.096
23.24000 494.423
23.25000 489.519
23.26000 486.022
23.27000 491.514
23.28000 495.995
23.29000 499.128
23.30000 500.115
23.31000 501.074
23.32000 501.272
23.33000 500.685
23.34000 500.102
23.35000 505.138
23.36000 513.783
23.37000 522.128
23.38000 522.641
23.39000 519.689
23.40000 516.636
23.41000 512.357
23.42000 507.714
23.43000 503.565
23.44000 503.584
23.45000 504.304
23.46000 504.549
23.47000 502.690
23.48000 500.580
23.49000 500.227
23.50000 505.030
23.51000 510.167
23.52000 513.604
23.53000 516.603
23.54000 518.817
23.55000 516.046
23.56000 506.779
23.57000 497.493
23.58000 492.300
23.59000 490.502
23.60000 488.729
23.61000 492.757
23.62000 499.749
23.63000 506.583
23.64000 510.631
23.65000 513.660
23.66000 515.121
23.67000 502.099
23.68000 485.555
23.69000 471.227
23.70000 482.458
23.71000 495.389
23.72000 504.247
23.73000 498.316
23.74000 491.037
23.75000 485.595
23.76000 484.611
23.77000 483.826
23.78000 483.338
23.79000 490.244
23.80000 495.291
23.81000 498.275
23.82000 499.084
23.83000 499.861
23.84000 497.232
23.85000 492.298
23.86000 487.485
23.87000 485.920
23.88000 485.824
23.89000 485.961
23.90000 489.027
23.91000 492.978
23.92000 495.980
23.93000 492.152
23.94000 486.974
23.95000 482.647
23.96000 491.323
23.97000 499.844
23.98000 504.690
23.99000 498.541
24.00000 491.655
24.01000 490.152
24.02000 499.451
24.03000 509.054
24.04000 514.545
24.05000 498.664
24.06000 487.521
24.07000 486.425
24.08000 493.842
24.09000 501.144
24.10000 502.783
24.11000 501.273
24.12000 499.821
24.13000 497.902
24.14000 495.940
24.15000 493.971
24.16000 491.945
24.17000 489.903
24.18000 488.789
24.19000 492.982
24.20000 498.016
24.21000 502.054
24.22000 499.159
24.23000 496.289
24.24000 492.897
24.25000 488.217
24.26000 483.477
24.27000 482.390
24.28000 487.345
24.29000 492.391
24.30000 495.007
24.31000 496.268
24.32000 497.102
24.33000 495.985
24.34000 493.523
24.35000 491.301
24.36000 495.976
24.37000 503.818
24.38000 511.225
24.39000 499.791
24.40000 483.978
24.41000 469.847
24.42000 468.096
24.43000 468.844
24.44000 469.966
24.45000 472.814
24.46000 475.877
24.47000 478.221
24.48000 482.601
24.49000 486.168
24.50000 487.651
24.51000 484.873
24.52000 481.970
24.53000 481.173
24.54000 483.232
24.55000 485.306
24.56000 484.839
24.57000 482.181
24.58000 479.530
24.59000 477.248
24.60000 475.175
24.61000 473.169
24.62000 472.409
24.63000 472.123
24.64000 471.858
24.65000 472.242
24.66000 472.733
24.67000 473.265
24.68000 474.029
24.69000 474.831
24.70000 475.661
24.71000 476.598
24.72000 477.546
24.73000 478.233
24.74000 480.772
24.75000 482.793
24.76000 480.088
24.77000 469.415
24.78000 458.613
24.79000 455.730
24.80000 461.557
24.81000 467.364
24.82000 472.554
24.83000 477.262
24.84000 481.973
24.85000 486.789
24.86000 491.654
24.87000 496.117
24.88000 495.184
24.89000 492.560
24.90000 490.196
24.91000 483.959
24.92000 477.788
24.93000 472.481
24.94000 471.250
24.95000 470.541
24.96000 468.748
24.97000 463.591
24.98000 458.193
24.99000 454.510
25.00000 464.068
25.01000 471.523
25.02000 473.455
25.03000 467.746
25.04000 461.997
25.05000 464.251
25.06000 473.572
25.07000 482.790
25.08000 478.736
25.09000 467.291
25.10000 456.685
25.11000 462.504
25.12000 474.679
25.13000 485.527
25.14000 483.100
25.15000 477.250
25.16000 472.134
25.17000 463.766
25.18000 456.135
25.19000 449.995
25.20000 449.598
25.21000 449.770
25.22000 453.331
25.23000 465.589
25.24000 478.284
25.25000 486.360
25.26000 478.357
25.27000 472.341
25.28000 464.904
25.29000 455.872
25.30000 446.913
25.31000 449.076
25.32000 459.221
25.33000 469.153
25.34000 467.456
25.35000 460.501
25.36000 454.161
25.37000 456.330
25.38000 461.220
25.39000 465.460
25.40000 464.690
25.41000 462.865
25.42000 461.324
25.43000 465.511
25.44000 469.641
25.45000 471.971
25.46000 468.604
25.47000 464.818
25.48000 461.528
25.49000 459.293
25.50000 457.092
25.51000 455.800
25.52000 459.400
25.53000 461.964
25.54000 467.416
25.55000 475.474
25.56000 483.284
25.57000 476.068
25.58000 460.008
25.59000 444.493
25.60000 450.880
25.61000 465.039
25.62000 477.434
25.63000 471.700
25.64000 461.200
25.65000 452.688
25.66000 456.314
25.67000 462.000
25.68000 466.618
25.69000 462.904
25.70000 459.184
25.71000 457.353
25.72000 460.457
25.73000 463.818
25.74000 466.888
25.75000 469.447
25.76000 471.996
25.77000 473.359
25.78000 457.102
25.79000 446.085
25.80000 449.141
25.81000 462.498
25.82000 475.440
25.83000 474.591
25.84000 467.043
25.85000 459.875
25.86000 461.445
25.87000 465.522
25.88000 469.318
25.89000 470.888
25.90000 471.979
25.91000 472.137
25.92000 467.709
25.93000 462.663
25.94000 458.746
25.95000 462.157
25.96000 465.311
25.97000 469.380
25.98000 475.429
25.99000 481.544
26.00000 483.507
26.01000 479.495
26.02000 475.437
26.03000 466.952
26.04000 454.398
26.05000 442.013
26.06000 440.623
26.07000 445.830
26.08000 450.926
26.09000 453.680
26.10000 455.492
26.11000 457.179
26.12000 459.549
26.13000 461.857
26.14000 463.228
26.15000 458.749
26.16000 453.256
26.17000 450.060
26.18000 456.058
26.19000 463.016
26.20000 468.147
26.21000 454.485
26.22000 443.114
26.23000 438.508
26.24000 445.979
26.25000 453.688
26.26000 458.441
26.27000 459.731
26.28000 461.012
26.29000 459.276
26.30000 455.315
26.31000 451.512
26.32000 453.215
26.33000 457.645
26.34000 461.315
26.35000 453.798
26.36000 442.568
26.37000 432.369
26.38000 442.863
26.39000 456.135
26.40000 466.047
26.41000 459.092
26.42000 449.814
26.43000 442.022
26.44000 439.122
26.45000 436.605
26.46000 434.855
26.47000 445.804
26.48000 454.401
26.49000 457.277
26.50000 451.755
26.51000 446.161
26.52000 444.946
26.53000 447.853
26.54000 450.734
26.55000 456.023
26.56000 462.655
26.57000 468.965
26.58000 468.185
26.59000 464.504
26.60000 460.656
26.61000 454.988
26.62000 448.823
26.63000 443.382
26.64000 444.314
26.65000 446.093
26.66000 446.567
26.67000 441.719
26.68000 436.299
26.69000 432.668
26.70000 433.888
26.71000 435.381
26.72000 436.351
26.73000 448.288
26.74000 457.203
26.75000 456.985
26.76000 445.846
26.77000 434.727
26.78000 433.030
26.79000 438.512
26.80000 443.897
26.81000 448.501
26.82000 452.567
26.83000 456.529
26.84000 458.902
26.85000 460.739
26.86000 461.450
26.87000 452.804
26.88000 442.066
26.89000 432.896
26.90000 448.351
26.91000 464.295
26.92000 474.520
26.93000 465.586
26.94000 455.105
26.95000 446.318
26.96000 441.332
26.97000 436.488
26.98000 433.574
26.99000 432.194
27.00000 431.224
27.01000 434.321
27.02000 441.331
27.03000 448.237
27.04000 447.255
27.05000 441.354
27.06000 435.630
27.07000 441.281
27.08000 451.134
27.09000 459.859
27.10000 455.998
27.11000 448.629
27.12000 442.429
27.13000 443.864
27.14000 446.681
27.15000 448.997
27.16000 438.193
27.17000 428.130
27.18000 423.069
27.19000 431.834
27.20000 441.405
27.21000 446.407
27.22000 442.940
27.23000 439.283
27.24000 437.271
27.25000 441.498
27.26000 444.402
27.27000 442.698
27.28000 437.412
27.29000 432.291
27.30000 433.543
27.31000 438.069
27.32000 442.392
27.33000 444.565
27.34000 445.896
27.35000 446.497
27.36000 440.881
27.37000 433.847
27.38000 428.343
27.39000 430.847
27.40000 434.506
27.41000 437.386
27.42000 436.841
27.43000 436.175
27.44000 435.958
27.45000 436.766
27.46000 437.615
27.47000 435.974
27.48000 430.536
27.49000 425.057
27.50000 425.162
27.51000 430.755
27.52000 436.399
27.53000 446.262
27.54000 458.807
27.55000 470.755
27.56000 468.428
27.57000 460.039
27.58000 452.183
27.59000 443.022
27.60000 434.354
27.61000 427.399
27.62000 431.894
27.63000 438.506
27.64000 443.061
27.65000 438.877
27.66000 433.708
27.67000 429.835
27.68000 438.587
27.69000 446.013
27.70000 449.550
27.71000 445.739
27.72000 441.754
27.73000 439.020
27.74000 437.847
27.75000 436.680
27.76000 436.048
27.77000 435.843
27.78000 435.739
27.79000 439.772
27.80000 445.971
27.81000 451.789
27.82000 451.397
27.83000 448.824
27.84000 446.470
27.85000 443.772
27.86000 441.301
27.87000 439.040
27.88000 437.901
27.89000 436.927
27.90000 434.827
27.91000 428.802
27.92000 422.441
27.93000 417.937
27.94000 427.254
27.95000 434.764
27.96000 437.329
27.97000 432.201
27.98000 426.983
27.99000 429.955
28.00000 441.157
28.01000 452.284
28.02000 451.025
28.03000 441.881
28.04000 432.871
28.05000 427.235
28.06000 423.058
28.07000 419.493
28.08000 423.174
28.09000 428.953
28.10000 434.100
28.11000 432.322
28.12000 429.641
28.13000 429.991
28.14000 443.473
28.15000 458.475
28.16000 467.553
28.17000 459.623
28.18000 450.633
28.19000 444.666
28.20000 432.077
28.21000 422.651
28.22000 417.714
28.23000 418.484
28.24000 419.272
28.25000 419.449
28.26000 419.132
28.27000 418.819
28.28000 423.092
28.29000 429.612
28.30000 436.122
28.31000 442.456
28.32000 448.728
28.33000 453.374
28.34000 443.448
28.35000 430.062
28.36000 418.514
28.37000 430.866
28.38000 444.409
28.39000 452.990
28.40000 443.960
28.41000 433.379
28.42000 424.878
28.43000 421.313
28.44000 417.959
28.45000 415.892
28.46000 425.266
28.47000 432.098
28.48000 431.873
28.49000 424.403
28.50000 417.011
28.51000 417.271
28.52000 422.588
28.53000 427.767
28.54000 426.864
28.55000 423.446
28.56000 420.894
28.57000 428.890
28.58000 439.998
28.59000 448.675
28.60000 440.340
28.61000 428.723
28.62000 419.060
28.63000 426.421
28.64000 434.187
28.65000 442.072
28.66000 450.310
28.67000 458.571
28.68000 459.978
28.69000 447.940
28.70000 435.546
28.71000 428.535
28.72000 423.673
28.73000 420.310
28.74000 422.180
28.75000 428.376
28.76000 434.498
28.77000 437.237
28.78000 438.136
28.79000 438.999
28.80000 437.848
28.81000 436.086
28.82000 433.978
28.83000 428.679
28.84000 422.608
28.85000 416.662
28.86000 411.414
28.87000 406.274
28.88000 402.173
28.89000 418.007
28.90000 432.247
28.91000 441.280
28.92000 437.721
28.93000 433.604
28.94000 427.425
28.95000 417.912
28.96000 408.355
28.97000 403.460
28.98000 406.359
28.99000 408.328
29.00000 412.415
29.01000 417.929
29.02000 423.413
29.03000 428.097
29.04000 432.421
29.05000 436.495
29.06000 431.559
29.07000 424.560
29.08000 418.304
29.09000 417.363
29.10000 417.470
29.11000 417.517
29.12000 417.291
29.13000 417.033
29.14000 416.836
29.15000 419.107
29.16000 421.024
29.17000 421.475
29.18000 418.997
29.19000 416.437
29.20000 416.392
29.21000 419.675
29.22000 422.971
29.23000 421.906
29.24000 417.173
29.25000 412.531
29.26000 412.290
29.27000 414.489
29.28000 416.518
29.29000 415.484
29.30000 413.311
29.31000 411.308
29.32000 407.138
29.33000 402.925
29.34000 400.858
29.35000 411.018
29.36000 423.112
29.37000 432.332
29.38000 430.950
29.39000 428.579
29.40000 426.871
29.41000 418.582
29.42000 412.000
29.43000 408.547
29.44000 410.253
29.45000 412.036
29.46000 413.436
29.47000 414.426
29.48000 415.412
29.49000 417.033
29.50000 419.067
29.51000 421.032
29.52000 421.017
29.53000 420.097
29.54000 418.706
29.55000 411.240
29.56000 401.911
29.57000 393.534
29.58000 403.576
29.59000 415.602
29.60000 425.355
29.61000 424.650
29.62000 422.641
29.63000 421.169
29.64000 421.329
29.65000 421.601
29.66000 421.785
29.67000 418.179
29.68000 415.409
29.69000 417.649
29.70000 426.656
29.71000 435.688
29.72000 436.123
29.73000 429.152
29.74000 422.266
29.75000 419.802
29.76000 419.834
29.77000 419.970
29.78000 422.043
29.79000 424.849
29.80000 427.397
29.81000 427.435
29.82000 426.842
29.83000 426.325
29.84000 427.490
29.85000 428.717
29.86000 430.023
29.87000 431.622
29.88000 433.248
29.89000 436.692
29.90000 444.694
29.91000 452.915
29.92000 458.099
29.93000 441.651
29.94000 429.493
29.95000 426.505
29.96000 433.560
29.97000 440.604
29.98000 445.624
29.99000 449.226
30.00000 452.747
30.01000 452.423
30.02000 450.394
30.03000 448.923
30.04000 454.884
30.05000 463.168
30.06000 470.497
30.07000 470.659
30.08000 469.351
30.09000 468.250
30.10000 454.952
30.11000 442.565
30.12000 436.419
30.13000 449.591
30.14000 464.134
30.15000 469.830
30.16000 457.164
30.17000 443.932
30.18000 436.244
30.19000 446.954
30.20000 454.549
30.21000 458.179
30.22000 458.321
30.23000 458.315
30.24000 450.079
30.25000 437.107
30.26000 424.598
30.27000 426.377
30.28000 433.230
30.29000 439.634
30.30000 441.571
30.31000 442.360
30.32000 443.070
30.33000 443.309
30.34000 443.469
30.35000 443.598
30.36000 440.487
30.37000 437.697
30.38000 434.618
30.39000 430.801
30.40000 426.947
30.41000 424.600
30.42000 424.835
30.43000 425.114
30.44000 425.261
30.45000 428.508
30.46000 430.712
30.47000 432.551
30.48000 434.130
30.49000 435.682
30.50000 436.433
30.51000 436.802
30.52000 437.152
30.53000 436.726
30.54000 436.106
30.55000 435.480
30.56000 434.811
30.57000 434.132
30.58000 433.662
30.59000 434.194
30.60000 434.857
30.61000 435.369
30.62000 445.185
30.63000 453.508
30.64000 453.186
30.65000 434.583
30.66000 415.388
30.67000 409.873
30.68000 423.584
30.69000 437.423
30.70000 446.043
30.71000 449.969
30.72000 453.823
30.73000 453.429
30.74000 450.542
30.75000 447.754
30.76000 446.983
30.77000 447.003
30.78000 447.022
30.79000 453.001
30.80000 459.795
30.81000 466.037
30.82000 468.912
30.83000 471.218
30.84000 472.704
30.85000 470.982
30.86000 468.935
30.87000 467.436
30.88000 471.124
30.89000 474.179
30.90000 481.003
30.91000 494.406
30.92000 507.928
30.93000 519.077
30.94000 527.513
30.95000 535.918
30.96000 542.912
30.97000 548.827
30.98000 554.943
30.99000 567.652
31.00000 583.553
31.01000 599.467
31.02000 615.580
31.03000 631.758
31.04000 646.404
31.05000 682.814
31.06000 718.988
31.07000 753.703
31.08000 781.280
31.09000 807.899
31.10000 838.770
31.11000 883.305
31.12000 928.873
31.13000 960.323
31.14000 1056.328
31.15000 1130.112
31.16000 1199.090
31.17000 1261.178
31.18000 1323.228
31.19000 1417.353
31.20000 1540.914
31.21000 1663.279
31.22000 1787.586
31.23000 1910.442
31.24000 2033.122
31.25000 2152.072
31.26000 2269.530
31.27000 2389.882
31.28000 2540.642
31.29000 2699.523
31.30000 2839.245
31.31000 2966.594
31.32000 3074.329
31.33000 3179.074
31.34000 3271.899
31.35000 3363.487
31.36000 3443.624
31.37000 3493.370
31.38000 3541.481
31.39000 3572.494
31.40000 3572.575
31.41000 3572.195
31.42000 3565.619
31.43000 3551.818
31.44000 3537.842
31.45000 3492.931
31.46000 3425.006
31.47000 3358.374
31.48000 3272.622
31.49000 3180.908
31.50000 3085.979
31.51000 2943.944
31.52000 2786.331
31.53000 2631.583
31.54000 2499.969
31.55000 2373.405
31.56000 2265.777
31.57000 2114.182
31.58000 1981.796
31.59000 1854.689
31.60000 1744.874
31.61000 1636.405
31.62000 1537.047
31.63000 1457.686
31.64000 1379.036
31.65000 1332.168
31.66000 1207.423
31.67000 1118.548
31.68000 1049.423
31.69000 998.816
31.70000 948.258
31.71000 901.157
31.72000 856.162
31.73000 812.584
31.74000 778.005
31.75000 748.766
31.76000 720.083
31.77000 697.393
31.78000 676.335
31.79000 655.935
31.80000 639.715
31.81000 624.233
31.82000 611.565
31.83000 594.815
31.84000 580.735
31.85000 564.313
31.86000 541.558
31.87000 518.449
31.88000 502.861
31.89000 500.909
31.90000 499.240
31.91000 498.332
31.92000 489.212
31.93000 482.947
31.94000 477.380
31.95000 472.341
31.96000 467.326
31.97000 463.204
31.98000 459.531
31.99000 456.031
32.00000 447.267
32.01000 437.498
32.02000 428.817
32.03000 429.128
32.04000 431.443
32.05000 433.225
32.06000 432.291
32.07000 430.976
32.08000 429.946
32.09000 427.240
32.10000 424.971
32.11000 422.566
32.12000 419.856
32.13000 417.134
32.14000 416.342
32.15000 418.425
32.16000 420.536
32.17000 416.967
32.18000 407.960
32.19000 399.054
32.20000 397.696
32.21000 401.029
32.22000 404.374
32.23000 408.027
32.24000 411.808
32.25000 415.339
32.26000 413.586
32.27000 410.665
32.28000 407.481
32.29000 402.582
32.30000 397.375
32.31000 394.109
32.32000 398.903
32.33000 404.578
32.34000 408.803
32.35000 411.262
32.36000 413.097
32.37000 412.605
32.38000 407.811
32.39000 402.923
32.40000 400.327
32.41000 400.519
32.42000 400.716
32.43000 396.258
32.44000 388.239
32.45000 380.414
32.46000 379.988
32.47000 383.350
32.48000 386.745
32.49000 390.660
32.50000 394.754
32.51000 398.489
32.52000 396.197
32.53000 392.951
32.54000 390.003
32.55000 388.611
32.56000 387.443
32.57000 387.888
32.58000 393.825
32.59000 400.216
32.60000 404.709
32.61000 387.311
32.62000 373.487
32.63000 366.252
32.64000 369.036
32.65000 371.925
32.66000 374.671
32.67000 377.277
32.68000 379.863
32.69000 378.212
32.70000 373.949
32.71000 369.989
32.72000 373.197
32.73000 379.439
32.74000 385.575
32.75000 390.502
32.76000 395.087
32.77000 399.156
32.78000 406.389
32.79000 413.161
32.80000 421.674
32.81000 437.552
32.82000 454.258
32.83000 470.441
32.84000 485.154
32.85000 499.780
32.86000 509.409
32.87000 523.362
32.88000 533.714
32.89000 545.633
32.90000 559.497
32.91000 573.350
32.92000 582.322
32.93000 587.438
32.94000 592.472
32.95000 590.514
32.96000 585.087
32.97000 579.676
32.98000 574.545
32.99000 569.512
33.00000 565.161
33.01000 566.743
33.02000 569.700
33.03000 572.240
33.04000 559.946
33.05000 547.700
33.06000 532.091
33.07000 504.817
33.08000 476.550
33.09000 452.152
33.10000 436.737
33.11000 421.686
33.12000 412.496
33.13000 412.430
33.14000 412.457
33.15000 408.335
33.16000 400.061
33.17000 391.783
33.18000 383.158
33.19000 374.308
33.20000 365.702
33.21000 362.381
33.22000 361.390
33.23000 360.364
33.24000 358.927
33.25000 357.372
33.26000 355.669
33.27000 352.963
33.28000 350.068
33.29000 347.670
33.30000 357.287
33.31000 366.366
33.32000 370.859
33.33000 362.238
33.34000 352.805
33.35000 345.309
33.36000 341.530
33.37000 337.843
33.38000 335.779
33.39000 341.289
33.40000 345.118
33.41000 346.775
33.42000 346.678
33.43000 346.518
33.44000 343.652
33.45000 339.347
33.46000 335.224
33.47000 336.781
33.48000 340.121
33.49000 342.814
33.50000 339.733
33.51000 335.286
33.52000 332.243
33.53000 336.833
33.54000 342.573
33.55000 347.128
33.56000 351.675
33.57000 355.333
33.58000 358.270
33.59000 359.500
33.60000 360.657
33.61000 359.015
33.62000 352.950
33.63000 346.829
33.64000 343.735
33.65000 335.035
33.66000 329.210
33.67000 323.057
33.68000 316.689
33.69000 310.563
33.70000 310.677
33.71000 313.533
33.72000 316.217
33.73000 322.783
33.74000 329.821
33.75000 336.522
33.76000 340.885
33.77000 344.799
33.78000 347.930
33.79000 347.613
33.80000 346.889
33.81000 346.342
33.82000 341.467
33.83000 337.427
33.84000 336.683
33.85000 342.386
33.86000 348.257
33.87000 351.735
33.88000 352.118
33.89000 352.489
33.90000 345.773
33.91000 333.265
33.92000 321.114
33.93000 325.198
33.94000 338.078
33.95000 350.126
33.96000 347.770
33.97000 340.181
33.98000 333.206
33.99000 331.228
34.00000 330.538
34.01000 330.755
34.02000 336.012
34.03000 342.044
34.04000 346.919
34.05000 347.623
34.06000 347.951
34.07000 348.186
34.08000 347.784
34.09000 347.456
34.10000 346.652
34.11000 345.083
34.12000 343.503
34.13000 341.747
34.14000 339.805
34.15000 337.874
34.16000 333.323
34.17000 327.094
34.18000 321.202
34.19000 324.351
34.20000 331.548
34.21000 337.918
34.22000 333.981
34.23000 326.953
34.24000 320.663
34.25000 323.801
34.26000 328.151
34.27000 331.167
34.28000 328.185
34.29000 324.476
34.30000 322.028
34.31000 323.322
34.32000 324.863
34.33000 325.898
34.34000 331.688
34.35000 336.086
34.36000 337.516
34.37000 335.031
34.38000 332.527
34.39000 328.874
34.40000 324.257
34.41000 319.700
34.42000 317.169
34.43000 315.795
34.44000 314.924
34.45000 323.085
34.46000 334.589
34.47000 344.594
34.48000 340.516
34.49000 332.972
34.50000 326.425
34.51000 328.271
34.52000 330.969
34.53000 333.464
34.54000 335.212
34.55000 336.890
34.56000 336.041
34.57000 328.987
34.58000 321.649
34.59000 317.063
34.60000 318.642
34.61000 319.847
34.62000 319.826
34.63000 318.498
34.64000 317.204
34.65000 319.854
34.66000 325.206
34.67000 330.431
34.68000 332.325
34.69000 332.685
34.70000 332.804
34.71000 329.841
34.72000 325.936
34.73000 322.331
34.74000 320.919
34.75000 319.945
34.76000 319.130
34.77000 321.372
34.78000 323.552
34.79000 326.496
34.80000 331.756
34.81000 337.174
34.82000 338.512
34.83000 331.566
34.84000 324.379
34.85000 320.247
34.86000 318.720
34.87000 317.659
34.88000 314.441
34.89000 309.372
34.90000 304.476
34.91000 308.428
34.92000 317.358
34.93000 325.954
34.94000 328.344
34.95000 328.390
34.96000 328.095
34.97000 324.497
34.98000 320.070
34.99000 316.295
35.00000 316.301
35.01000 316.915
35.02000 317.409
35.03000 320.157
35.04000 322.560
35.05000 322.981
35.06000 318.446
35.07000 313.674
35.08000 311.000
35.09000 311.839
35.10000 312.732
35.11000 313.198
35.12000 317.825
35.13000 320.930
35.14000 320.681
35.15000 318.091
35.16000 315.541
35.17000 314.154
35.18000 313.307
35.19000 312.506
35.20000 313.287
35.21000 314.457
35.22000 315.287
35.23000 313.579
35.24000 311.353
35.25000 309.451
35.26000 309.064
35.27000 308.869
35.28000 308.720
35.29000 311.412
35.30000 313.697
35.31000 316.687
35.32000 321.132
35.33000 325.622
35.34000 325.895
35.35000 320.380
35.36000 314.833
35.37000 312.032
35.38000 311.638
35.39000 311.180
35.40000 307.234
35.41000 301.288
35.42000 295.871
35.43000 300.672
35.44000 309.399
35.45000 317.477
35.46000 317.842
35.47000 316.396
35.48000 314.090
35.49000 306.688
35.50000 298.446
35.51000 292.917
35.52000 297.754
35.53000 303.606
35.54000 307.865
35.55000 308.234
35.56000 308.369
35.57000 307.762
35.58000 305.887
35.59000 303.991
35.60000 304.773
35.61000 308.539
35.62000 312.292
35.63000 315.299
35.64000 317.751
35.65000 320.070
35.66000 318.289
35.67000 314.566
35.68000 310.924
35.69000 308.379
35.70000 306.183
35.71000 304.201
35.72000 300.790
35.73000 297.531
35.74000 296.561
35.75000 306.531
35.76000 317.925
35.77000 324.066
35.78000 313.699
35.79000 302.130
35.80000 294.205
35.81000 311.254
35.82000 324.623
35.83000 328.776
35.84000 320.024
35.85000 311.186
35.86000 304.190
35.87000 298.842
35.88000 293.551
35.89000 293.370
35.90000 296.112
35.91000 298.916
35.92000 302.970
35.93000 307.512
35.94000 311.797
35.95000 313.477
35.96000 314.476
35.97000 315.351
35.98000 309.721
35.99000 303.952
36.00000 300.174
36.01000 304.151
36.02000 308.909
36.03000 311.500
36.04000 308.465
36.05000 305.142
36.06000 303.017
36.07000 297.627
36.08000 293.660
36.09000 294.162
36.10000 299.747
36.11000 305.307
36.12000 305.891
36.13000 302.861
36.14000 299.892
36.15000 301.143
36.16000 304.303
36.17000 307.227
36.18000 306.836
36.19000 305.372
36.20000 303.976
36.21000 303.115
36.22000 302.367
36.23000 301.733
36.24000 304.284
36.25000 306.775
36.26000 308.714
36.27000 308.887
36.28000 308.928
36.29000 309.308
36.30000 310.418
36.31000 311.553
36.32000 312.223
36.33000 317.465
36.34000 321.189
36.35000 320.060
36.36000 314.495
36.37000 309.013
36.38000 308.786
36.39000 311.688
36.40000 314.495
36.41000 313.388
36.42000 310.870
36.43000 308.203
36.44000 303.980
36.45000 299.341
36.46000 295.049
36.47000 292.895
36.48000 291.109
36.49000 289.655
36.50000 291.467
36.51000 293.223
36.52000 294.401
36.53000 294.054
36.54000 293.625
36.55000 294.489
36.56000 297.642
36.57000 300.839
36.58000 302.559
36.59000 310.088
36.60000 315.202
36.61000 313.492
36.62000 306.726
36.63000 300.062
36.64000 296.920
36.65000 295.507
36.66000 294.164
36.67000 295.315
36.68000 297.140
36.69000 298.670
36.70000 297.830
36.71000 296.474
36.72000 294.595
36.73000 290.109
36.74000 285.267
36.75000 281.497
36.76000 281.911
36.77000 282.499
36.78000 284.554
36.79000 289.817
36.80000 295.194
36.81000 296.457
36.82000 291.732
36.83000 286.956
36.84000 284.775
36.85000 285.016
36.86000 285.350
36.87000 291.947
36.88000 302.347
36.89000 312.340
36.90000 313.526
36.91000 311.133
36.92000 308.903
36.93000 303.341
36.94000 297.492
36.95000 293.210
36.96000 298.858
36.97000 306.250
36.98000 313.219
36.99000 318.472
37.00000 323.542
37.01000 327.294
37.02000 317.562
37.03000 309.433
37.04000 305.136
37.05000 307.765
37.06000 310.535
37.07000 314.479
37.08000 319.814
37.09000 325.138
37.10000 323.057
37.11000 315.428
37.12000 307.983
37.13000 307.177
37.14000 309.694
37.15000 311.966
37.16000 310.550
37.17000 307.895
37.18000 305.480
37.19000 305.228
37.20000 305.429
37.21000 305.889
37.22000 307.665
37.23000 309.624
37.24000 309.592
37.25000 302.930
37.26000 295.739
37.27000 290.720
37.28000 290.484
37.29000 290.438
37.30000 290.095
37.31000 289.310
37.32000 288.522
37.33000 292.246
37.34000 300.274
37.35000 308.235
37.36000 306.452
37.37000 298.780
37.38000 291.504
37.39000 293.153
37.40000 298.495
37.41000 303.331
37.42000 302.563
37.43000 300.245
37.44000 298.195
37.45000 294.382
37.46000 290.815
37.47000 288.478
37.48000 291.229
37.49000 294.533
37.50000 296.789
37.51000 296.168
37.52000 295.382
37.53000 294.868
37.54000 296.875
37.55000 298.388
37.56000 300.892
37.57000 304.595
37.58000 308.297
37.59000 310.943
37.60000 312.775
37.61000 314.575
37.62000 307.924
37.63000 297.328
37.64000 287.173
37.65000 283.850
37.66000 282.865
37.67000 282.106
37.68000 283.260
37.69000 284.847
37.70000 286.205
37.71000 287.885
37.72000 289.341
37.73000 292.040
37.74000 298.956
37.75000 306.219
37.76000 310.666
37.77000 308.722
37.78000 306.531
37.79000 305.206
37.80000 301.176
37.81000 298.284
37.82000 294.828
37.83000 290.822
37.84000 286.823
37.85000 283.443
37.86000 280.453
37.87000 277.549
37.88000 278.209
37.89000 280.263
37.90000 282.633
37.91000 288.601
37.92000 295.584
37.93000 301.435
37.94000 299.787
37.95000 296.764
37.96000 294.273
37.97000 293.739
37.98000 293.479
37.99000 293.125
38.00000 292.507
38.01000 291.874
38.02000 291.113
38.03000 290.111
38.04000 289.103
38.05000 288.546
38.06000 295.312
38.07000 299.977
38.08000 299.399
38.09000 294.693
38.10000 290.123
38.11000 290.983
38.12000 294.667
38.13000 298.189
38.14000 304.745
38.15000 311.829
38.16000 317.728
38.17000 313.368
38.18000 306.639
38.19000 300.809
38.20000 299.740
38.21000 299.368
38.22000 299.074
38.23000 301.229
38.24000 303.124
38.25000 305.487
38.26000 308.935
38.27000 312.425
38.28000 316.643
38.29000 321.982
38.30000 327.333
38.31000 332.629
38.32000 337.868
38.33000 343.106
38.34000 348.204
38.35000 353.213
38.36000 358.049
38.37000 358.666
38.38000 357.471
38.39000 356.350
38.40000 373.840
38.41000 394.642
38.42000 414.492
38.43000 427.898
38.44000 440.096
38.45000 452.757
38.46000 467.407
38.47000 482.285
38.48000 493.468
38.49000 536.549
38.50000 571.767
38.51000 602.563
38.52000 624.905
38.53000 647.040
38.54000 677.044
38.55000 716.978
38.56000 756.880
38.57000 797.025
38.58000 837.195
38.59000 877.345
38.60000 916.647
38.61000 955.500
38.62000 994.268
38.63000 1031.620
38.64000 1068.470
38.65000 1102.241
38.66000 1126.280
38.67000 1145.646
38.68000 1165.026
38.69000 1184.477
38.70000 1203.940
38.71000 1221.164
38.72000 1230.500
38.73000 1239.149
38.74000 1245.295
38.75000 1243.392
38.76000 1241.687
38.77000 1224.610
38.78000 1183.329
38.79000 1141.752
38.80000 1110.430
38.81000 1089.552
38.82000 1068.806
38.83000 1038.792
38.84000 1003.221
38.85000 967.323
38.86000 923.053
38.87000 875.118
38.88000 826.727
38.89000 772.834
38.90000 717.329
38.91000 667.818
38.92000 630.312
38.93000 599.678
38.94000 570.100
38.95000 545.160
38.96000 520.765
38.97000 498.811
38.98000 483.950
38.99000 469.539
39.00000 459.935
39.01000 433.036
39.02000 412.791
39.03000 394.783
39.04000 379.655
39.05000 364.545
39.06000 352.685
39.07000 343.489
39.08000 334.424
39.09000 331.805
39.10000 332.641
39.11000 333.099
39.12000 327.032
39.13000 318.603
39.14000 310.377
39.15000 304.001
39.16000 298.070
39.17000 292.943
39.18000 295.797
39.19000 299.261
39.20000 303.109
39.21000 308.336
39.22000 313.686
39.23000 315.399
39.24000 308.378
39.25000 300.976
39.26000 296.392
39.27000 296.593
39.28000 296.783
39.29000 296.069
39.30000 294.415
39.31000 292.759
39.32000 291.001
39.33000 289.174
39.34000 287.393
39.35000 285.143
39.36000 282.797
39.37000 280.610
39.38000 280.401
39.39000 280.784
39.40000 281.126
39.41000 281.190
39.42000 281.199
39.43000 281.206
39.44000 273.849
39.45000 267.015
39.46000 263.367
39.47000 269.148
39.48000 275.548
39.49000 277.755
39.50000 271.637
39.51000 265.291
39.52000 261.681
39.53000 267.283
39.54000 271.222
39.55000 278.724
39.56000 289.208
39.57000 299.405
39.58000 295.893
39.59000 284.839
39.60000 274.220
39.61000 270.208
39.62000 268.734
39.63000 268.136
39.64000 275.725
39.65000 285.321
39.66000 292.802
39.67000 288.328
39.68000 281.979
39.69000 276.900
39.70000 278.211
39.71000 279.747
39.72000 280.053
39.73000 277.351
39.74000 274.513
39.75000 272.780
39.76000 272.855
39.77000 272.956
39.78000 273.009
39.79000 267.724
39.80000 264.212
39.81000 266.215
39.82000 271.980
39.83000 277.435
39.84000 274.200
39.85000 267.016
39.86000 260.240
39.87000 263.948
39.88000 270.272
39.89000 275.170
39.90000 269.714
39.91000 262.192
39.92000 255.995
39.93000 255.850
39.94000 256.453
39.95000 256.912
39.96000 254.447
39.97000 252.348
39.98000 252.184
39.99000 255.932
40.00000 259.792
40.01000 261.302
40.02000 259.661
40.03000 258.005
40.04000 257.906
40.05000 259.135
40.06000 260.304
40.07000 258.379
40.08000 254.720
40.09000 251.522
40.10000 256.825
40.11000 265.323
40.12000 273.168
40.13000 272.532
40.14000 270.061
40.15000 267.755
40.16000 266.402
40.17000 265.201
40.18000 264.894
40.19000 267.921
40.20000 271.264
40.21000 273.682
40.22000 267.884
40.23000 263.137
40.24000 262.269
40.25000 267.872
40.26000 273.576
40.27000 271.654
40.28000 261.450
40.29000 251.289
40.30000 248.240
40.31000 250.119
40.32000 252.097
40.33000 257.012
40.34000 263.286
40.35000 268.836
40.36000 264.842
40.37000 257.888
40.38000 251.632
40.39000 256.790
40.40000 263.346
40.41000 267.274
40.42000 258.951
40.43000 249.078
40.44000 242.842
40.45000 247.781
40.46000 253.504
40.47000 257.395
40.48000 259.214
40.49000 260.524
40.50000 258.347
40.51000 251.399
40.52000 244.431
40.53000 243.589
40.54000 248.094
40.55000 252.547
40.56000 257.363
40.57000 262.265
40.58000 266.803
40.59000 264.363
40.60000 259.251
40.61000 254.218
40.62000 249.961
40.63000 245.903
40.64000 242.360
40.65000 245.264
40.66000 248.654
40.67000 252.248
40.68000 256.621
40.69000 261.069
40.70000 262.445
40.71000 256.016
40.72000 249.203
40.73000 244.888
40.74000 246.236
40.75000 247.283
40.76000 247.312
40.77000 246.213
40.78000 245.160
40.79000 250.818
40.80000 261.236
40.81000 271.429
40.82000 269.800
40.83000 262.885
40.84000 256.078
40.85000 250.725
40.86000 245.832
40.87000 242.006
40.88000 246.306
40.89000 252.295
40.90000 257.345
40.91000 255.674
40.92000 253.552
40.93000 251.777
40.94000 251.087
40.95000 250.475
40.96000 249.209
40.97000 246.565
40.98000 243.879
40.99000 242.309
41.00000 247.597
41.01000 251.345
41.02000 249.848
41.03000 243.677
41.04000 237.670
41.05000 241.223
41.06000 250.344
41.07000 259.146
41.08000 254.931
41.09000 246.182
41.10000 238.246
41.11000 238.544
41.12000 240.982
41.13000 243.075
41.14000 243.081
41.15000 242.737
41.16000 242.458
41.17000 249.085
41.18000 255.045
41.19000 257.979
41.20000 253.084
41.21000 247.790
41.22000 245.433
41.23000 248.167
41.24000 250.991
41.25000 252.492
41.26000 242.436
41.27000 235.625
41.28000 235.368
41.29000 239.853
41.30000 244.235
41.31000 245.285
41.32000 244.735
41.33000 244.212
41.34000 244.945
41.35000 245.994
41.36000 247.240
41.37000 250.025
41.38000 253.135
41.39000 255.661
41.40000 255.344
41.41000 254.649
41.42000 254.112
41.43000 250.319
41.44000 247.114
41.45000 245.232
41.46000 246.178
41.47000 247.218
41.48000 246.067
41.49000 241.798
41.50000 237.507
41.51000 235.789
41.52000 236.412
41.53000 237.011
41.54000 236.060
41.55000 234.189
41.56000 232.365
41.57000 231.518
41.58000 231.059
41.59000 230.632
41.60000 230.415
41.61000 230.269
41.62000 231.112
41.63000 238.057
41.64000 246.047
41.65000 251.346
41.66000 245.998
41.67000 239.556
41.68000 234.820
41.69000 236.826
41.70000 238.655
41.71000 240.157
41.72000 241.083
41.73000 241.997
41.74000 243.895
41.75000 246.931
41.76000 249.959
41.77000 251.051
41.78000 250.715
41.79000 250.186
41.80000 243.074
41.81000 232.739
41.82000 223.036
41.83000 222.475
41.84000 224.915
41.85000 227.128
41.86000 234.157
41.87000 241.277
41.88000 247.884
41.89000 251.943
41.90000 255.656
41.91000 256.336
41.92000 247.151
41.93000 237.206
41.94000 230.316
41.95000 230.490
41.96000 230.807
41.97000 231.091
41.98000 231.327
41.99000 231.563
42.00000 232.258
42.01000 233.381
42.02000 234.494
42.03000 234.746
42.04000 234.482
42.05000 234.315
42.06000 236.222
42.07000 238.969
42.08000 241.354
42.09000 239.866
42.10000 237.332
42.11000 235.099
42.12000 236.870
42.13000 239.001
42.14000 240.309
42.15000 238.299
42.16000 235.938
42.17000 233.211
42.18000 229.501
42.19000 225.737
42.20000 223.299
42.21000 234.536
42.22000 242.960
42.23000 246.890
42.24000 245.512
42.25000 244.124
42.26000 242.862
42.27000 241.694
42.28000 240.547
42.29000 237.027
42.30000 232.490
42.31000 228.481
42.32000 232.366
42.33000 238.892
42.34000 244.533
42.35000 242.921
42.36000 239.706
42.37000 236.967
42.38000 234.991
42.39000 233.419
42.40000 231.355
42.41000 227.660
42.42000 223.836
42.43000 222.311
42.44000 225.893
42.45000 229.661
42.46000 231.918
42.47000 225.255
42.48000 220.467
42.49000 221.897
42.50000 229.233
42.51000 236.463
42.52000 236.019
42.53000 230.843
42.54000 225.825
42.55000 226.358
42.56000 229.031
42.57000 231.745
42.58000 234.912
42.59000 238.204
42.60000 240.222
42.61000 234.029
42.62000 226.367
42.63000 220.083
42.64000 221.016
42.65000 222.424
42.66000 223.971
42.67000 225.900
42.68000 227.851
42.69000 228.432
42.70000 226.497
42.71000 224.509
42.72000 223.421
42.73000 227.497
42.74000 230.301
42.75000 231.879
42.76000 232.514
42.77000 233.041
42.78000 229.498
42.79000 223.886
42.80000 218.532
42.81000 218.862
42.82000 220.966
42.83000 223.348
42.84000 228.071
42.85000 233.321
42.86000 237.720
42.87000 237.724
42.88000 237.102
42.89000 236.613
42.90000 238.038
42.91000 239.302
42.92000 240.784
42.93000 242.756
42.94000 244.747
42.95000 246.484
42.96000 247.837
42.97000 249.186
42.98000 247.021
42.99000 241.443
43.00000 235.917
43.01000 234.541
43.02000 235.772
43.03000 237.080
43.04000 240.196
43.05000 244.071
43.06000 247.695
43.07000 242.770
43.08000 236.114
43.09000 230.583
43.10000 232.469
43.11000 235.709
43.12000 236.832
43.13000 229.060
43.14000 220.300
43.15000 213.756
43.16000 225.539
43.17000 235.567
43.18000 243.175
43.19000 246.256
43.20000 249.234
43.21000 247.400
43.22000 239.638
43.23000 231.877
43.24000 228.264
43.25000 227.908
43.26000 227.567
43.27000 227.855
43.28000 228.469
43.29000 229.159
43.30000 231.044
43.31000 233.346
43.32000 235.448
43.33000 232.376
43.34000 228.590
43.35000 225.788
43.36000 228.183
43.37000 231.337
43.38000 233.107
43.39000 230.114
43.40000 226.720
43.41000 224.325
43.42000 230.239
43.43000 234.979
43.44000 234.318
43.45000 225.344
43.46000 216.279
43.47000 213.986
43.48000 218.412
43.49000 222.807
43.50000 224.437
43.51000 224.296
43.52000 224.152
43.53000 223.899
43.54000 223.600
43.55000 223.331
43.56000 223.426
43.57000 223.624
43.58000 223.799
43.59000 226.026
43.60000 228.289
43.61000 228.994
43.62000 223.025
43.63000 216.294
43.64000 211.334
43.65000 211.408
43.66000 211.789
43.67000 212.041
43.68000 216.315
43.69000 219.540
43.70000 222.082
43.71000 223.765
43.72000 225.438
43.73000 224.965
43.74000 222.775
43.75000 220.618
43.76000 223.541
43.77000 228.975
43.78000 233.905
43.79000 230.510
43.80000 224.166
43.81000 218.659
43.82000 220.531
43.83000 224.137
43.84000 227.241
43.85000 226.645
43.86000 225.672
43.87000 225.674
43.88000 229.095
43.89000 232.813
43.90000 234.672
43.91000 232.163
43.92000 229.472
43.93000 227.821
43.94000 224.777
43.95000 222.584
43.96000 222.662
43.97000 225.045
43.98000 227.394
43.99000 226.597
44.00000 223.745
44.01000 220.969
44.02000 219.376
44.03000 218.350
44.04000 217.594
44.05000 220.078
44.06000 223.509
44.07000 225.993
44.08000 221.949
44.09000 216.661
44.10000 212.271
44.11000 214.736
44.12000 217.436
44.13000 219.405
44.14000 219.258
44.15000 218.977
44.16000 218.497
44.17000 217.630
44.18000 216.754
44.19000 216.261
44.20000 229.723
44.21000 239.086
44.22000 240.947
44.23000 236.680
44.24000 232.501
44.25000 232.269
44.26000 234.160
44.27000 235.973
44.28000 237.099
44.29000 237.918
44.30000 238.194
44.31000 233.548
44.32000 227.722
44.33000 222.779
44.34000 222.693
44.35000 223.349
44.36000 223.871
44.37000 222.766
44.38000 221.758
44.39000 220.682
44.40000 219.441
44.41000 218.193
44.42000 217.350
44.43000 217.155
44.44000 216.969
44.45000 216.874
44.46000 220.641
44.47000 223.166
44.48000 225.652
44.49000 228.110
44.50000 230.574
44.51000 233.204
44.52000 235.907
44.53000 238.451
44.54000 239.629
44.55000 240.334
44.56000 240.630
44.57000 238.027
44.58000 234.861
44.59000 232.713
44.60000 235.102
44.61000 238.034
44.62000 240.259
44.63000 233.842
44.64000 228.358
44.65000 226.798
44.66000 232.999
44.67000 239.410
44.68000 247.922
44.69000 259.185
44.70000 270.447
44.71000 274.792
44.72000 273.373
44.73000 271.910
44.74000 268.336
44.75000 263.606
44.76000 259.525
44.77000 266.946
44.78000 278.596
44.79000 289.318
44.80000 298.163
44.81000 305.661
44.82000 311.884
44.83000 310.929
44.84000 308.854
44.85000 308.676
44.86000 315.416
44.87000 322.790
44.88000 328.086
44.89000 344.252
44.90000 356.994
44.91000 367.495
44.92000 374.345
44.93000 381.143
44.94000 387.375
44.95000 393.005
44.96000 398.606
44.97000 405.676
44.98000 413.643
44.99000 421.640
45.00000 430.440
45.01000 439.605
45.02000 448.409
45.03000 452.646
45.04000 455.496
45.05000 458.052
45.06000 463.617
45.07000 469.002
45.08000 471.716
45.09000 462.279
45.10000 451.348
45.11000 443.379
45.12000 444.311
45.13000 445.844
45.14000 446.878
45.15000 440.123
45.16000 434.931
45.17000 427.187
45.18000 416.037
45.19000 404.878
45.20000 399.253
45.21000 398.341
45.22000 397.440
45.23000 392.774
45.24000 386.179
45.25000 379.707
45.26000 375.476
45.27000 372.085
45.28000 368.111
45.29000 358.580
45.30000 347.665
45.31000 338.173
45.32000 334.798
45.33000 332.752
45.34000 330.554
45.35000 327.792
45.36000 324.978
45.37000 322.983
45.38000 323.026
45.39000 323.165
45.40000 323.252
45.41000 313.730
45.42000 306.741
45.43000 302.938
45.44000 302.584
45.45000 302.202
45.46000 298.252
45.47000 291.828
45.48000 285.553
45.49000 282.167
45.50000 280.201
45.51000 278.445
45.52000 279.441
45.53000 281.288
45.54000 282.588
45.55000 279.840
45.56000 276.272
45.57000 273.276
45.58000 269.660
45.59000 266.584
45.60000 263.550
45.61000 260.644
45.62000 257.748
45.63000 252.522
45.64000 242.513
45.65000 232.361
45.66000 226.492
45.67000 240.364
45.68000 250.156
45.69000 251.899
45.70000 246.645
45.71000 241.419
45.72000 237.689
45.73000 234.812
45.74000 232.041
45.75000 231.773
45.76000 232.419
45.77000 233.228
45.78000 235.636
45.79000 238.449
45.80000 240.720
45.81000 239.798
45.82000 238.355
45.83000 237.191
45.84000 231.669
45.85000 226.842
45.86000 224.767
45.87000 229.657
45.88000 234.887
45.89000 237.938
45.90000 237.298
45.91000 236.597
45.92000 236.229
45.93000 233.075
45.94000 230.943
45.95000 229.859
45.96000 229.515
45.97000 229.126
45.98000 227.357
45.99000 224.940
46.00000 222.652
46.01000 221.419
46.02000 220.591
46.03000 219.727
46.04000 218.591
46.05000 217.400
46.06000 216.775
46.07000 218.837
46.08000 221.246
46.09000 223.101
46.10000 217.466
46.11000 212.579
46.12000 210.121
46.13000 212.747
46.14000 215.533
46.15000 215.267
46.16000 210.760
46.17000 206.226
46.18000 203.186
46.19000 201.473
46.20000 199.801
46.21000 200.444
46.22000 202.431
46.23000 204.403
46.24000 206.098
46.25000 207.685
46.26000 209.156
46.27000 209.113
46.28000 208.721
46.29000 207.938
46.30000 204.805
46.31000 201.279
46.32000 199.100
46.33000 202.129
46.34000 205.677
46.35000 208.268
46.36000 202.838
46.37000 198.337
46.38000 194.770
46.39000 192.816
46.40000 190.890
46.41000 193.080
46.42000 199.916
46.43000 206.731
46.44000 207.982
46.45000 205.248
46.46000 202.677
46.47000 205.333
46.48000 210.491
46.49000 215.256
46.50000 214.559
46.51000 212.107
46.52000 209.891
46.53000 207.804
46.54000 205.992
46.55000 204.028
46.56000 201.330
46.57000 198.535
46.58000 196.614
46.59000 197.473
46.60000 198.538
46.61000 199.271
46.62000 192.672
46.63000 187.540
46.64000 189.345
46.65000 200.983
46.66000 212.686
46.67000 213.572
46.68000 204.649
46.69000 195.816
46.70000 194.250
46.71000 196.922
46.72000 199.497
46.73000 200.080
46.74000 199.876
46.75000 199.924
46.76000 202.586
46.77000 205.939
46.78000 208.883
46.79000 201.822
46.80000 194.288
46.81000 188.177
46.82000 187.676
46.83000 187.748
46.84000 189.085
46.85000 193.744
46.86000 198.578
46.87000 201.681
46.88000 205.271
46.89000 207.896
46.90000 208.066
46.91000 205.405
46.92000 202.735
46.93000 199.079
46.94000 194.699
46.95000 190.405
46.96000 191.300
46.97000 194.600
46.98000 197.733
46.99000 198.473
47.00000 198.431
47.01000 198.213
47.02000 196.599
47.03000 194.684
47.04000 193.059
47.05000 194.606
47.06000 196.263
47.07000 196.625
47.08000 192.788
47.09000 188.629
47.10000 186.662
47.11000 189.455
47.12000 192.414
47.13000 194.169
47.14000 199.040
47.15000 202.502
47.16000 201.332
47.17000 195.874
47.18000 190.499
47.19000 190.596
47.20000 193.994
47.21000 197.281
47.22000 195.590
47.23000 192.095
47.24000 188.882
47.25000 188.677
47.26000 189.282
47.27000 189.807
47.28000 189.827
47.29000 189.759
47.30000 189.704
47.31000 185.283
47.32000 181.291
47.33000 178.556
47.34000 179.186
47.35000 179.999
47.36000 181.006
47.37000 182.360
47.38000 183.721
47.39000 184.457
47.40000 200.079
47.41000 210.742
47.42000 211.308
47.43000 204.298
47.44000 197.421
47.45000 195.247
47.46000 195.411
47.47000 195.568
47.48000 191.315
47.49000 186.017
47.50000 181.584
47.51000 184.205
47.52000 188.378
47.53000 192.407
47.54000 195.702
47.55000 198.896
47.56000 201.390
47.57000 192.246
47.58000 184.220
47.59000 180.489
47.60000 186.265
47.61000 192.385
47.62000 196.029
47.63000 196.023
47.64000 195.985
47.65000 191.175
47.66000 181.853
47.67000 172.698
47.68000 175.424
47.69000 185.449
47.70000 195.048
47.71000 195.160
47.72000 191.373
47.73000 187.839
47.74000 186.173
47.75000 185.128
47.76000 184.781
47.77000 188.914
47.78000 193.846
47.79000 197.552
47.80000 196.229
47.81000 194.364
47.82000 192.980
47.83000 191.361
47.84000 190.092
47.85000 189.620
47.86000 190.606
47.87000 191.624
47.88000 194.267
47.89000 198.865
47.90000 203.456
47.91000 200.951
47.92000 193.062
47.93000 185.230
47.94000 179.529
47.95000 174.907
47.96000 170.769
47.97000 174.052
47.98000 179.855
47.99000 185.143
48.00000 185.876
48.01000 185.620
48.02000 184.783
48.03000 180.957
48.04000 176.708
48.05000 173.896
48.06000 175.921
48.07000 178.341
48.08000 180.035
48.09000 180.552
48.10000 180.909
48.11000 180.767
48.12000 179.874
48.13000 178.974
48.14000 177.408
48.15000 175.197
48.16000 173.004
48.17000 175.158
48.18000 179.949
48.19000 184.623
48.20000 186.591
48.21000 187.426
48.22000 188.142
48.23000 187.527
48.24000 186.539
48.25000 185.664
48.26000 184.702
48.27000 183.856
48.28000 183.352
48.29000 184.279
48.30000 185.364
48.31000 186.401
48.32000 187.303
48.33000 188.197
48.34000 188.783
48.35000 184.622
48.36000 181.483
48.37000 180.022
48.38000 180.619
48.39000 181.216
48.40000 180.236
48.41000 178.025
48.42000 175.850
48.43000 177.742
48.44000 181.603
48.45000 185.356
48.46000 187.385
48.47000 188.817
48.48000 189.475
48.49000 183.493
48.50000 175.990
48.51000 169.555
48.52000 173.357
48.53000 177.825
48.54000 182.079
48.55000 185.598
48.56000 189.055
48.57000 191.231
48.58000 190.463
48.59000 189.579
48.60000 189.042
48.61000 185.117
48.62000 182.289
48.63000 178.587
48.64000 174.021
48.65000 169.496
48.66000 168.274
48.67000 169.163
48.68000 170.026
48.69000 174.193
48.70000 179.491
48.71000 184.578
48.72000 187.226
48.73000 189.179
48.74000 190.440
48.75000 187.063
48.76000 182.823
48.77000 179.321
48.78000 183.420
48.79000 187.509
48.80000 190.531
48.81000 190.530
48.82000 190.346
48.83000 189.715
48.84000 188.239
48.85000 186.742
48.86000 185.909
48.87000 184.143
48.88000 182.915
48.89000 180.269
48.90000 176.493
48.91000 172.865
48.92000 175.415
48.93000 181.214
48.94000 186.762
48.95000 188.095
48.96000 187.950
48.97000 187.266
48.98000 181.842
48.99000 175.309
49.00000 170.148
49.01000 172.351
49.02000 175.649
49.03000 178.260
49.04000 173.486
49.05000 169.137
49.06000 167.290
49.07000 171.296
49.08000 175.544
49.09000 177.057
49.10000 174.295
49.11000 171.482
49.12000 170.069
49.13000 171.765
49.14000 172.882
49.15000 172.609
49.16000 171.430
49.17000 170.330
49.18000 171.205
49.19000 172.939
49.20000 174.567
49.21000 175.761
49.22000 176.734
49.23000 177.796
49.24000 179.462
49.25000 181.243
49.26000 182.510
49.27000 181.537
49.28000 180.304
49.29000 179.374
49.30000 183.248
49.31000 186.518
49.32000 189.762
49.33000 192.956
49.34000 196.148
49.35000 194.836
49.36000 187.768
49.37000 180.689
49.38000 176.314
49.39000 174.148
49.40000 172.072
49.41000 173.918
49.42000 177.866
49.43000 181.539
49.44000 180.537
49.45000 177.855
49.46000 175.393
49.47000 171.625
49.48000 167.988
49.49000 165.138
49.50000 166.609
49.51000 168.736
49.52000 171.496
49.53000 176.507
49.54000 181.719
49.55000 185.435
49.56000 183.583
49.57000 181.987
49.58000 179.893
49.59000 177.004
49.60000 174.105
49.61000 171.803
49.62000 170.119
49.63000 168.444
49.64000 171.538
49.65000 177.710
49.66000 183.539
49.67000 180.324
49.68000 173.105
49.69000 166.487
49.70000 167.240
49.71000 170.179
49.72000 172.805
49.73000 173.236
49.74000 173.240
49.75000 172.958
49.76000 171.402
49.77000 169.694
49.78000 168.985
49.79000 171.213
49.80000 173.632
49.81000 175.251
49.82000 174.641
49.83000 174.145
49.84000 174.518
49.85000 176.023
49.86000 177.534
49.87000 179.112
49.88000 180.746
49.89000 182.358
49.90000 182.079
49.91000 180.803
49.92000 179.516
49.93000 178.035
49.94000 176.484
49.95000 174.848
49.96000 172.432
49.97000 169.826
49.98000 167.568
49.99000 169.701
50.00000 172.096
50.01000 174.066
50.02000 174.485
50.03000 174.763
50.04000 176.591
50.05000 182.182
50.06000 187.941
50.07000 191.525
50.08000 185.580
50.09000 181.203
50.10000 178.185
50.11000 176.603
50.12000 175.050
50.13000 176.775
50.14000 180.719
50.15000 184.567
50.16000 183.262
50.17000 179.792
50.18000 176.429
50.19000 174.408
50.20000 172.792
50.21000 171.976
50.22000 176.920
50.23000 183.003
50.24000 188.087
50.25000 184.783
50.26000 181.187
50.27000 179.070
50.28000 181.377
50.29000 183.981
50.30000 187.204
50.31000 191.673
50.32000 196.177
50.33000 198.754
50.34000 199.924
50.35000 200.732
50.36000 198.730
50.37000 194.346
50.38000 190.075
50.39000 191.445
50.40000 195.954
50.41000 200.290
50.42000 203.021
50.43000 205.019
50.44000 207.216
50.45000 211.301
50.46000 215.854
50.47000 219.831
50.48000 220.505
50.49000 220.653
50.50000 220.772
50.51000 225.758
50.52000 230.166
50.53000 234.471
50.54000 238.526
50.55000 242.568
50.56000 245.534
50.57000 246.718
50.58000 247.875
50.59000 248.475
50.60000 243.717
50.61000 240.617
50.62000 251.346
50.63000 271.623
50.64000 291.273
50.65000 292.888
50.66000 286.213
50.67000 279.908
50.68000 281.593
50.69000 285.398
50.70000 288.822
50.71000 289.439
50.72000 289.489
50.73000 289.712
50.74000 290.739
50.75000 291.866
50.76000 292.729
50.77000 293.723
50.78000 294.515
50.79000 294.269
50.80000 291.900
50.81000 289.467
50.82000 283.797
50.83000 273.733
50.84000 263.651
50.85000 256.654
50.86000 252.335
50.87000 248.069
50.88000 246.574
50.89000 246.651
50.90000 246.890
50.91000 250.212
50.92000 254.706
50.93000 258.859
50.94000 250.387
50.95000 239.912
50.96000 230.910
50.97000 230.536
50.98000 231.563
50.99000 230.867
51.00000 223.660
51.01000 215.825
51.02000 210.141
51.03000 204.677
51.04000 200.486
51.05000 197.131
51.06000 195.186
51.07000 193.264
51.08000 191.684
51.09000 190.483
51.10000 189.286
51.11000 191.600
51.12000 196.335
51.13000 200.768
51.14000 196.090
51.15000 187.146
51.16000 178.729
51.17000 177.405
51.18000 178.306
51.19000 179.118
51.20000 183.182
51.21000 187.335
51.22000 189.743
51.23000 183.905
51.24000 177.007
51.25000 172.732
51.26000 176.610
51.27000 181.071
51.28000 184.116
51.29000 179.311
51.30000 175.535
51.31000 172.709
51.32000 171.198
51.33000 169.698
51.34000 171.611
51.35000 176.543
51.36000 181.420
51.37000 180.653
51.38000 176.716
51.39000 173.094
51.40000 175.646
51.41000 180.588
51.42000 185.005
51.43000 184.169
51.44000 181.977
51.45000 180.060
51.46000 178.386
51.47000 176.985
51.48000 175.680
51.49000 174.746
51.50000 173.847
51.51000 172.090
51.52000 168.125
51.53000 164.048
51.54000 161.454
51.55000 160.354
51.56000 159.574
51.57000 160.335
51.58000 162.829
51.59000 165.308
51.60000 165.370
51.61000 163.694
51.62000 162.053
51.63000 163.058
51.64000 165.235
51.65000 167.261
51.66000 167.191
51.67000 166.451
51.68000 166.011
51.69000 167.890
51.70000 170.257
51.71000 172.258
51.72000 169.738
51.73000 167.133
51.74000 164.881
51.75000 163.747
51.76000 162.695
51.77000 161.342
51.78000 159.352
51.79000 157.340
51.80000 156.159
51.81000 161.788
51.82000 165.787
51.83000 165.567
51.84000 161.540
51.85000 157.588
51.86000 158.246
51.87000 161.619
51.88000 164.879
51.89000 159.440
51.90000 151.077
51.91000 144.133
51.92000 151.789
51.93000 163.288
51.94000 172.542
51.95000 168.076
51.96000 161.278
51.97000 155.757
51.98000 158.205
51.99000 160.865
52.00000 163.094
52.01000 164.197
52.02000 165.241
52.03000 167.482
52.04000 171.822
52.05000 176.200
52.06000 178.542
52.07000 165.318
52.08000 156.329
52.09000 154.400
52.10000 157.644
52.11000 160.764
52.12000 159.734
52.13000 156.687
52.14000 153.793
52.15000 158.313
52.16000 164.720
52.17000 170.482
52.18000 171.137
52.19000 170.693
52.20000 168.960
52.21000 160.882
52.22000 151.949
52.23000 145.013
52.24000 153.491
52.25000 161.167
52.26000 166.750
52.27000 167.805
52.28000 168.704
52.29000 168.466
52.30000 166.590
52.31000 164.701
52.32000 162.703
52.33000 160.606
52.34000 158.519
52.35000 157.089
52.36000 156.053
52.37000 155.272
52.38000 159.897
52.39000 166.696
52.40000 173.022
52.41000 174.331
52.42000 174.297
52.43000 173.327
52.44000 166.508
52.45000 158.673
52.46000 152.945
52.47000 155.653
52.48000 159.244
52.49000 161.892
52.50000 161.984
52.51000 161.948
52.52000 163.231
52.53000 166.872
52.54000 170.560
52.55000 169.598
52.56000 163.184
52.57000 156.779
52.58000 153.061
52.59000 151.362
52.60000 149.766
52.61000 151.765
52.62000 155.546
52.63000 159.130
52.64000 159.802
52.65000 159.506
52.66000 159.238
52.67000 159.459
52.68000 159.749
52.69000 160.180
52.70000 161.319
52.71000 162.556
52.72000 162.936
52.73000 160.495
52.74000 157.834
52.75000 155.983
52.76000 156.095
52.77000 156.233
52.78000 157.145
52.79000 159.195
52.80000 161.255
52.81000 163.300
52.82000 165.332
52.83000 167.346
52.84000 167.634
52.85000 166.879
52.86000 166.174
52.87000 166.587
52.88000 167.457
52.89000 167.859
52.90000 163.169
52.91000 157.085
52.92000 151.715
52.93000 155.109
52.94000 159.378
52.95000 162.905
52.96000 163.401
52.97000 163.572
52.98000 162.539
52.99000 158.238
53.00000 153.753
53.01000 150.836
53.02000 153.498
53.03000 155.534
53.04000 156.964
53.05000 157.666
53.06000 158.368
53.07000 159.040
53.08000 159.692
53.09000 160.332
53.10000 163.151
53.11000 166.936
53.12000 170.579
53.13000 172.064
53.14000 172.818
53.15000 173.416
53.16000 172.711
53.17000 171.714
53.18000 170.863
53.19000 166.440
53.20000 162.289
53.21000 160.330
53.22000 165.721
53.23000 171.706
53.24000 173.768
53.25000 167.015
53.26000 159.931
53.27000 155.666
53.28000 151.309
53.29000 148.209
53.30000 151.237
53.31000 160.165
53.32000 168.985
53.33000 169.672
53.34000 165.283
53.35000 161.024
53.36000 160.972
53.37000 162.587
53.38000 163.913
53.39000 162.011
53.40000 159.210
53.41000 157.002
53.42000 158.680
53.43000 161.062
53.44000 163.021
53.45000 164.350
53.46000 165.385
53.47000 166.984
53.48000 170.147
53.49000 173.400
53.50000 175.302
53.51000 174.695
53.52000 174.031
53.53000 173.666
53.54000 165.926
53.55000 160.590
53.56000 157.267
53.57000 155.511
53.58000 153.868
53.59000 156.616
53.60000 161.621
53.61000 166.401
53.62000 167.036
53.63000 166.296
53.64000 165.671
53.65000 166.021
53.66000 166.593
53.67000 166.909
53.68000 165.888
53.69000 164.673
53.70000 163.717
53.71000 161.925
53.72000 160.434
53.73000 160.060
53.74000 162.245
53.75000 164.531
53.76000 165.633
53.77000 164.928
53.78000 164.203
53.79000 163.316
53.80000 162.270
53.81000 161.272
53.82000 164.245
53.83000 169.745
53.84000 174.932
53.85000 172.632
53.86000 167.148
53.87000 162.012
53.88000 167.683
53.89000 175.637
53.90000 181.571
53.91000 173.992
53.92000 163.912
53.93000 155.444
53.94000 153.832
53.95000 152.994
53.96000 152.366
53.97000 151.285
53.98000 150.420
53.99000 151.317
54.00000 155.546
54.01000 159.855
54.02000 161.852
54.03000 160.964
54.04000 160.069
54.05000 158.105
54.06000 155.306
54.07000 152.527
54.08000 150.598
54.09000 149.114
54.10000 147.855
54.11000 150.244
54.12000 153.916
54.13000 157.276
54.14000 157.721
54.15000 157.512
54.16000 157.694
54.17000 159.961
54.18000 162.537
54.19000 164.626
54.20000 165.017
54.21000 165.263
54.22000 165.437
54.23000 157.437
54.24000 151.102
54.25000 148.344
54.26000 151.156
54.27000 154.034
54.28000 152.079
54.29000 145.264
54.30000 138.494
54.31000 140.412
54.32000 147.850
54.33000 155.015
54.34000 155.358
54.35000 152.745
54.36000 150.485
54.37000 152.398
54.38000 155.520
54.39000 158.301
54.40000 154.491
54.41000 150.098
54.42000 147.359
54.43000 151.792
54.44000 157.056
54.45000 160.823
54.46000 160.289
54.47000 159.488
54.48000 158.955
54.49000 152.262
54.50000 147.201
54.51000 144.886
54.52000 146.066
54.53000 147.270
54.54000 152.479
54.55000 160.934
54.56000 169.265
54.57000 168.550
54.58000 163.170
54.59000 157.956
54.60000 155.567
54.61000 154.189
54.62000 153.293
54.63000 156.718
54.64000 161.170
54.65000 165.011
54.66000 159.586
54.67000 153.794
54.68000 149.042
54.69000 147.985
54.70000 147.255
54.71000 147.912
54.72000 151.867
54.73000 155.963
54.74000 158.488
54.75000 157.640
54.76000 157.000
54.77000 156.811
54.78000 157.086
54.79000 157.378
54.80000 159.333
54.81000 162.387
54.82000 165.362
54.83000 162.104
54.84000 156.376
54.85000 151.327
54.86000 154.567
54.87000 160.256
54.88000 165.352
54.89000 166.298
54.90000 166.443
54.91000 166.563
54.92000 166.637
54.93000 166.692
54.94000 167.527
54.95000 170.642
54.96000 173.905
54.97000 173.253
54.98000 164.915
54.99000 156.372
55.00000 151.538
55.01000 155.761
55.02000 158.725
55.03000 161.398
55.04000 163.830
55.05000 166.126
55.06000 162.129
55.07000 154.707
55.08000 147.584
55.09000 149.340
55.10000 154.012
55.11000 158.040
55.12000 156.146
55.13000 152.817
55.14000 150.286
55.15000 152.209
55.16000 154.822
55.17000 156.907
55.18000 164.599
55.19000 171.219
55.20000 175.289
55.21000 173.185
55.22000 170.806
55.23000 168.170
55.24000 165.116
55.25000 162.057
55.26000 160.490
55.27000 164.947
55.28000 167.928
55.29000 169.289
55.30000 169.555
55.31000 169.813
55.32000 169.841
55.33000 169.765
55.34000 169.694
55.35000 171.636
55.36000 173.970
55.37000 176.020
55.38000 176.046
55.39000 175.673
55.40000 175.888
55.41000 178.762
55.42000 181.960
55.43000 184.393
55.44000 191.293
55.45000 196.956
55.46000 199.225
55.47000 194.699
55.48000 189.984
55.49000 189.429
55.50000 194.388
55.51000 199.368
55.52000 206.017
55.53000 214.055
55.54000 222.026
55.55000 226.668
55.56000 229.464
55.57000 232.516
55.58000 240.199
55.59000 249.604
55.60000 258.274
55.61000 264.732
55.62000 270.025
55.63000 276.759
55.64000 291.708
55.65000 307.958
55.66000 322.494
55.67000 330.704
55.68000 338.324
55.69000 343.815
55.70000 367.875
55.71000 386.968
55.72000 406.367
55.73000 426.269
55.74000 446.178
55.75000 469.819
55.76000 497.464
55.77000 524.974
55.78000 544.013
55.79000 557.071
55.80000 570.444
55.81000 592.780
55.82000 619.222
55.83000 645.163
55.84000 664.625
55.85000 682.099
55.86000 697.793
55.87000 718.720
55.88000 737.952
55.89000 756.238
55.90000 770.163
55.91000 783.543
55.92000 795.249
55.93000 801.862
55.94000 808.125
55.95000 812.367
55.96000 804.501
55.97000 798.373
55.98000 799.071
55.99000 809.000
56.00000 818.963
56.01000 816.768
56.02000 804.087
56.03000 791.560
56.04000 768.399
56.05000 739.959
56.06000 712.101
56.07000 695.173
56.08000 682.385
56.09000 668.873
56.10000 648.337
56.11000 626.031
56.12000 606.595
56.13000 586.848
56.14000 569.932
56.15000 552.638
56.16000 533.920
56.17000 515.065
56.18000 496.267
56.19000 477.612
56.20000 458.964
56.21000 447.200
56.22000 425.665
56.23000 409.958
56.24000 393.827
56.25000 377.232
56.26000 360.627
56.27000 342.857
56.28000 324.269
56.29000 306.096
56.30000 298.345
56.31000 295.577
56.32000 292.513
56.33000 285.501
56.34000 277.255
56.35000 269.022
56.36000 260.878
56.37000 252.754
56.38000 245.918
56.39000 234.421
56.40000 224.338
56.41000 217.556
56.42000 221.007
56.43000 225.186
56.44000 226.277
56.45000 220.955
56.46000 215.434
56.47000 212.226
56.48000 213.325
56.49000 214.111
56.50000 210.812
56.51000 203.916
56.52000 197.075
56.53000 193.318
56.54000 191.338
56.55000 189.428
56.56000 188.547
56.57000 188.090
56.58000 187.434
56.59000 184.793
56.60000 181.642
56.61000 179.248
56.62000 181.366
56.63000 184.230
56.64000 186.546
56.65000 181.463
56.66000 176.735
56.67000 172.754
56.68000 170.684
56.69000 168.709
56.70000 167.708
56.71000 168.375
56.72000 169.071
56.73000 169.439
56.74000 168.340
56.75000 167.593
56.76000 166.972
56.77000 166.440
56.78000 165.862
56.79000 163.806
56.80000 161.049
56.81000 158.436
56.82000 157.742
56.83000 157.666
56.84000 157.356
56.85000 155.246
56.86000 152.757
56.87000 150.606
56.88000 150.073
56.89000 149.752
56.90000 149.504
56.91000 150.481
56.92000 151.326
56.93000 152.738
56.94000 155.349
56.95000 157.998
56.96000 157.951
56.97000 154.110
56.98000 150.245
56.99000 148.145
57.00000 147.634
57.01000 147.119
57.02000 146.407
57.03000 145.577
57.04000 145.143
57.05000 152.696
57.06000 163.390
57.07000 173.316
57.08000 164.942
57.09000 153.069
57.10000 143.417
57.11000 147.297
57.12000 153.464
57.13000 157.253
57.14000 151.729
57.15000 145.262
57.16000 140.523
57.17000 142.653
57.18000 144.573
57.19000 146.139
57.20000 147.086
57.21000 148.021
57.22000 148.443
57.23000 148.277
57.24000 148.111
57.25000 148.458
57.26000 149.174
57.27000 149.908
57.28000 151.242
57.29000 152.866
57.30000 154.229
57.31000 151.885
57.32000 148.337
57.33000 145.124
57.34000 147.698
57.35000 151.056
57.36000 153.412
57.37000 150.860
57.38000 147.648
57.39000 145.132
57.40000 144.852
57.41000 144.741
57.42000 144.664
57.43000 153.927
57.44000 161.127
57.45000 162.508
57.46000 155.539
57.47000 148.506
57.48000 145.136
57.49000 145.132
57.50000 145.128
57.51000 141.463
57.52000 135.727
57.53000 130.321
57.54000 131.832
57.55000 136.114
57.56000 140.124
57.57000 141.263
57.58000 141.636
57.59000 141.964
57.60000 146.804
57.61000 151.641
57.62000 155.462
57.63000 155.231
57.64000 154.579
57.65000 153.816
57.66000 152.760
57.67000 151.687
57.68000 150.996
57.69000 144.354
57.70000 139.417
57.71000 138.143
57.72000 141.147
57.73000 144.139
57.74000 143.570
57.75000 140.350
57.76000 137.191
57.77000 137.485
57.78000 139.410
57.79000 141.309
57.80000 142.823
57.81000 144.209
57.82000 145.264
57.83000 143.646
57.84000 141.443
57.85000 139.570
57.86000 141.151
57.87000 142.877
57.88000 143.619
57.89000 141.134
57.90000 138.396
57.91000 138.366
57.92000 144.283
57.93000 150.412
57.94000 154.065
57.95000 142.421
57.96000 134.076
57.97000 130.780
57.98000 132.225
57.99000 133.692
58.00000 136.778
58.01000 140.850
58.02000 144.795
58.03000 142.443
58.04000 137.788
58.05000 133.763
58.06000 136.562
58.07000 141.222
58.08000 145.210
58.09000 144.926
58.10000 143.887
58.11000 143.037
58.12000 144.460
58.13000 145.825
58.14000 146.523
58.15000 145.417
58.16000 144.209
58.17000 142.751
58.18000 140.836
58.19000 138.911
58.20000 137.864
58.21000 138.130
58.22000 138.315
58.23000 138.565
58.24000 138.864
58.25000 139.135
58.26000 138.414
58.27000 137.194
58.28000 136.031
58.29000 141.051
58.30000 147.640
58.31000 153.233
58.32000 150.583
58.33000 146.096
58.34000 142.279
58.35000 141.886
58.36000 141.974
58.37000 142.043
58.38000 142.807
58.39000 143.462
58.40000 142.815
58.41000 139.255
58.42000 135.585
58.43000 133.373
58.44000 133.335
58.45000 133.318
58.46000 134.376
58.47000 136.464
58.48000 138.505
58.49000 137.045
58.50000 133.409
58.51000 129.993
58.52000 131.586
58.53000 135.262
58.54000 138.696
58.55000 138.273
58.56000 136.917
58.57000 135.897
58.58000 137.067
58.59000 138.633
58.60000 140.072
58.61000 140.986
58.62000 141.843
58.63000 142.480
58.64000 144.051
58.65000 145.315
58.66000 146.083
58.67000 145.934
58.68000 145.765
58.69000 144.161
58.70000 140.810
58.71000 137.462
58.72000 137.391
58.73000 139.845
58.74000 142.209
58.75000 141.058
58.76000 138.107
58.77000 135.452
58.78000 137.426
58.79000 140.993
58.80000 144.247
58.81000 138.826
58.82000 132.267
58.83000 126.935
58.84000 128.009
58.85000 130.005
58.86000 132.351
58.87000 135.889
58.88000 139.525
58.89000 142.083
58.90000 143.754
58.91000 144.994
58.92000 142.880
58.93000 135.661
58.94000 128.388
58.95000 127.081
58.96000 131.620
58.97000 136.125
58.98000 136.446
58.99000 134.153
59.00000 132.100
59.01000 135.734
59.02000 141.776
59.03000 147.205
59.04000 145.623
59.05000 142.054
59.06000 138.887
59.07000 134.789
59.08000 131.089
59.09000 127.947
59.10000 127.164
59.11000 126.646
59.12000 126.743
59.13000 128.565
59.14000 130.491
59.15000 131.759
59.16000 133.521
59.17000 134.827
59.18000 135.709
59.19000 136.064
59.20000 136.416
59.21000 136.308
59.22000 135.838
59.23000 135.375
59.24000 136.064
59.25000 137.314
59.26000 138.579
59.27000 140.096
59.28000 141.701
59.29000 142.798
59.30000 139.479
59.31000 135.135
59.32000 131.402
59.33000 132.916
59.34000 134.851
59.35000 135.679
59.36000 132.666
59.37000 129.324
59.38000 127.817
59.39000 130.575
59.40000 133.505
59.41000 135.295
59.42000 137.426
59.43000 138.953
59.44000 140.008
59.45000 140.588
59.46000 141.141
59.47000 139.171
59.48000 135.570
59.49000 132.069
59.50000 135.692
59.51000 142.064
59.52000 147.900
59.53000 147.418
59.54000 145.111
59.55000 142.952
59.56000 141.791
59.57000 140.819
59.58000 140.014
59.59000 137.002
59.60000 134.306
59.61000 132.254
59.62000 132.047
59.63000 131.954
59.64000 132.861
59.65000 135.690
59.66000 138.567
59.67000 140.177
59.68000 135.044
59.69000 131.482
59.70000 131.973
59.71000 135.734
59.72000 139.436
59.73000 140.568
59.74000 140.333
59.75000 140.109
59.76000 136.585
59.77000 132.201
59.78000 128.209
59.79000 127.728
59.80000 128.076
59.81000 128.402
59.82000 128.598
59.83000 128.774
59.84000 128.914
59.85000 131.111
59.86000 133.024
59.87000 134.476
59.88000 134.839
59.89000 135.155
59.90000 137.059
59.91000 141.473
59.92000 145.919
59.93000 148.168
59.94000 140.994
59.95000 136.210
59.96000 133.012
59.97000 130.861
59.98000 128.835
59.99000 130.041
60.00000 132.668
60.01000 135.137
60.02000 136.248
60.03000 136.896
60.04000 136.970
60.05000 133.041
60.06000 128.341
60.07000 125.256
60.08000 129.285
60.09000 134.156
60.10000 137.839
60.11000 137.642
60.12000 137.293
60.13000 136.429
60.14000 134.561
60.15000 132.666
60.16000 132.588
60.17000 134.862
60.18000 137.142
60.19000 136.105
60.20000 132.347
60.21000 128.652
60.22000 127.819
60.23000 128.538
60.24000 129.422
60.25000 133.153
60.26000 137.921
60.27000 142.303
60.28000 143.037
60.29000 142.906
60.30000 142.822
60.31000 142.996
60.32000 143.210
60.33000 142.334
60.34000 137.521
60.35000 132.352
60.36000 128.653
60.37000 128.770
60.38000 128.988
60.39000 130.700
60.40000 134.822
60.41000 138.976
60.42000 139.074
60.43000 134.929
60.44000 130.806
60.45000 132.141
60.46000 137.079
60.47000 141.740
60.48000 138.920
60.49000 132.748
60.50000 127.041
60.51000 127.133
60.52000 128.964
60.53000 130.604
60.54000 134.931
60.55000 139.167
60.56000 142.010
60.57000 138.582
60.58000 134.394
60.59000 131.336
60.60000 131.635
60.61000 132.158
60.62000 132.509
60.63000 135.100
60.64000 137.072
60.65000 137.136
60.66000 134.682
60.67000 132.217
60.68000 129.679
60.69000 127.082
60.70000 124.519
60.71000 125.668
60.72000 128.783
60.73000 131.879
60.74000 134.639
60.75000 137.275
60.76000 139.407
60.77000 136.793
60.78000 133.011
60.79000 129.729
60.80000 130.447
60.81000 131.597
60.82000 132.493
60.83000 132.454
60.84000 132.329
60.85000 131.812
60.86000 130.332
60.87000 128.808
60.88000 127.855
60.89000 130.801
60.90000 132.969
60.91000 136.347
60.92000 141.020
60.93000 145.638
60.94000 143.818
60.95000 137.585
60.96000 131.500
60.97000 132.783
60.98000 137.227
60.99000 141.330
61.00000 141.050
61.01000 139.429
61.02000 137.312
61.03000 131.569
61.04000 125.100
61.05000 119.680
61.06000 123.909
61.07000 128.423
61.08000 132.522
61.09000 135.369
61.10000 138.130
61.11000 138.810
61.12000 135.263
61.13000 131.592
61.14000 129.481
61.15000 136.283
61.16000 141.071
61.17000 142.203
61.18000 140.195
61.19000 138.161
61.20000 134.775
61.21000 130.629
61.22000 126.638
61.23000 130.099
61.24000 135.985
61.25000 141.013
61.26000 137.758
61.27000 132.421
61.28000 128.078
61.29000 129.506
61.30000 131.864
61.31000 133.760
61.32000 136.095
61.33000 138.022
61.34000 140.297
61.35000 143.441
61.36000 146.626
61.37000 146.587
61.38000 141.144
61.39000 135.616
61.40000 132.729
61.41000 132.347
61.42000 132.112
61.43000 134.980
61.44000 140.017
61.45000 145.019
61.46000 149.007
61.47000 152.524
61.48000 155.850
61.49000 161.769
61.50000 167.950
61.51000 173.679
61.52000 176.022
61.53000 177.672
61.54000 181.628
61.55000 196.383
61.56000 212.512
61.57000 224.895
61.58000 236.802
61.59000 246.186
61.60000 256.129
61.61000 267.226
61.62000 278.359
61.63000 288.299
61.64000 296.600
61.65000 304.885
61.66000 313.262
61.67000 321.706
61.68000 330.030
61.69000 331.795
61.70000 329.795
61.71000 327.785
61.72000 325.595
61.73000 323.335
61.74000 321.243
61.75000 311.052
61.76000 300.025
61.77000 289.230
61.78000 279.813
61.79000 270.623
61.80000 260.065
61.81000 244.271
61.82000 227.964
61.83000 216.092
61.84000 202.934
61.85000 192.755
61.86000 181.808
61.87000 169.547
61.88000 157.264
61.89000 151.733
61.90000 153.732
61.91000 155.730
61.92000 156.105
61.93000 155.331
61.94000 154.490
61.95000 151.548
61.96000 147.610
61.97000 143.921
61.98000 143.634
61.99000 144.428
62.00000 145.144
62.01000 148.772
62.02000 152.493
62.03000 154.593
62.04000 148.936
62.05000 142.268
62.06000 138.154
62.07000 142.073
62.08000 146.578
62.09000 149.665
62.10000 144.602
62.11000 140.613
62.12000 140.587
62.13000 146.113
62.14000 151.674
62.15000 153.558
62.16000 152.146
62.17000 150.750
62.18000 148.060
62.19000 144.691
62.20000 141.327
62.21000 138.079
62.22000 134.876
62.23000 131.971
62.24000 132.106
62.25000 133.034
62.26000 133.847
62.27000 137.386
62.28000 140.816
62.29000 143.237
62.30000 141.716
62.31000 139.799
62.32000 136.852
62.33000 131.230
62.34000 125.469
62.35000 121.786
62.36000 125.423
62.37000 128.166
62.38000 131.492
62.39000 135.482
62.40000 139.451
62.41000 139.879
62.42000 137.732
62.43000 135.629
62.44000 137.354
62.45000 140.790
62.46000 144.072
62.47000 145.171
62.48000 145.563
62.49000 145.644
62.50000 143.276
62.51000 140.385
62.52000 137.937
62.53000 146.550
62.54000 155.002
62.55000 160.618
62.56000 157.146
62.57000 152.990
62.58000 149.030
62.59000 145.488
62.60000 141.962
62.61000 139.880
62.62000 143.493
62.63000 146.074
62.64000 144.929
62.65000 140.375
62.66000 135.911
62.67000 137.106
62.68000 141.675
62.69000 146.093
62.70000 146.379
62.71000 145.092
62.72000 143.904
62.73000 143.762
62.74000 143.898
62.75000 144.297
62.76000 146.321
62.77000 148.625
62.78000 150.501
62.79000 149.901
62.80000 149.202
62.81000 149.025
62.82000 150.233
62.83000 151.515
62.84000 151.471
62.85000 149.075
62.86000 146.633
62.87000 145.320
62.88000 143.920
62.89000 142.970
62.90000 143.324
62.91000 144.646
62.92000 145.928
62.93000 145.852
62.94000 145.107
62.95000 144.399
62.96000 144.282
62.97000 144.355
62.98000 144.593
62.99000 146.155
63.00000 148.006
63.01000 149.582
63.02000 149.794
63.03000 149.818
63.04000 149.838
63.05000 150.358
63.06000 150.804
63.07000 150.853
63.08000 150.034
63.09000 149.185
63.10000 148.795
63.11000 149.076
63.12000 149.362
63.13000 150.122
63.14000 151.323
63.15000 152.503
63.16000 152.174
63.17000 150.929
63.18000 149.669
63.19000 148.099
63.20000 146.403
63.21000 144.822
63.22000 145.989
63.23000 147.720
63.24000 148.934
63.25000 146.869
63.26000 144.227
63.27000 142.482
63.28000 144.370
63.29000 146.644
63.30000 148.327
63.31000 146.516
63.32000 144.960
63.33000 143.389
63.34000 141.788
63.35000 140.187
63.36000 139.603
63.37000 140.227
63.38000 140.852
63.39000 140.625
63.40000 139.759
63.41000 138.976
63.42000 141.207
63.43000 144.948
63.44000 148.508
63.45000 149.340
63.46000 149.256
63.47000 149.180
63.48000 145.339
63.49000 141.202
63.50000 137.407
63.51000 135.357
63.52000 133.551
63.53000 134.088
63.54000 142.431
63.55000 151.398
63.56000 157.658
63.57000 149.352
63.58000 142.672
63.59000 141.269
63.60000 147.709
63.61000 154.222
63.62000 156.495
63.63000 154.718
63.64000 152.956
63.65000 154.439
63.66000 157.870
63.67000 161.111
63.68000 160.062
63.69000 157.235
63.70000 154.580
63.71000 153.828
63.72000 153.602
63.73000 153.402
63.74000 147.084
63.75000 140.673
63.76000 136.538
63.77000 141.821
63.78000 148.130
63.79000 152.302
63.80000 150.597
63.81000 148.556
63.82000 147.222
63.83000 147.798
63.84000 148.251
63.85000 148.392
63.86000 148.154
63.87000 147.922
63.88000 149.169
63.89000 151.558
63.90000 153.906
63.91000 153.037
63.92000 150.609
63.93000 148.242
63.94000 146.832
63.95000 145.748
63.96000 145.094
63.97000 148.066
63.98000 151.860
63.99000 155.107
64.00000 149.251
64.01000 143.210
64.02000 140.498
64.03000 149.084
64.04000 158.600
64.05000 163.979
64.06000 159.954
64.07000 155.566
64.08000 152.911
64.09000 155.490
64.10000 157.366
64.11000 158.373
64.12000 158.530
64.13000 158.707
64.14000 160.458
64.15000 163.203
64.16000 165.868
64.17000 165.755
64.18000 164.535
64.19000 162.988
64.20000 157.721
64.21000 151.405
64.22000 146.643
64.23000 152.190
64.24000 159.631
64.25000 165.764
64.26000 166.753
64.27000 167.094
64.28000 167.164
64.29000 166.479
64.30000 165.749
64.31000 165.351
64.32000 165.574
64.33000 165.811
64.34000 165.943
64.35000 170.458
64.36000 173.565
64.37000 171.785
64.38000 166.152
64.39000 160.606
64.40000 158.552
64.41000 158.316
64.42000 158.091
64.43000 161.128
64.44000 165.015
64.45000 168.546
64.46000 169.000
64.47000 168.742
64.48000 168.679
64.49000 169.651
64.50000 170.773
64.51000 171.660
64.52000 175.415
64.53000 178.624
64.54000 180.237
64.55000 178.156
64.56000 175.925
64.57000 172.348
64.58000 166.690
64.59000 161.008
64.60000 159.709
64.61000 162.781
64.62000 165.825
64.63000 166.471
64.64000 165.574
64.65000 164.774
64.66000 166.349
64.67000 168.946
64.68000 171.382
64.69000 173.677
64.70000 175.730
64.71000 177.235
64.72000 175.031
64.73000 172.130
64.74000 170.171
64.75000 172.268
64.76000 174.830
64.77000 176.757
64.78000 178.089
64.79000 179.101
64.80000 179.374
64.81000 178.232
64.82000 177.055
64.83000 177.004
64.84000 178.376
64.85000 179.750
64.86000 180.908
64.87000 181.887
64.88000 182.894
64.89000 185.050
64.90000 187.816
64.91000 190.400
64.92000 189.952
64.93000 188.427
64.94000 187.028
64.95000 194.445
64.96000 202.902
64.97000 208.927
64.98000 201.772
64.99000 192.639
65.00000 185.939
65.01000 187.818
65.02000 190.445
65.03000 192.313
65.04000 191.580
65.05000 190.939
65.06000 193.961
65.07000 202.755
65.08000 211.619
65.09000 213.643
65.10000 208.691
65.11000 203.770
65.12000 211.346
65.13000 226.898
65.14000 241.835
65.15000 240.969
65.16000 233.181
65.17000 226.285
65.18000 230.155
65.19000 237.184
65.20000 243.454
65.21000 247.234
65.22000 250.109
65.23000 252.249
65.24000 251.163
65.25000 249.697
65.26000 251.123
65.27000 260.954
65.28000 271.321
65.29000 278.233
65.30000 285.507
65.31000 290.900
65.32000 297.195
65.33000 304.654
65.34000 312.116
65.35000 319.169
65.36000 325.886
65.37000 332.508
65.38000 342.468
65.39000 353.894
65.40000 364.332
65.41000 357.718
65.42000 344.926
65.43000 334.455
65.44000 345.149
65.45000 360.936
65.46000 374.586
65.47000 377.178
65.48000 377.939
65.49000 380.696
65.50000 390.627
65.51000 401.203
65.52000 412.058
65.53000 423.585
65.54000 435.142
65.55000 442.301
65.56000 440.595
65.57000 439.284
65.58000 443.294
65.59000 452.850
65.60000 462.443
65.61000 475.900
65.62000 491.943
65.63000 507.583
65.64000 513.272
65.65000 514.462
65.66000 516.797
65.67000 533.357
65.68000 554.169
65.69000 579.184
65.70000 634.060
65.71000 694.776
65.72000 745.410
65.73000 821.761
65.74000 887.636
65.75000 952.980
65.76000 1016.748
65.77000 1080.412
65.78000 1145.277
65.79000 1212.527
65.80000 1279.842
65.81000 1318.155
65.82000 1373.464
65.83000 1412.021
65.84000 1426.099
65.85000 1419.665
65.86000 1413.529
65.87000 1421.674
65.88000 1437.683
65.89000 1453.063
65.90000 1439.044
65.91000 1415.761
65.92000 1391.170
65.93000 1354.340
65.94000 1314.506
65.95000 1270.132
65.96000 1200.078
65.97000 1125.994
65.98000 1066.714
65.99000 970.441
66.00000 889.834
66.01000 814.097
66.02000 750.280
66.03000 687.007
66.04000 625.223
66.05000 565.880
66.06000 506.571
66.07000 475.986
66.08000 442.854
66.09000 420.632
66.10000 409.357
66.11000 405.557
66.12000 401.382
66.13000 386.709
66.14000 367.260
66.15000 348.911
66.16000 342.313
66.17000 339.547
66.18000 337.404
66.19000 339.791
66.20000 343.084
66.21000 346.714
66.22000 351.893
66.23000 357.263
66.24000 361.362
66.25000 364.754
66.26000 367.389
66.27000 376.397
66.28000 398.306
66.29000 420.587
66.30000 435.256
66.31000 439.709
66.32000 444.106
66.33000 452.877
66.34000 465.364
66.35000 477.785
66.36000 486.831
66.37000 493.984
66.38000 501.431
66.39000 514.325
66.40000 529.267
66.41000 543.061
66.42000 543.930
66.43000 541.808
66.44000 539.598
66.45000 536.875
66.46000 534.071
66.47000 530.319
66.48000 523.028
66.49000 515.402
66.50000 509.886
66.51000 494.772
66.52000 482.824
66.53000 471.746
66.54000 462.122
66.55000 452.521
66.56000 436.345
66.57000 413.019
66.58000 389.797
66.59000 380.119
66.60000 379.875
66.61000 379.369
66.62000 371.138
66.63000 359.329
66.64000 348.182
66.65000 345.778
66.66000 346.089
66.67000 346.368
66.68000 340.903
66.69000 335.088
66.70000 331.560
66.71000 338.701
66.72000 347.193
66.73000 353.651
66.74000 353.851
66.75000 353.612
66.76000 353.449
66.77000 349.770
66.78000 346.944
66.79000 346.363
66.80000 348.856
66.81000 351.366
66.82000 353.511
66.83000 355.336
66.84000 357.140
66.85000 355.213
66.86000 351.252
66.87000 347.142
66.88000 340.161
66.89000 332.081
66.90000 325.431
66.91000 332.877
66.92000 343.922
66.93000 353.565
66.94000 355.657
66.95000 356.388
66.96000 358.488
66.97000 365.811
66.98000 373.643
66.99000 379.074
67.00000 378.401
67.01000 377.427
67.02000 376.810
67.03000 370.006
67.04000 364.995
67.05000 367.707
67.06000 378.997
67.07000 390.243
67.08000 394.313
67.09000 393.286
67.10000 392.281
67.11000 387.658
67.12000 381.581
67.13000 375.971
67.14000 376.722
67.15000 379.486
67.16000 382.833
67.17000 390.620
67.18000 399.332
67.19000 406.679
67.20000 401.616
67.21000 396.042
67.22000 392.895
67.23000 397.350
67.24000 402.357
67.25000 406.866
67.26000 410.327
67.27000 413.754
67.28000 415.757
67.29000 424.242
67.30000 430.235
67.31000 426.471
67.32000 414.003
67.33000 401.813
67.34000 405.835
67.35000 419.306
67.36000 432.309
67.37000 427.554
67.38000 416.548
67.39000 406.802
67.40000 409.816
67.41000 416.153
67.42000 421.018
67.43000 417.006
67.44000 411.504
67.45000 407.045
67.46000 412.848
67.47000 418.413
67.48000 425.047
67.49000 434.446
67.50000 443.988
67.51000 449.782
67.52000 449.077
67.53000 448.257
67.54000 447.820
67.55000 445.653
67.56000 444.228
67.57000 450.903
67.58000 463.445
67.59000 475.658
67.60000 477.232
67.61000 473.688
67.62000 470.325
67.63000 479.011
67.64000 490.608
67.65000 500.878
67.66000 500.781
67.67000 498.482
67.68000 497.458
67.69000 502.643
67.70000 508.652
67.71000 513.306
67.72000 502.328
67.73000 492.681
67.74000 488.480
67.75000 495.937
67.76000 503.784
67.77000 508.429
67.78000 508.513
67.79000 508.564
67.80000 504.179
67.81000 495.760
67.82000 487.560
67.83000 493.054
67.84000 506.682
67.85000 520.066
67.86000 528.359
67.87000 534.628
67.88000 540.455
67.89000 535.965
67.90000 529.442
67.91000 524.735
67.92000 531.238
67.93000 539.663
67.94000 546.179
67.95000 545.134
67.96000 543.309
67.97000 541.968
67.98000 550.898
67.99000 558.228
68.00000 564.854
68.01000 570.239
68.02000 575.599
68.03000 580.169
68.04000 583.825
68.05000 587.468
68.06000 586.858
68.07000 583.134
68.08000 579.769
68.09000 588.599
68.10000 603.405
68.11000 616.990
68.12000 612.897
68.13000 602.992
68.14000 594.009
68.15000 597.869
68.16000 603.731
68.17000 609.857
68.18000 617.293
68.19000 624.907
68.20000 632.780
68.21000 641.495
68.22000 650.275
68.23000 656.360
68.24000 654.996
68.25000 653.773
68.26000 652.350
68.27000 650.636
68.28000 648.921
68.29000 651.452
68.30000 657.934
68.31000 664.357
68.32000 672.110
68.33000 680.499
68.34000 689.011
68.35000 700.211
68.36000 712.500
68.37000 724.167
68.38000 729.182
68.39000 732.397
68.40000 735.230
68.41000 740.258
68.42000 744.923
68.43000 750.427
68.44000 759.325
68.45000 768.582
68.46000 779.578
68.47000 795.246
68.48000 811.171
68.49000 821.486
68.50000 839.219
68.51000 852.305
68.52000 862.906
68.53000 870.567
68.54000 878.241
68.55000 889.693
68.56000 903.992
68.57000 918.029
68.58000 950.143
68.59000 989.831
68.60000 1029.587
68.61000 1070.374
68.62000 1111.506
68.63000 1154.755
68.64000 1215.375
68.65000 1279.837
68.66000 1334.784
68.67000 1402.892
68.68000 1461.728
68.69000 1519.701
68.70000 1574.809
68.71000 1629.688
68.72000 1687.081
68.73000 1750.058
68.74000 1813.240
68.75000 1851.099
68.76000 1954.663
68.77000 2028.639
68.78000 2113.116
68.79000 2207.581
68.80000 2302.069
68.81000 2398.262
68.82000 2495.508
68.83000 2589.781
68.84000 2742.587
68.85000 2910.202
68.86000 3089.630
68.87000 3399.078
68.88000 3744.395
68.89000 4122.788
68.90000 4714.684
68.91000 5344.796
68.92000 5861.763
68.93000 7601.942
68.94000 9138.945
68.95000 11158.287
68.96000 14498.436
68.97000 17914.025
68.98000 21997.455
68.99000 27307.221
69.00000 32643.475
69.01000 35565.422
69.02000 43856.926
69.03000 49562.262
69.04000 54389.188
69.05000 58540.355
69.06000 62654.406
69.07000 65369.137
69.08000 67371.938
69.09000 69282.664
69.10000 70325.938
69.11000 71019.508
69.12000 71700.852
69.13000 72279.391
69.14000 72834.727
69.15000 73418.820
69.16000 74151.789
69.17000 74905.992
69.18000 75498.313
69.19000 74986.078
69.20000 74503.852
69.21000 73392.797
69.22000 70857.703
69.23000 68268.086
69.24000 65063.922
69.25000 60931.484
69.26000 56789.734
69.27000 53139.633
69.28000 49967.602
69.29000 46803.711
69.30000 44279.641
69.31000 42158.234
69.32000 40066.109
69.33000 38658.332
69.34000 37538.398
69.35000 36490.691
69.36000 35387.121
69.37000 34370.301
69.38000 33271.711
69.39000 31633.225
69.40000 29896.012
69.41000 27965.693
69.42000 25223.471
69.43000 22390.875
69.44000 20274.469
69.45000 16880.947
69.46000 14176.552
69.47000 11752.389
69.48000 9852.618
69.49000 7964.866
69.50000 6446.429
69.51000 5383.245
69.52000 4323.389
69.53000 3596.410
69.54000 3133.115
69.55000 2674.280
69.56000 2392.954
69.57000 2203.654
69.58000 2017.147
69.59000 1875.313
69.60000 1749.016
69.61000 1633.597
69.62000 1558.490
69.63000 1500.025
69.64000 1441.834
69.65000 1385.097
69.66000 1328.572
69.67000 1277.189
69.68000 1243.531
69.69000 1211.368
69.70000 1188.666
69.71000 1155.830
69.72000 1130.603
69.73000 1101.045
69.74000 1064.817
69.75000 1028.514
69.76000 999.525
69.77000 977.798
69.78000 956.226
69.79000 936.812
69.80000 919.069
69.81000 901.477
69.82000 887.552
69.83000 875.197
69.84000 862.673
69.85000 848.171
69.86000 833.102
69.87000 819.705
69.88000 811.263
69.89000 804.740
69.90000 797.771
69.91000 788.889
69.92000 779.789
69.93000 771.542
69.94000 765.722
69.95000 760.051
69.96000 756.300
69.97000 747.929
69.98000 741.668
69.99000 732.838
70.00000 720.777
