20.00000 556.836
20.01000 564.661
20.02000 573.605
20.03000 579.107
20.04000 571.315
20.05000 562.201
20.06000 555.546
20.07000 558.920
20.08000 561.913
20.09000 563.569
20.10000 562.920
20.11000 562.231
20.12000 560.513
20.13000 557.636
20.14000 554.768
20.15000 558.182
20.16000 566.049
20.17000 573.625
20.18000 571.951
20.19000 565.853
20.20000 560.201
20.21000 560.741
20.22000 563.267
20.23000 565.551
20.24000 561.633
20.25000 557.035
20.26000 552.732
20.27000 549.860
20.28000 547.177
20.29000 548.099
20.30000 560.474
20.31000 573.698
20.32000 582.789
20.33000 561.116
20.34000 544.098
20.35000 539.677
20.36000 553.096
20.37000 566.635
20.38000 566.205
20.39000 553.124
20.40000 540.175
20.41000 542.587
20.42000 553.825
20.43000 564.496
20.44000 563.523
20.45000 557.944
20.46000 552.586
20.47000 549.513
20.48000 547.042
20.49000 544.873
20.50000 542.426
20.51000 540.283
20.52000 540.768
20.53000 551.611
20.54000 563.511
20.55000 570.589
20.56000 565.015
20.57000 558.776
20.58000 554.772
20.59000 556.604
20.60000 558.019
20.61000 560.100
20.62000 562.949
20.63000 565.785
20.64000 566.224
20.65000 564.904
20.66000 563.609
20.67000 557.538
20.68000 549.454
20.69000 542.122
20.70000 545.599
20.71000 552.609
20.72000 558.941
20.73000 559.890
20.74000 559.680
20.75000 559.500
20.76000 551.489
20.77000 543.883
20.78000 538.887
20.79000 542.345
20.80000 546.449
20.81000 549.317
20.82000 549.504
20.83000 549.598
20.84000 549.654
20.85000 563.185
20.86000 572.830
20.87000 576.257
20.88000 573.930
20.89000 571.570
20.90000 567.019
20.91000 561.148
20.92000 555.467
20.93000 555.803
20.94000 558.412
20.95000 560.784
20.96000 560.645
20.97000 559.830
20.98000 559.668
20.99000 563.604
21.00000 568.254
21.01000 572.049
21.02000 558.746
21.03000 546.396
21.04000 537.001
21.05000 535.503
21.06000 534.436
21.07000 536.109
21.08000 542.692
21.09000 549.374
21.10000 552.987
21.11000 557.651
21.12000 560.858
21.13000 566.709
21.14000 574.541
21.15000 582.031
21.16000 577.505
21.17000 567.010
21.18000 557.021
21.19000 557.647
21.20000 561.500
21.21000 564.031
21.22000 555.800
21.23000 545.202
21.24000 537.362
21.25000 543.422
21.26000 551.406
21.27000 557.639
21.28000 564.071
21.29000 569.213
21.30000 569.926
21.31000 560.846
21.32000 551.412
21.33000 544.824
21.34000 542.429
21.35000 540.072
21.36000 536.905
21.37000 532.973
21.38000 529.103
21.39000 529.596
21.40000 532.768
21.41000 536.135
21.42000 543.850
21.43000 553.350
21.44000 562.213
21.45000 561.222
21.46000 557.876
21.47000 554.878
21.48000 554.118
21.49000 553.755
21.50000 551.407
21.51000 540.925
21.52000 529.567
21.53000 521.137
21.54000 542.176
21.55000 559.817
21.56000 568.997
21.57000 562.726
21.58000 556.126
21.59000 552.300
21.60000 551.802
21.61000 551.313
21.62000 548.509
21.63000 543.964
21.64000 539.621
21.65000 542.775
21.66000 549.722
21.67000 556.194
21.68000 555.385
21.69000 552.105
21.70000 549.117
21.71000 549.829
21.72000 551.194
21.73000 552.420
21.74000 552.932
21.75000 553.342
21.76000 554.334
21.77000 557.282
21.78000 560.389
21.79000 562.566
21.80000 573.782
21.81000 582.522
21.82000 582.340
21.83000 568.754
21.84000 555.036
21.85000 551.635
21.86000 558.198
21.87000 564.708
21.88000 575.256
21.89000 588.100
21.90000 601.069
21.91000 616.902
21.92000 633.933
21.93000 649.106
21.94000 643.413
21.95000 631.885
21.96000 621.674
21.97000 621.306
21.98000 622.535
21.99000 624.929
22.00000 632.193
22.01000 639.996
22.02000 646.260
22.03000 648.258
22.04000 650.005
22.05000 651.151
22.06000 655.164
22.07000 658.163
22.08000 659.380
22.09000 658.415
22.10000 657.462
22.11000 661.327
22.12000 668.952
22.13000 676.451
22.14000 675.092
22.15000 669.358
22.16000 663.834
22.17000 661.612
22.18000 660.534
22.19000 659.025
22.20000 653.839
22.21000 647.810
22.22000 642.641
22.23000 640.130
22.24000 638.334
22.25000 636.716
22.26000 635.708
22.27000 634.751
22.28000 631.731
22.29000 623.976
22.30000 616.035
22.31000 611.210
22.32000 612.511
22.33000 613.486
22.34000 610.445
22.35000 603.439
22.36000 596.464
22.37000 592.048
22.38000 589.264
22.39000 586.560
22.40000 585.345
22.41000 584.795
22.42000 584.501
22.43000 587.175
22.44000 590.696
22.45000 593.061
22.46000 587.673
22.47000 580.846
22.48000 575.207
22.49000 572.326
22.50000 570.209
22.51000 567.582
22.52000 563.512
22.53000 559.354
22.54000 557.925
22.55000 561.672
22.56000 565.543
22.57000 567.697
22.58000 560.052
22.59000 554.750
22.60000 550.938
22.61000 548.312
22.62000 545.641
22.63000 541.112
22.64000 535.607
22.65000 530.339
22.66000 526.026
22.67000 522.322
22.68000 519.123
22.69000 520.361
22.70000 522.635
22.71000 523.474
22.72000 516.609
22.73000 508.600
22.74000 502.261
22.75000 514.214
22.76000 525.084
22.77000 533.584
22.78000 536.544
22.79000 539.276
22.80000 539.780
22.81000 536.805
22.82000 533.789
22.83000 532.274
22.84000 514.160
22.85000 502.186
22.86000 501.127
22.87000 507.169
22.88000 513.065
22.89000 515.310
22.90000 515.970
22.91000 516.590
22.92000 510.413
22.93000 502.981
22.94000 496.989
22.95000 500.893
22.96000 506.673
22.97000 511.405
22.98000 511.583
22.99000 511.230
23.00000 510.964
23.01000 514.022
23.02000 516.579
23.03000 519.300
23.04000 522.338
23.05000 525.384
23.06000 523.480
23.07000 515.257
23.08000 507.023
23.09000 510.413
23.10000 523.203
23.11000 535.656
23.12000 533.306
23.13000 523.031
23.14000 513.094
23.15000 508.905
23.16000 506.780
23.17000 504.829
23.18000 511.083
23.19000 518.403
23.20000 523.640
23.21000 517.460
23.22000 509.548
23.23000 503.967
23.24000 506.687
23.25000 510.143
23.26000 512.607
23.27000 503.843
23.28000 496.794
23.29000 496.995
23.30000 508.738
23.31000 520.630
23.32000 523.425
23.33000 516.839
23.34000 510.292
23.35000 505.846
23.36000 502.835
23.37000 499.920
23.38000 499.534
23.39000 500.266
23.40000 501.051
23.41000 502.488
23.42000 504.118
23.43000 505.575
23.44000 509.913
23.45000 514.177
23.46000 516.984
23.47000 513.315
23.48000 508.874
23.49000 505.632
23.50000 505.911
23.51000 506.419
23.52000 506.759
23.53000 502.178
23.54000 498.684
23.55000 499.372
23.56000 505.509
23.57000 511.654
23.58000 510.995
23.59000 504.690
23.60000 498.472
23.61000 502.297
23.62000 511.343
23.63000 519.973
23.64000 521.284
23.65000 519.918
23.66000 518.131
23.67000 512.448
23.68000 505.818
23.69000 500.077
23.70000 501.691
23.71000 504.035
23.72000 504.787
23.73000 499.752
23.74000 494.189
23.75000 491.212
23.76000 494.508
23.77000 498.086
23.78000 500.311
23.79000 488.804
23.80000 480.379
23.81000 477.166
23.82000 479.443
23.83000 481.729
23.84000 484.986
23.85000 488.898
23.86000 492.715
23.87000 496.104
23.88000 499.159
23.89000 501.640
23.90000 496.879
23.91000 489.932
23.92000 484.851
23.93000 493.189
23.94000 504.181
23.95000 513.365
23.96000 507.648
23.97000 501.391
23.98000 497.056
23.99000 498.474
24.00000 500.277
24.01000 498.000
24.02000 487.537
24.03000 476.844
24.04000 470.729
24.05000 478.779
24.06000 484.442
24.07000 486.385
24.08000 485.178
24.09000 483.975
24.10000 482.990
24.11000 482.126
24.12000 481.296
24.13000 479.058
24.14000 476.469
24.15000 474.544
24.16000 478.908
24.17000 484.833
24.18000 488.961
24.19000 482.813
24.20000 475.034
24.21000 468.796
24.22000 482.025
24.23000 494.213
24.24000 502.305
24.25000 500.272
24.26000 497.767
24.27000 495.223
24.28000 492.614
24.29000 490.003
24.30000 488.650
24.31000 486.718
24.32000 485.436
24.33000 486.832
24.34000 490.074
24.35000 493.033
24.36000 487.845
24.37000 478.917
24.38000 470.484
24.39000 469.586
24.40000 470.889
24.41000 472.248
24.42000 474.010
24.43000 475.854
24.44000 477.925
24.45000 481.041
24.46000 484.289
24.47000 486.774
24.48000 487.869
24.49000 488.658
24.50000 489.020
24.51000 488.512
24.52000 487.978
24.53000 483.587
24.54000 473.968
24.55000 464.326
24.56000 467.901
24.57000 482.880
24.58000 497.527
24.59000 494.710
24.60000 481.996
24.61000 469.990
24.62000 471.353
24.63000 477.793
24.64000 483.745
24.65000 481.132
24.66000 476.842
24.67000 473.773
24.68000 477.842
24.69000 483.069
24.70000 487.273
24.71000 487.615
24.72000 487.585
24.73000 487.564
24.74000 477.680
24.75000 469.718
24.76000 469.958
24.77000 484.030
24.78000 498.325
24.79000 498.718
24.80000 483.823
24.81000 468.985
24.82000 464.212
24.83000 466.496
24.84000 468.872
24.85000 474.038
24.86000 480.508
24.87000 486.465
24.88000 485.530
24.89000 482.435
24.90000 479.646
24.91000 483.613
24.92000 488.314
24.93000 491.585
24.94000 488.106
24.95000 483.762
24.96000 481.055
24.97000 483.436
24.98000 486.181
24.99000 488.054
25.00000 482.220
25.01000 477.678
25.02000 476.331
25.03000 479.402
25.04000 482.494
25.05000 478.272
25.06000 467.591
25.07000 457.028
25.08000 459.206
25.09000 468.519
25.10000 477.464
25.11000 479.205
25.12000 478.157
25.13000 477.146
25.14000 476.509
25.15000 475.968
25.16000 475.495
25.17000 476.284
25.18000 477.139
25.19000 476.910
25.20000 472.508
25.21000 467.693
25.22000 465.175
25.23000 468.551
25.24000 472.224
25.25000 474.561
25.26000 477.609
25.27000 479.832
25.28000 476.281
25.29000 466.245
25.30000 456.250
25.31000 453.161
25.32000 455.029
25.33000 456.857
25.34000 457.483
25.35000 457.534
25.36000 457.608
25.37000 458.008
25.38000 458.512
25.39000 459.892
25.40000 468.037
25.41000 477.606
25.42000 485.690
25.43000 474.103
25.44000 462.253
25.45000 455.533
25.46000 465.051
25.47000 475.767
25.48000 483.219
25.49000 483.742
25.50000 484.039
25.51000 484.213
25.52000 480.497
25.53000 477.861
25.54000 479.941
25.55000 486.274
25.56000 492.469
25.57000 490.309
25.58000 483.232
25.59000 476.396
25.60000 466.051
25.61000 454.996
25.62000 445.572
25.63000 452.914
25.64000 464.663
25.65000 473.587
25.66000 465.250
25.67000 453.984
25.68000 444.835
25.69000 454.633
25.70000 464.196
25.71000 472.765
25.72000 478.734
25.73000 484.567
25.74000 486.869
25.75000 482.983
25.76000 478.983
25.77000 476.845
25.78000 474.150
25.79000 472.316
25.80000 471.208
25.81000 470.633
25.82000 470.015
25.83000 467.992
25.84000 465.287
25.85000 462.718
25.86000 464.400
25.87000 467.232
25.88000 468.868
25.89000 461.037
25.90000 451.174
25.91000 445.405
25.92000 459.759
25.93000 476.821
25.94000 490.068
25.95000 477.732
25.96000 466.376
25.97000 457.316
25.98000 453.218
25.99000 449.290
26.00000 447.014
26.01000 447.114
26.02000 447.232
26.03000 450.018
26.04000 455.257
26.05000 460.412
26.06000 460.052
26.07000 456.385
26.08000 452.801
26.09000 450.994
26.10000 449.900
26.11000 448.883
26.12000 448.416
26.13000 448.128
26.14000 448.056
26.15000 449.340
26.16000 450.859
26.17000 453.201
26.18000 458.840
26.19000 464.823
26.20000 469.235
26.21000 466.400
26.22000 463.900
26.23000 459.036
26.24000 449.949
26.25000 440.778
26.26000 440.337
26.27000 450.118
26.28000 459.886
26.29000 467.401
26.30000 473.192
26.31000 478.719
26.32000 475.056
26.33000 466.844
26.34000 458.813
26.35000 453.443
26.36000 448.957
26.37000 444.883
26.38000 441.463
26.39000 438.569
26.40000 438.162
26.41000 450.232
26.42000 464.021
26.43000 474.574
26.44000 474.484
26.45000 473.559
26.46000 472.917
26.47000 464.318
26.48000 457.622
26.49000 456.408
26.50000 463.239
26.51000 470.139
26.52000 471.742
26.53000 468.358
26.54000 465.005
26.55000 461.846
26.56000 458.865
26.57000 456.150
26.58000 459.285
26.59000 464.813
26.60000 469.092
26.61000 459.800
26.62000 446.798
26.63000 435.323
26.64000 440.212
26.65000 446.931
26.66000 452.362
26.67000 452.531
26.68000 452.136
26.69000 452.178
26.70000 453.406
26.71000 454.700
26.72000 455.541
26.73000 454.892
26.74000 454.393
26.75000 449.989
26.76000 440.914
26.77000 431.854
26.78000 428.217
26.79000 428.713
26.80000 429.200
26.81000 428.741
26.82000 427.839
26.83000 426.956
26.84000 426.378
26.85000 425.904
26.86000 425.686
26.87000 427.601
26.88000 429.992
26.89000 432.034
26.90000 442.052
26.91000 451.437
26.92000 456.776
26.93000 448.552
26.94000 439.234
26.95000 431.167
26.96000 425.912
26.97000 420.763
26.98000 417.664
26.99000 436.797
27.00000 450.558
27.01000 453.838
27.02000 447.038
27.03000 440.323
27.04000 440.058
27.05000 443.816
27.06000 447.462
27.07000 443.539
27.08000 436.828
27.09000 430.380
27.10000 426.868
27.11000 424.174
27.12000 422.502
27.13000 427.500
27.14000 433.705
27.15000 438.807
27.16000 437.682
27.17000 436.195
27.18000 435.346
27.19000 436.261
27.20000 437.278
27.21000 439.705
27.22000 444.747
27.23000 449.846
27.24000 452.653
27.25000 437.386
27.26000 426.857
27.27000 420.749
27.28000 418.078
27.29000 415.554
27.30000 418.715
27.31000 424.797
27.32000 430.605
27.33000 435.474
27.34000 439.699
27.35000 443.044
27.36000 438.896
27.37000 433.037
27.38000 427.381
27.39000 422.776
27.40000 418.324
27.41000 414.818
27.42000 424.466
27.43000 433.072
27.44000 439.051
27.45000 439.023
27.46000 438.761
27.47000 443.211
27.48000 454.850
27.49000 466.566
27.50000 465.654
27.51000 452.329
27.52000 439.105
27.53000 434.104
27.54000 434.330
27.55000 434.519
27.56000 433.826
27.57000 432.758
27.58000 431.757
27.59000 428.810
27.60000 425.627
27.61000 423.454
27.62000 428.032
27.63000 433.859
27.64000 437.734
27.65000 433.317
27.66000 427.964
27.67000 423.954
27.68000 428.337
27.69000 432.153
27.70000 437.787
27.71000 446.853
27.72000 456.001
27.73000 453.807
27.74000 437.482
27.75000 421.145
27.76000 421.692
27.77000 435.568
27.78000 449.145
27.79000 450.467
27.80000 445.373
27.81000 440.130
27.82000 432.476
27.83000 423.975
27.84000 416.197
27.85000 415.631
27.86000 416.620
27.87000 417.452
27.88000 417.439
27.89000 417.301
27.90000 417.724
27.91000 420.099
27.92000 422.641
27.93000 424.441
27.94000 418.851
27.95000 414.374
27.96000 413.612
27.97000 418.630
27.98000 423.716
27.99000 427.251
28.00000 429.227
28.01000 431.190
28.02000 432.028
28.03000 432.134
28.04000 432.194
28.05000 431.087
28.06000 429.475
28.07000 427.944
28.08000 427.363
28.09000 427.056
28.10000 426.783
28.11000 425.803
28.12000 424.834
28.13000 424.054
28.14000 424.088
28.15000 424.216
28.16000 424.951
28.17000 427.432
28.18000 430.021
28.19000 431.740
28.20000 437.046
28.21000 441.033
28.22000 442.513
28.23000 440.802
28.24000 439.073
28.25000 434.292
28.26000 427.039
28.27000 419.894
28.28000 420.806
28.29000 425.862
28.30000 430.891
28.31000 435.455
28.32000 439.852
28.33000 443.451
28.34000 439.896
28.35000 434.641
28.36000 430.109
28.37000 430.166
28.38000 430.803
28.39000 430.388
28.40000 426.240
28.41000 421.763
28.42000 418.883
28.43000 419.792
28.44000 420.862
28.45000 421.522
28.46000 415.126
28.47000 410.472
28.48000 411.541
28.49000 418.488
28.50000 425.364
28.51000 425.310
28.52000 420.676
28.53000 416.163
28.54000 415.626
28.55000 416.785
28.56000 417.874
28.57000 418.108
28.58000 418.091
28.59000 419.155
28.60000 427.789
28.61000 437.883
28.62000 446.280
28.63000 437.827
28.64000 429.175
28.65000 422.200
28.66000 420.126
28.67000 418.369
28.68000 414.855
28.69000 407.895
28.70000 400.844
28.71000 396.855
28.72000 408.444
28.73000 416.545
28.74000 422.884
28.75000 427.765
28.76000 432.374
28.77000 424.406
28.78000 409.600
28.79000 395.391
28.80000 400.765
28.81000 412.462
28.82000 422.977
28.83000 422.618
28.84000 419.626
28.85000 417.135
28.86000 417.435
28.87000 418.167
28.88000 418.750
28.89000 425.265
28.90000 430.958
28.91000 433.760
28.92000 429.571
28.93000 425.073
28.94000 422.322
28.95000 422.398
28.96000 422.513
28.97000 422.572
28.98000 425.878
28.99000 428.032
29.00000 422.787
29.01000 412.557
29.02000 402.723
29.03000 403.642
29.04000 409.390
29.05000 414.806
29.06000 414.449
29.07000 412.532
29.08000 410.419
29.09000 406.906
29.10000 403.116
29.11000 400.606
29.12000 403.872
29.13000 407.841
29.14000 410.860
29.15000 410.978
29.16000 410.919
29.17000 413.038
29.18000 419.512
29.19000 426.108
29.20000 428.931
29.21000 426.761
29.22000 424.568
29.23000 422.879
29.24000 421.618
29.25000 420.401
29.26000 421.369
29.27000 423.547
29.28000 425.537
29.29000 424.124
29.30000 421.448
29.31000 418.981
29.32000 418.412
29.33000 418.322
29.34000 418.661
29.35000 421.449
29.36000 424.624
29.37000 427.712
29.38000 430.478
29.39000 433.214
29.40000 435.186
29.41000 426.680
29.42000 419.794
29.43000 413.108
29.44000 406.753
29.45000 400.402
29.46000 396.525
29.47000 395.299
29.48000 394.080
29.49000 393.450
29.50000 393.228
29.51000 393.119
29.52000 396.250
29.53000 400.863
29.54000 405.223
29.55000 406.304
29.56000 406.379
29.57000 406.447
29.58000 405.296
29.59000 404.076
29.60000 404.348
29.61000 411.496
29.62000 419.500
29.63000 423.580
29.64000 415.740
29.65000 407.080
29.66000 401.216
29.67000 401.896
29.68000 402.546
29.69000 402.455
29.70000 401.364
29.71000 400.271
29.72000 401.920
29.73000 405.931
29.74000 409.894
29.75000 411.116
29.76000 410.799
29.77000 410.362
29.78000 407.687
29.79000 404.164
29.80000 401.107
29.81000 402.557
29.82000 405.143
29.83000 407.396
29.84000 409.528
29.85000 411.332
29.86000 413.993
29.87000 419.875
29.88000 426.064
29.89000 433.126
29.90000 442.377
29.91000 451.733
29.92000 457.633
29.93000 445.051
29.94000 435.730
29.95000 431.334
29.96000 432.333
29.97000 433.350
29.98000 436.232
29.99000 440.421
30.00000 444.517
30.01000 445.841
30.02000 445.872
30.03000 445.488
30.04000 439.575
30.05000 431.934
30.06000 425.476
30.07000 427.896
30.08000 432.139
30.09000 435.709
30.10000 436.292
30.11000 436.460
30.12000 436.118
30.13000 434.195
30.14000 432.159
30.15000 429.021
30.16000 423.595
30.17000 418.099
30.18000 414.906
30.19000 417.647
30.20000 419.600
30.21000 424.414
30.22000 431.745
30.23000 438.859
30.24000 433.933
30.25000 422.077
30.26000 410.645
30.27000 409.392
30.28000 411.904
30.29000 414.272
30.30000 415.191
30.31000 415.737
30.32000 416.608
30.33000 419.406
30.34000 422.522
30.35000 425.040
30.36000 428.943
30.37000 432.229
30.38000 432.974
30.39000 427.222
30.40000 421.146
30.41000 417.326
30.42000 417.368
30.43000 417.476
30.44000 417.533
30.45000 428.579
30.46000 436.026
30.47000 434.629
30.48000 426.912
30.49000 419.352
30.50000 416.729
30.51000 416.451
30.52000 416.188
30.53000 418.937
30.54000 422.353
30.55000 425.549
30.56000 427.047
30.57000 428.189
30.58000 428.638
30.59000 425.761
30.60000 422.450
30.61000 419.894
30.62000 420.876
30.63000 421.859
30.64000 423.774
30.65000 427.655
30.66000 431.601
30.67000 434.650
30.68000 436.441
30.69000 438.223
30.70000 437.323
30.71000 434.017
30.72000 430.783
30.73000 431.807
30.74000 435.328
30.75000 438.730
30.76000 439.726
30.77000 439.775
30.78000 439.822
30.79000 440.055
30.80000 440.308
30.81000 440.844
30.82000 443.089
30.83000 445.624
30.84000 447.157
30.85000 444.772
30.86000 441.990
30.87000 439.952
30.88000 452.446
30.89000 462.675
30.90000 469.256
30.91000 469.469
30.92000 469.565
30.93000 477.965
30.94000 495.851
30.95000 513.686
30.96000 515.347
30.97000 505.299
30.98000 495.818
30.99000 504.960
31.00000 523.113
31.01000 540.752
31.02000 551.092
31.03000 559.062
31.04000 566.277
31.05000 592.633
31.06000 619.455
31.07000 645.683
31.08000 668.995
31.09000 691.917
31.10000 719.385
31.11000 761.462
31.12000 804.644
31.13000 834.448
31.14000 894.403
31.15000 940.223
31.16000 994.975
31.17000 1062.532
31.18000 1130.189
31.19000 1197.789
31.20000 1265.336
31.21000 1332.230
31.22000 1425.380
31.23000 1531.963
31.24000 1637.401
31.25000 1718.795
31.26000 1790.566
31.27000 1864.270
31.28000 1958.285
31.29000 2057.724
31.30000 2145.172
31.31000 2241.923
31.32000 2326.551
31.33000 2406.993
31.34000 2470.742
31.35000 2532.759
31.36000 2586.579
31.37000 2618.645
31.38000 2649.540
31.39000 2669.455
31.40000 2666.819
31.41000 2664.572
31.42000 2651.199
31.43000 2624.844
31.44000 2598.414
31.45000 2561.181
31.46000 2515.911
31.47000 2471.503
31.48000 2400.503
31.49000 2319.452
31.50000 2238.545
31.51000 2159.734
31.52000 2081.616
31.53000 2000.958
31.54000 1899.805
31.55000 1794.177
31.56000 1704.354
31.57000 1621.495
31.58000 1552.707
31.59000 1481.393
31.60000 1401.802
31.61000 1321.565
31.62000 1245.438
31.63000 1178.330
31.64000 1111.542
31.65000 1071.744
31.66000 989.429
31.67000 930.838
31.68000 883.010
31.69000 845.272
31.70000 807.619
31.71000 775.760
31.72000 747.431
31.73000 719.994
31.74000 689.409
31.75000 659.264
31.76000 630.840
31.77000 621.011
31.78000 616.246
31.79000 608.790
31.80000 584.219
31.81000 556.629
31.82000 534.054
31.83000 530.524
31.84000 529.295
31.85000 524.341
31.86000 509.315
31.87000 493.728
31.88000 480.933
31.89000 473.204
31.90000 465.579
31.91000 461.431
31.92000 453.935
31.93000 448.811
31.94000 448.508
31.95000 451.864
31.96000 454.982
31.97000 449.464
31.98000 439.605
31.99000 430.211
32.00000 429.532
32.01000 431.626
32.02000 433.041
32.03000 428.841
32.04000 423.390
32.05000 417.917
32.06000 412.331
32.07000 406.728
32.08000 402.342
32.09000 408.727
32.10000 414.519
32.11000 419.565
32.12000 422.946
32.13000 426.265
32.14000 423.585
32.15000 411.959
32.16000 400.249
32.17000 398.268
32.18000 405.606
32.19000 412.865
32.20000 414.343
32.21000 412.228
32.22000 409.936
32.23000 403.600
32.24000 395.585
32.25000 388.097
32.26000 390.486
32.27000 395.141
32.28000 400.308
32.29000 408.798
32.30000 417.888
32.31000 424.342
32.32000 419.866
32.33000 414.193
32.34000 409.970
32.35000 407.428
32.36000 405.525
32.37000 403.471
32.38000 401.136
32.39000 398.795
32.40000 395.289
32.41000 390.365
32.42000 385.448
32.43000 382.442
32.44000 380.924
32.45000 379.480
32.46000 380.865
32.47000 383.698
32.48000 386.104
32.49000 381.820
32.50000 375.238
32.51000 369.234
32.52000 375.452
32.53000 383.431
32.54000 389.562
32.55000 386.064
32.56000 381.181
32.57000 378.684
32.58000 384.308
32.59000 390.603
32.60000 395.029
32.61000 380.352
32.62000 368.671
32.63000 364.677
32.64000 372.366
32.65000 380.177
32.66000 381.023
32.67000 375.049
32.68000 369.120
32.69000 368.376
32.70000 370.873
32.71000 373.193
32.72000 371.303
32.73000 367.632
32.74000 364.531
32.75000 367.951
32.76000 373.217
32.77000 377.890
32.78000 383.356
32.79000 388.220
32.80000 393.134
32.81000 398.262
32.82000 403.414
32.83000 409.557
32.84000 418.482
32.85000 427.575
32.86000 433.561
32.87000 444.685
32.88000 452.968
32.89000 460.753
32.90000 467.919
32.91000 475.059
32.92000 475.074
32.93000 469.457
32.94000 463.930
32.95000 465.942
32.96000 471.700
32.97000 476.978
32.98000 474.503
32.99000 469.315
33.00000 464.889
33.01000 467.097
33.02000 470.843
33.03000 474.062
33.04000 459.233
33.05000 444.443
33.06000 431.143
33.07000 423.006
33.08000 415.310
33.09000 406.599
33.10000 395.534
33.11000 384.372
33.12000 377.558
33.13000 386.422
33.14000 392.889
33.15000 388.585
33.16000 373.504
33.17000 358.542
33.18000 354.137
33.19000 356.549
33.20000 358.895
33.21000 358.859
33.22000 357.849
33.23000 357.007
33.24000 358.139
33.25000 359.840
33.26000 360.788
33.27000 356.605
33.28000 351.457
33.29000 347.195
33.30000 344.572
33.31000 342.563
33.32000 340.016
33.33000 335.934
33.34000 331.756
33.35000 329.862
33.36000 332.348
33.37000 334.943
33.38000 336.395
33.39000 338.838
33.40000 340.526
33.41000 339.333
33.42000 335.819
33.43000 332.401
33.44000 333.157
33.45000 336.131
33.46000 338.980
33.47000 340.531
33.48000 341.545
33.49000 342.270
33.50000 340.414
33.51000 337.948
33.52000 336.390
33.53000 339.763
33.54000 343.879
33.55000 347.145
33.56000 344.296
33.57000 341.571
33.58000 339.082
33.59000 337.152
33.60000 335.245
33.61000 336.964
33.62000 344.413
33.63000 351.934
33.64000 355.736
33.65000 336.355
33.66000 323.495
33.67000 321.048
33.68000 325.457
33.69000 329.737
33.70000 330.702
33.71000 330.210
33.72000 329.748
33.73000 332.183
33.74000 335.184
33.75000 338.377
33.76000 342.913
33.77000 347.705
33.78000 350.961
33.79000 347.444
33.80000 343.128
33.81000 339.864
33.82000 338.617
33.83000 337.739
33.84000 336.487
33.85000 334.502
33.86000 332.497
33.87000 332.217
33.88000 334.164
33.89000 336.117
33.90000 338.400
33.91000 340.946
33.92000 343.419
33.93000 342.531
33.94000 339.823
33.95000 336.950
33.96000 331.210
33.97000 324.428
33.98000 318.194
33.99000 325.644
34.00000 335.242
34.01000 343.250
34.02000 342.420
34.03000 340.230
34.04000 338.185
34.05000 336.664
34.06000 335.189
34.07000 334.135
34.08000 335.491
34.09000 336.607
34.10000 337.180
34.11000 336.876
34.12000 336.560
34.13000 336.578
34.14000 336.947
34.15000 337.313
34.16000 334.436
34.17000 329.448
34.18000 324.677
34.19000 325.761
34.20000 329.466
34.21000 333.256
34.22000 338.109
34.23000 343.281
34.24000 347.910
34.25000 350.544
34.26000 352.500
34.27000 353.134
34.28000 347.827
34.29000 341.801
34.30000 336.574
34.31000 333.718
34.32000 331.019
34.33000 329.205
34.34000 324.850
34.35000 321.562
34.36000 320.760
34.37000 323.234
34.38000 325.724
34.39000 328.738
34.40000 332.191
34.41000 335.599
34.42000 340.669
34.43000 346.495
34.44000 351.837
34.45000 348.485
34.46000 341.914
34.47000 335.228
34.48000 327.469
34.49000 319.444
34.50000 312.481
34.51000 314.990
34.52000 318.398
34.53000 320.809
34.54000 319.554
34.55000 317.960
34.56000 317.618
34.57000 320.349
34.58000 323.221
34.59000 325.016
34.60000 318.890
34.61000 314.387
34.62000 313.689
34.63000 317.053
34.64000 320.419
34.65000 323.797
34.66000 327.184
34.67000 330.490
34.68000 331.350
34.69000 331.105
34.70000 330.945
34.71000 331.862
34.72000 333.109
34.73000 334.075
34.74000 332.983
34.75000 331.480
34.76000 330.221
34.77000 324.893
34.78000 320.043
34.79000 316.315
34.80000 315.979
34.81000 315.876
34.82000 314.903
34.83000 312.163
34.84000 309.373
34.85000 307.768
34.86000 314.769
34.87000 319.698
34.88000 324.017
34.89000 327.812
34.90000 331.531
34.91000 331.320
34.92000 328.899
34.93000 326.569
34.94000 321.893
34.95000 316.676
34.96000 311.699
34.97000 309.047
34.98000 306.977
34.99000 305.763
35.00000 309.513
35.01000 314.061
35.02000 317.719
35.03000 323.224
35.04000 327.830
35.05000 332.398
35.06000 336.872
35.07000 341.342
35.08000 339.069
35.09000 325.506
35.10000 311.767
35.11000 304.597
35.12000 320.370
35.13000 330.947
35.14000 328.797
35.15000 317.761
35.16000 307.104
35.17000 307.632
35.18000 313.355
35.19000 318.767
35.20000 320.020
35.21000 319.981
35.22000 319.639
35.23000 317.035
35.24000 313.969
35.25000 310.386
35.26000 304.387
35.27000 298.081
35.28000 293.241
35.29000 303.845
35.30000 313.087
35.31000 317.288
35.32000 311.063
35.33000 304.520
35.34000 304.701
35.35000 314.112
35.36000 323.573
35.37000 327.399
35.38000 326.290
35.39000 325.211
35.40000 325.790
35.41000 327.319
35.42000 328.389
35.43000 320.579
35.44000 309.357
35.45000 298.970
35.46000 303.848
35.47000 311.745
35.48000 318.051
35.49000 314.932
35.50000 310.260
35.51000 306.829
35.52000 308.135
35.53000 309.906
35.54000 311.195
35.55000 314.606
35.56000 317.314
35.57000 318.257
35.58000 316.191
35.59000 314.074
35.60000 313.949
35.61000 316.043
35.62000 318.131
35.63000 315.486
35.64000 309.529
35.65000 303.742
35.66000 303.192
35.67000 305.121
35.68000 306.983
35.69000 307.943
35.70000 308.615
35.71000 309.222
35.72000 308.285
35.73000 307.179
35.74000 306.887
35.75000 310.485
35.76000 314.591
35.77000 316.539
35.78000 311.710
35.79000 306.386
35.80000 302.739
35.81000 299.971
35.82000 297.919
35.83000 298.312
35.84000 302.131
35.85000 305.974
35.86000 310.602
35.87000 315.934
35.88000 321.209
35.89000 319.393
35.90000 313.566
35.91000 307.879
35.92000 304.996
35.93000 303.210
35.94000 301.836
35.95000 304.663
35.96000 308.586
35.97000 312.023
35.98000 308.429
35.99000 304.331
36.00000 302.116
36.01000 307.242
36.02000 313.106
36.03000 316.372
36.04000 312.894
36.05000 309.069
36.06000 306.624
36.07000 306.213
36.08000 305.940
36.09000 302.626
36.10000 295.849
36.11000 289.119
36.12000 290.493
36.13000 297.755
36.14000 304.870
36.15000 305.681
36.16000 303.538
36.17000 301.398
36.18000 299.301
36.19000 297.220
36.20000 295.753
36.21000 299.112
36.22000 303.498
36.23000 307.213
36.24000 302.642
36.25000 297.889
36.26000 295.060
36.27000 298.395
36.28000 302.194
36.29000 302.602
36.30000 295.731
36.31000 288.615
36.32000 284.417
36.33000 293.253
36.34000 299.562
36.35000 306.625
36.36000 314.377
36.37000 322.003
36.38000 321.712
36.39000 316.703
36.40000 311.861
36.41000 311.092
36.42000 311.900
36.43000 312.197
36.44000 307.159
36.45000 300.701
36.46000 294.369
36.47000 288.819
36.48000 283.403
36.49000 278.992
36.50000 291.888
36.51000 303.884
36.52000 308.462
36.53000 293.423
36.54000 277.335
36.55000 270.805
36.56000 281.219
36.57000 291.959
36.58000 297.735
36.59000 305.667
36.60000 311.048
36.61000 308.727
36.62000 300.700
36.63000 292.907
36.64000 293.129
36.65000 297.289
36.66000 301.245
36.67000 301.222
36.68000 299.987
36.69000 299.193
36.70000 301.945
36.71000 305.467
36.72000 307.484
36.73000 302.006
36.74000 295.505
36.75000 290.444
36.76000 293.621
36.77000 296.659
36.78000 300.139
36.79000 304.583
36.80000 309.061
36.81000 310.044
36.82000 305.936
36.83000 301.785
36.84000 302.648
36.85000 308.189
36.86000 313.622
36.87000 311.686
36.88000 305.275
36.89000 299.203
36.90000 300.480
36.91000 304.744
36.92000 308.717
36.93000 309.288
36.94000 308.970
36.95000 309.431
36.96000 314.828
36.97000 321.094
36.98000 326.447
36.99000 328.103
37.00000 329.367
37.01000 330.302
37.02000 317.064
37.03000 306.185
37.04000 301.765
37.05000 309.014
37.06000 316.502
37.07000 319.147
37.08000 316.046
37.09000 312.944
37.10000 309.162
37.11000 304.896
37.12000 300.769
37.13000 301.661
37.14000 305.064
37.15000 308.413
37.16000 310.939
37.17000 313.188
37.18000 315.234
37.19000 308.743
37.20000 301.327
37.21000 295.802
37.22000 299.890
37.23000 305.322
37.24000 309.539
37.25000 309.715
37.26000 309.569
37.27000 309.467
37.28000 306.150
37.29000 303.556
37.30000 302.396
37.31000 303.367
37.32000 304.358
37.33000 302.978
37.34000 299.337
37.35000 295.726
37.36000 293.411
37.37000 291.926
37.38000 290.340
37.39000 286.462
37.40000 281.637
37.41000 278.111
37.42000 288.948
37.43000 303.757
37.44000 316.852
37.45000 309.530
37.46000 300.036
37.47000 292.006
37.48000 290.026
37.49000 288.704
37.50000 287.613
37.51000 287.156
37.52000 286.735
37.53000 286.460
37.54000 291.850
37.55000 295.898
37.56000 298.987
37.57000 300.914
37.58000 302.836
37.59000 304.000
37.60000 304.580
37.61000 305.149
37.62000 297.021
37.63000 284.875
37.64000 273.707
37.65000 277.727
37.66000 286.945
37.67000 295.537
37.68000 298.856
37.69000 300.982
37.70000 302.801
37.71000 295.561
37.72000 288.360
37.73000 282.992
37.74000 283.835
37.75000 285.190
37.76000 286.630
37.77000 288.263
37.78000 289.904
37.79000 290.896
37.80000 292.266
37.81000 293.246
37.82000 289.801
37.83000 282.045
37.84000 274.392
37.85000 274.897
37.86000 280.551
37.87000 286.041
37.88000 287.870
37.89000 288.141
37.90000 288.455
37.91000 289.267
37.92000 290.218
37.93000 291.134
37.94000 291.814
37.95000 292.451
37.96000 292.976
37.97000 293.508
37.98000 293.946
37.99000 295.122
38.00000 298.362
38.01000 301.725
38.02000 304.451
38.03000 305.979
38.04000 307.481
38.05000 308.312
38.06000 310.439
38.07000 311.901
38.08000 310.951
38.09000 308.101
38.10000 305.384
38.11000 307.984
38.12000 313.348
38.13000 318.475
38.14000 318.312
38.15000 316.444
38.16000 314.388
38.17000 310.702
38.18000 306.640
38.19000 303.746
38.20000 307.045
38.21000 311.251
38.22000 314.571
38.23000 314.276
38.24000 313.793
38.25000 314.288
38.26000 317.044
38.27000 319.891
38.28000 321.871
38.29000 322.512
38.30000 323.138
38.31000 326.671
38.32000 333.100
38.33000 339.529
38.34000 345.912
38.35000 352.266
38.36000 358.760
38.37000 368.677
38.38000 380.065
38.39000 390.744
38.40000 403.139
38.41000 414.877
38.42000 427.579
38.43000 446.815
38.44000 467.274
38.45000 486.703
38.46000 501.698
38.47000 516.185
38.48000 527.073
38.49000 570.627
38.50000 606.253
38.51000 643.488
38.52000 683.802
38.53000 724.191
38.54000 769.592
38.55000 821.315
38.56000 872.976
38.57000 926.660
38.58000 981.738
38.59000 1036.829
38.60000 1092.474
38.61000 1148.413
38.62000 1204.054
38.63000 1254.747
38.64000 1303.682
38.65000 1348.528
38.66000 1388.113
38.67000 1422.261
38.68000 1456.411
38.69000 1490.573
38.70000 1524.738
38.71000 1552.273
38.72000 1556.449
38.73000 1558.590
38.74000 1560.111
38.75000 1554.617
38.76000 1550.211
38.77000 1542.790
38.78000 1530.623
38.79000 1518.397
38.80000 1485.987
38.81000 1433.018
38.82000 1380.386
38.83000 1323.678
38.84000 1265.157
38.85000 1207.234
38.86000 1164.635
38.87000 1128.743
38.88000 1091.049
38.89000 1031.650
38.90000 965.890
38.91000 907.230
38.92000 842.187
38.93000 784.531
38.94000 729.610
38.95000 686.690
38.96000 645.180
38.97000 607.110
38.98000 579.029
38.99000 551.584
39.00000 533.291
39.01000 500.008
39.02000 475.081
39.03000 452.544
39.04000 433.085
39.05000 413.653
39.06000 400.734
39.07000 393.156
39.08000 385.685
39.09000 373.743
39.10000 359.799
39.11000 346.164
39.12000 337.845
39.13000 331.450
39.14000 325.509
39.15000 323.708
39.16000 322.901
39.17000 322.204
39.18000 317.251
39.19000 312.489
39.20000 306.879
39.21000 298.225
39.22000 289.297
39.23000 285.853
39.24000 295.574
39.25000 305.872
39.26000 312.248
39.27000 295.019
39.28000 282.405
39.29000 281.797
39.30000 293.683
39.31000 305.454
39.32000 305.196
39.33000 296.890
39.34000 288.795
39.35000 283.345
39.36000 279.270
39.37000 275.633
39.38000 277.441
39.39000 280.875
39.40000 283.056
39.41000 276.338
39.42000 267.882
39.43000 260.832
39.44000 265.561
39.45000 270.658
39.46000 276.365
39.47000 283.874
39.48000 291.502
39.49000 293.243
39.50000 283.301
39.51000 273.040
39.52000 267.202
39.53000 274.336
39.54000 279.333
39.55000 275.859
39.56000 265.294
39.57000 254.975
39.58000 256.431
39.59000 264.363
39.60000 271.983
39.61000 273.660
39.62000 273.178
39.63000 272.839
39.64000 273.825
39.65000 275.136
39.66000 275.797
39.67000 272.787
39.68000 269.202
39.69000 266.334
39.70000 272.262
39.71000 277.710
39.72000 281.101
39.73000 279.463
39.74000 277.595
39.75000 276.405
39.76000 276.323
39.77000 276.258
39.78000 276.225
39.79000 276.116
39.80000 276.052
39.81000 277.057
39.82000 278.792
39.83000 280.379
39.84000 277.849
39.85000 273.447
39.86000 269.295
39.87000 271.467
39.88000 275.222
39.89000 278.043
39.90000 274.078
39.91000 268.760
39.92000 263.734
39.93000 260.047
39.94000 256.525
39.95000 253.838
39.96000 258.543
39.97000 262.646
39.98000 265.483
39.99000 265.757
40.00000 265.957
40.01000 264.172
40.02000 259.726
40.03000 255.270
40.04000 256.791
40.05000 263.405
40.06000 269.881
40.07000 269.345
40.08000 264.878
40.09000 260.567
40.10000 259.154
40.11000 258.830
40.12000 258.531
40.13000 260.787
40.14000 263.383
40.15000 265.895
40.16000 267.922
40.17000 269.871
40.18000 270.116
40.19000 263.996
40.20000 257.273
40.21000 252.412
40.22000 251.431
40.23000 250.820
40.24000 250.385
40.25000 250.245
40.26000 250.110
40.27000 252.368
40.28000 257.226
40.29000 262.062
40.30000 262.229
40.31000 259.182
40.32000 256.155
40.33000 253.699
40.34000 251.507
40.35000 249.529
40.36000 250.372
40.37000 252.090
40.38000 253.635
40.39000 252.504
40.40000 251.035
40.41000 249.597
40.42000 248.301
40.43000 247.024
40.44000 247.071
40.45000 251.190
40.46000 255.593
40.47000 258.587
40.48000 262.042
40.49000 264.632
40.50000 265.051
40.51000 262.502
40.52000 259.934
40.53000 256.666
40.54000 252.786
40.55000 248.952
40.56000 246.428
40.57000 244.697
40.58000 242.978
40.59000 241.475
40.60000 240.056
40.61000 239.186
40.62000 243.720
40.63000 249.633
40.64000 254.794
40.65000 253.867
40.66000 252.220
40.67000 250.098
40.68000 246.172
40.69000 242.069
40.70000 240.317
40.71000 244.532
40.72000 249.041
40.73000 251.897
40.74000 251.307
40.75000 250.838
40.76000 251.517
40.77000 253.470
40.78000 255.430
40.79000 258.342
40.80000 261.930
40.81000 265.439
40.82000 262.621
40.83000 257.053
40.84000 251.831
40.85000 251.317
40.86000 252.292
40.87000 253.142
40.88000 253.037
40.89000 252.734
40.90000 252.479
40.91000 248.542
40.92000 244.855
40.93000 242.278
40.94000 243.178
40.95000 244.330
40.96000 245.706
40.97000 247.553
40.98000 249.415
40.99000 250.503
41.00000 247.536
41.01000 245.431
41.02000 243.663
41.03000 242.197
41.04000 240.741
41.05000 239.893
41.06000 239.398
41.07000 238.920
41.08000 240.145
41.09000 241.923
41.10000 243.459
41.11000 242.540
41.12000 240.984
41.13000 239.667
41.14000 239.801
41.15000 240.178
41.16000 240.484
41.17000 243.637
41.18000 246.438
41.19000 247.908
41.20000 245.932
41.21000 243.780
41.22000 243.947
41.23000 248.134
41.24000 252.392
41.25000 254.655
41.26000 241.982
41.27000 233.380
41.28000 229.884
41.29000 230.083
41.30000 230.426
41.31000 235.392
41.32000 242.580
41.33000 249.400
41.34000 252.975
41.35000 255.309
41.36000 257.118
41.37000 254.840
41.38000 251.694
41.39000 249.226
41.40000 250.048
41.41000 251.308
41.42000 252.284
41.43000 245.565
41.44000 239.774
41.45000 236.069
41.46000 236.824
41.47000 237.728
41.48000 239.434
41.49000 242.281
41.50000 245.136
41.51000 244.739
41.52000 241.384
41.53000 238.089
41.54000 238.535
41.55000 241.201
41.56000 243.798
41.57000 244.974
41.58000 245.585
41.59000 246.152
41.60000 241.658
41.61000 236.391
41.62000 232.592
41.63000 237.850
41.64000 244.658
41.65000 248.813
41.66000 242.463
41.67000 235.033
41.68000 229.571
41.69000 229.998
41.70000 230.570
41.71000 231.787
41.72000 234.142
41.73000 236.519
41.74000 238.197
41.75000 239.065
41.76000 239.930
41.77000 241.808
41.78000 244.411
41.79000 246.840
41.80000 243.343
41.81000 236.945
41.82000 231.004
41.83000 231.666
41.84000 234.498
41.85000 237.065
41.86000 244.584
41.87000 252.162
41.88000 257.284
41.89000 250.225
41.90000 241.510
41.91000 235.280
41.92000 237.129
41.93000 239.602
41.94000 241.314
41.95000 235.260
41.96000 230.499
41.97000 229.743
41.98000 234.799
41.99000 239.902
42.00000 240.583
42.01000 237.152
42.02000 233.753
42.03000 234.564
42.04000 237.854
42.05000 240.749
42.06000 235.108
42.07000 226.012
42.08000 217.966
42.09000 221.134
42.10000 227.334
42.11000 232.797
42.12000 232.886
42.13000 232.152
42.14000 232.881
42.15000 239.516
42.16000 246.775
42.17000 251.330
42.18000 248.625
42.19000 245.522
42.20000 243.512
42.21000 240.179
42.22000 237.721
42.23000 234.788
42.24000 231.295
42.25000 227.822
42.26000 228.648
42.27000 232.712
42.28000 236.702
42.29000 235.451
42.30000 231.722
42.31000 228.351
42.32000 230.328
42.33000 234.095
42.34000 237.525
42.35000 238.191
42.36000 238.246
42.37000 238.293
42.38000 235.532
42.39000 232.881
42.40000 230.621
42.41000 229.653
42.42000 228.788
42.43000 226.342
42.44000 220.384
42.45000 214.297
42.46000 210.652
42.47000 224.210
42.48000 233.948
42.49000 237.002
42.50000 233.708
42.51000 230.465
42.52000 230.937
42.53000 233.700
42.54000 236.378
42.55000 236.803
42.56000 236.325
42.57000 235.630
42.58000 232.551
42.59000 228.816
42.60000 226.002
42.61000 229.136
42.62000 233.333
42.63000 236.776
42.64000 237.476
42.65000 237.807
42.66000 237.360
42.67000 234.782
42.68000 232.082
42.69000 229.437
42.70000 226.891
42.71000 224.347
42.72000 222.955
42.73000 226.756
42.74000 229.372
42.75000 230.930
42.76000 231.673
42.77000 232.358
42.78000 230.854
42.79000 228.237
42.80000 225.740
42.81000 228.412
42.82000 232.528
42.83000 236.215
42.84000 236.305
42.85000 235.584
42.86000 235.374
42.87000 237.811
42.88000 240.625
42.89000 242.834
42.90000 232.748
42.91000 223.874
42.92000 218.215
42.93000 219.830
42.94000 221.724
42.95000 223.265
42.96000 224.275
42.97000 225.280
42.98000 228.836
42.99000 234.867
43.00000 240.817
43.01000 240.353
43.02000 235.856
43.03000 231.432
43.04000 228.717
43.05000 226.721
43.06000 224.853
43.07000 220.394
43.08000 215.683
43.09000 212.008
43.10000 215.176
43.11000 219.593
43.12000 223.329
43.13000 224.203
43.14000 224.758
43.15000 225.173
43.16000 223.661
43.17000 222.393
43.18000 221.407
43.19000 220.946
43.20000 220.497
43.21000 220.887
43.22000 222.312
43.23000 223.736
43.24000 226.096
43.25000 229.173
43.26000 232.196
43.27000 233.057
43.28000 232.797
43.29000 232.358
43.30000 229.032
43.31000 224.704
43.32000 220.749
43.33000 221.295
43.34000 222.698
43.35000 224.139
43.36000 225.773
43.37000 227.435
43.38000 228.026
43.39000 224.926
43.40000 221.516
43.41000 219.110
43.42000 222.359
43.43000 224.996
43.44000 226.186
43.45000 225.149
43.46000 224.088
43.47000 223.508
43.48000 223.405
43.49000 223.303
43.50000 223.888
43.51000 224.896
43.52000 225.754
43.53000 222.965
43.54000 218.616
43.55000 214.666
43.56000 215.371
43.57000 217.409
43.58000 219.220
43.59000 222.699
43.60000 225.987
43.61000 228.855
43.62000 229.922
43.63000 230.784
43.64000 229.945
43.65000 224.273
43.66000 218.305
43.67000 214.360
43.68000 223.007
43.69000 229.612
43.70000 231.757
43.71000 228.296
43.72000 224.829
43.73000 225.301
43.74000 228.925
43.75000 232.494
43.76000 232.625
43.77000 230.993
43.78000 229.156
43.79000 223.935
43.80000 217.516
43.81000 212.103
43.82000 215.588
43.83000 221.160
43.84000 225.959
43.85000 229.774
43.86000 232.882
43.87000 234.249
43.88000 229.500
43.89000 224.221
43.90000 219.835
43.91000 217.545
43.92000 215.343
43.93000 213.991
43.94000 217.571
43.95000 220.178
43.96000 221.069
43.97000 220.221
43.98000 219.372
43.99000 218.525
44.00000 217.678
44.01000 216.854
44.02000 218.600
44.03000 221.332
44.04000 224.178
44.05000 228.393
44.06000 233.007
44.07000 236.197
44.08000 229.554
44.09000 221.037
44.10000 213.968
44.11000 213.526
44.12000 213.802
44.13000 213.826
44.14000 213.119
44.15000 212.366
44.16000 212.361
44.17000 213.807
44.18000 215.290
44.19000 216.125
44.20000 220.366
44.21000 223.316
44.22000 224.658
44.23000 224.687
44.24000 224.679
44.25000 223.011
44.26000 220.451
44.27000 217.995
44.28000 219.783
44.29000 222.881
44.30000 225.690
44.31000 225.884
44.32000 225.452
44.33000 224.789
44.34000 222.854
44.35000 220.724
44.36000 219.029
44.37000 218.069
44.38000 217.348
44.39000 216.428
44.40000 215.033
44.41000 213.617
44.42000 212.592
44.43000 212.190
44.44000 211.796
44.45000 211.596
44.46000 214.582
44.47000 216.591
44.48000 219.297
44.49000 222.467
44.50000 225.621
44.51000 228.343
44.52000 230.874
44.53000 233.255
44.54000 228.016
44.55000 221.152
44.56000 215.775
44.57000 220.894
44.58000 228.056
44.59000 234.019
44.60000 234.628
44.61000 234.596
44.62000 234.571
44.63000 227.109
44.64000 220.866
44.65000 215.534
44.66000 212.003
44.67000 208.522
44.68000 209.390
44.69000 215.952
44.70000 222.532
44.71000 226.327
44.72000 227.795
44.73000 229.304
44.74000 232.729
44.75000 237.203
44.76000 241.392
44.77000 240.514
44.78000 237.774
44.79000 235.253
44.80000 238.803
44.81000 243.303
44.82000 247.921
44.83000 253.204
44.84000 258.590
44.85000 262.509
44.86000 261.071
44.87000 259.142
44.88000 257.757
44.89000 270.238
44.90000 280.264
44.91000 285.663
44.92000 283.517
44.93000 281.265
44.94000 282.916
44.95000 288.703
44.96000 294.459
44.97000 298.289
44.98000 300.779
44.99000 303.026
45.00000 298.558
45.01000 291.051
45.02000 284.421
45.03000 288.943
45.04000 296.847
45.05000 303.934
45.06000 306.281
45.07000 307.508
45.08000 308.051
45.09000 305.478
45.10000 302.522
45.11000 301.706
45.12000 307.318
45.13000 313.363
45.14000 317.442
45.15000 313.907
45.16000 311.116
45.17000 309.992
45.18000 311.095
45.19000 312.199
45.20000 307.617
45.21000 298.193
45.22000 288.888
45.23000 291.177
45.24000 299.712
45.25000 307.450
45.26000 300.532
45.27000 288.126
45.28000 276.707
45.29000 274.707
45.30000 275.054
45.31000 275.355
45.32000 275.188
45.33000 274.981
45.34000 275.404
45.35000 278.166
45.36000 281.149
45.37000 281.525
45.38000 275.426
45.39000 269.022
45.40000 265.002
45.41000 265.826
45.42000 266.475
45.43000 267.406
45.44000 268.642
45.45000 269.873
45.46000 270.441
45.47000 270.548
45.48000 270.654
45.49000 262.091
45.50000 250.062
45.51000 238.926
45.52000 239.482
45.53000 243.653
45.54000 247.649
45.55000 250.353
45.56000 252.796
45.57000 254.846
45.58000 250.271
45.59000 245.768
45.60000 243.017
45.61000 245.633
45.62000 248.624
45.63000 251.024
45.64000 252.212
45.65000 253.363
45.66000 254.029
45.67000 248.125
45.68000 243.964
45.69000 242.401
45.70000 243.098
45.71000 243.816
45.72000 245.724
45.73000 248.308
45.74000 250.798
45.75000 249.012
45.76000 245.802
45.77000 242.467
45.78000 237.908
45.79000 233.038
45.80000 229.042
45.81000 230.183
45.82000 232.162
45.83000 233.757
45.84000 235.348
45.85000 236.639
45.86000 235.829
45.87000 229.701
45.88000 223.313
45.89000 220.802
45.90000 224.858
45.91000 229.021
45.92000 231.208
45.93000 229.630
45.94000 228.535
45.95000 224.101
45.96000 217.308
45.97000 210.718
45.98000 210.317
45.99000 212.825
46.00000 215.200
46.01000 214.231
46.02000 212.371
46.03000 210.752
46.04000 210.967
46.05000 211.562
46.06000 212.286
46.07000 213.622
46.08000 215.038
46.09000 216.127
46.10000 210.613
46.11000 205.871
46.12000 204.223
46.13000 209.047
46.14000 214.076
46.15000 215.937
46.16000 213.397
46.17000 210.828
46.18000 210.670
46.19000 212.648
46.20000 214.533
46.21000 211.069
46.22000 204.502
46.23000 198.122
46.24000 195.445
46.25000 194.208
46.26000 193.061
46.27000 200.466
46.28000 209.125
46.29000 215.406
46.30000 207.399
46.31000 197.008
46.32000 189.061
46.33000 190.569
46.34000 193.017
46.35000 194.805
46.36000 196.342
46.37000 197.518
46.38000 198.865
46.39000 200.510
46.40000 202.160
46.41000 204.452
46.42000 207.469
46.43000 210.476
46.44000 209.550
46.45000 205.824
46.46000 202.197
46.47000 201.758
46.48000 202.845
46.49000 204.141
46.50000 208.349
46.51000 213.492
46.52000 218.141
46.53000 215.892
46.54000 212.631
46.55000 209.999
46.56000 210.407
46.57000 211.218
46.58000 210.713
46.59000 206.022
46.60000 201.020
46.61000 197.579
46.62000 202.616
46.63000 206.604
46.64000 206.724
46.65000 201.360
46.66000 195.960
46.67000 196.964
46.68000 203.775
46.69000 210.517
46.70000 212.136
46.71000 210.756
46.72000 209.241
46.73000 204.960
46.74000 199.583
46.75000 194.582
46.76000 193.464
46.77000 193.371
46.78000 193.289
46.79000 193.239
46.80000 193.200
46.81000 194.064
46.82000 198.492
46.83000 203.285
46.84000 206.583
46.85000 205.954
46.86000 205.119
46.87000 204.583
46.88000 205.900
46.89000 206.885
46.90000 204.369
46.91000 197.815
46.92000 191.283
46.93000 189.297
46.94000 190.655
46.95000 191.986
46.96000 193.971
46.97000 196.189
46.98000 198.320
46.99000 199.205
47.00000 199.683
47.01000 199.498
47.02000 194.048
47.03000 187.461
47.04000 181.871
47.05000 184.065
47.06000 186.789
47.07000 188.934
47.08000 189.201
47.09000 189.325
47.10000 190.651
47.11000 194.588
47.12000 198.615
47.13000 201.004
47.14000 193.407
47.15000 187.977
47.16000 186.470
47.17000 188.595
47.18000 190.749
47.19000 194.813
47.20000 200.027
47.21000 205.074
47.22000 202.672
47.23000 197.563
47.24000 192.720
47.25000 190.697
47.26000 189.433
47.27000 187.851
47.28000 184.264
47.29000 180.329
47.30000 177.116
47.31000 183.081
47.32000 188.750
47.33000 191.796
47.34000 187.823
47.35000 183.467
47.36000 182.580
47.37000 187.915
47.38000 193.375
47.39000 196.329
47.40000 197.361
47.41000 198.058
47.42000 197.166
47.43000 195.082
47.44000 193.071
47.45000 193.609
47.46000 195.416
47.47000 197.135
47.48000 191.868
47.49000 184.834
47.50000 178.764
47.51000 180.560
47.52000 184.088
47.53000 186.892
47.54000 186.050
47.55000 184.702
47.56000 183.650
47.57000 184.597
47.58000 185.479
47.59000 186.502
47.60000 187.841
47.61000 189.191
47.62000 189.411
47.63000 187.966
47.64000 186.507
47.65000 189.595
47.66000 196.986
47.67000 204.272
47.68000 204.146
47.69000 199.465
47.70000 194.879
47.71000 192.391
47.72000 190.766
47.73000 189.250
47.74000 192.205
47.75000 195.995
47.76000 198.943
47.77000 196.486
47.78000 193.067
47.79000 190.546
47.80000 191.708
47.81000 193.266
47.82000 194.424
47.83000 188.392
47.84000 183.388
47.85000 180.483
47.86000 181.413
47.87000 182.424
47.88000 181.942
47.89000 179.666
47.90000 177.392
47.91000 178.381
47.92000 181.848
47.93000 185.243
47.94000 185.953
47.95000 185.305
47.96000 184.675
47.97000 184.335
47.98000 184.092
47.99000 183.871
48.00000 183.138
48.01000 182.388
48.02000 182.202
48.03000 184.924
48.04000 188.059
48.05000 190.546
48.06000 190.856
48.07000 190.989
48.08000 191.082
48.09000 191.249
48.10000 191.378
48.11000 191.684
48.12000 192.255
48.13000 192.829
48.14000 190.961
48.15000 186.732
48.16000 182.536
48.17000 181.106
48.18000 181.404
48.19000 181.681
48.20000 181.490
48.21000 181.104
48.22000 180.620
48.23000 179.044
48.24000 177.161
48.25000 175.493
48.26000 174.570
48.27000 173.888
48.28000 174.215
48.29000 178.763
48.30000 183.778
48.31000 187.580
48.32000 188.013
48.33000 188.248
48.34000 188.403
48.35000 180.978
48.36000 175.392
48.37000 174.097
48.38000 178.066
48.39000 182.039
48.40000 183.651
48.41000 183.417
48.42000 183.187
48.43000 186.438
48.44000 191.322
48.45000 195.885
48.46000 195.354
48.47000 193.059
48.48000 190.558
48.49000 186.292
48.50000 181.620
48.51000 177.614
48.52000 179.518
48.53000 181.851
48.54000 183.428
48.55000 182.409
48.56000 181.173
48.57000 180.495
48.58000 181.099
48.59000 181.755
48.60000 182.153
48.61000 179.558
48.62000 177.681
48.63000 176.702
48.64000 176.610
48.65000 176.543
48.66000 178.562
48.67000 181.913
48.68000 185.169
48.69000 183.710
48.70000 180.412
48.71000 177.255
48.72000 175.741
48.73000 174.694
48.74000 173.894
48.75000 174.745
48.76000 175.904
48.77000 176.861
48.78000 179.185
48.79000 181.229
48.80000 182.477
48.81000 181.477
48.82000 180.339
48.83000 178.030
48.84000 173.494
48.85000 168.905
48.86000 166.350
48.87000 168.665
48.88000 170.278
48.89000 172.565
48.90000 175.388
48.91000 178.185
48.92000 179.834
48.93000 180.881
48.94000 181.882
48.95000 184.187
48.96000 186.763
48.97000 189.026
48.98000 188.536
48.99000 187.402
49.00000 186.116
49.01000 184.014
49.02000 181.791
49.03000 180.032
49.04000 178.548
49.05000 177.375
49.06000 176.400
49.07000 175.888
49.08000 175.396
49.09000 176.967
49.10000 181.762
49.11000 186.596
49.12000 189.024
49.13000 175.253
49.14000 166.167
49.15000 167.191
49.16000 174.798
49.17000 182.135
49.18000 182.652
49.19000 180.207
49.20000 177.911
49.21000 180.001
49.22000 183.070
49.23000 185.648
49.24000 184.849
49.25000 183.408
49.26000 181.998
49.27000 180.720
49.28000 179.457
49.29000 178.505
49.30000 174.325
49.31000 170.893
49.32000 169.999
49.33000 174.014
49.34000 178.152
49.35000 179.591
49.36000 177.580
49.37000 175.559
49.38000 174.516
49.39000 174.268
49.40000 174.032
49.41000 174.325
49.42000 174.902
49.43000 175.548
49.44000 177.379
49.45000 179.636
49.46000 181.707
49.47000 181.183
49.48000 180.164
49.49000 178.929
49.50000 176.504
49.51000 173.899
49.52000 172.253
49.53000 174.025
49.54000 176.100
49.55000 177.580
49.56000 175.739
49.57000 174.226
49.58000 174.618
49.59000 178.043
49.60000 181.508
49.61000 182.512
49.62000 180.977
49.63000 179.451
49.64000 178.135
49.65000 176.975
49.66000 175.968
49.67000 178.997
49.68000 183.813
49.69000 188.035
49.70000 184.972
49.71000 179.748
49.72000 175.080
49.73000 179.857
49.74000 185.613
49.75000 189.614
49.76000 185.808
49.77000 181.071
49.78000 176.828
49.79000 174.033
49.80000 171.333
49.81000 169.526
49.82000 173.596
49.83000 176.730
49.84000 176.990
49.85000 173.502
49.86000 170.003
49.87000 169.028
49.88000 170.152
49.89000 171.260
49.90000 172.463
49.91000 173.682
49.92000 174.710
49.93000 172.366
49.94000 168.787
49.95000 165.750
49.96000 167.728
49.97000 170.927
49.98000 173.698
49.99000 173.496
50.00000 172.932
50.01000 171.392
50.02000 166.309
50.03000 160.902
50.04000 158.581
50.05000 163.754
50.06000 169.263
50.07000 172.691
50.08000 171.104
50.09000 169.911
50.10000 171.878
50.11000 177.180
50.12000 182.460
50.13000 185.264
50.14000 186.390
50.15000 187.489
50.16000 185.587
50.17000 182.475
50.18000 179.831
50.19000 183.103
50.20000 188.162
50.21000 192.182
50.22000 188.711
50.23000 183.757
50.24000 179.617
50.25000 179.362
50.26000 179.544
50.27000 178.533
50.28000 173.946
50.29000 169.120
50.30000 167.966
50.31000 174.190
50.32000 180.621
50.33000 184.300
50.34000 177.512
50.35000 172.743
50.36000 172.017
50.37000 174.719
50.38000 177.462
50.39000 182.212
50.40000 188.078
50.41000 193.720
50.42000 193.719
50.43000 191.746
50.44000 190.074
50.45000 191.264
50.46000 193.165
50.47000 195.083
50.48000 197.093
50.49000 199.117
50.50000 200.741
50.51000 200.254
50.52000 199.700
50.53000 201.233
50.54000 207.935
50.55000 214.878
50.56000 219.264
50.57000 219.417
50.58000 219.506
50.59000 219.552
50.60000 214.791
50.61000 211.612
50.62000 212.748
50.63000 216.863
50.64000 220.706
50.65000 216.721
50.66000 209.139
50.67000 201.977
50.68000 210.677
50.69000 223.145
50.70000 234.054
50.71000 233.470
50.72000 230.563
50.73000 227.867
50.74000 226.147
50.75000 224.550
50.76000 223.327
50.77000 221.040
50.78000 219.177
50.79000 218.708
50.80000 221.096
50.81000 223.567
50.82000 224.387
50.83000 222.966
50.84000 221.532
50.85000 222.195
50.86000 224.667
50.87000 227.055
50.88000 224.943
50.89000 220.278
50.90000 215.658
50.91000 211.875
50.92000 208.410
50.93000 205.208
50.94000 207.844
50.95000 211.539
50.96000 214.823
50.97000 215.709
50.98000 216.205
50.99000 215.155
51.00000 208.264
51.01000 200.808
51.02000 195.399
51.03000 199.351
51.04000 202.736
51.05000 202.261
51.06000 195.266
51.07000 188.167
51.08000 185.150
51.09000 186.627
51.10000 188.101
51.11000 188.830
51.12000 189.032
51.13000 189.162
51.14000 187.116
51.15000 184.050
51.16000 181.328
51.17000 183.218
51.18000 186.556
51.19000 189.563
51.20000 186.853
51.21000 183.440
51.22000 180.913
51.23000 182.570
51.24000 184.764
51.25000 185.734
51.26000 182.897
51.27000 179.787
51.28000 177.665
51.29000 169.377
51.30000 163.036
51.31000 161.714
51.32000 167.342
51.33000 173.011
51.34000 175.013
51.35000 173.775
51.36000 172.550
51.37000 170.039
51.38000 166.860
51.39000 163.781
51.40000 162.669
51.41000 162.318
51.42000 162.413
51.43000 166.972
51.44000 172.682
51.45000 177.677
51.46000 174.600
51.47000 170.813
51.48000 167.986
51.49000 168.857
51.50000 170.093
51.51000 170.302
51.52000 167.869
51.53000 165.303
51.54000 163.669
51.55000 165.407
51.56000 166.711
51.57000 166.556
51.58000 164.759
51.59000 162.982
51.60000 164.486
51.61000 168.347
51.62000 172.126
51.63000 171.185
51.64000 168.118
51.65000 165.367
51.66000 167.010
51.67000 170.058
51.68000 172.521
51.69000 170.455
51.70000 167.435
51.71000 164.883
51.72000 165.771
51.73000 166.893
51.74000 168.501
51.75000 171.653
51.76000 174.919
51.77000 176.335
51.78000 173.824
51.79000 171.185
51.80000 169.635
51.81000 167.419
51.82000 165.852
51.83000 163.354
51.84000 160.016
51.85000 156.712
51.86000 155.522
51.87000 155.578
51.88000 155.632
51.89000 158.728
51.90000 162.779
51.91000 167.136
51.92000 174.652
51.93000 183.000
51.94000 189.032
51.95000 180.901
51.96000 170.365
51.97000 161.807
51.98000 159.221
51.99000 157.607
52.00000 157.170
52.01000 159.816
52.02000 162.623
52.03000 164.502
52.04000 164.753
52.05000 164.974
52.06000 165.093
52.07000 162.843
52.08000 161.308
52.09000 159.967
52.10000 158.768
52.11000 157.705
52.12000 161.127
52.13000 166.729
52.14000 172.050
52.15000 169.072
52.16000 163.823
52.17000 159.487
52.18000 162.389
52.19000 166.847
52.20000 169.748
52.21000 164.993
52.22000 159.205
52.23000 154.711
52.24000 154.439
52.25000 154.479
52.26000 154.961
52.27000 156.401
52.28000 157.875
52.29000 158.926
52.30000 159.370
52.31000 159.810
52.32000 158.527
52.33000 155.656
52.34000 152.863
52.35000 155.034
52.36000 160.188
52.37000 165.038
52.38000 163.454
52.39000 159.283
52.40000 155.402
52.41000 159.509
52.42000 165.157
52.43000 169.985
52.44000 169.683
52.45000 168.491
52.46000 166.581
52.47000 161.790
52.48000 156.699
52.49000 152.944
52.50000 158.538
52.51000 163.264
52.52000 164.543
52.53000 159.658
52.54000 154.652
52.55000 151.881
52.56000 151.732
52.57000 151.587
52.58000 154.715
52.59000 160.249
52.60000 165.686
52.61000 167.708
52.62000 168.041
52.63000 168.362
52.64000 168.517
52.65000 168.616
52.66000 168.706
52.67000 164.115
52.68000 159.151
52.69000 154.764
52.70000 153.268
52.71000 152.171
52.72000 151.131
52.73000 150.282
52.74000 149.447
52.75000 148.867
52.76000 154.721
52.77000 159.309
52.78000 162.118
52.79000 162.316
52.80000 162.490
52.81000 163.067
52.82000 164.024
52.83000 164.973
52.84000 165.425
52.85000 165.571
52.86000 165.590
52.87000 162.832
52.88000 158.937
52.89000 155.342
52.90000 154.998
52.91000 155.543
52.92000 156.025
52.93000 160.518
52.94000 165.010
52.95000 168.020
52.96000 164.981
52.97000 161.292
52.98000 157.777
52.99000 154.735
53.00000 151.720
53.01000 149.758
53.02000 161.283
53.03000 169.938
53.04000 172.726
53.05000 168.493
53.06000 164.252
53.07000 161.423
53.08000 159.671
53.09000 157.950
53.10000 155.185
53.11000 152.006
53.12000 149.191
53.13000 151.920
53.14000 156.527
53.15000 160.732
53.16000 161.603
53.17000 161.728
53.18000 161.834
53.19000 162.399
53.20000 162.928
53.21000 162.787
53.22000 160.392
53.23000 157.815
53.24000 156.418
53.25000 157.673
53.26000 159.027
53.27000 159.842
53.28000 162.592
53.29000 164.561
53.30000 163.521
53.31000 159.583
53.32000 155.707
53.33000 156.492
53.34000 160.185
53.35000 163.768
53.36000 163.473
53.37000 161.659
53.38000 159.861
53.39000 158.241
53.40000 156.669
53.41000 155.364
53.42000 155.803
53.43000 156.557
53.44000 157.177
53.45000 153.034
53.46000 149.199
53.47000 146.883
53.48000 148.776
53.49000 150.913
53.50000 153.629
53.51000 157.417
53.52000 161.229
53.53000 163.328
53.54000 164.271
53.55000 164.925
53.56000 167.080
53.57000 170.402
53.58000 173.582
53.59000 171.206
53.60000 165.973
53.61000 160.976
53.62000 160.540
53.63000 161.596
53.64000 162.800
53.65000 165.269
53.66000 168.027
53.67000 169.923
53.68000 167.311
53.69000 164.048
53.70000 161.478
53.71000 157.978
53.72000 155.111
53.73000 153.283
53.74000 153.834
53.75000 154.479
53.76000 155.865
53.77000 158.383
53.78000 160.913
53.79000 159.127
53.80000 153.095
53.81000 147.130
53.82000 146.657
53.83000 149.679
53.84000 152.527
53.85000 151.228
53.86000 148.165
53.87000 145.297
53.88000 149.911
53.89000 156.042
53.90000 161.256
53.91000 160.324
53.92000 158.256
53.93000 156.377
53.94000 155.303
53.95000 154.321
53.96000 153.584
53.97000 152.465
53.98000 151.573
53.99000 150.086
54.00000 147.474
54.01000 144.834
54.02000 146.965
54.03000 155.044
54.04000 163.126
54.05000 163.896
54.06000 158.880
54.07000 153.955
54.08000 152.707
54.09000 153.386
54.10000 154.153
54.11000 156.346
54.12000 159.041
54.13000 161.507
54.14000 165.745
54.15000 169.881
54.16000 172.373
54.17000 166.065
54.18000 158.456
54.19000 152.873
54.20000 154.352
54.21000 156.436
54.22000 157.912
54.23000 159.523
54.24000 160.751
54.25000 159.616
54.26000 154.802
54.27000 149.944
54.28000 150.335
54.29000 156.005
54.30000 161.637
54.31000 162.687
54.32000 160.793
54.33000 158.991
54.34000 159.475
54.35000 160.949
54.36000 162.157
54.37000 160.216
54.38000 157.363
54.39000 154.822
54.40000 152.969
54.41000 151.471
54.42000 150.853
54.43000 154.049
54.44000 157.687
54.45000 159.997
54.46000 158.491
54.47000 156.747
54.48000 155.589
54.49000 151.345
54.50000 148.151
54.51000 146.612
54.52000 147.180
54.53000 147.765
54.54000 152.537
54.55000 160.700
54.56000 168.743
54.57000 164.548
54.58000 154.135
54.59000 144.580
54.60000 149.491
54.61000 159.583
54.62000 168.460
54.63000 166.433
54.64000 161.815
54.65000 157.831
54.66000 156.101
54.67000 154.923
54.68000 154.754
54.69000 158.174
54.70000 161.910
54.71000 163.485
54.72000 159.926
54.73000 156.147
54.74000 153.817
54.75000 153.079
54.76000 152.564
54.77000 152.971
54.78000 154.328
54.79000 155.698
54.80000 158.281
54.81000 161.666
54.82000 164.964
54.83000 157.939
54.84000 146.898
54.85000 136.885
54.86000 139.405
54.87000 145.628
54.88000 151.796
54.89000 157.583
54.90000 163.297
54.91000 168.051
54.92000 166.866
54.93000 165.301
54.94000 164.836
54.95000 167.590
54.96000 170.552
54.97000 171.849
54.98000 169.878
54.99000 167.820
55.00000 166.655
55.01000 159.415
55.02000 154.366
55.03000 151.715
55.04000 151.046
55.05000 150.480
55.06000 154.625
55.07000 161.334
55.08000 167.773
55.09000 168.227
55.10000 166.610
55.11000 165.196
55.12000 165.664
55.13000 166.587
55.14000 166.645
55.15000 161.877
55.16000 156.362
55.17000 151.961
55.18000 157.242
55.19000 162.214
55.20000 165.992
55.21000 166.877
55.22000 167.634
55.23000 168.126
55.24000 168.188
55.25000 168.245
55.26000 168.273
55.27000 181.740
55.28000 190.721
55.29000 191.991
55.30000 188.061
55.31000 184.182
55.32000 181.691
55.33000 179.824
55.34000 178.064
55.35000 172.487
55.36000 166.328
55.37000 161.542
55.38000 166.592
55.39000 173.580
55.40000 180.234
55.41000 185.375
55.42000 190.332
55.43000 194.104
55.44000 197.163
55.45000 199.532
55.46000 200.563
55.47000 198.919
55.48000 197.200
55.49000 199.091
55.50000 205.766
55.51000 212.457
55.52000 221.170
55.53000 231.563
55.54000 241.713
55.55000 239.858
55.56000 231.347
55.57000 223.715
55.58000 231.989
55.59000 246.178
55.60000 259.258
55.61000 266.092
55.62000 270.830
55.63000 276.311
55.64000 286.034
55.65000 296.429
55.66000 309.520
55.67000 332.565
55.68000 356.539
55.69000 373.817
55.70000 385.841
55.71000 394.868
55.72000 408.556
55.73000 429.936
55.74000 451.429
55.75000 472.302
55.76000 492.509
55.77000 512.615
55.78000 537.945
55.79000 566.532
55.80000 595.009
55.81000 620.346
55.82000 644.245
55.83000 668.323
55.84000 694.712
55.85000 721.811
55.86000 746.149
55.87000 774.873
55.88000 800.779
55.89000 821.618
55.90000 819.112
55.91000 813.692
55.92000 813.741
55.93000 830.420
55.94000 848.244
55.95000 860.317
55.96000 862.112
55.97000 863.224
55.98000 858.424
55.99000 845.630
56.00000 832.809
56.01000 833.295
56.02000 845.258
56.03000 857.076
56.04000 850.137
56.05000 833.037
56.06000 815.966
56.07000 799.432
56.08000 783.103
56.09000 766.073
56.10000 742.250
56.11000 716.713
56.12000 694.463
56.13000 671.549
56.14000 651.879
56.15000 631.195
56.16000 606.698
56.17000 581.835
56.18000 558.500
56.19000 539.004
56.20000 519.693
56.21000 507.511
56.22000 482.365
56.23000 464.007
56.24000 445.155
56.25000 425.763
56.26000 406.386
56.27000 389.035
56.28000 373.105
56.29000 357.530
56.30000 343.396
56.31000 330.491
56.32000 317.908
56.33000 309.630
56.34000 302.698
56.35000 295.279
56.36000 284.206
56.37000 272.381
56.38000 262.432
56.39000 250.414
56.40000 240.172
56.41000 232.615
56.42000 233.380
56.43000 234.737
56.44000 233.755
56.45000 227.915
56.46000 221.925
56.47000 218.444
56.48000 208.533
56.49000 201.551
56.50000 200.392
56.51000 204.362
56.52000 208.216
56.53000 205.556
56.54000 199.145
56.55000 192.962
56.56000 190.026
56.57000 188.442
56.58000 186.385
56.59000 179.610
56.60000 171.621
56.61000 164.887
56.62000 165.622
56.63000 167.593
56.64000 169.186
56.65000 169.307
56.66000 169.286
56.67000 169.049
56.68000 168.255
56.69000 167.434
56.70000 168.206
56.71000 171.710
56.72000 175.261
56.73000 177.138
56.74000 171.628
56.75000 167.906
56.76000 167.832
56.77000 170.367
56.78000 172.725
56.79000 169.502
56.80000 163.627
56.81000 158.059
56.82000 155.412
56.83000 153.833
56.84000 152.544
56.85000 153.495
56.86000 154.915
56.87000 156.218
56.88000 156.954
56.89000 157.617
56.90000 158.128
56.91000 157.777
56.92000 157.448
56.93000 156.418
56.94000 153.903
56.95000 151.340
56.96000 150.650
56.97000 152.597
56.98000 154.562
56.99000 152.283
57.00000 146.196
57.01000 140.247
57.02000 142.600
57.03000 149.827
57.04000 156.581
57.05000 153.747
57.06000 147.143
57.07000 141.013
57.08000 147.944
57.09000 157.279
57.10000 165.314
57.11000 165.437
57.12000 164.222
57.13000 162.206
57.14000 157.056
57.15000 151.588
57.16000 147.582
57.17000 151.095
57.18000 154.110
57.19000 154.626
57.20000 150.778
57.21000 146.849
57.22000 144.454
57.23000 143.814
57.24000 143.177
57.25000 142.704
57.26000 142.353
57.27000 142.003
57.28000 141.645
57.29000 141.284
57.30000 140.945
57.31000 140.927
57.32000 141.013
57.33000 141.090
57.34000 141.752
57.35000 142.444
57.36000 143.774
57.37000 148.224
57.38000 153.093
57.39000 156.616
57.40000 155.810
57.41000 154.676
57.42000 153.894
57.43000 150.512
57.44000 147.904
57.45000 147.136
57.46000 149.008
57.47000 150.899
57.48000 149.135
57.49000 144.013
57.50000 138.940
57.51000 136.957
57.52000 136.827
57.53000 136.815
57.54000 139.322
57.55000 142.837
57.56000 146.106
57.57000 146.789
57.58000 146.780
57.59000 146.772
57.60000 149.899
57.61000 153.057
57.62000 154.457
57.63000 148.838
57.64000 142.490
57.65000 138.932
57.66000 142.787
57.67000 147.041
57.68000 149.785
57.69000 137.002
57.70000 127.443
57.71000 125.894
57.72000 133.698
57.73000 141.497
57.74000 145.682
57.75000 147.176
57.76000 148.641
57.77000 145.873
57.78000 141.191
57.79000 136.864
57.80000 137.738
57.81000 140.335
57.82000 142.746
57.83000 143.662
57.84000 144.251
57.85000 144.752
57.86000 139.537
57.87000 134.498
57.88000 130.540
57.89000 130.128
57.90000 129.994
57.91000 130.692
57.92000 133.219
57.93000 135.811
57.94000 137.357
57.95000 136.535
57.96000 135.938
57.97000 137.590
57.98000 141.353
57.99000 145.079
58.00000 146.225
58.01000 145.799
58.02000 145.386
58.03000 143.888
58.04000 142.052
58.05000 140.378
58.06000 140.464
58.07000 141.028
58.08000 140.984
58.09000 137.064
58.10000 132.458
58.11000 128.690
58.12000 136.208
58.13000 143.357
58.14000 146.702
58.15000 139.753
58.16000 132.228
58.17000 129.792
58.18000 136.592
58.19000 143.584
58.20000 147.390
58.21000 138.272
58.22000 132.027
58.23000 132.086
58.24000 136.933
58.25000 141.701
58.26000 143.536
58.27000 143.897
58.28000 144.241
58.29000 142.957
58.30000 141.258
58.31000 139.818
58.32000 140.529
58.33000 141.718
58.34000 142.759
58.35000 143.042
58.36000 143.219
58.37000 143.357
58.38000 137.966
58.39000 133.305
58.40000 131.443
58.41000 135.848
58.42000 140.486
58.43000 144.368
58.44000 147.122
58.45000 149.864
58.46000 148.683
58.47000 143.740
58.48000 138.864
58.49000 138.938
58.50000 142.091
58.51000 145.290
58.52000 149.529
58.53000 154.202
58.54000 158.567
58.55000 152.599
58.56000 144.580
58.57000 137.023
58.58000 132.478
58.59000 128.477
58.60000 126.122
58.61000 130.600
58.62000 135.828
58.63000 139.720
58.64000 142.273
58.65000 144.199
58.66000 143.559
58.67000 138.173
58.68000 132.682
58.69000 129.628
58.70000 129.540
58.71000 129.460
58.72000 128.982
58.73000 128.202
58.74000 127.552
58.75000 131.921
58.76000 138.861
58.77000 145.417
58.78000 145.957
58.79000 144.428
58.80000 143.033
58.81000 140.830
58.82000 138.713
58.83000 136.952
58.84000 137.054
58.85000 137.423
58.86000 136.543
58.87000 131.406
58.88000 125.917
58.89000 122.057
58.90000 130.012
58.91000 136.389
58.92000 141.298
58.93000 143.977
58.94000 146.631
58.95000 145.029
58.96000 139.254
58.97000 133.522
58.98000 133.398
58.99000 136.773
59.00000 140.082
59.01000 141.829
59.02000 142.914
59.03000 143.664
59.04000 140.569
59.05000 136.386
59.06000 132.673
59.07000 131.524
59.08000 130.937
59.09000 130.670
59.10000 131.758
59.11000 132.998
59.12000 133.854
59.13000 133.633
59.14000 133.347
59.15000 133.158
59.16000 135.128
59.17000 136.616
59.18000 137.134
59.19000 136.449
59.20000 135.763
59.21000 136.281
59.22000 137.750
59.23000 139.196
59.24000 137.106
59.25000 133.293
59.26000 129.764
59.27000 130.844
59.28000 133.537
59.29000 135.764
59.30000 133.924
59.31000 131.140
59.32000 128.748
59.33000 130.051
59.34000 131.613
59.35000 133.391
59.36000 135.917
59.37000 138.507
59.38000 139.349
59.39000 136.130
59.40000 132.746
59.41000 130.679
59.42000 131.677
59.43000 132.416
59.44000 132.423
59.45000 131.696
59.46000 130.994
59.47000 132.418
59.48000 135.218
59.49000 137.941
59.50000 137.549
59.51000 135.898
59.52000 134.297
59.53000 133.288
59.54000 132.450
59.55000 131.422
59.56000 129.095
59.57000 126.523
59.58000 124.394
59.59000 123.502
59.60000 122.884
59.61000 123.565
59.62000 127.968
59.63000 132.601
59.64000 135.526
59.65000 135.171
59.66000 134.736
59.67000 134.492
59.68000 125.507
59.69000 119.279
59.70000 119.899
59.71000 126.047
59.72000 132.074
59.73000 132.913
59.74000 130.991
59.75000 129.150
59.76000 131.894
59.77000 135.981
59.78000 139.106
59.79000 133.650
59.80000 126.163
59.81000 120.209
59.82000 122.593
59.83000 126.233
59.84000 129.123
59.85000 129.372
59.86000 129.386
59.87000 130.479
59.88000 134.124
59.89000 137.878
59.90000 139.448
59.91000 137.565
59.92000 135.638
59.93000 134.663
59.94000 133.444
59.95000 132.643
59.96000 133.369
59.97000 135.100
59.98000 136.783
59.99000 137.219
60.00000 137.107
60.01000 137.002
60.02000 133.087
60.03000 128.489
60.04000 125.282
60.05000 131.777
60.06000 140.139
60.07000 146.968
60.08000 147.039
60.09000 146.311
60.10000 145.761
60.11000 144.701
60.12000 143.844
60.13000 142.461
60.14000 140.045
60.15000 137.603
60.16000 135.213
60.17000 132.891
60.18000 130.573
60.19000 130.631
60.20000 132.640
60.21000 134.569
60.22000 132.818
60.23000 129.070
60.24000 125.631
60.25000 127.537
60.26000 131.387
60.27000 134.926
60.28000 134.238
60.29000 132.712
60.30000 131.855
60.31000 134.722
60.32000 138.162
60.33000 141.060
60.34000 142.003
60.35000 142.769
60.36000 143.317
60.37000 136.389
60.38000 130.846
60.39000 127.880
60.40000 129.072
60.41000 130.319
60.42000 130.376
60.43000 129.185
60.44000 128.002
60.45000 128.744
60.46000 130.756
60.47000 132.655
60.48000 131.546
60.49000 129.089
60.50000 127.052
60.51000 130.268
60.52000 135.059
60.53000 139.348
60.54000 141.367
60.55000 142.739
60.56000 143.277
60.57000 140.065
60.58000 136.398
60.59000 133.415
60.60000 132.465
60.61000 131.649
60.62000 131.101
60.63000 134.655
60.64000 137.379
60.65000 136.730
60.66000 131.629
60.67000 126.518
60.68000 126.947
60.69000 132.038
60.70000 137.062
60.71000 136.081
60.72000 131.898
60.73000 127.899
60.74000 127.218
60.75000 127.767
60.76000 128.115
60.77000 126.580
60.78000 124.581
60.79000 122.847
60.80000 128.847
60.81000 134.999
60.82000 139.608
60.83000 138.538
60.84000 136.941
60.85000 135.119
60.86000 132.742
60.87000 130.339
60.88000 128.837
60.89000 134.644
60.90000 138.912
60.91000 140.976
60.92000 140.684
60.93000 140.396
60.94000 140.765
60.95000 141.585
60.96000 142.385
60.97000 142.712
60.98000 142.818
60.99000 142.670
61.00000 139.243
61.01000 134.813
61.02000 131.466
61.03000 136.033
61.04000 142.187
61.05000 147.342
61.06000 145.282
61.07000 142.824
61.08000 141.293
61.09000 142.571
61.10000 144.041
61.11000 143.582
61.12000 139.204
61.13000 134.713
61.14000 132.129
61.15000 138.994
61.16000 143.829
61.17000 146.503
61.18000 147.321
61.19000 148.072
61.20000 145.393
61.21000 140.783
61.22000 136.346
61.23000 135.874
61.24000 136.835
61.25000 137.860
61.26000 139.508
61.27000 141.311
61.28000 142.567
61.29000 140.645
61.30000 138.212
61.31000 136.254
61.32000 134.869
61.33000 133.789
61.34000 132.763
61.35000 131.868
61.36000 130.980
61.37000 132.822
61.38000 139.240
61.39000 145.729
61.40000 149.117
61.41000 146.986
61.42000 145.540
61.43000 143.811
61.44000 141.885
61.45000 140.072
61.46000 141.616
61.47000 144.721
61.48000 147.657
61.49000 152.420
61.50000 157.319
61.51000 161.690
61.52000 162.106
61.53000 161.712
61.54000 163.282
61.55000 174.052
61.56000 185.994
61.57000 195.162
61.58000 211.522
61.59000 224.856
61.60000 236.652
61.61000 245.267
61.62000 253.785
61.63000 260.173
61.64000 263.636
61.65000 267.079
61.66000 268.004
61.67000 266.723
61.68000 265.550
61.69000 270.274
61.70000 278.383
61.71000 285.820
61.72000 280.230
61.73000 269.631
61.74000 259.820
61.75000 257.388
61.76000 256.900
61.77000 253.927
61.78000 236.203
61.79000 216.050
61.80000 199.432
61.81000 196.336
61.82000 194.567
61.83000 193.279
61.84000 177.948
61.85000 165.609
61.86000 158.624
61.87000 160.783
61.88000 163.097
61.89000 158.706
61.90000 146.836
61.91000 135.008
61.92000 132.345
61.93000 136.179
61.94000 140.008
61.95000 143.694
61.96000 147.313
61.97000 150.525
61.98000 148.159
61.99000 144.021
62.00000 140.286
62.01000 137.260
62.02000 134.732
62.03000 133.251
62.04000 136.774
62.05000 140.950
62.06000 143.729
62.07000 142.111
62.08000 140.174
62.09000 138.846
62.10000 131.580
62.11000 125.995
62.12000 125.647
62.13000 132.640
62.14000 139.680
62.15000 142.816
62.16000 142.455
62.17000 142.098
62.18000 142.210
62.19000 142.587
62.20000 143.024
62.21000 144.654
62.22000 146.752
62.23000 148.349
62.24000 144.843
62.25000 140.005
62.26000 135.765
62.27000 136.114
62.28000 137.077
62.29000 137.442
62.30000 135.472
62.31000 133.268
62.32000 132.095
62.33000 133.601
62.34000 135.245
62.35000 136.297
62.36000 138.103
62.37000 139.428
62.38000 140.329
62.39000 140.747
62.40000 141.159
62.41000 140.431
62.42000 138.874
62.43000 137.350
62.44000 137.631
62.45000 138.739
62.46000 139.718
62.47000 138.873
62.48000 137.438
62.49000 136.473
62.50000 139.203
62.51000 142.720
62.52000 145.699
62.53000 145.809
62.54000 145.581
62.55000 145.544
62.56000 146.119
62.57000 146.741
62.58000 145.080
62.59000 138.514
62.60000 131.784
62.61000 127.811
62.62000 138.264
62.63000 145.722
62.64000 149.379
62.65000 149.557
62.66000 149.708
62.67000 148.166
62.68000 145.613
62.69000 143.145
62.70000 144.251
62.71000 146.641
62.72000 148.586
62.73000 145.866
62.74000 141.903
62.75000 138.396
62.76000 137.711
62.77000 137.512
62.78000 137.351
62.79000 136.193
62.80000 135.164
62.81000 135.282
62.82000 138.440
62.83000 141.761
62.84000 143.351
62.85000 141.871
62.86000 140.332
62.87000 139.504
62.88000 144.206
62.89000 147.404
62.90000 146.739
62.91000 143.210
62.92000 139.772
62.93000 139.482
62.94000 140.740
62.95000 141.936
62.96000 146.498
62.97000 151.743
62.98000 156.049
62.99000 152.802
63.00000 147.911
63.01000 142.947
63.02000 137.621
63.03000 132.245
63.04000 128.058
63.05000 130.937
63.06000 133.666
63.07000 136.544
63.08000 139.748
63.09000 142.964
63.10000 143.420
63.11000 139.852
63.12000 136.250
63.13000 132.152
63.14000 127.592
63.15000 123.123
63.16000 124.848
63.17000 130.339
63.18000 135.787
63.19000 140.311
63.20000 144.460
63.21000 148.327
63.22000 149.442
63.23000 149.774
63.24000 150.088
63.25000 150.285
63.26000 150.462
63.27000 150.290
63.28000 148.702
63.29000 146.964
63.30000 145.678
63.31000 150.229
63.32000 154.011
63.33000 155.081
63.34000 151.246
63.35000 147.311
63.36000 145.899
63.37000 147.486
63.38000 149.075
63.39000 149.407
63.40000 148.794
63.41000 148.179
63.42000 147.508
63.43000 146.807
63.44000 145.986
63.45000 143.340
63.46000 140.081
63.47000 137.116
63.48000 139.171
63.49000 141.976
63.50000 144.363
63.51000 144.627
63.52000 144.592
63.53000 145.422
63.54000 149.125
63.55000 153.059
63.56000 155.805
63.57000 147.885
63.58000 141.607
63.59000 138.887
63.60000 141.459
63.61000 144.081
63.62000 146.062
63.63000 147.431
63.64000 148.789
63.65000 148.246
63.66000 146.557
63.67000 145.051
63.68000 147.698
63.69000 152.066
63.70000 156.572
63.71000 162.599
63.72000 169.047
63.73000 174.749
63.74000 169.899
63.75000 164.070
63.76000 159.255
63.77000 158.638
63.78000 158.479
63.79000 156.893
63.80000 151.385
63.81000 145.652
63.82000 141.907
63.83000 144.460
63.84000 146.435
63.85000 147.725
63.86000 148.182
63.87000 148.633
63.88000 147.909
63.89000 146.278
63.90000 144.674
63.91000 142.803
63.92000 140.862
63.93000 139.289
63.94000 143.461
63.95000 149.600
63.96000 155.277
63.97000 157.042
63.98000 157.921
63.99000 158.673
64.00000 153.561
64.01000 148.540
64.02000 144.779
64.03000 145.295
64.04000 146.164
64.05000 147.488
64.06000 149.848
64.07000 152.247
64.08000 153.698
64.09000 151.159
64.10000 149.320
64.11000 149.305
64.12000 151.069
64.13000 152.819
64.14000 153.448
64.15000 153.369
64.16000 153.293
64.17000 154.915
64.18000 157.135
64.19000 159.168
64.20000 159.082
64.21000 158.398
64.22000 158.098
64.23000 160.353
64.24000 163.077
64.25000 165.323
64.26000 165.243
64.27000 164.963
64.28000 164.765
64.29000 164.797
64.30000 164.843
64.31000 164.748
64.32000 164.390
64.33000 164.025
64.34000 163.823
64.35000 168.644
64.36000 171.961
64.37000 169.369
64.38000 162.122
64.39000 155.055
64.40000 155.240
64.41000 159.199
64.42000 162.984
64.43000 159.873
64.44000 154.739
64.45000 150.541
64.46000 154.457
64.47000 160.250
64.48000 165.416
64.49000 167.261
64.50000 168.619
64.51000 169.692
64.52000 162.216
64.53000 155.635
64.54000 151.856
64.55000 154.567
64.56000 157.540
64.57000 159.620
64.58000 160.318
64.59000 161.001
64.60000 161.888
64.61000 162.979
64.62000 164.049
64.63000 163.352
64.64000 161.516
64.65000 159.827
64.66000 161.715
64.67000 165.141
64.68000 168.354
64.69000 169.665
64.70000 170.360
64.71000 171.243
64.72000 173.401
64.73000 175.799
64.74000 177.712
64.75000 177.539
64.76000 177.126
64.77000 176.816
64.78000 177.056
64.79000 177.270
64.80000 177.634
64.81000 178.284
64.82000 178.941
64.83000 178.008
64.84000 175.068
64.85000 172.125
64.86000 173.681
64.87000 178.833
64.88000 183.839
64.89000 182.642
64.90000 178.155
64.91000 173.827
64.92000 172.143
64.93000 171.399
64.94000 170.717
64.95000 173.200
64.96000 176.077
64.97000 178.448
64.98000 178.080
64.99000 177.300
65.00000 177.602
65.01000 181.720
65.02000 186.171
65.03000 189.335
65.04000 189.823
65.05000 190.108
65.06000 190.783
65.07000 192.070
65.08000 193.364
65.09000 196.628
65.10000 201.899
65.11000 207.137
65.12000 208.854
65.13000 208.266
65.14000 207.796
65.15000 210.311
65.16000 214.133
65.17000 217.935
65.18000 221.486
65.19000 224.963
65.20000 228.065
65.21000 229.453
65.22000 230.375
65.23000 232.633
65.24000 240.764
65.25000 249.585
65.26000 254.558
65.27000 248.345
65.28000 241.419
65.29000 236.802
65.30000 242.499
65.31000 246.916
65.32000 255.197
65.33000 268.460
65.34000 281.723
65.35000 286.458
65.36000 284.193
65.37000 281.960
65.38000 278.368
65.39000 274.165
65.40000 270.437
65.41000 274.885
65.42000 282.295
65.43000 289.270
65.44000 292.271
65.45000 294.317
65.46000 296.086
65.47000 304.881
65.48000 313.270
65.49000 320.433
65.50000 323.191
65.51000 325.554
65.52000 328.653
65.53000 333.521
65.54000 338.466
65.55000 341.530
65.56000 358.495
65.57000 370.829
65.58000 375.158
65.59000 371.149
65.60000 367.224
65.61000 372.151
65.62000 383.007
65.63000 393.589
65.64000 405.994
65.65000 418.612
65.66000 431.839
65.67000 452.638
65.68000 475.701
65.69000 500.826
65.70000 540.612
65.71000 583.265
65.72000 618.836
65.73000 661.716
65.74000 698.001
65.75000 738.355
65.76000 790.766
65.77000 843.971
65.78000 892.927
65.79000 933.438
65.80000 973.718
65.81000 996.644
65.82000 1022.002
65.83000 1039.685
65.84000 1058.171
65.85000 1077.330
65.86000 1096.351
65.87000 1108.758
65.88000 1117.525
65.89000 1125.947
65.90000 1102.017
65.91000 1068.436
65.92000 1037.020
65.93000 1025.877
65.94000 1019.708
65.95000 1004.719
65.96000 939.831
65.97000 867.112
65.98000 808.924
65.99000 732.277
66.00000 668.924
66.01000 608.730
66.02000 556.269
66.03000 504.162
66.04000 460.077
66.05000 429.132
66.06000 398.377
66.07000 382.516
66.08000 362.279
66.09000 348.690
66.10000 340.227
66.11000 335.265
66.12000 330.233
66.13000 323.280
66.14000 315.453
66.15000 308.068
66.16000 308.594
66.17000 311.285
66.18000 313.379
66.19000 311.122
66.20000 307.997
66.21000 304.713
66.22000 300.705
66.23000 296.607
66.24000 293.480
66.25000 316.058
66.26000 335.230
66.27000 349.367
66.28000 353.309
66.29000 356.957
66.30000 362.951
66.31000 372.091
66.32000 381.241
66.33000 389.709
66.34000 397.576
66.35000 405.487
66.36000 415.661
66.37000 427.104
66.38000 437.924
66.39000 437.187
66.40000 432.103
66.41000 427.410
66.42000 432.642
66.43000 439.560
66.44000 444.979
66.45000 441.733
66.46000 437.096
66.47000 433.500
66.48000 433.793
66.49000 434.455
66.50000 434.934
66.51000 418.249
66.52000 404.819
66.53000 392.261
66.54000 381.158
66.55000 370.078
66.56000 356.252
66.57000 339.439
66.58000 322.703
66.59000 319.518
66.60000 325.701
66.61000 331.564
66.62000 328.014
66.63000 320.104
66.64000 312.310
66.65000 306.047
66.66000 300.260
66.67000 295.053
66.68000 298.060
66.69000 302.161
66.70000 305.713
66.71000 306.700
66.72000 307.362
66.73000 308.435
66.74000 310.770
66.75000 313.195
66.76000 314.844
66.77000 320.208
66.78000 324.297
66.79000 323.778
66.80000 316.951
66.81000 310.093
66.82000 308.757
66.83000 312.244
66.84000 315.691
66.85000 312.514
66.86000 305.719
66.87000 299.559
66.88000 305.618
66.89000 316.360
66.90000 326.600
66.91000 331.893
66.92000 335.922
66.93000 339.440
66.94000 334.049
66.95000 328.184
66.96000 324.146
66.97000 327.065
66.98000 330.663
66.99000 332.773
67.00000 331.100
67.01000 329.240
67.02000 328.062
67.03000 328.440
67.04000 328.733
67.05000 330.900
67.06000 335.150
67.07000 339.388
67.08000 341.789
67.09000 342.886
67.10000 343.959
67.11000 341.595
67.12000 337.769
67.13000 334.254
67.14000 334.979
67.15000 337.046
67.16000 339.410
67.17000 344.041
67.18000 349.144
67.19000 353.448
67.20000 359.694
67.21000 365.121
67.22000 368.338
67.23000 364.625
67.24000 360.409
67.25000 360.782
67.26000 370.798
67.27000 381.121
67.28000 387.153
67.29000 389.839
67.30000 391.709
67.31000 389.662
67.32000 384.120
67.33000 378.673
67.34000 378.757
67.35000 382.064
67.36000 385.255
67.37000 382.802
67.38000 378.416
67.39000 374.379
67.40000 373.868
67.41000 374.274
67.42000 375.269
67.43000 379.814
67.44000 384.955
67.45000 389.120
67.46000 390.207
67.47000 390.841
67.48000 393.266
67.49000 400.328
67.50000 407.627
67.51000 412.599
67.52000 413.531
67.53000 414.391
67.54000 414.848
67.55000 414.171
67.56000 413.732
67.57000 416.954
67.58000 422.828
67.59000 428.567
67.60000 429.928
67.61000 429.184
67.62000 428.478
67.63000 430.280
67.64000 432.688
67.65000 435.196
67.66000 438.487
67.67000 441.943
67.68000 444.487
67.69000 442.599
67.70000 440.121
67.71000 438.202
67.72000 439.391
67.73000 440.519
67.74000 444.218
67.75000 453.421
67.76000 462.808
67.77000 468.656
67.78000 469.464
67.79000 470.234
67.80000 469.046
67.81000 466.075
67.82000 463.127
67.83000 461.576
67.84000 460.857
67.85000 460.351
67.86000 464.296
67.87000 470.011
67.88000 475.322
67.89000 476.253
67.90000 476.043
67.91000 476.396
67.92000 480.217
67.93000 484.633
67.94000 487.933
67.95000 486.808
67.96000 485.229
67.97000 484.067
67.98000 494.976
67.99000 503.910
68.00000 507.662
68.01000 502.249
68.02000 496.662
68.03000 494.138
68.04000 495.161
68.05000 496.186
68.06000 496.642
68.07000 496.678
68.08000 497.007
68.09000 507.295
68.10000 522.463
68.11000 536.869
68.12000 540.222
68.13000 539.943
68.14000 539.690
68.15000 538.451
68.16000 537.169
68.17000 536.616
68.18000 539.682
68.19000 543.240
68.20000 548.044
68.21000 556.903
68.22000 566.073
68.23000 572.430
68.24000 567.290
68.25000 563.118
68.26000 560.818
68.27000 561.237
68.28000 561.681
68.29000 566.704
68.30000 575.990
68.31000 585.191
68.32000 603.735
68.33000 627.456
68.34000 649.932
68.35000 645.571
68.36000 630.334
68.37000 616.958
68.38000 623.506
68.39000 635.445
68.40000 645.965
68.41000 652.264
68.42000 657.054
68.43000 662.663
68.44000 671.584
68.45000 680.854
68.46000 687.724
68.47000 688.144
68.48000 688.208
68.49000 688.250
68.50000 705.724
68.51000 718.770
68.52000 735.259
68.53000 755.820
68.54000 776.365
68.55000 792.064
68.56000 804.110
68.57000 815.935
68.58000 839.924
68.59000 868.927
68.60000 897.860
68.61000 925.759
68.62000 953.311
68.63000 982.895
68.64000 1029.152
68.65000 1079.098
68.66000 1121.671
68.67000 1168.349
68.68000 1208.097
68.69000 1254.318
68.70000 1322.021
68.71000 1391.431
68.72000 1448.672
68.73000 1478.864
68.74000 1508.065
68.75000 1525.562
68.76000 1645.412
68.77000 1731.187
68.78000 1790.669
68.79000 1825.144
68.80000 1860.024
68.81000 1924.264
68.82000 2006.629
68.83000 2086.476
68.84000 2180.131
68.85000 2274.234
68.86000 2374.388
68.87000 2541.139
68.88000 2726.264
68.89000 2940.997
68.90000 3346.856
68.91000 3786.926
68.92000 4147.975
68.93000 5693.255
68.94000 7066.841
68.95000 8835.750
68.96000 11687.186
68.97000 14600.452
68.98000 17983.412
68.99000 22228.859
69.00000 26492.934
69.01000 28827.793
69.02000 35047.484
69.03000 39326.535
69.04000 42834.371
69.05000 45748.918
69.06000 48631.496
69.07000 50308.930
69.08000 51373.223
69.09000 52388.590
69.10000 52842.047
69.11000 53084.941
69.12000 53351.082
69.13000 53812.766
69.14000 54318.594
69.15000 54826.332
69.16000 55343.957
69.17000 55862.996
69.18000 56270.629
69.19000 56007.832
69.20000 55753.633
69.21000 54846.418
69.22000 52460.387
69.23000 50017.734
69.24000 47264.730
69.25000 44042.941
69.26000 40816.480
69.27000 38054.855
69.28000 35745.176
69.29000 33443.160
69.30000 31743.131
69.31000 30421.959
69.32000 29123.135
69.33000 28346.637
69.34000 27789.838
69.35000 27268.945
69.36000 26452.477
69.37000 25635.227
69.38000 24739.912
69.39000 23329.170
69.40000 21824.174
69.41000 20190.730
69.42000 18017.230
69.43000 15783.618
69.44000 14114.750
69.45000 11530.918
69.46000 9474.436
69.47000 7682.946
69.48000 6387.328
69.49000 5103.075
69.50000 4115.706
69.51000 3494.304
69.52000 2875.113
69.53000 2463.594
69.54000 2216.367
69.55000 1971.238
69.56000 1809.605
69.57000 1691.259
69.58000 1574.260
69.59000 1478.823
69.60000 1390.884
69.61000 1310.519
69.62000 1251.909
69.63000 1204.300
69.64000 1159.231
69.65000 1127.589
69.66000 1097.908
69.67000 1066.887
69.68000 1031.249
69.69000 995.222
69.70000 969.793
69.71000 962.726
69.72000 957.919
69.73000 945.127
69.74000 920.036
69.75000 894.808
69.76000 878.995
69.77000 872.537
69.78000 866.124
69.79000 843.933
69.80000 812.134
69.81000 780.952
69.82000 764.828
69.83000 755.156
69.84000 745.183
69.85000 731.700
69.86000 717.211
69.87000 704.329
69.88000 696.996
69.89000 691.532
69.90000 684.510
69.91000 670.804
69.92000 656.335
69.93000 647.435
69.94000 654.368
69.95000 662.270
69.96000 667.496
69.97000 653.705
69.98000 643.187
69.99000 637.870
70.00000 639.095
