20.00000 590.397
20.01000 577.635
20.02000 563.050
20.03000 553.042
20.04000 560.717
20.05000 570.150
20.06000 577.038
20.07000 582.063
20.08000 585.864
20.09000 583.648
20.10000 571.052
20.11000 558.275
20.12000 557.058
20.13000 568.878
20.14000 580.665
20.15000 582.063
20.16000 576.033
20.17000 569.932
20.18000 561.578
20.19000 552.146
20.20000 544.003
20.21000 553.805
20.22000 569.364
20.23000 583.426
20.24000 574.885
20.25000 563.174
20.26000 554.009
20.27000 557.150
20.28000 561.916
20.29000 565.313
20.30000 564.363
20.31000 563.090
20.32000 562.215
20.33000 551.501
20.34000 543.221
20.35000 539.362
20.36000 541.763
20.37000 544.211
20.38000 548.937
20.39000 555.726
20.40000 562.446
20.41000 565.939
20.42000 567.493
20.43000 568.817
20.44000 565.437
20.45000 560.196
20.46000 555.127
20.47000 551.829
20.48000 548.999
20.49000 546.515
20.50000 548.931
20.51000 551.723
20.52000 553.966
20.53000 554.045
20.54000 553.902
20.55000 553.155
20.56000 550.818
20.57000 548.398
20.58000 546.846
20.59000 543.986
20.60000 541.883
20.61000 542.835
20.62000 547.304
20.63000 551.793
20.64000 559.086
20.65000 568.440
20.66000 577.609
20.67000 571.468
20.68000 558.373
20.69000 545.925
20.70000 542.772
20.71000 542.657
20.72000 542.292
20.73000 539.940
20.74000 537.160
20.75000 534.801
20.76000 534.779
20.77000 535.025
20.78000 534.338
20.79000 530.628
20.80000 526.687
20.81000 527.606
20.82000 539.072
20.83000 550.902
20.84000 557.915
20.85000 557.580
20.86000 557.301
20.87000 557.029
20.88000 556.765
20.89000 556.526
20.90000 557.955
20.91000 560.389
20.92000 562.745
20.93000 555.021
20.94000 543.884
20.95000 533.705
20.96000 533.688
20.97000 536.406
20.98000 538.677
20.99000 538.141
21.00000 537.118
21.01000 536.282
21.02000 532.731
21.03000 529.593
21.04000 529.569
21.05000 537.870
21.06000 546.624
21.07000 551.853
21.08000 550.762
21.09000 549.544
21.10000 548.886
21.11000 558.683
21.12000 565.375
21.13000 566.566
21.14000 563.635
21.15000 560.722
21.16000 558.402
21.17000 556.377
21.18000 554.450
21.19000 557.483
21.20000 561.822
21.21000 565.391
21.22000 562.700
21.23000 558.632
21.24000 554.216
21.25000 548.047
21.26000 541.636
21.27000 536.631
21.28000 533.925
21.29000 531.912
21.30000 530.924
21.31000 532.201
21.32000 533.560
21.33000 533.716
21.34000 532.100
21.35000 530.468
21.36000 533.306
21.37000 540.368
21.38000 547.390
21.39000 551.568
21.40000 553.999
21.41000 556.228
21.42000 553.984
21.43000 549.904
21.44000 546.097
21.45000 537.419
21.46000 528.348
21.47000 521.813
21.48000 531.542
21.49000 544.164
21.50000 554.300
21.51000 554.247
21.52000 553.096
21.53000 552.243
21.54000 549.394
21.55000 547.093
21.56000 544.751
21.57000 542.334
21.58000 539.915
21.59000 539.630
21.60000 541.907
21.61000 544.184
21.62000 547.730
21.63000 552.219
21.64000 556.600
21.65000 556.979
21.66000 555.333
21.67000 553.797
21.68000 553.946
21.69000 554.668
21.70000 555.325
21.71000 553.155
21.72000 550.671
21.73000 549.213
21.74000 553.035
21.75000 557.604
21.76000 559.873
21.77000 554.404
21.78000 548.307
21.79000 544.037
21.80000 544.187
21.81000 544.426
21.82000 547.974
21.83000 556.490
21.84000 565.055
21.85000 568.505
21.86000 567.016
21.87000 565.538
21.88000 573.847
21.89000 588.028
21.90000 601.690
21.91000 603.382
21.92000 600.067
21.93000 597.053
21.94000 597.420
21.95000 598.732
21.96000 599.895
21.97000 612.941
21.98000 626.096
21.99000 636.424
22.00000 634.929
22.01000 632.128
22.02000 630.101
22.03000 630.222
22.04000 630.469
22.05000 630.630
22.06000 638.695
22.07000 644.755
22.08000 641.562
22.09000 627.027
22.10000 612.526
22.11000 614.545
22.12000 629.458
22.13000 644.124
22.14000 640.711
22.15000 628.391
22.16000 616.725
22.17000 615.418
22.18000 617.693
22.19000 620.303
22.20000 625.778
22.21000 631.909
22.22000 637.166
22.23000 622.446
22.24000 607.566
22.25000 596.097
22.26000 596.320
22.27000 597.521
22.28000 596.273
22.29000 589.407
22.30000 582.319
22.31000 578.013
22.32000 572.777
22.33000 569.032
22.34000 574.120
22.35000 587.927
22.36000 601.587
22.37000 602.933
22.38000 596.423
22.39000 590.098
22.40000 584.799
22.41000 580.180
22.42000 575.509
22.43000 570.247
22.44000 564.817
22.45000 560.659
22.46000 565.046
22.47000 571.018
22.48000 575.951
22.49000 571.952
22.50000 567.821
22.51000 563.450
22.52000 558.400
22.53000 553.309
22.54000 550.466
22.55000 551.887
22.56000 553.409
22.57000 554.257
22.58000 546.758
22.59000 541.546
22.60000 533.212
22.61000 522.391
22.62000 511.824
22.63000 511.781
22.64000 517.268
22.65000 522.518
22.66000 526.654
22.67000 530.142
22.68000 532.644
22.69000 526.500
22.70000 518.335
22.71000 511.065
22.72000 508.598
22.73000 506.843
22.74000 505.454
22.75000 516.106
22.76000 525.499
22.77000 530.796
22.78000 526.516
22.79000 521.842
22.80000 520.475
22.81000 524.272
22.82000 528.130
22.83000 530.068
22.84000 517.073
22.85000 508.487
22.86000 508.113
22.87000 513.080
22.88000 517.620
22.89000 511.396
22.90000 500.498
22.91000 490.267
22.92000 497.390
22.93000 508.484
22.94000 517.789
22.95000 514.815
22.96000 509.512
22.97000 505.068
22.98000 504.359
22.99000 504.086
23.00000 503.879
23.01000 507.337
23.02000 510.224
23.03000 513.646
23.04000 518.103
23.05000 522.586
23.06000 515.885
23.07000 494.909
23.08000 473.910
23.09000 473.092
23.10000 488.619
23.11000 503.832
23.12000 505.282
23.13000 499.363
23.14000 493.821
23.15000 494.690
23.16000 497.861
23.17000 500.771
23.18000 509.891
23.19000 519.342
23.20000 527.809
23.21000 530.881
23.22000 533.133
23.23000 533.065
23.24000 524.730
23.25000 515.662
23.26000 509.197
23.27000 509.972
23.28000 510.800
23.29000 510.842
23.30000 509.634
23.31000 508.411
23.32000 506.350
23.33000 503.427
23.34000 500.522
23.35000 500.642
23.36000 502.739
23.37000 504.943
23.38000 509.957
23.39000 516.214
23.40000 521.778
23.41000 518.845
23.42000 513.394
23.43000 508.525
23.44000 505.315
23.45000 502.798
23.46000 501.068
23.47000 502.828
23.48000 505.005
23.49000 508.000
23.50000 513.397
23.51000 518.950
23.52000 522.665
23.53000 503.552
23.54000 488.927
23.55000 481.473
23.56000 483.356
23.57000 485.286
23.58000 490.791
23.59000 499.261
23.60000 507.616
23.61000 510.418
23.62000 510.198
23.63000 510.073
23.64000 511.648
23.65000 513.844
23.66000 515.149
23.67000 508.219
23.68000 499.286
23.69000 491.549
23.70000 491.617
23.71000 492.705
23.72000 493.548
23.73000 493.505
23.74000 493.380
23.75000 494.278
23.76000 497.657
23.77000 501.147
23.78000 503.317
23.79000 494.664
23.80000 488.323
23.81000 486.819
23.82000 490.411
23.83000 494.025
23.84000 500.083
23.85000 507.794
23.86000 515.316
23.87000 511.221
23.88000 502.306
23.89000 494.212
23.90000 496.492
23.91000 501.902
23.92000 506.002
23.93000 500.672
23.94000 493.476
23.95000 487.464
23.96000 493.590
23.97000 499.906
23.98000 502.796
23.99000 495.436
24.00000 487.389
24.01000 480.474
24.02000 475.831
24.03000 471.252
24.04000 468.633
24.05000 495.164
24.06000 513.758
24.07000 515.200
24.08000 502.113
24.09000 489.115
24.10000 480.482
24.11000 474.277
24.12000 468.310
24.13000 483.054
24.14000 504.104
24.15000 522.916
24.16000 520.497
24.17000 512.815
24.18000 505.642
24.19000 501.388
24.20000 497.596
24.21000 494.556
24.22000 484.673
24.23000 476.153
24.24000 470.729
24.25000 472.960
24.26000 475.548
24.27000 478.870
24.28000 483.407
24.29000 487.961
24.30000 490.323
24.31000 480.159
24.32000 473.364
24.33000 474.655
24.34000 481.523
24.35000 488.226
24.36000 490.154
24.37000 489.890
24.38000 489.641
24.39000 489.850
24.40000 490.171
24.41000 490.682
24.42000 492.589
24.43000 494.778
24.44000 495.534
24.45000 489.663
24.46000 482.962
24.47000 477.834
24.48000 485.345
24.49000 491.963
24.50000 494.883
24.51000 490.243
24.52000 485.380
24.53000 482.933
24.54000 483.762
24.55000 484.609
24.56000 486.561
24.57000 489.461
24.58000 492.263
24.59000 489.843
24.60000 484.464
24.61000 479.285
24.62000 477.873
24.63000 477.892
24.64000 477.909
24.65000 470.781
24.66000 462.760
24.67000 457.315
24.68000 466.925
24.69000 478.979
24.70000 488.871
24.71000 490.605
24.72000 491.553
24.73000 492.240
24.74000 492.179
24.75000 492.104
24.76000 490.031
24.77000 484.588
24.78000 479.091
24.79000 476.258
24.80000 476.353
24.81000 476.450
24.82000 478.898
24.83000 482.959
24.84000 486.958
24.85000 489.109
24.86000 490.395
24.87000 490.979
24.88000 482.159
24.89000 470.389
24.90000 459.785
24.91000 461.175
24.92000 464.562
24.93000 467.842
24.94000 470.618
24.95000 473.330
24.96000 476.209
24.97000 479.610
24.98000 483.048
24.99000 485.393
25.00000 475.646
25.01000 468.077
25.02000 467.217
25.03000 475.636
25.04000 484.106
25.05000 484.118
25.06000 476.660
25.07000 469.284
25.08000 468.722
25.09000 472.015
25.10000 475.456
25.11000 481.797
25.12000 489.261
25.13000 495.056
25.14000 484.161
25.15000 468.963
25.16000 455.673
25.17000 455.762
25.18000 457.740
25.19000 459.581
25.20000 460.890
25.21000 462.146
25.22000 465.694
25.23000 475.123
25.24000 484.848
25.25000 491.034
25.26000 478.938
25.27000 469.920
25.28000 468.398
25.29000 475.297
25.30000 482.154
25.31000 481.621
25.32000 475.785
25.33000 470.071
25.34000 478.607
25.35000 493.331
25.36000 506.756
25.37000 502.212
25.38000 491.925
25.39000 482.285
25.40000 477.653
25.41000 474.073
25.42000 471.049
25.43000 477.553
25.44000 484.039
25.45000 486.857
25.46000 478.064
25.47000 468.414
25.48000 464.590
25.49000 473.129
25.50000 482.072
25.51000 487.320
25.52000 472.232
25.53000 461.500
25.54000 456.449
25.55000 456.521
25.56000 456.640
25.57000 459.592
25.58000 464.213
25.59000 468.676
25.60000 473.341
25.61000 477.815
25.62000 481.778
25.63000 480.494
25.64000 477.831
25.65000 475.216
25.66000 472.890
25.67000 470.614
25.68000 468.765
25.69000 467.224
25.70000 465.993
25.71000 465.728
25.72000 467.990
25.73000 470.384
25.74000 473.955
25.75000 479.588
25.76000 485.258
25.77000 488.289
25.78000 471.961
25.79000 460.867
25.80000 459.251
25.81000 464.573
25.82000 469.677
25.83000 467.552
25.84000 461.918
25.85000 456.566
25.86000 459.240
25.87000 464.123
25.88000 468.311
25.89000 466.996
25.90000 464.500
25.91000 462.674
25.92000 464.144
25.93000 466.056
25.94000 467.541
25.95000 466.120
25.96000 464.814
25.97000 463.699
25.98000 462.993
25.99000 462.301
26.00000 461.236
26.01000 459.632
26.02000 458.024
26.03000 458.297
26.04000 460.301
26.05000 462.290
26.06000 463.269
26.07000 463.643
26.08000 463.577
26.09000 454.195
26.10000 441.071
26.11000 428.859
26.12000 437.061
26.13000 449.417
26.14000 459.394
26.15000 454.513
26.16000 447.055
26.17000 443.379
26.18000 454.845
26.19000 467.892
26.20000 477.513
26.21000 471.011
26.22000 465.299
26.23000 460.800
26.24000 458.468
26.25000 456.178
26.26000 454.206
26.27000 452.607
26.28000 451.012
26.29000 450.377
26.30000 450.456
26.31000 450.495
26.32000 449.104
26.33000 447.005
26.34000 444.677
26.35000 438.955
26.36000 432.107
26.37000 425.889
26.38000 429.993
26.39000 435.617
26.40000 441.801
26.41000 450.797
26.42000 460.181
26.43000 465.583
26.44000 457.898
26.45000 449.187
26.46000 443.130
26.47000 448.525
26.48000 452.901
26.49000 452.673
26.50000 445.688
26.51000 438.645
26.52000 439.101
26.53000 446.617
26.54000 454.067
26.55000 451.631
26.56000 443.311
26.57000 435.481
26.58000 438.437
26.59000 445.807
26.60000 453.211
26.61000 460.997
26.62000 468.886
26.63000 475.849
26.64000 463.694
26.65000 450.285
26.66000 440.021
26.67000 442.600
26.68000 446.554
26.69000 447.884
26.70000 442.088
26.71000 435.891
26.72000 431.863
26.73000 440.085
26.74000 446.298
26.75000 450.391
26.76000 451.949
26.77000 453.479
26.78000 449.741
26.79000 441.989
26.80000 434.375
26.81000 438.446
26.82000 448.065
26.83000 456.800
26.84000 452.083
26.85000 442.816
26.86000 435.396
26.87000 443.331
26.88000 454.698
26.89000 464.405
26.90000 450.357
26.91000 435.703
26.92000 427.431
26.93000 440.548
26.94000 455.391
26.95000 463.876
26.96000 458.089
26.97000 451.768
26.98000 447.964
26.99000 444.611
27.00000 442.230
27.01000 440.676
27.02000 439.917
27.03000 439.136
27.04000 436.652
27.05000 433.104
27.06000 429.663
27.07000 426.053
27.08000 422.565
27.09000 419.778
27.10000 424.829
27.11000 432.064
27.12000 437.860
27.13000 434.251
27.14000 428.940
27.15000 424.574
27.16000 426.596
27.17000 428.834
27.18000 430.506
27.19000 430.610
27.20000 430.623
27.21000 432.857
27.22000 439.209
27.23000 445.652
27.24000 449.198
27.25000 445.269
27.26000 442.551
27.27000 439.987
27.28000 437.544
27.29000 435.067
27.30000 431.317
27.31000 426.913
27.32000 422.708
27.33000 420.244
27.34000 418.511
27.35000 417.990
27.36000 427.785
27.37000 439.933
27.38000 450.295
27.39000 451.315
27.40000 450.987
27.41000 450.728
27.42000 446.733
27.43000 443.283
27.44000 441.377
27.45000 442.998
27.46000 444.758
27.47000 444.771
27.48000 442.116
27.49000 439.434
27.50000 435.632
27.51000 430.732
27.52000 425.909
27.53000 427.464
27.54000 433.073
27.55000 438.457
27.56000 438.473
27.57000 436.210
27.58000 434.090
27.59000 436.399
27.60000 439.644
27.61000 441.425
27.62000 433.427
27.63000 423.621
27.64000 416.149
27.65000 418.590
27.66000 422.149
27.67000 424.815
27.68000 422.113
27.69000 419.750
27.70000 418.058
27.71000 417.631
27.72000 417.235
27.73000 416.767
27.74000 416.212
27.75000 415.657
27.76000 417.328
27.77000 420.750
27.78000 424.077
27.79000 423.540
27.80000 420.979
27.81000 418.747
27.82000 421.873
27.83000 426.880
27.84000 431.462
27.85000 428.200
27.86000 423.677
27.87000 421.316
27.88000 430.514
27.89000 441.420
27.90000 448.581
27.91000 442.705
27.92000 435.713
27.93000 430.763
27.94000 425.103
27.95000 420.780
27.96000 419.444
27.97000 422.756
27.98000 426.122
27.99000 427.529
28.00000 426.968
28.01000 426.411
28.02000 426.233
28.03000 426.301
28.04000 426.349
28.05000 425.910
28.06000 425.261
28.07000 424.856
28.08000 427.343
28.09000 430.668
28.10000 433.628
28.11000 428.379
28.12000 422.472
28.13000 418.791
28.14000 424.759
28.15000 431.843
28.16000 434.434
28.17000 424.123
28.18000 413.009
28.19000 405.632
28.20000 407.341
28.21000 408.773
28.22000 415.002
28.23000 427.331
28.24000 439.645
28.25000 438.612
28.26000 426.772
28.27000 415.108
28.28000 418.646
28.29000 429.949
28.30000 440.615
28.31000 440.530
28.32000 436.599
28.33000 432.482
28.34000 426.688
28.35000 420.496
28.36000 415.154
28.37000 423.937
28.38000 433.198
28.39000 437.957
28.40000 426.734
28.41000 414.104
28.42000 407.939
28.43000 417.121
28.44000 426.958
28.45000 433.020
28.46000 423.776
28.47000 417.004
28.48000 416.901
28.49000 423.647
28.50000 430.346
28.51000 432.322
28.52000 431.178
28.53000 430.064
28.54000 423.205
28.55000 414.251
28.56000 406.293
28.57000 410.462
28.58000 418.211
28.59000 425.143
28.60000 426.361
28.61000 426.478
28.62000 426.576
28.63000 424.407
28.64000 422.390
28.65000 421.633
28.66000 424.563
28.67000 427.730
28.68000 431.419
28.69000 436.131
28.70000 440.870
28.71000 443.551
28.72000 426.572
28.73000 414.719
28.74000 408.653
28.75000 407.370
28.76000 406.167
28.77000 408.691
28.78000 413.242
28.79000 417.608
28.80000 416.049
28.81000 412.571
28.82000 409.544
28.83000 410.664
28.84000 412.788
28.85000 414.484
28.86000 413.793
28.87000 412.734
28.88000 411.888
28.89000 417.551
28.90000 422.598
28.91000 424.968
28.92000 420.866
28.93000 416.476
28.94000 414.405
28.95000 416.083
28.96000 417.812
28.97000 418.697
28.98000 407.674
28.99000 400.324
29.00000 399.372
29.01000 402.731
29.02000 406.093
29.03000 409.568
29.04000 413.093
29.05000 416.414
29.06000 416.689
29.07000 416.101
29.08000 415.484
29.09000 414.660
29.10000 413.795
29.11000 413.479
29.12000 415.638
29.13000 418.099
29.14000 419.970
29.15000 413.026
29.16000 407.101
29.17000 404.517
29.18000 408.612
29.19000 412.892
29.20000 417.637
29.21000 422.997
29.22000 428.355
29.23000 428.995
29.24000 425.664
29.25000 422.365
29.26000 420.630
29.27000 419.763
29.28000 418.793
29.29000 415.973
29.30000 412.467
29.31000 409.235
29.32000 408.503
29.33000 408.400
29.34000 409.075
29.35000 414.185
29.36000 419.996
29.37000 424.925
29.38000 426.599
29.39000 427.970
29.40000 428.958
29.41000 431.338
29.42000 433.210
29.43000 431.550
29.44000 424.066
29.45000 416.496
29.46000 408.751
29.47000 400.818
29.48000 392.924
29.49000 394.406
29.50000 402.240
29.51000 409.838
29.52000 410.714
29.53000 408.515
29.54000 406.241
29.55000 403.003
29.56000 399.468
29.57000 396.295
29.58000 406.169
29.59000 417.103
29.60000 426.409
29.61000 428.215
29.62000 429.087
29.63000 428.836
29.64000 425.175
29.65000 421.279
29.66000 418.642
29.67000 417.686
29.68000 417.011
29.69000 417.759
29.70000 420.430
29.71000 423.100
29.72000 418.033
29.73000 406.302
29.74000 394.713
29.75000 398.365
29.76000 410.315
29.77000 421.597
29.78000 420.361
29.79000 414.389
29.80000 408.995
29.81000 409.221
29.82000 410.862
29.83000 412.292
29.84000 416.825
29.85000 421.127
29.86000 425.768
29.87000 431.686
29.88000 437.726
29.89000 438.216
29.90000 424.775
29.91000 410.665
29.92000 401.767
29.93000 411.838
29.94000 419.347
29.95000 424.474
29.96000 426.991
29.97000 429.507
29.98000 431.990
29.99000 434.450
30.00000 436.855
30.01000 439.951
30.02000 443.226
30.03000 446.311
30.04000 446.856
30.05000 446.606
30.06000 445.810
30.07000 440.903
30.08000 435.152
30.09000 430.314
30.10000 427.886
30.11000 426.117
30.12000 425.968
30.13000 430.833
30.14000 436.055
30.15000 437.232
30.16000 430.018
30.17000 422.544
30.18000 418.203
30.19000 410.282
30.20000 404.710
30.21000 404.143
30.22000 407.978
30.23000 411.760
30.24000 412.569
30.25000 411.667
30.26000 410.797
30.27000 411.658
30.28000 413.095
30.29000 414.694
30.30000 417.910
30.31000 421.541
30.32000 424.728
30.33000 425.269
30.34000 425.372
30.35000 425.456
30.36000 421.601
30.37000 418.151
30.38000 415.455
30.39000 414.689
30.40000 414.019
30.41000 417.254
30.42000 427.178
30.43000 437.217
30.44000 442.519
30.45000 427.459
30.46000 417.287
30.47000 416.897
30.48000 423.501
30.49000 429.835
30.50000 427.752
30.51000 421.671
30.52000 415.907
30.53000 414.089
30.54000 413.572
30.55000 413.741
30.56000 419.185
30.57000 425.734
30.58000 429.929
30.59000 422.836
30.60000 414.267
30.61000 407.652
30.62000 410.209
30.63000 412.768
30.64000 415.832
30.65000 419.961
30.66000 424.125
30.67000 427.829
30.68000 430.889
30.69000 433.943
30.70000 436.130
30.71000 437.538
30.72000 438.824
30.73000 432.872
30.74000 422.676
30.75000 413.171
30.76000 417.633
30.77000 427.582
30.78000 436.815
30.79000 432.979
30.80000 426.437
30.81000 420.906
30.82000 421.532
30.83000 423.197
30.84000 425.839
30.85000 432.304
30.86000 439.154
30.87000 444.173
30.88000 450.216
30.89000 454.923
30.90000 460.987
30.91000 469.420
30.92000 477.897
30.93000 482.917
30.94000 483.986
30.95000 485.048
30.96000 489.364
30.97000 495.998
30.98000 502.649
30.99000 509.898
31.00000 517.435
31.01000 525.800
31.02000 545.907
31.03000 569.824
31.04000 591.477
31.05000 605.618
31.06000 616.659
31.07000 629.163
31.08000 648.823
31.09000 669.442
31.10000 695.693
31.11000 740.047
31.12000 785.769
31.13000 817.326
31.14000 856.245
31.15000 885.676
31.16000 922.863
31.17000 971.167
31.18000 1019.563
31.19000 1082.056
31.20000 1157.485
31.21000 1232.183
31.22000 1307.429
31.23000 1381.431
31.24000 1455.248
31.25000 1525.210
31.26000 1593.630
31.27000 1661.315
31.28000 1721.287
31.29000 1779.200
31.30000 1830.128
31.31000 1897.237
31.32000 1957.381
31.33000 2016.112
31.34000 2069.208
31.35000 2121.718
31.36000 2171.050
31.37000 2211.948
31.38000 2252.391
31.39000 2278.461
31.40000 2259.984
31.41000 2245.856
31.42000 2238.211
31.43000 2238.128
31.44000 2237.931
31.45000 2214.207
31.46000 2172.979
31.47000 2132.536
31.48000 2069.354
31.49000 1997.668
31.50000 1925.854
31.51000 1852.152
31.52000 1777.827
31.53000 1702.104
31.54000 1615.100
31.55000 1525.634
31.56000 1449.554
31.57000 1379.634
31.58000 1321.621
31.59000 1264.321
31.60000 1209.356
31.61000 1154.573
31.62000 1097.858
31.63000 1036.901
31.64000 975.793
31.65000 939.379
31.66000 884.294
31.67000 845.143
31.68000 809.147
31.69000 776.108
31.70000 743.104
31.71000 712.463
31.72000 683.262
31.73000 654.980
31.74000 636.881
31.75000 623.689
31.76000 609.794
31.77000 588.324
31.78000 564.790
31.79000 541.922
31.80000 523.289
31.81000 505.403
31.82000 490.768
31.83000 494.359
31.84000 498.893
31.85000 499.285
31.86000 488.477
31.87000 477.045
31.88000 467.329
31.89000 460.728
31.90000 454.191
31.91000 450.634
31.92000 438.597
31.93000 430.380
31.94000 433.439
31.95000 445.056
31.96000 456.356
31.97000 456.096
31.98000 450.027
31.99000 444.243
32.00000 433.087
32.01000 421.068
32.02000 410.299
32.03000 409.867
32.04000 411.738
32.05000 413.548
32.06000 415.048
32.07000 416.505
32.08000 417.645
32.09000 412.500
32.10000 407.987
32.11000 404.963
32.12000 405.272
32.13000 405.704
32.14000 403.592
32.15000 397.687
32.16000 391.746
32.17000 393.040
32.18000 401.264
32.19000 409.367
32.20000 408.420
32.21000 401.852
32.22000 395.527
32.23000 394.748
32.24000 396.272
32.25000 397.696
32.26000 394.719
32.27000 390.910
32.28000 388.060
32.29000 391.446
32.30000 395.956
32.31000 398.846
32.32000 395.021
32.33000 390.460
32.34000 387.065
32.35000 389.755
32.36000 392.122
32.37000 392.538
32.38000 389.348
32.39000 386.079
32.40000 383.570
32.41000 381.984
32.42000 380.405
32.43000 383.403
32.44000 389.909
32.45000 396.196
32.46000 394.019
32.47000 387.509
32.48000 381.110
32.49000 376.440
32.50000 372.364
32.51000 368.645
32.52000 373.839
32.53000 380.243
32.54000 385.786
32.55000 386.841
32.56000 387.252
32.57000 386.756
32.58000 383.179
32.59000 379.347
32.60000 376.653
32.61000 373.954
32.62000 371.909
32.63000 370.289
32.64000 369.316
32.65000 368.349
32.66000 371.152
32.67000 377.643
32.68000 384.086
32.69000 384.687
32.70000 381.642
32.71000 378.568
32.72000 374.838
32.73000 370.831
32.74000 367.239
32.75000 368.399
32.76000 370.904
32.77000 373.126
32.78000 375.149
32.79000 376.870
32.80000 379.797
32.81000 387.830
32.82000 396.436
32.83000 403.215
32.84000 404.863
32.85000 406.203
32.86000 407.086
32.87000 412.024
32.88000 415.731
32.89000 421.658
32.90000 430.341
32.91000 439.011
32.92000 441.661
32.93000 439.554
32.94000 437.480
32.95000 439.708
32.96000 444.039
32.97000 448.006
32.98000 446.073
32.99000 442.077
33.00000 438.552
33.01000 439.130
33.02000 440.659
33.03000 441.973
33.04000 436.954
33.05000 431.921
33.06000 424.193
33.07000 407.113
33.08000 389.237
33.09000 375.352
33.10000 370.733
33.11000 366.489
33.12000 363.898
33.13000 366.595
33.14000 368.568
33.15000 367.371
33.16000 363.004
33.17000 358.663
33.18000 356.658
33.19000 356.161
33.20000 355.677
33.21000 351.611
33.22000 346.273
33.23000 341.807
33.24000 347.596
33.25000 356.345
33.26000 363.280
33.27000 357.870
33.28000 350.139
33.29000 343.738
33.30000 348.939
33.31000 354.334
33.32000 357.698
33.33000 355.254
33.34000 352.451
33.35000 350.193
33.36000 348.982
33.37000 347.798
33.38000 347.135
33.39000 345.323
33.40000 344.051
33.41000 337.432
33.42000 326.502
33.43000 316.011
33.44000 324.349
33.45000 342.697
33.46000 360.270
33.47000 356.095
33.48000 344.970
33.49000 335.279
33.50000 338.382
33.51000 344.511
33.52000 349.455
33.53000 347.955
33.54000 345.485
33.55000 343.525
33.56000 337.017
33.57000 331.458
33.58000 327.165
33.59000 325.866
33.60000 324.694
33.61000 325.302
33.62000 328.721
33.63000 332.176
33.64000 333.923
33.65000 340.241
33.66000 344.433
33.67000 345.112
33.68000 343.479
33.69000 341.909
33.70000 341.983
33.71000 342.780
33.72000 343.528
33.73000 338.949
33.74000 333.338
33.75000 328.800
33.76000 331.728
33.77000 336.091
33.78000 340.304
33.79000 343.861
33.80000 347.339
33.81000 349.970
33.82000 338.763
33.83000 329.279
33.84000 325.743
33.85000 333.837
33.86000 342.235
33.87000 345.620
33.88000 342.525
33.89000 339.408
33.90000 334.492
33.91000 328.118
33.92000 321.927
33.93000 324.114
33.94000 330.839
33.95000 337.153
33.96000 336.344
33.97000 332.947
33.98000 329.825
33.99000 335.345
34.00000 342.135
34.01000 346.974
34.02000 340.976
34.03000 333.311
34.04000 327.311
34.05000 327.317
34.06000 327.864
34.07000 328.255
34.08000 330.507
34.09000 332.290
34.10000 329.796
34.11000 320.413
34.12000 310.936
34.13000 312.806
34.14000 326.534
34.15000 340.186
34.16000 346.292
34.17000 347.318
34.18000 348.268
34.19000 347.147
34.20000 345.099
34.21000 342.410
34.22000 331.733
34.23000 318.661
34.24000 306.962
34.25000 307.908
34.26000 310.898
34.27000 314.745
34.28000 322.439
34.29000 330.599
34.30000 336.876
34.31000 337.560
34.32000 337.875
34.33000 338.086
34.34000 331.198
34.35000 325.937
34.36000 324.438
34.37000 327.904
34.38000 331.382
34.39000 329.571
34.40000 323.315
34.41000 317.140
34.42000 319.529
34.43000 326.452
34.44000 333.069
34.45000 334.186
34.46000 333.267
34.47000 331.757
34.48000 324.691
34.49000 316.257
34.50000 308.937
34.51000 302.431
34.52000 296.996
34.53000 294.084
34.54000 300.445
34.55000 307.665
34.56000 313.764
34.57000 317.115
34.58000 320.340
34.59000 322.355
34.60000 322.313
34.61000 322.261
34.62000 320.019
34.63000 315.438
34.64000 310.916
34.65000 313.268
34.66000 320.327
34.67000 327.219
34.68000 327.212
34.69000 324.198
34.70000 321.665
34.71000 325.320
34.72000 330.866
34.73000 335.281
34.74000 331.454
34.75000 325.976
34.76000 321.387
34.77000 322.450
34.78000 323.916
34.79000 323.660
34.80000 318.193
34.81000 312.369
34.82000 309.718
34.83000 313.508
34.84000 317.484
34.85000 319.771
34.86000 321.479
34.87000 322.668
34.88000 320.350
34.89000 315.025
34.90000 309.783
34.91000 308.847
34.92000 310.334
34.93000 311.766
34.94000 312.913
34.95000 313.890
34.96000 314.397
34.97000 310.383
34.98000 305.233
34.99000 302.036
35.00000 310.156
35.01000 320.098
35.02000 328.092
35.03000 326.947
35.04000 325.313
35.05000 323.537
35.06000 321.409
35.07000 319.264
35.08000 318.681
35.09000 320.716
35.10000 322.792
35.11000 323.876
35.12000 327.682
35.13000 330.223
35.14000 328.425
35.15000 323.598
35.16000 318.924
35.17000 318.767
35.18000 320.708
35.19000 322.544
35.20000 318.274
35.21000 312.604
35.22000 307.511
35.23000 306.735
35.24000 306.840
35.25000 306.324
35.26000 302.897
35.27000 299.100
35.28000 296.185
35.29000 299.120
35.30000 301.766
35.31000 303.521
35.32000 303.434
35.33000 303.292
35.34000 304.286
35.35000 306.840
35.36000 309.402
35.37000 312.879
35.38000 317.151
35.39000 321.364
35.40000 322.357
35.41000 321.504
35.42000 320.506
35.43000 316.705
35.44000 311.828
35.45000 307.313
35.46000 309.555
35.47000 313.124
35.48000 315.461
35.49000 310.495
35.50000 304.326
35.51000 299.802
35.52000 301.559
35.53000 303.931
35.54000 305.658
35.55000 304.320
35.56000 303.173
35.57000 303.908
35.58000 307.856
35.59000 311.859
35.60000 312.430
35.61000 309.178
35.62000 305.936
35.63000 305.499
35.64000 307.045
35.65000 308.612
35.66000 310.827
35.67000 313.348
35.68000 315.628
35.69000 314.604
35.70000 312.532
35.71000 310.662
35.72000 308.670
35.73000 306.898
35.74000 305.374
35.75000 305.038
35.76000 304.856
35.77000 305.441
35.78000 308.432
35.79000 311.599
35.80000 313.769
35.81000 310.977
35.82000 308.768
35.83000 307.048
35.84000 306.014
35.85000 304.986
35.86000 305.808
35.87000 308.284
35.88000 310.733
35.89000 314.334
35.90000 318.511
35.91000 322.503
35.92000 322.784
35.93000 321.614
35.94000 320.234
35.95000 316.729
35.96000 312.669
35.97000 309.112
35.98000 306.585
35.99000 304.564
36.00000 303.183
36.01000 304.288
36.02000 305.643
36.03000 306.650
36.04000 306.753
36.05000 306.809
36.06000 306.846
36.07000 303.401
36.08000 300.848
36.09000 297.327
36.10000 292.705
36.11000 288.132
36.12000 291.806
36.13000 301.471
36.14000 310.940
36.15000 311.467
36.16000 307.828
36.17000 304.223
36.18000 301.098
36.19000 298.128
36.20000 295.104
36.21000 291.657
36.22000 288.119
36.23000 285.123
36.24000 293.842
36.25000 302.451
36.26000 308.307
36.27000 305.340
36.28000 301.710
36.29000 298.978
36.30000 298.171
36.31000 297.430
36.32000 296.992
36.33000 293.104
36.34000 290.343
36.35000 293.659
36.36000 302.530
36.37000 311.261
36.38000 311.146
36.39000 305.762
36.40000 300.556
36.41000 300.183
36.42000 301.651
36.43000 302.690
36.44000 299.252
36.45000 294.623
36.46000 291.638
36.47000 298.833
36.48000 307.778
36.49000 315.062
36.50000 309.100
36.51000 303.112
36.52000 299.653
36.53000 302.884
36.54000 306.472
36.55000 308.325
36.56000 307.105
36.57000 305.826
36.58000 305.137
36.59000 302.743
36.60000 301.105
36.61000 299.552
36.62000 298.063
36.63000 296.595
36.64000 295.865
36.65000 295.497
36.66000 295.148
36.67000 297.103
36.68000 299.613
36.69000 301.286
36.70000 296.238
36.71000 289.729
36.72000 283.943
36.73000 281.756
36.74000 280.060
36.75000 278.741
36.76000 283.237
36.77000 287.177
36.78000 291.020
36.79000 294.651
36.80000 298.276
36.81000 300.950
36.82000 302.241
36.83000 303.521
36.84000 305.021
36.85000 306.727
36.86000 308.349
36.87000 304.260
36.88000 296.705
36.89000 289.568
36.90000 291.497
36.91000 297.110
36.92000 302.341
36.93000 306.065
36.94000 309.065
36.95000 311.671
36.96000 311.786
36.97000 311.463
36.98000 311.253
36.99000 311.496
37.00000 311.788
37.01000 312.004
37.02000 315.961
37.03000 319.191
37.04000 318.979
37.05000 312.548
37.06000 305.991
37.07000 306.762
37.08000 316.229
37.09000 325.686
37.10000 324.091
37.11000 314.206
37.12000 304.642
37.13000 306.616
37.14000 314.366
37.15000 321.575
37.16000 320.636
37.17000 316.962
37.18000 313.620
37.19000 308.741
37.20000 304.124
37.21000 300.158
37.22000 299.498
37.23000 299.301
37.24000 299.681
37.25000 301.983
37.26000 304.438
37.27000 306.152
37.28000 298.897
37.29000 293.169
37.30000 291.538
37.31000 295.993
37.32000 300.505
37.33000 301.484
37.34000 299.093
37.35000 296.722
37.36000 296.251
37.37000 296.943
37.38000 297.742
37.39000 300.972
37.40000 305.207
37.41000 308.770
37.42000 304.902
37.43000 298.979
37.44000 293.741
37.45000 295.049
37.46000 297.195
37.47000 299.342
37.48000 301.492
37.49000 303.643
37.50000 304.358
37.51000 301.131
37.52000 297.678
37.53000 295.423
37.54000 297.669
37.55000 299.389
37.56000 302.589
37.57000 307.579
37.58000 312.546
37.59000 310.894
37.60000 304.136
37.61000 297.494
37.62000 295.926
37.63000 296.914
37.64000 298.054
37.65000 301.566
37.66000 305.889
37.67000 309.584
37.68000 307.982
37.69000 305.181
37.70000 302.784
37.71000 296.751
37.72000 291.224
37.73000 286.876
37.74000 286.524
37.75000 286.500
37.76000 287.696
37.77000 291.660
37.78000 295.731
37.79000 298.193
37.80000 304.213
37.81000 308.529
37.82000 307.722
37.83000 301.921
37.84000 296.183
37.85000 295.462
37.86000 297.907
37.87000 300.281
37.88000 300.030
37.89000 298.741
37.90000 297.664
37.91000 298.988
37.92000 300.989
37.93000 302.664
37.94000 302.180
37.95000 301.300
37.96000 300.575
37.97000 301.026
37.98000 301.505
37.99000 302.224
38.00000 303.617
38.01000 305.049
38.02000 305.545
38.03000 304.286
38.04000 302.986
38.05000 302.267
38.06000 301.645
38.07000 301.212
38.08000 299.802
38.09000 297.622
38.10000 295.569
38.11000 298.640
38.12000 304.375
38.13000 309.856
38.14000 318.161
38.15000 326.805
38.16000 333.971
38.17000 328.354
38.18000 319.785
38.19000 311.915
38.20000 307.751
38.21000 304.128
38.22000 301.269
38.23000 314.488
38.24000 326.188
38.25000 332.636
38.26000 326.937
38.27000 320.749
38.28000 318.384
38.29000 321.922
38.30000 325.526
38.31000 330.343
38.32000 336.368
38.33000 342.395
38.34000 348.546
38.35000 354.776
38.36000 361.218
38.37000 372.835
38.38000 386.675
38.39000 399.653
38.40000 411.446
38.41000 421.874
38.42000 432.409
38.43000 443.663
38.44000 455.052
38.45000 470.044
38.46000 500.534
38.47000 532.800
38.48000 557.051
38.49000 592.259
38.50000 620.316
38.51000 654.423
38.52000 700.101
38.53000 746.062
38.54000 791.860
38.55000 837.452
38.56000 882.970
38.57000 933.712
38.58000 988.421
38.59000 1043.323
38.60000 1106.410
38.61000 1173.833
38.62000 1239.651
38.63000 1278.768
38.64000 1308.400
38.65000 1335.555
38.66000 1398.665
38.67000 1462.410
38.68000 1519.230
38.69000 1538.563
38.70000 1552.280
38.71000 1564.763
38.72000 1572.905
38.73000 1580.667
38.74000 1586.184
38.75000 1589.071
38.76000 1591.185
38.77000 1581.387
38.78000 1552.834
38.79000 1524.051
38.80000 1491.881
38.81000 1456.263
38.82000 1420.870
38.83000 1364.814
38.84000 1296.211
38.85000 1227.829
38.86000 1165.114
38.87000 1104.880
38.88000 1045.515
38.89000 996.617
38.90000 950.787
38.91000 909.905
38.92000 846.402
38.93000 787.382
38.94000 733.623
38.95000 702.948
38.96000 674.986
38.97000 642.861
38.98000 598.649
38.99000 553.668
39.00000 523.688
39.01000 496.323
39.02000 476.114
39.03000 457.827
39.04000 442.015
39.05000 426.211
39.06000 409.954
39.07000 393.326
39.08000 376.935
39.09000 367.432
39.10000 361.814
39.11000 355.869
39.12000 344.294
39.13000 330.681
39.14000 317.535
39.15000 308.640
39.16000 300.767
39.17000 293.961
39.18000 299.842
39.19000 306.490
39.20000 309.993
39.21000 302.195
39.22000 293.384
39.23000 287.921
39.24000 290.496
39.25000 293.424
39.26000 295.237
39.27000 299.112
39.28000 301.918
39.29000 300.390
39.30000 294.349
39.31000 288.366
39.32000 288.406
39.33000 292.474
39.34000 296.440
39.35000 295.396
39.36000 292.266
39.37000 289.063
39.38000 284.942
39.39000 280.547
39.40000 276.755
39.41000 277.247
39.42000 278.575
39.43000 279.682
39.44000 278.607
39.45000 277.498
39.46000 275.693
39.47000 271.828
39.48000 267.827
39.49000 265.681
39.50000 267.218
39.51000 268.854
39.52000 269.785
39.53000 276.917
39.54000 281.903
39.55000 285.202
39.56000 287.086
39.57000 288.866
39.58000 285.615
39.59000 279.598
39.60000 273.817
39.61000 276.451
39.62000 281.820
39.63000 286.560
39.64000 285.409
39.65000 282.815
39.66000 280.508
39.67000 279.828
39.68000 279.404
39.69000 279.064
39.70000 275.320
39.71000 272.040
39.72000 269.242
39.73000 267.623
39.74000 266.058
39.75000 264.912
39.76000 264.449
39.77000 263.997
39.78000 263.764
39.79000 264.553
39.80000 265.084
39.81000 265.499
39.82000 265.836
39.83000 266.178
39.84000 266.678
39.85000 267.249
39.86000 267.788
39.87000 272.617
39.88000 278.240
39.89000 281.743
39.90000 269.843
39.91000 254.871
39.92000 243.682
39.93000 249.776
39.94000 258.004
39.95000 264.282
39.96000 269.084
39.97000 272.789
39.98000 273.095
39.99000 266.528
40.00000 259.762
40.01000 255.854
40.02000 255.775
40.03000 255.716
40.04000 259.841
40.05000 267.525
40.06000 275.041
40.07000 273.977
40.08000 268.104
40.09000 262.369
40.10000 259.185
40.11000 256.959
40.12000 254.905
40.13000 257.689
40.14000 261.270
40.15000 264.661
40.16000 266.953
40.17000 269.069
40.18000 270.369
40.19000 268.622
40.20000 266.587
40.21000 265.116
40.22000 260.874
40.23000 257.518
40.24000 257.107
40.25000 261.608
40.26000 266.186
40.27000 263.779
40.28000 253.784
40.29000 243.832
40.30000 243.725
40.31000 250.391
40.32000 256.918
40.33000 259.368
40.34000 259.929
40.35000 260.523
40.36000 261.543
40.37000 262.694
40.38000 263.730
40.39000 264.306
40.40000 264.728
40.41000 264.446
40.42000 260.882
40.43000 256.903
40.44000 255.057
40.45000 259.763
40.46000 264.928
40.47000 268.440
40.48000 260.837
40.49000 254.909
40.50000 251.823
40.51000 252.621
40.52000 253.439
40.53000 251.842
40.54000 248.137
40.55000 244.475
40.56000 242.373
40.57000 241.193
40.58000 240.025
40.59000 239.101
40.60000 238.271
40.61000 237.841
40.62000 241.356
40.63000 245.878
40.64000 249.825
40.65000 252.916
40.66000 255.440
40.67000 257.337
40.68000 256.843
40.69000 256.117
40.70000 254.942
40.71000 252.629
40.72000 250.260
40.73000 248.760
40.74000 244.893
40.75000 242.060
40.76000 242.382
40.77000 246.205
40.78000 250.016
40.79000 251.697
40.80000 251.866
40.81000 252.031
40.82000 250.476
40.83000 248.204
40.84000 246.114
40.85000 246.489
40.86000 247.645
40.87000 248.738
40.88000 249.359
40.89000 249.883
40.90000 250.324
40.91000 246.538
40.92000 242.919
40.93000 239.796
40.94000 238.225
40.95000 236.766
40.96000 236.261
40.97000 237.760
40.98000 239.324
40.99000 240.236
41.00000 237.819
41.01000 236.105
41.02000 237.781
41.03000 242.477
41.04000 247.186
41.05000 252.600
41.06000 258.426
41.07000 264.048
41.08000 256.681
41.09000 244.976
41.10000 234.536
41.11000 236.914
41.12000 242.624
41.13000 247.014
41.14000 243.436
41.15000 238.523
41.16000 234.542
41.17000 240.728
41.18000 246.596
41.19000 249.887
41.20000 246.515
41.21000 242.803
41.22000 242.212
41.23000 247.033
41.24000 251.951
41.25000 254.564
41.26000 253.753
41.27000 253.184
41.28000 250.226
41.29000 245.539
41.30000 240.911
41.31000 238.185
41.32000 236.374
41.33000 234.655
41.34000 240.982
41.35000 249.210
41.36000 256.258
41.37000 254.101
41.38000 249.991
41.39000 246.428
41.40000 245.520
41.41000 244.965
41.42000 244.535
41.43000 244.290
41.44000 244.106
41.45000 243.893
41.46000 243.614
41.47000 243.333
41.48000 242.383
41.49000 240.480
41.50000 238.571
41.51000 237.812
41.52000 238.101
41.53000 238.464
41.54000 243.436
41.55000 251.144
41.56000 258.299
41.57000 254.003
41.58000 245.157
41.59000 236.936
41.60000 235.078
41.61000 234.923
41.62000 234.667
41.63000 233.781
41.64000 232.787
41.65000 232.768
41.66000 236.602
41.67000 240.833
41.68000 243.944
41.69000 247.779
41.70000 250.776
41.71000 249.024
41.72000 238.885
41.73000 228.587
41.74000 226.860
41.75000 235.053
41.76000 243.232
41.77000 242.879
41.78000 236.278
41.79000 229.817
41.80000 228.092
41.81000 228.685
41.82000 229.609
41.83000 235.323
41.84000 242.610
41.85000 249.218
41.86000 242.622
41.87000 234.280
41.88000 227.388
41.89000 227.688
41.90000 228.966
41.91000 229.886
41.92000 229.641
41.93000 229.306
41.94000 229.074
41.95000 228.907
41.96000 228.783
41.97000 231.428
41.98000 238.091
41.99000 244.786
42.00000 247.687
42.01000 247.061
42.02000 246.441
42.03000 240.337
42.04000 231.104
42.05000 222.210
42.06000 220.631
42.07000 222.014
42.08000 223.686
42.09000 228.456
42.10000 234.063
42.11000 239.004
42.12000 234.714
42.13000 229.626
42.14000 225.969
42.15000 228.087
42.16000 230.814
42.17000 232.631
42.18000 232.005
42.19000 231.243
42.20000 230.750
42.21000 229.915
42.22000 229.298
42.23000 228.427
42.24000 227.254
42.25000 226.086
42.26000 226.040
42.27000 226.839
42.28000 227.623
42.29000 226.746
42.30000 225.102
42.31000 223.523
42.32000 222.921
42.33000 222.648
42.34000 222.852
42.35000 226.981
42.36000 231.976
42.37000 236.233
42.38000 239.836
42.39000 242.790
42.40000 244.428
42.41000 241.705
42.42000 238.635
42.43000 235.324
42.44000 231.474
42.45000 227.604
42.46000 225.286
42.47000 230.493
42.48000 234.238
42.49000 233.532
42.50000 228.597
42.51000 223.796
42.52000 228.759
42.53000 239.744
42.54000 250.392
42.55000 247.191
42.56000 238.750
42.57000 230.944
42.58000 230.124
42.59000 231.230
42.60000 231.688
42.61000 227.966
42.62000 223.497
42.63000 219.831
42.64000 224.854
42.65000 229.748
42.66000 233.529
42.67000 234.264
42.68000 234.825
42.69000 233.009
42.70000 226.833
42.71000 220.562
42.72000 217.131
42.73000 222.712
42.74000 226.545
42.75000 226.139
42.76000 222.476
42.77000 218.899
42.78000 218.577
42.79000 219.909
42.80000 221.179
42.81000 221.491
42.82000 221.477
42.83000 221.612
42.84000 223.006
42.85000 224.682
42.86000 226.500
42.87000 229.044
42.88000 231.691
42.89000 233.770
42.90000 223.856
42.91000 215.141
42.92000 209.854
42.93000 212.325
42.94000 215.093
42.95000 218.255
42.96000 222.013
42.97000 225.777
42.98000 225.875
42.99000 222.415
43.00000 219.014
43.01000 220.191
43.02000 224.247
43.03000 228.151
43.04000 228.523
43.05000 227.411
43.06000 226.371
43.07000 225.421
43.08000 224.581
43.09000 224.158
43.10000 226.479
43.11000 229.302
43.12000 232.075
43.13000 234.635
43.14000 237.172
43.15000 239.068
43.16000 235.501
43.17000 232.469
43.18000 229.000
43.19000 224.715
43.20000 220.411
43.21000 219.142
43.22000 221.611
43.23000 224.085
43.24000 225.940
43.25000 227.304
43.26000 228.593
43.27000 226.959
43.28000 223.810
43.29000 220.879
43.30000 221.417
43.31000 223.161
43.32000 224.754
43.33000 223.907
43.34000 222.657
43.35000 221.901
43.36000 223.758
43.37000 225.997
43.38000 227.100
43.39000 224.295
43.40000 221.160
43.41000 218.948
43.42000 217.047
43.43000 215.614
43.44000 215.371
43.45000 216.959
43.46000 218.567
43.47000 221.359
43.48000 225.327
43.49000 229.266
43.50000 228.744
43.51000 225.416
43.52000 222.241
43.53000 222.775
43.54000 224.897
43.55000 226.796
43.56000 226.097
43.57000 224.654
43.58000 223.372
43.59000 221.415
43.60000 219.608
43.61000 218.415
43.62000 219.848
43.63000 221.581
43.64000 221.913
43.65000 218.263
43.66000 214.370
43.67000 211.796
43.68000 216.192
43.69000 219.560
43.70000 220.950
43.71000 219.855
43.72000 218.742
43.73000 214.188
43.74000 206.882
43.75000 199.687
43.76000 202.042
43.77000 209.211
43.78000 216.128
43.79000 218.902
43.80000 220.207
43.81000 221.127
43.82000 218.634
43.83000 215.339
43.84000 212.502
43.85000 215.306
43.86000 218.394
43.87000 220.726
43.88000 220.403
43.89000 219.850
43.90000 219.643
43.91000 220.250
43.92000 220.891
43.93000 221.285
43.94000 221.234
43.95000 221.194
43.96000 221.823
43.97000 223.131
43.98000 224.409
43.99000 222.871
44.00000 219.492
44.01000 216.203
44.02000 218.128
44.03000 222.128
44.04000 225.854
44.05000 226.316
44.06000 225.825
44.07000 224.928
44.08000 221.223
44.09000 216.983
44.10000 213.464
44.11000 219.279
44.12000 224.987
44.13000 227.189
44.14000 219.245
44.15000 210.658
44.16000 206.444
44.17000 210.715
44.18000 215.204
44.19000 217.731
44.20000 212.859
44.21000 209.476
44.22000 213.882
44.23000 224.649
44.24000 235.132
44.25000 232.985
44.26000 224.046
44.27000 215.475
44.28000 213.124
44.29000 213.024
44.30000 212.917
44.31000 212.749
44.32000 212.567
44.33000 213.055
44.34000 217.237
44.35000 221.982
44.36000 225.759
44.37000 225.612
44.38000 225.212
44.39000 223.306
44.40000 217.801
44.41000 212.140
44.42000 208.996
44.43000 209.877
44.44000 210.812
44.45000 211.288
44.46000 217.469
44.47000 221.594
44.48000 223.657
44.49000 224.344
44.50000 224.929
44.51000 222.789
44.52000 219.440
44.53000 216.287
44.54000 216.092
44.55000 216.718
44.56000 217.514
44.57000 219.508
44.58000 221.735
44.59000 224.342
44.60000 228.650
44.61000 233.160
44.62000 236.582
44.63000 226.092
44.64000 217.137
44.65000 213.643
44.66000 220.952
44.67000 228.554
44.68000 232.598
44.69000 231.986
44.70000 231.355
44.71000 230.504
44.72000 229.473
44.73000 228.409
44.74000 225.766
44.75000 222.259
44.76000 219.182
44.77000 223.728
44.78000 231.076
44.79000 237.839
44.80000 230.801
44.81000 221.494
44.82000 214.227
44.83000 218.434
44.84000 224.433
44.85000 231.051
44.86000 239.930
44.87000 249.015
44.88000 255.540
44.89000 260.594
44.90000 264.409
44.91000 265.855
44.92000 263.438
44.93000 260.966
44.94000 261.172
44.95000 264.213
44.96000 267.239
44.97000 270.348
44.98000 273.474
44.99000 276.672
45.00000 281.868
45.01000 287.968
45.02000 293.826
45.03000 296.607
45.04000 298.454
45.05000 300.109
45.06000 288.858
45.07000 276.786
45.08000 268.360
45.09000 276.523
45.10000 286.724
45.11000 294.591
45.12000 295.443
45.13000 295.820
45.14000 296.075
45.15000 291.482
45.16000 287.961
45.17000 284.204
45.18000 280.129
45.19000 276.059
45.20000 275.845
45.21000 278.913
45.22000 281.943
45.23000 277.067
45.24000 268.018
45.25000 259.569
45.26000 262.165
45.27000 268.896
45.28000 274.945
45.29000 274.478
45.30000 272.387
45.31000 270.569
45.32000 265.761
45.33000 261.252
45.34000 256.726
45.35000 252.138
45.36000 247.544
45.37000 244.196
45.38000 243.941
45.39000 243.831
45.40000 243.762
45.41000 249.175
45.42000 253.147
45.43000 253.677
45.44000 250.483
45.45000 247.315
45.46000 247.690
45.47000 250.520
45.48000 253.285
45.49000 257.747
45.50000 262.768
45.51000 267.193
45.52000 263.794
45.53000 257.976
45.54000 251.869
45.55000 243.627
45.56000 234.952
45.57000 227.670
45.58000 229.239
45.59000 231.473
45.60000 234.179
45.61000 238.325
45.62000 242.572
45.63000 244.397
45.64000 241.248
45.65000 237.949
45.66000 236.042
45.67000 237.923
45.68000 239.254
45.69000 238.460
45.70000 235.820
45.71000 233.218
45.72000 232.645
45.73000 233.228
45.74000 233.789
45.75000 229.922
45.76000 224.702
45.77000 220.291
45.78000 223.805
45.79000 229.332
45.80000 234.027
45.81000 233.830
45.82000 232.835
45.83000 232.033
45.84000 229.636
45.85000 227.564
45.86000 226.053
45.87000 225.962
45.88000 225.941
45.89000 225.005
45.90000 222.521
45.91000 220.011
45.92000 218.693
45.93000 219.942
45.94000 220.782
45.95000 220.654
45.96000 219.840
45.97000 219.017
45.98000 217.891
45.99000 216.623
46.00000 215.422
46.01000 213.656
46.02000 211.867
46.03000 211.041
46.04000 217.522
46.05000 225.517
46.06000 230.210
46.07000 219.251
46.08000 206.272
46.09000 196.280
46.10000 200.834
46.11000 205.267
46.12000 209.294
46.13000 212.471
46.14000 215.621
46.15000 216.574
46.16000 214.473
46.17000 212.352
46.18000 214.023
46.19000 219.053
46.20000 223.932
46.21000 220.187
46.22000 211.437
46.23000 202.902
46.24000 198.605
46.25000 195.955
46.26000 193.499
46.27000 199.292
46.28000 206.430
46.29000 212.032
46.30000 208.411
46.31000 203.251
46.32000 199.236
46.33000 199.650
46.34000 200.506
46.35000 201.131
46.36000 205.221
46.37000 208.510
46.38000 209.589
46.39000 206.854
46.40000 204.052
46.41000 203.213
46.42000 204.588
46.43000 205.960
46.44000 206.144
46.45000 205.478
46.46000 204.841
46.47000 205.142
46.48000 205.892
46.49000 206.582
46.50000 206.428
46.51000 206.005
46.52000 205.621
46.53000 201.858
46.54000 197.918
46.55000 193.707
46.56000 188.182
46.57000 182.484
46.58000 179.598
46.59000 185.652
46.60000 192.370
46.61000 196.990
46.62000 197.837
46.63000 198.379
46.64000 199.828
46.65000 202.562
46.66000 205.306
46.67000 207.156
46.68000 208.197
46.69000 209.227
46.70000 209.278
46.71000 208.762
46.72000 208.084
46.73000 204.082
46.74000 198.764
46.75000 193.705
46.76000 191.327
46.77000 189.657
46.78000 188.192
46.79000 201.273
46.80000 214.645
46.81000 224.342
46.82000 219.544
46.83000 213.264
46.84000 208.754
46.85000 208.896
46.86000 209.282
46.87000 209.530
46.88000 201.390
46.89000 195.340
46.90000 194.032
46.91000 198.191
46.92000 202.344
46.93000 204.294
46.94000 204.622
46.95000 204.944
46.96000 203.717
46.97000 201.809
46.98000 199.899
46.99000 197.960
47.00000 196.011
47.01000 194.300
47.02000 194.486
47.03000 195.082
47.04000 195.587
47.05000 195.609
47.06000 195.573
47.07000 195.134
47.08000 193.392
47.09000 191.551
47.10000 191.140
47.11000 193.837
47.12000 196.642
47.13000 198.305
47.14000 196.908
47.15000 195.902
47.16000 193.727
47.17000 190.470
47.18000 187.211
47.19000 183.766
47.20000 180.210
47.21000 176.769
47.22000 176.983
47.23000 178.578
47.24000 180.294
47.25000 183.287
47.26000 186.623
47.27000 189.636
47.28000 190.620
47.29000 191.250
47.30000 191.765
47.31000 188.603
47.32000 185.700
47.33000 184.735
47.34000 188.955
47.35000 193.459
47.36000 195.509
47.37000 193.156
47.38000 190.715
47.39000 189.394
47.40000 186.515
47.41000 184.554
47.42000 184.980
47.43000 187.197
47.44000 189.423
47.45000 192.008
47.46000 194.771
47.47000 197.401
47.48000 194.092
47.49000 189.195
47.50000 185.058
47.51000 187.116
47.52000 190.539
47.53000 192.963
47.54000 190.348
47.55000 187.035
47.56000 184.447
47.57000 188.410
47.58000 191.983
47.59000 193.134
47.60000 188.927
47.61000 184.526
47.62000 181.141
47.63000 179.255
47.64000 177.383
47.65000 178.892
47.66000 183.598
47.67000 188.252
47.68000 189.102
47.69000 187.614
47.70000 186.204
47.71000 186.493
47.72000 187.482
47.73000 188.405
47.74000 188.199
47.75000 187.732
47.76000 187.233
47.77000 186.522
47.78000 185.774
47.79000 185.001
47.80000 184.128
47.81000 183.245
47.82000 182.589
47.83000 184.368
47.84000 185.857
47.85000 186.695
47.86000 186.342
47.87000 185.965
47.88000 186.148
47.89000 187.004
47.90000 187.860
47.91000 190.352
47.92000 194.075
47.93000 197.633
47.94000 195.039
47.95000 189.328
47.96000 183.934
47.97000 183.404
47.98000 184.526
47.99000 185.549
48.00000 186.042
48.01000 186.374
48.02000 186.932
48.03000 188.660
48.04000 190.554
48.05000 192.256
48.06000 193.315
48.07000 194.321
48.08000 195.026
48.09000 192.014
48.10000 189.629
48.11000 187.130
48.12000 184.459
48.13000 181.787
48.14000 183.582
48.15000 189.695
48.16000 195.760
48.17000 196.689
48.18000 194.441
48.19000 192.050
48.20000 186.370
48.21000 179.312
48.22000 173.367
48.23000 179.931
48.24000 189.996
48.25000 198.913
48.26000 192.025
48.27000 183.576
48.28000 176.554
48.29000 175.500
48.30000 175.106
48.31000 175.858
48.32000 179.794
48.33000 183.917
48.34000 186.621
48.35000 181.242
48.36000 177.152
48.37000 177.470
48.38000 183.195
48.39000 188.914
48.40000 189.548
48.41000 186.208
48.42000 182.923
48.43000 178.683
48.44000 174.104
48.45000 169.998
48.46000 173.397
48.47000 179.394
48.48000 184.774
48.49000 184.859
48.50000 183.731
48.51000 182.764
48.52000 177.568
48.53000 172.660
48.54000 169.540
48.55000 172.556
48.56000 176.085
48.57000 179.029
48.58000 180.630
48.59000 182.176
48.60000 183.117
48.61000 173.230
48.62000 166.089
48.63000 165.998
48.64000 172.874
48.65000 179.707
48.66000 182.874
48.67000 183.701
48.68000 184.504
48.69000 183.846
48.70000 182.628
48.71000 181.581
48.72000 182.509
48.73000 184.000
48.74000 185.231
48.75000 184.718
48.76000 183.880
48.77000 183.188
48.78000 183.511
48.79000 183.873
48.80000 182.810
48.81000 177.716
48.82000 172.377
48.83000 170.724
48.84000 176.068
48.85000 181.579
48.86000 184.648
48.87000 183.353
48.88000 182.448
48.89000 181.282
48.90000 179.910
48.91000 178.529
48.92000 176.810
48.93000 174.913
48.94000 173.097
48.95000 170.230
48.96000 167.214
48.97000 165.162
48.98000 171.583
48.99000 179.986
49.00000 187.124
49.01000 187.467
49.02000 186.800
49.03000 186.272
49.04000 187.545
49.05000 188.693
49.06000 188.044
49.07000 183.192
49.08000 178.166
49.09000 176.099
49.10000 178.655
49.11000 181.266
49.12000 182.578
49.13000 180.037
49.14000 178.315
49.15000 174.398
49.16000 169.051
49.17000 163.933
49.18000 164.579
49.19000 167.730
49.20000 170.688
49.21000 174.161
49.22000 177.464
49.23000 180.603
49.24000 182.615
49.25000 184.414
49.26000 185.184
49.27000 181.475
49.28000 177.245
49.29000 174.056
49.30000 172.466
49.31000 171.300
49.32000 169.640
49.33000 167.024
49.34000 164.384
49.35000 163.879
49.36000 166.102
49.37000 168.332
49.38000 168.601
49.39000 167.280
49.40000 166.034
49.41000 168.124
49.42000 172.001
49.43000 175.867
49.44000 179.550
49.45000 183.166
49.46000 186.486
49.47000 183.678
49.48000 179.872
49.49000 175.933
49.50000 171.271
49.51000 166.499
49.52000 163.860
49.53000 168.831
49.54000 174.476
49.55000 178.502
49.56000 174.719
49.57000 171.579
49.58000 172.389
49.59000 179.495
49.60000 186.683
49.61000 189.127
49.62000 186.676
49.63000 184.239
49.64000 178.534
49.65000 170.768
49.66000 163.372
49.67000 165.698
49.68000 172.330
49.69000 178.350
49.70000 176.878
49.71000 173.184
49.72000 169.884
49.73000 175.121
49.74000 181.127
49.75000 185.122
49.76000 180.186
49.77000 174.184
49.78000 169.348
49.79000 167.935
49.80000 166.744
49.81000 165.948
49.82000 170.067
49.83000 173.219
49.84000 174.699
49.85000 174.000
49.86000 173.291
49.87000 172.687
49.88000 172.169
49.89000 171.658
49.90000 169.093
49.91000 165.508
49.92000 162.214
49.93000 164.041
49.94000 167.744
49.95000 171.377
49.96000 174.369
49.97000 177.206
49.98000 179.663
49.99000 177.246
50.00000 174.546
50.01000 172.425
50.02000 172.409
50.03000 172.585
50.04000 172.861
50.05000 173.380
50.06000 173.909
50.07000 174.238
50.08000 178.044
50.09000 180.821
50.10000 180.105
50.11000 175.705
50.12000 171.376
50.13000 174.930
50.14000 183.820
50.15000 192.492
50.16000 188.213
50.17000 178.540
50.18000 169.622
50.19000 170.243
50.20000 173.748
50.21000 176.738
50.22000 176.024
50.23000 174.576
50.24000 173.365
50.25000 171.288
50.26000 169.475
50.27000 169.787
50.28000 176.460
50.29000 183.560
50.30000 188.188
50.31000 187.854
50.32000 187.379
50.33000 187.108
50.34000 184.682
50.35000 182.982
50.36000 182.034
50.37000 181.725
50.38000 181.356
50.39000 178.027
50.40000 173.051
50.41000 168.266
50.42000 171.244
50.43000 176.749
50.44000 181.994
50.45000 184.772
50.46000 186.937
50.47000 188.958
50.48000 190.150
50.49000 191.210
50.50000 192.061
50.51000 195.905
50.52000 199.245
50.53000 200.883
50.54000 198.308
50.55000 195.536
50.56000 195.441
50.57000 199.778
50.58000 204.182
50.59000 206.467
50.60000 205.557
50.61000 204.952
50.62000 205.600
50.63000 207.112
50.64000 208.648
50.65000 210.877
50.66000 213.424
50.67000 215.830
50.68000 213.723
50.69000 210.514
50.70000 207.524
50.71000 206.149
50.72000 205.101
50.73000 205.052
50.74000 209.630
50.75000 214.789
50.76000 218.737
50.77000 212.136
50.78000 206.349
50.79000 205.239
50.80000 213.696
50.81000 222.437
50.82000 226.998
50.83000 225.884
50.84000 224.740
50.85000 220.054
50.86000 212.315
50.87000 204.633
50.88000 199.958
50.89000 196.987
50.90000 194.122
50.91000 193.251
50.92000 193.139
50.93000 193.035
50.94000 195.955
50.95000 199.264
50.96000 201.656
50.97000 198.680
50.98000 194.832
50.99000 190.463
51.00000 184.125
51.01000 177.598
51.02000 172.861
51.03000 174.093
51.04000 175.262
51.05000 179.236
51.06000 187.946
51.07000 196.732
51.08000 197.577
51.09000 189.680
51.10000 181.812
51.11000 180.808
51.12000 184.597
51.13000 188.198
51.14000 186.139
51.15000 181.430
51.16000 177.000
51.17000 176.325
51.18000 176.829
51.19000 177.283
51.20000 176.708
51.21000 176.018
51.22000 175.881
51.23000 178.359
51.24000 181.173
51.25000 183.153
51.26000 182.537
51.27000 181.736
51.28000 181.189
51.29000 177.809
51.30000 175.215
51.31000 174.717
51.32000 177.120
51.33000 179.541
51.34000 180.962
51.35000 181.497
51.36000 182.027
51.37000 176.864
51.38000 168.608
51.39000 160.896
51.40000 163.884
51.41000 171.016
51.42000 177.293
51.43000 175.006
51.44000 170.508
51.45000 166.574
51.46000 167.275
51.47000 168.536
51.48000 168.956
51.49000 166.136
51.50000 162.995
51.51000 161.070
51.52000 162.267
51.53000 163.622
51.54000 164.484
51.55000 161.793
51.56000 159.792
51.57000 161.309
51.58000 166.780
51.59000 172.218
51.60000 171.989
51.61000 167.691
51.62000 163.483
51.63000 159.845
51.64000 156.611
51.65000 153.758
51.66000 156.177
51.67000 160.283
51.68000 163.801
51.69000 162.775
51.70000 160.793
51.71000 159.118
51.72000 163.972
51.73000 168.749
51.74000 171.842
51.75000 169.598
51.76000 166.959
51.77000 164.632
51.78000 162.968
51.79000 161.326
51.80000 160.361
51.81000 161.582
51.82000 162.451
51.83000 159.055
51.84000 151.810
51.85000 144.702
51.86000 145.978
51.87000 152.193
51.88000 158.198
51.89000 162.036
51.90000 164.849
51.91000 167.090
51.92000 163.443
51.93000 158.247
51.94000 154.030
51.95000 155.801
51.96000 158.590
51.97000 160.855
51.98000 163.331
51.99000 165.368
52.00000 165.929
52.01000 162.628
52.02000 159.125
52.03000 158.401
52.04000 162.551
52.05000 166.791
52.06000 169.059
52.07000 171.153
52.08000 172.556
52.09000 169.666
52.10000 163.632
52.11000 157.748
52.12000 156.853
52.13000 158.383
52.14000 159.837
52.15000 156.642
52.16000 152.291
52.17000 148.411
52.18000 148.262
52.19000 148.914
52.20000 149.927
52.21000 152.713
52.22000 155.738
52.23000 158.088
52.24000 159.366
52.25000 160.318
52.26000 161.144
52.27000 161.700
52.28000 162.246
52.29000 163.209
52.30000 164.772
52.31000 166.339
52.32000 167.080
52.33000 167.059
52.34000 167.011
52.35000 165.189
52.36000 162.300
52.37000 159.509
52.38000 158.805
52.39000 158.939
52.40000 159.064
52.41000 160.263
52.42000 161.606
52.43000 162.947
52.44000 164.265
52.45000 165.580
52.46000 166.808
52.47000 167.695
52.48000 168.545
52.49000 169.172
52.50000 165.738
52.51000 162.907
52.52000 161.235
52.53000 161.633
52.54000 162.072
52.55000 161.436
52.56000 159.540
52.57000 157.647
52.58000 159.257
52.59000 163.454
52.60000 167.505
52.61000 166.441
52.62000 162.844
52.63000 159.416
52.64000 158.489
52.65000 158.394
52.66000 158.308
52.67000 160.031
52.68000 161.903
52.69000 163.042
52.70000 160.496
52.71000 157.441
52.72000 155.440
52.73000 156.910
52.74000 158.653
52.75000 159.865
52.76000 157.058
52.77000 154.833
52.78000 155.161
52.79000 159.241
52.80000 163.353
52.81000 161.106
52.82000 152.867
52.83000 144.701
52.84000 144.956
52.85000 150.264
52.86000 155.381
52.87000 156.282
52.88000 155.457
52.89000 154.793
52.90000 155.881
52.91000 157.448
52.92000 158.832
52.93000 154.523
52.94000 149.934
52.95000 146.738
52.96000 149.234
52.97000 152.340
52.98000 155.565
52.99000 159.113
53.00000 162.678
53.01000 164.997
53.02000 160.365
53.03000 156.863
53.04000 154.778
53.05000 154.388
53.06000 154.006
53.07000 154.758
53.08000 156.373
53.09000 157.960
53.10000 155.729
53.11000 151.715
53.12000 148.248
53.13000 153.128
53.14000 160.835
53.15000 167.423
53.16000 164.709
53.17000 159.914
53.18000 155.818
53.19000 161.232
53.20000 166.924
53.21000 170.843
53.22000 168.813
53.23000 166.303
53.24000 162.940
53.25000 157.664
53.26000 152.316
53.27000 149.097
53.28000 156.719
53.29000 162.216
53.30000 164.514
53.31000 163.731
53.32000 162.913
53.33000 159.437
53.34000 154.302
53.35000 149.320
53.36000 152.203
53.37000 158.048
53.38000 163.634
53.39000 166.317
53.40000 168.191
53.41000 169.870
53.42000 170.272
53.43000 170.442
53.44000 170.583
53.45000 165.780
53.46000 161.387
53.47000 158.310
53.48000 158.876
53.49000 159.656
53.50000 161.724
53.51000 166.186
53.52000 170.702
53.53000 173.188
53.54000 164.342
53.55000 158.251
53.56000 157.816
53.57000 161.783
53.58000 165.608
53.59000 163.951
53.60000 159.473
53.61000 155.197
53.62000 155.601
53.63000 157.478
53.64000 159.436
53.65000 162.092
53.66000 164.907
53.67000 167.034
53.68000 165.560
53.69000 163.565
53.70000 161.994
53.71000 161.630
53.72000 161.419
53.73000 159.395
53.74000 153.220
53.75000 146.882
53.76000 145.052
53.77000 150.106
53.78000 155.234
53.79000 157.732
53.80000 157.643
53.81000 157.549
53.82000 157.003
53.83000 156.170
53.84000 155.298
53.85000 153.477
53.86000 151.255
53.87000 149.172
53.88000 153.150
53.89000 158.335
53.90000 162.787
53.91000 162.343
53.92000 160.992
53.93000 159.006
53.94000 154.322
53.95000 149.333
53.96000 145.595
53.97000 149.703
53.98000 153.280
53.99000 154.719
54.00000 152.116
54.01000 149.418
54.02000 148.864
54.03000 150.986
54.04000 153.111
54.05000 153.358
54.06000 152.117
54.07000 150.940
54.08000 152.352
54.09000 155.123
54.10000 157.779
54.11000 158.581
54.12000 158.731
54.13000 158.868
54.14000 162.896
54.15000 167.285
54.16000 170.201
54.17000 165.241
54.18000 159.116
54.19000 155.265
54.20000 159.342
54.21000 164.099
54.22000 167.468
54.23000 162.285
54.24000 158.079
54.25000 156.347
54.26000 158.468
54.27000 160.635
54.28000 162.443
54.29000 163.892
54.30000 165.332
54.31000 167.536
54.32000 170.194
54.33000 172.719
54.34000 171.897
54.35000 169.624
54.36000 167.150
54.37000 162.284
54.38000 156.725
54.39000 151.775
54.40000 153.587
54.41000 156.273
54.42000 157.775
54.43000 154.142
54.44000 149.913
54.45000 147.444
54.46000 150.031
54.47000 152.933
54.48000 154.859
54.49000 152.962
54.50000 151.490
54.51000 151.169
54.52000 152.315
54.53000 153.469
54.54000 155.835
54.55000 159.184
54.56000 162.484
54.57000 162.491
54.58000 160.791
54.59000 159.169
54.60000 158.857
54.61000 159.014
54.62000 159.174
54.63000 159.356
54.64000 159.544
54.65000 159.707
54.66000 160.419
54.67000 161.093
54.68000 161.294
54.69000 159.809
54.70000 158.175
54.71000 156.530
54.72000 154.856
54.73000 153.181
54.74000 152.148
54.75000 157.758
54.76000 161.846
54.77000 164.323
54.78000 165.145
54.79000 165.931
54.80000 163.155
54.81000 158.021
54.82000 153.021
54.83000 153.304
54.84000 155.795
54.85000 157.803
54.86000 153.924
54.87000 148.304
54.88000 144.040
54.89000 149.269
54.90000 156.331
54.91000 162.206
54.92000 163.046
54.93000 163.247
54.94000 163.201
54.95000 162.431
54.96000 161.614
54.97000 160.833
54.98000 160.120
54.99000 159.409
55.00000 159.007
55.01000 160.346
55.02000 161.279
55.03000 160.662
55.04000 158.762
55.05000 156.886
55.06000 156.158
55.07000 156.055
55.08000 155.956
55.09000 160.085
55.10000 165.388
55.11000 169.711
55.12000 165.001
55.13000 158.101
55.14000 152.877
55.15000 157.002
55.16000 162.574
55.17000 167.021
55.18000 166.632
55.19000 165.963
55.20000 165.078
55.21000 163.670
55.22000 162.238
55.23000 161.370
55.24000 161.414
55.25000 161.470
55.26000 161.499
55.27000 164.391
55.28000 166.347
55.29000 169.600
55.30000 173.727
55.31000 177.609
55.32000 174.802
55.33000 168.988
55.34000 163.510
55.35000 167.666
55.36000 174.127
55.37000 180.438
55.38000 185.674
55.39000 190.697
55.40000 193.931
55.41000 189.083
55.42000 183.252
55.43000 178.814
55.44000 186.069
55.45000 192.390
55.46000 197.149
55.47000 198.781
55.48000 200.325
55.49000 203.121
55.50000 207.578
55.51000 212.037
55.52000 216.402
55.53000 220.674
55.54000 225.020
55.55000 232.940
55.56000 242.843
55.57000 252.529
55.58000 258.298
55.59000 262.611
55.60000 266.586
55.61000 274.562
55.62000 282.590
55.63000 291.495
55.64000 305.397
55.65000 320.090
55.66000 334.573
55.67000 348.284
55.68000 361.922
55.69000 371.750
55.70000 386.069
55.71000 397.198
55.72000 415.429
55.73000 445.378
55.74000 475.500
55.75000 502.139
55.76000 525.040
55.77000 547.826
55.78000 569.417
55.79000 589.944
55.80000 610.587
55.81000 634.511
55.82000 659.939
55.83000 685.402
55.84000 711.307
55.85000 737.349
55.86000 760.737
55.87000 780.311
55.88000 796.766
55.89000 813.422
55.90000 831.004
55.91000 848.701
55.92000 866.612
55.93000 885.173
55.94000 903.780
55.95000 916.382
55.96000 907.908
55.97000 901.129
55.98000 896.736
55.99000 895.568
56.00000 894.420
56.01000 894.898
56.02000 896.778
56.03000 898.635
56.04000 892.504
56.05000 882.124
56.06000 870.659
56.07000 838.793
56.08000 799.198
56.09000 761.593
56.10000 743.289
56.11000 729.851
56.12000 718.143
56.13000 700.253
56.14000 684.113
56.15000 668.391
56.16000 654.247
56.17000 640.254
56.18000 620.653
56.19000 586.966
56.20000 552.600
56.21000 530.921
56.22000 509.946
56.23000 494.766
56.24000 479.112
56.25000 462.941
56.26000 446.767
56.27000 430.314
56.28000 413.667
56.29000 397.391
56.30000 381.488
56.31000 366.410
56.32000 351.305
56.33000 335.827
56.34000 320.232
56.35000 305.131
56.36000 293.733
56.37000 283.097
56.38000 274.147
56.39000 263.873
56.40000 255.164
56.41000 247.332
56.42000 242.219
56.43000 237.300
56.44000 232.597
56.45000 228.344
56.46000 224.105
56.47000 221.641
56.48000 218.658
56.49000 216.558
56.50000 211.876
56.51000 204.918
56.52000 198.073
56.53000 197.496
56.54000 200.530
56.55000 203.456
56.56000 198.209
56.57000 190.308
56.58000 182.960
56.59000 181.114
56.60000 180.684
56.61000 179.477
56.62000 173.638
56.63000 167.032
56.64000 161.693
56.65000 167.118
56.66000 172.394
56.67000 175.692
56.68000 173.928
56.69000 171.912
56.70000 170.779
56.71000 171.161
56.72000 171.569
56.73000 171.785
56.74000 168.361
56.75000 166.034
56.76000 163.648
56.77000 161.220
56.78000 158.826
56.79000 157.468
56.80000 156.602
56.81000 155.782
56.82000 152.658
56.83000 149.104
56.84000 146.238
56.85000 148.676
56.86000 152.226
56.87000 155.850
56.88000 159.833
56.89000 163.863
56.90000 166.974
56.91000 163.593
56.92000 160.535
56.93000 158.339
56.94000 157.970
56.95000 157.660
56.96000 154.762
56.97000 148.222
56.98000 141.659
56.99000 141.872
57.00000 148.173
57.01000 154.428
57.02000 157.930
57.03000 159.816
57.04000 161.495
57.05000 158.962
57.06000 154.772
57.07000 150.884
57.08000 148.617
57.09000 146.956
57.10000 145.439
57.11000 144.795
57.12000 144.299
57.13000 144.522
57.14000 147.561
57.15000 150.885
57.16000 153.321
57.17000 151.521
57.18000 149.961
57.19000 149.263
57.20000 150.072
57.21000 150.909
57.22000 150.720
57.23000 149.360
57.24000 148.002
57.25000 146.957
57.26000 146.145
57.27000 145.402
57.28000 146.872
57.29000 149.415
57.30000 151.615
57.31000 148.943
57.32000 144.689
57.33000 140.838
57.34000 146.629
57.35000 153.549
57.36000 158.618
57.37000 154.614
57.38000 149.392
57.39000 145.747
57.40000 147.174
57.41000 148.986
57.42000 150.237
57.43000 149.158
57.44000 148.288
57.45000 149.159
57.46000 152.528
57.47000 155.914
57.48000 154.216
57.49000 147.848
57.50000 141.541
57.51000 143.805
57.52000 151.045
57.53000 158.009
57.54000 159.159
57.55000 157.980
57.56000 156.930
57.57000 157.246
57.58000 157.928
57.59000 158.527
57.60000 152.160
57.61000 145.645
57.62000 141.254
57.63000 145.347
57.64000 150.322
57.65000 152.390
57.66000 146.736
57.67000 140.665
57.68000 136.750
57.69000 135.424
57.70000 134.492
57.71000 135.273
57.72000 138.054
57.73000 140.831
57.74000 142.358
57.75000 142.955
57.76000 143.541
57.77000 143.782
57.78000 143.851
57.79000 144.041
57.80000 146.011
57.81000 148.571
57.82000 150.703
57.83000 149.374
57.84000 147.290
57.85000 145.517
57.86000 147.030
57.87000 148.679
57.88000 149.209
57.89000 146.065
57.90000 142.634
57.91000 140.694
57.92000 142.026
57.93000 143.474
57.94000 144.338
57.95000 141.631
57.96000 139.691
57.97000 138.617
57.98000 138.354
57.99000 138.127
58.00000 140.385
58.01000 144.158
58.02000 147.812
58.03000 147.822
58.04000 146.425
58.05000 145.037
58.06000 143.748
58.07000 142.486
58.08000 141.031
58.09000 138.342
58.10000 135.435
58.11000 133.056
58.12000 137.015
58.13000 140.813
58.14000 143.955
58.15000 145.317
58.16000 146.580
58.17000 147.424
58.18000 147.506
58.19000 147.572
58.20000 147.608
58.21000 145.304
58.22000 143.712
58.23000 140.454
58.24000 135.932
58.25000 131.564
58.26000 132.791
58.27000 136.834
58.28000 140.686
58.29000 139.738
58.30000 137.358
58.31000 135.324
58.32000 136.153
58.33000 137.620
58.34000 138.458
58.35000 136.083
58.36000 133.255
58.37000 131.041
58.38000 131.403
58.39000 131.857
58.40000 132.155
58.41000 132.107
58.42000 132.045
58.43000 131.119
58.44000 128.902
58.45000 126.673
58.46000 129.223
58.47000 136.355
58.48000 143.436
58.49000 146.707
58.50000 147.609
58.51000 148.211
58.52000 141.982
58.53000 132.913
58.54000 124.439
58.55000 128.574
58.56000 135.504
58.57000 141.191
58.58000 138.780
58.59000 134.909
58.60000 131.901
58.61000 132.483
58.62000 133.458
58.63000 134.184
58.64000 135.692
58.65000 136.901
58.66000 135.638
58.67000 129.802
58.68000 123.865
58.69000 121.179
58.70000 122.450
58.71000 123.728
58.72000 125.427
58.73000 127.443
58.74000 129.424
58.75000 130.063
58.76000 130.014
58.77000 130.237
58.78000 134.713
58.79000 140.650
58.80000 146.068
58.81000 143.206
58.82000 138.998
58.83000 135.583
58.84000 136.310
58.85000 137.632
58.86000 138.397
58.87000 137.265
58.88000 135.975
58.89000 135.067
58.90000 137.919
58.91000 140.190
58.92000 141.915
58.93000 142.808
58.94000 143.693
58.95000 142.250
58.96000 138.525
58.97000 134.829
58.98000 134.035
58.99000 135.063
59.00000 136.046
59.01000 135.922
59.02000 135.331
59.03000 134.900
59.04000 136.298
59.05000 138.214
59.06000 139.914
59.07000 139.157
59.08000 138.107
59.09000 137.505
59.10000 138.795
59.11000 140.298
59.12000 140.329
59.13000 136.220
59.14000 131.863
59.15000 128.993
59.16000 125.289
59.17000 122.545
59.18000 123.429
59.19000 128.821
59.20000 134.210
59.21000 134.963
59.22000 132.049
59.23000 129.181
59.24000 126.951
59.25000 125.113
59.26000 123.685
59.27000 128.905
59.28000 136.453
59.29000 143.390
59.30000 145.008
59.31000 145.391
59.32000 145.721
59.33000 143.199
59.34000 140.710
59.35000 138.022
59.36000 134.643
59.37000 131.204
59.38000 130.805
59.39000 137.472
59.40000 144.426
59.41000 148.673
59.42000 142.886
59.43000 138.665
59.44000 134.926
59.45000 131.670
59.46000 128.430
59.47000 126.590
59.48000 125.654
59.49000 124.743
59.50000 127.550
59.51000 131.746
59.52000 135.529
59.53000 134.443
59.54000 131.951
59.55000 130.241
59.56000 133.855
59.57000 138.471
59.58000 142.295
59.59000 136.837
59.60000 131.449
59.61000 126.869
59.62000 124.603
59.63000 122.481
59.64000 121.944
59.65000 124.452
59.66000 127.035
59.67000 128.481
59.68000 128.909
59.69000 129.205
59.70000 129.809
59.71000 130.662
59.72000 131.580
59.73000 135.328
59.74000 140.582
59.75000 145.614
59.76000 142.975
59.77000 137.960
59.78000 133.340
59.79000 132.253
59.80000 132.002
59.81000 131.784
59.82000 131.744
59.83000 131.732
59.84000 131.722
59.85000 134.006
59.86000 136.006
59.87000 136.972
59.88000 135.491
59.89000 133.906
59.90000 132.052
59.91000 129.770
59.92000 127.483
59.93000 126.326
59.94000 130.861
59.95000 133.878
59.96000 135.086
59.97000 135.101
59.98000 135.014
59.99000 132.286
60.00000 128.398
60.01000 124.743
60.02000 123.877
60.03000 123.835
60.04000 124.238
60.05000 127.734
60.06000 131.826
60.07000 134.887
60.08000 133.403
60.09000 131.383
60.10000 129.854
60.11000 131.474
60.12000 132.904
60.13000 133.982
60.14000 134.373
60.15000 134.745
60.16000 134.876
60.17000 134.694
60.18000 134.511
60.19000 133.684
60.20000 132.330
60.21000 130.971
60.22000 129.370
60.23000 127.637
60.24000 126.278
60.25000 131.411
60.26000 138.904
60.27000 145.791
60.28000 144.659
60.29000 141.919
60.30000 139.507
60.31000 138.918
60.32000 138.610
60.33000 137.774
60.34000 135.032
60.35000 132.117
60.36000 130.031
60.37000 128.333
60.38000 127.049
60.39000 125.637
60.40000 124.018
60.41000 122.396
60.42000 124.874
60.43000 131.641
60.44000 138.372
60.45000 137.284
60.46000 131.025
60.47000 124.998
60.48000 125.240
60.49000 128.289
60.50000 130.963
60.51000 128.950
60.52000 125.530
60.53000 122.469
60.54000 123.546
60.55000 125.196
60.56000 126.829
60.57000 128.389
60.58000 129.940
60.59000 130.356
60.60000 127.402
60.61000 124.224
60.62000 122.088
60.63000 126.084
60.64000 129.178
60.65000 131.566
60.66000 133.022
60.67000 134.469
60.68000 133.355
60.69000 130.086
60.70000 126.860
60.71000 127.591
60.72000 130.430
60.73000 133.194
60.74000 134.586
60.75000 135.471
60.76000 136.386
60.77000 137.590
60.78000 138.864
60.79000 139.970
60.80000 136.904
60.81000 133.730
60.82000 131.143
60.83000 130.713
60.84000 130.483
60.85000 130.788
60.86000 132.409
60.87000 134.091
60.88000 135.142
60.89000 132.250
60.90000 130.122
60.91000 129.080
60.92000 129.200
60.93000 129.328
60.94000 130.342
60.95000 131.962
60.96000 133.543
60.97000 134.878
60.98000 136.047
60.99000 137.024
61.00000 135.536
61.01000 133.293
61.02000 131.566
61.03000 133.607
61.04000 136.403
61.05000 138.746
61.06000 137.120
61.07000 135.359
61.08000 135.318
61.09000 140.489
61.10000 146.017
61.11000 148.028
61.12000 142.892
61.13000 137.549
61.14000 134.475
61.15000 139.665
61.16000 143.322
61.17000 143.454
61.18000 140.561
61.19000 137.701
61.20000 136.597
61.21000 136.483
61.22000 136.373
61.23000 133.492
61.24000 129.808
61.25000 126.497
61.26000 126.790
61.27000 127.989
61.28000 129.150
61.29000 130.095
61.30000 131.004
61.31000 131.735
61.32000 131.387
61.33000 131.022
61.34000 131.490
61.35000 134.043
61.36000 136.696
61.37000 137.384
61.38000 134.780
61.39000 132.124
61.40000 130.737
61.41000 135.056
61.42000 137.971
61.43000 139.925
61.44000 141.208
61.45000 142.539
61.46000 145.326
61.47000 148.790
61.48000 152.066
61.49000 152.108
61.50000 151.220
61.51000 151.131
61.52000 157.017
61.53000 164.126
61.54000 171.429
61.55000 179.640
61.56000 187.967
61.57000 194.359
61.58000 201.580
61.59000 207.335
61.60000 215.830
61.61000 229.998
61.62000 244.341
61.63000 250.734
61.64000 246.204
61.65000 241.610
61.66000 241.939
61.67000 246.581
61.68000 251.204
61.69000 254.828
61.70000 257.879
61.71000 260.761
61.72000 260.358
61.73000 258.692
61.74000 257.150
61.75000 246.678
61.76000 235.207
61.77000 224.452
61.78000 217.947
61.79000 212.141
61.80000 206.404
61.81000 200.928
61.82000 195.478
61.83000 191.509
61.84000 180.261
61.85000 171.324
61.86000 164.002
61.87000 159.442
61.88000 154.928
61.89000 153.638
61.90000 155.944
61.91000 158.243
61.92000 155.798
61.93000 150.025
61.94000 144.390
61.95000 143.037
61.96000 143.712
61.97000 144.344
61.98000 144.367
61.99000 144.198
62.00000 144.046
62.01000 144.095
62.02000 144.176
62.03000 144.412
62.04000 145.392
62.05000 146.470
62.06000 146.772
62.07000 144.632
62.08000 142.313
62.09000 140.725
62.10000 141.948
62.11000 142.932
62.12000 141.566
62.13000 136.905
62.14000 132.226
62.15000 132.406
62.16000 136.940
62.17000 141.426
62.18000 143.747
62.19000 144.776
62.20000 145.832
62.21000 147.410
62.22000 149.194
62.23000 150.519
62.24000 147.167
62.25000 142.593
62.26000 138.586
62.27000 140.487
62.28000 142.973
62.29000 144.445
62.30000 141.967
62.31000 139.090
62.32000 136.940
62.33000 136.680
62.34000 136.517
62.35000 136.413
62.36000 136.286
62.37000 136.193
62.38000 138.265
62.39000 142.804
62.40000 147.321
62.41000 147.719
62.42000 145.124
62.43000 142.581
62.44000 143.469
62.45000 145.916
62.46000 148.287
62.47000 149.581
62.48000 150.527
62.49000 151.183
62.50000 149.564
62.51000 147.460
62.52000 145.678
62.53000 152.517
62.54000 159.210
62.55000 161.825
62.56000 151.369
62.57000 139.930
62.58000 133.800
62.59000 139.081
62.60000 144.747
62.61000 148.091
62.62000 148.032
62.63000 147.971
62.64000 147.686
62.65000 147.197
62.66000 146.697
62.67000 145.540
62.68000 143.990
62.69000 142.491
62.70000 146.559
62.71000 152.495
62.72000 157.427
62.73000 151.846
62.74000 143.464
62.75000 136.387
62.76000 137.394
62.77000 139.792
62.78000 141.745
62.79000 138.655
62.80000 135.704
62.81000 134.928
62.82000 139.908
62.83000 145.197
62.84000 146.629
62.85000 141.221
62.86000 135.681
62.87000 132.700
62.88000 136.083
62.89000 138.390
62.90000 138.550
62.91000 137.116
62.92000 135.801
62.93000 138.558
62.94000 143.318
62.95000 147.844
62.96000 147.094
62.97000 144.790
62.98000 142.653
62.99000 141.852
63.00000 141.342
63.01000 140.441
63.02000 137.591
63.03000 134.473
63.04000 132.046
63.05000 132.746
63.06000 133.498
63.07000 134.903
63.08000 137.742
63.09000 140.630
63.10000 140.300
63.11000 135.276
63.12000 130.213
63.13000 130.878
63.14000 136.896
63.15000 142.817
63.16000 142.125
63.17000 137.415
63.18000 132.956
63.19000 133.973
63.20000 137.216
63.21000 140.238
63.22000 139.794
63.23000 138.541
63.24000 137.726
63.25000 139.697
63.26000 142.157
63.27000 144.601
63.28000 146.981
63.29000 149.355
63.30000 151.111
63.31000 146.041
63.32000 141.813
63.33000 139.945
63.34000 142.346
63.35000 144.834
63.36000 143.949
63.37000 139.057
63.38000 134.170
63.39000 133.123
63.40000 134.968
63.41000 136.763
63.42000 136.770
63.43000 135.880
63.44000 135.162
63.45000 137.030
63.46000 139.767
63.47000 142.257
63.48000 139.834
63.49000 136.725
63.50000 135.036
63.51000 140.575
63.52000 147.125
63.53000 152.257
63.54000 152.663
63.55000 152.691
63.56000 152.711
63.57000 150.418
63.58000 148.621
63.59000 148.322
63.60000 150.249
63.61000 152.197
63.62000 151.985
63.63000 149.709
63.64000 147.452
63.65000 145.647
63.66000 144.150
63.67000 142.795
63.68000 144.641
63.69000 147.815
63.70000 150.669
63.71000 150.000
63.72000 148.356
63.73000 146.901
63.74000 146.537
63.75000 146.392
63.76000 146.697
63.77000 148.865
63.78000 151.236
63.79000 152.837
63.80000 152.324
63.81000 151.690
63.82000 151.275
63.83000 150.637
63.84000 150.165
63.85000 151.599
63.86000 155.343
63.87000 159.067
63.88000 156.705
63.89000 149.642
63.90000 142.699
63.91000 142.690
63.92000 146.102
63.93000 149.517
63.94000 152.963
63.95000 156.420
63.96000 159.329
63.97000 157.602
63.98000 154.825
63.99000 152.449
64.00000 152.080
64.01000 152.013
64.02000 152.038
64.03000 152.382
64.04000 152.753
64.05000 152.643
64.06000 151.442
64.07000 150.199
64.08000 149.446
64.09000 155.919
64.10000 160.585
64.11000 160.985
64.12000 157.222
64.13000 153.532
64.14000 155.726
64.15000 161.636
64.16000 167.376
64.17000 162.460
64.18000 153.525
64.19000 145.493
64.20000 147.734
64.21000 152.875
64.22000 157.757
64.23000 160.922
64.24000 163.770
64.25000 166.119
64.26000 163.699
64.27000 161.269
64.28000 158.524
64.29000 154.899
64.30000 151.222
64.31000 150.764
64.32000 156.353
64.33000 162.083
64.34000 165.255
64.35000 160.463
64.36000 157.147
64.37000 156.034
64.38000 156.656
64.39000 157.411
64.40000 163.526
64.41000 172.429
64.42000 180.941
64.43000 180.801
64.44000 177.860
64.45000 174.489
64.46000 167.391
64.47000 159.431
64.48000 153.355
64.49000 157.275
64.50000 162.661
64.51000 166.914
64.52000 168.270
64.53000 169.162
64.54000 167.760
64.55000 161.046
64.56000 154.119
64.57000 152.070
64.58000 157.563
64.59000 163.141
64.60000 164.323
64.61000 161.118
64.62000 157.987
64.63000 161.306
64.64000 168.778
64.65000 175.972
64.66000 176.332
64.67000 173.754
64.68000 171.336
64.69000 167.931
64.70000 164.570
64.71000 161.652
64.72000 161.728
64.73000 162.366
64.74000 164.004
64.75000 169.946
64.76000 176.383
64.77000 181.222
64.78000 176.554
64.79000 172.446
64.80000 170.413
64.81000 172.353
64.82000 174.390
64.83000 174.086
64.84000 170.824
64.85000 167.559
64.86000 167.681
64.87000 170.515
64.88000 173.366
64.89000 176.880
64.90000 180.745
64.91000 184.421
64.92000 184.916
64.93000 184.282
64.94000 183.700
64.95000 183.125
64.96000 182.615
64.97000 182.491
64.98000 184.459
64.99000 186.741
65.00000 188.964
65.01000 190.975
65.02000 192.968
65.03000 194.385
65.04000 191.087
65.05000 188.425
65.06000 186.572
65.07000 185.995
65.08000 185.433
65.09000 186.389
65.10000 188.893
65.11000 191.381
65.12000 194.744
65.13000 198.624
65.14000 202.491
65.15000 205.995
65.16000 209.342
65.17000 212.501
65.18000 213.399
65.19000 213.633
65.20000 213.843
65.21000 215.436
65.22000 217.053
65.23000 219.046
65.24000 222.694
65.25000 226.536
65.26000 229.285
65.27000 228.852
65.28000 228.217
65.29000 227.793
65.30000 230.699
65.31000 232.914
65.32000 240.276
65.33000 254.270
65.34000 268.255
65.35000 267.898
65.36000 255.766
65.37000 243.806
65.38000 249.360
65.39000 263.945
65.40000 277.823
65.41000 279.495
65.42000 276.744
65.43000 274.736
65.44000 279.498
65.45000 285.889
65.46000 291.415
65.47000 297.199
65.48000 302.147
65.49000 306.969
65.50000 311.336
65.51000 315.661
65.52000 320.358
65.53000 325.947
65.54000 331.576
65.55000 335.062
65.56000 333.350
65.57000 332.069
65.58000 334.892
65.59000 341.993
65.60000 349.092
65.61000 356.044
65.62000 362.897
65.63000 369.578
65.64000 379.771
65.65000 390.997
65.66000 402.299
65.67000 414.557
65.68000 427.099
65.69000 443.086
65.70000 483.538
65.71000 528.776
65.72000 566.503
65.73000 613.199
65.74000 652.812
65.75000 697.550
65.76000 757.469
65.77000 818.389
65.78000 873.307
65.79000 916.304
65.80000 958.974
65.81000 983.261
65.82000 1021.342
65.83000 1047.899
65.84000 1059.355
65.85000 1058.157
65.86000 1056.973
65.87000 1056.482
65.88000 1056.372
65.89000 1056.267
65.90000 1045.613
65.91000 1031.994
65.92000 1017.129
65.93000 990.603
65.94000 961.216
65.95000 927.688
65.96000 870.737
65.97000 810.111
65.98000 761.599
65.99000 689.510
66.00000 629.460
66.01000 574.182
66.02000 530.586
66.03000 487.522
66.04000 451.530
66.05000 427.120
66.06000 402.877
66.07000 390.374
66.08000 359.506
66.09000 338.808
66.10000 329.446
66.11000 327.824
66.12000 326.025
66.13000 319.277
66.14000 310.278
66.15000 301.787
66.16000 301.476
66.17000 303.476
66.18000 305.369
66.19000 306.495
66.20000 307.466
66.21000 309.278
66.22000 314.934
66.23000 321.065
66.24000 325.745
66.25000 329.588
66.26000 332.572
66.27000 333.508
66.28000 330.297
66.29000 326.967
66.30000 334.044
66.31000 355.086
66.32000 376.184
66.33000 389.006
66.34000 394.734
66.35000 400.486
66.36000 407.458
66.37000 415.115
66.38000 422.426
66.39000 423.315
66.40000 421.790
66.41000 420.382
66.42000 425.625
66.43000 431.817
66.44000 437.095
66.45000 437.092
66.46000 436.240
66.47000 433.601
66.48000 424.279
66.49000 414.324
66.50000 407.124
66.51000 404.230
66.52000 402.165
66.53000 393.748
66.54000 374.723
66.55000 355.534
66.56000 345.129
66.57000 344.279
66.58000 343.438
66.59000 336.049
66.60000 324.231
66.61000 312.601
66.62000 306.459
66.63000 302.859
66.64000 299.335
66.65000 296.802
66.66000 294.577
66.67000 292.574
66.68000 297.420
66.69000 302.889
66.70000 307.037
66.71000 305.017
66.72000 302.216
66.73000 300.822
66.74000 303.755
66.75000 306.992
66.76000 309.193
66.77000 307.968
66.78000 306.976
66.79000 306.769
66.80000 307.636
66.81000 308.511
66.82000 309.912
66.83000 311.775
66.84000 313.616
66.85000 314.465
66.86000 314.740
66.87000 315.133
66.88000 317.790
66.89000 321.316
66.90000 324.909
66.91000 329.158
66.92000 333.575
66.93000 337.431
66.94000 333.056
66.95000 328.156
66.96000 323.884
66.97000 322.004
66.98000 320.358
66.99000 318.714
67.00000 317.077
67.01000 315.440
67.02000 314.402
67.03000 327.254
67.04000 336.745
67.05000 340.668
67.06000 338.404
67.07000 336.165
67.08000 338.157
67.09000 343.153
67.10000 348.041
67.11000 348.550
67.12000 347.055
67.13000 345.822
67.14000 348.159
67.15000 351.627
67.16000 354.575
67.17000 353.559
67.18000 351.720
67.19000 350.168
67.20000 359.792
67.21000 369.042
67.22000 375.273
67.23000 372.043
67.24000 368.126
67.25000 365.759
67.26000 366.647
67.27000 367.638
67.28000 368.218
67.29000 361.337
67.30000 356.467
67.31000 360.156
67.32000 371.481
67.33000 382.655
67.34000 384.994
67.35000 382.184
67.36000 379.472
67.37000 381.558
67.38000 385.287
67.39000 388.755
67.40000 389.574
67.41000 389.705
67.42000 390.137
67.43000 392.385
67.44000 394.938
67.45000 397.006
67.46000 390.849
67.47000 385.162
67.48000 383.337
67.49000 391.512
67.50000 400.199
67.51000 404.207
67.52000 400.099
67.53000 395.845
67.54000 393.583
67.55000 398.986
67.56000 402.665
67.57000 405.664
67.58000 408.171
67.59000 410.566
67.60000 409.326
67.61000 406.340
67.62000 403.505
67.63000 410.853
67.64000 420.661
67.65000 430.285
67.66000 438.483
67.67000 446.378
67.68000 451.129
67.69000 440.594
67.70000 428.026
67.71000 418.294
67.72000 427.543
67.73000 436.015
67.74000 442.969
67.75000 446.670
67.76000 450.264
67.77000 453.806
67.78000 457.276
67.79000 460.744
67.80000 461.814
67.81000 460.700
67.82000 459.610
67.83000 460.021
67.84000 461.323
67.85000 462.734
67.86000 466.417
67.87000 471.002
67.88000 475.265
67.89000 469.384
67.90000 461.646
67.91000 456.349
67.92000 466.116
67.93000 478.465
67.94000 488.032
67.95000 486.574
67.96000 483.981
67.97000 482.074
67.98000 484.105
67.99000 485.838
68.00000 487.258
68.01000 488.126
68.02000 488.983
68.03000 493.084
68.04000 500.945
68.05000 508.786
68.06000 512.081
68.07000 512.016
68.08000 512.108
68.09000 517.508
68.10000 525.509
68.11000 533.039
68.12000 533.724
68.13000 532.159
68.14000 530.740
68.15000 524.381
68.16000 517.825
68.17000 515.371
68.18000 533.280
68.19000 553.961
68.20000 569.421
68.21000 567.887
68.22000 565.041
68.23000 563.069
68.24000 573.664
68.25000 581.971
68.26000 588.864
68.27000 593.703
68.28000 598.522
68.29000 597.413
68.30000 590.786
68.31000 584.219
68.32000 583.816
68.33000 587.080
68.34000 590.519
68.35000 597.759
68.36000 606.539
68.37000 615.832
68.38000 630.620
68.39000 646.896
68.40000 661.237
68.41000 663.686
68.42000 664.001
68.43000 664.120
68.44000 663.449
68.45000 662.694
68.46000 665.511
68.47000 677.926
68.48000 690.869
68.49000 699.253
68.50000 713.856
68.51000 724.634
68.52000 739.891
68.53000 760.447
68.54000 780.995
68.55000 798.169
68.56000 812.798
68.57000 827.159
68.58000 844.487
68.59000 862.633
68.60000 881.159
68.61000 905.374
68.62000 931.494
68.63000 960.534
68.64000 1013.532
68.65000 1071.831
68.66000 1121.524
68.67000 1171.376
68.68000 1213.330
68.69000 1254.425
68.70000 1292.666
68.71000 1330.679
68.72000 1377.289
68.73000 1443.004
68.74000 1509.419
68.75000 1549.214
68.76000 1587.014
68.77000 1613.846
68.78000 1656.643
68.79000 1714.623
68.80000 1772.796
68.81000 1844.931
68.82000 1925.685
68.83000 2003.970
68.84000 2079.254
68.85000 2149.383
68.86000 2228.937
68.87000 2412.238
68.88000 2624.160
68.89000 2864.337
68.90000 3286.904
68.91000 3742.117
68.92000 4115.591
68.93000 5582.955
68.94000 6884.555
68.95000 8590.430
68.96000 11403.346
68.97000 14279.492
68.98000 17591.334
68.99000 21703.229
69.00000 25832.404
69.01000 28093.396
69.02000 34166.309
69.03000 38343.742
69.04000 41609.641
69.05000 44174.305
69.06000 46711.801
69.07000 48225.273
69.08000 49217.746
69.09000 50164.598
69.10000 50620.098
69.11000 50887.238
69.12000 51172.117
69.13000 51606.160
69.14000 52073.875
69.15000 52565.645
69.16000 53181.910
69.17000 53815.934
69.18000 54313.867
69.19000 53781.516
69.20000 53288.055
69.21000 52249.184
69.22000 49975.168
69.23000 47653.859
69.24000 44982.191
69.25000 41781.309
69.26000 38575.137
69.27000 35946.625
69.28000 33879.688
69.29000 31818.766
69.30000 30230.418
69.31000 28939.477
69.32000 27670.781
69.33000 26921.990
69.34000 26391.879
69.35000 25895.953
69.36000 25144.689
69.37000 24396.959
69.38000 23571.242
69.39000 22230.625
69.40000 20795.852
69.41000 19236.928
69.42000 17156.018
69.43000 15017.004
69.44000 13418.816
69.45000 10853.359
69.46000 8808.791
69.47000 7067.201
69.48000 5892.566
69.49000 4730.926
69.50000 3838.620
69.51000 3278.323
69.52000 2720.024
69.53000 2343.784
69.54000 2111.649
69.55000 1881.253
69.56000 1720.050
69.57000 1594.720
69.58000 1472.330
69.59000 1396.981
69.60000 1337.991
69.61000 1284.082
69.62000 1230.162
69.63000 1182.266
69.64000 1137.455
69.65000 1108.949
69.66000 1082.822
69.67000 1055.245
69.68000 1022.668
69.69000 989.669
69.70000 966.377
69.71000 935.870
69.72000 912.499
69.73000 888.921
69.74000 865.025
69.75000 841.125
69.76000 825.233
69.77000 817.293
69.78000 809.409
69.79000 794.245
69.80000 774.725
69.81000 755.810
69.82000 751.655
69.83000 753.825
69.84000 754.259
69.85000 734.477
69.86000 708.900
69.87000 686.159
69.88000 680.885
69.89000 679.140
69.90000 677.274
69.91000 674.894
69.92000 672.454
69.93000 668.129
69.94000 658.444
69.95000 648.431
69.96000 641.808
69.97000 644.498
69.98000 646.650
69.99000 644.036
70.00000 635.427
