20.00000 572.341
20.01000 563.844
20.02000 554.133
20.03000 546.499
20.04000 546.889
20.05000 548.076
20.06000 548.943
20.07000 560.585
20.08000 569.980
20.09000 573.426
20.10000 566.606
20.11000 559.607
20.12000 552.047
20.13000 543.855
20.14000 535.693
20.15000 535.763
20.16000 541.708
20.17000 547.486
20.18000 547.940
20.19000 545.848
20.20000 543.957
20.21000 544.865
20.22000 546.671
20.23000 548.302
20.24000 550.126
20.25000 551.766
20.26000 553.259
20.27000 554.044
20.28000 554.735
20.29000 554.805
20.30000 552.905
20.31000 550.858
20.32000 549.451
20.33000 551.472
20.34000 553.073
20.35000 553.134
20.36000 551.016
20.37000 548.885
20.38000 551.139
20.39000 557.366
20.40000 563.529
20.41000 558.908
20.42000 548.153
20.43000 538.059
20.44000 541.538
20.45000 550.385
20.46000 558.574
20.47000 559.951
20.48000 559.530
20.49000 559.161
20.50000 562.660
20.51000 566.233
20.52000 566.129
20.53000 551.537
20.54000 535.465
20.55000 526.570
20.56000 536.505
20.57000 547.430
20.58000 554.441
20.59000 555.156
20.60000 555.592
20.61000 551.519
20.62000 542.256
20.63000 533.044
20.64000 533.785
20.65000 541.840
20.66000 549.736
20.67000 553.646
20.68000 555.539
20.69000 556.945
20.70000 551.356
20.71000 543.481
20.72000 537.037
20.73000 541.971
20.74000 549.357
20.75000 555.625
20.76000 556.904
20.77000 557.411
20.78000 559.673
20.79000 567.617
20.80000 575.995
20.81000 581.366
20.82000 580.209
20.83000 578.827
20.84000 578.008
20.85000 561.175
20.86000 549.180
20.87000 545.872
20.88000 550.601
20.89000 555.272
20.90000 556.187
20.91000 554.840
20.92000 553.537
20.93000 548.303
20.94000 541.863
20.95000 536.280
20.96000 539.802
20.97000 545.773
20.98000 550.033
20.99000 543.554
21.00000 535.207
21.01000 528.394
21.02000 532.185
21.03000 536.196
21.04000 538.315
21.05000 535.376
21.06000 532.162
21.07000 536.911
21.08000 555.930
21.09000 575.234
21.10000 585.674
21.11000 576.657
21.12000 570.441
21.13000 559.966
21.14000 546.298
21.15000 532.921
21.16000 529.753
21.17000 531.657
21.18000 533.468
21.19000 535.692
21.20000 537.877
21.21000 540.506
21.22000 546.750
21.23000 553.789
21.24000 558.441
21.25000 551.074
21.26000 542.042
21.27000 534.991
21.28000 537.757
21.29000 540.580
21.30000 538.656
21.31000 526.239
21.32000 513.442
21.33000 513.274
21.34000 531.707
21.35000 550.305
21.36000 555.595
21.37000 548.309
21.38000 541.088
21.39000 538.482
21.40000 538.710
21.41000 538.840
21.42000 536.787
21.43000 533.837
21.44000 531.086
21.45000 528.648
21.46000 526.518
21.47000 525.050
21.48000 527.831
21.49000 531.367
21.50000 535.745
21.51000 543.575
21.52000 551.776
21.53000 557.862
21.54000 558.336
21.55000 558.457
21.56000 554.698
21.57000 543.851
21.58000 532.854
21.59000 529.495
21.60000 535.306
21.61000 541.121
21.62000 550.604
21.63000 562.814
21.64000 574.557
21.65000 568.926
21.66000 554.503
21.67000 540.581
21.68000 534.343
21.69000 530.713
21.70000 527.407
21.71000 536.683
21.72000 547.399
21.73000 557.021
21.74000 561.010
21.75000 564.202
21.76000 566.889
21.77000 567.879
21.78000 568.732
21.79000 569.329
21.80000 562.405
21.81000 556.952
21.82000 553.461
21.83000 552.917
21.84000 552.401
21.85000 551.710
21.86000 550.849
21.87000 549.995
21.88000 555.409
21.89000 564.582
21.90000 573.785
21.91000 583.701
21.92000 593.916
21.93000 603.017
21.94000 599.599
21.95000 592.681
21.96000 586.553
21.97000 598.227
21.98000 611.125
21.99000 619.535
22.00000 609.179
22.01000 596.750
22.02000 590.265
22.03000 600.278
22.04000 611.257
22.05000 618.454
22.06000 604.501
22.07000 593.891
22.08000 590.448
22.09000 595.785
22.10000 601.150
22.11000 607.853
22.12000 615.600
22.13000 623.219
22.14000 618.556
22.15000 607.917
22.16000 598.269
22.17000 604.312
22.18000 615.782
22.19000 625.225
22.20000 617.324
22.21000 605.450
22.22000 595.269
22.23000 599.208
22.24000 604.265
22.25000 609.711
22.26000 616.494
22.27000 623.389
22.28000 625.690
22.29000 617.450
22.30000 608.794
22.31000 603.534
22.32000 594.814
22.33000 588.563
22.34000 583.769
22.35000 580.415
22.36000 577.102
22.37000 577.275
22.38000 579.670
22.39000 581.998
22.40000 578.245
22.41000 572.215
22.42000 566.170
22.43000 559.940
22.44000 553.658
22.45000 547.949
22.46000 546.080
22.47000 544.925
22.48000 543.970
22.49000 551.370
22.50000 558.248
22.51000 563.025
22.52000 561.859
22.53000 560.332
22.54000 556.448
22.55000 548.090
22.56000 539.626
22.57000 534.916
22.58000 519.843
22.59000 509.420
22.60000 505.451
22.61000 506.623
22.62000 508.098
22.63000 522.140
22.64000 542.786
22.65000 562.541
22.66000 554.536
22.67000 537.969
22.68000 522.678
22.69000 518.591
22.70000 517.123
22.71000 516.432
22.72000 519.915
22.73000 524.018
22.74000 527.265
22.75000 530.602
22.76000 533.290
22.77000 533.423
22.78000 527.584
22.79000 521.498
22.80000 516.618
22.81000 513.621
22.82000 510.646
22.83000 509.152
22.84000 521.557
22.85000 529.691
22.86000 524.453
22.87000 510.515
22.88000 497.424
22.89000 505.620
22.90000 523.060
22.91000 539.432
22.92000 533.997
22.93000 523.262
22.94000 513.793
22.95000 513.011
22.96000 513.876
22.97000 513.269
22.98000 506.257
22.99000 498.501
23.00000 492.654
23.01000 505.612
23.02000 516.682
23.03000 524.616
23.04000 526.490
23.05000 528.211
23.06000 526.194
23.07000 519.405
23.08000 512.609
23.09000 509.619
23.10000 509.722
23.11000 509.836
23.12000 510.410
23.13000 511.230
23.14000 512.207
23.15000 515.851
23.16000 520.452
23.17000 524.675
23.18000 519.890
23.19000 513.709
23.20000 507.887
23.21000 504.035
23.22000 500.483
23.23000 496.952
23.24000 493.499
23.25000 490.053
23.26000 487.596
23.27000 491.904
23.28000 495.410
23.29000 499.726
23.30000 505.330
23.31000 510.952
23.32000 511.445
23.33000 506.650
23.34000 501.884
23.35000 500.016
23.36000 500.070
23.37000 500.157
23.38000 501.099
23.39000 502.419
23.40000 503.524
23.41000 502.013
23.42000 499.726
23.43000 497.683
23.44000 498.885
23.45000 500.481
23.46000 500.991
23.47000 496.684
23.48000 491.804
23.49000 490.981
23.50000 502.072
23.51000 513.935
23.52000 521.873
23.53000 526.678
23.54000 530.178
23.55000 526.318
23.56000 512.869
23.57000 499.395
23.58000 492.673
23.59000 491.555
23.60000 490.452
23.61000 487.717
23.62000 484.192
23.63000 480.654
23.64000 476.883
23.65000 473.027
23.66000 469.897
23.67000 473.468
23.68000 478.669
23.69000 483.173
23.70000 480.882
23.71000 478.034
23.72000 477.965
23.73000 487.983
23.74000 498.920
23.75000 503.056
23.76000 490.688
23.77000 477.581
23.78000 469.428
23.79000 487.267
23.80000 500.375
23.81000 504.519
23.82000 499.219
23.83000 493.969
23.84000 494.371
23.85000 498.597
23.86000 502.718
23.87000 506.627
23.88000 510.269
23.89000 513.190
23.90000 506.999
23.91000 498.056
23.92000 491.091
23.93000 498.345
23.94000 508.412
23.95000 516.823
23.96000 507.709
23.97000 498.366
23.98000 490.497
23.99000 487.041
24.00000 483.881
24.01000 484.854
24.02000 494.123
24.03000 503.625
24.04000 509.058
24.05000 503.309
24.06000 499.264
24.07000 498.876
24.08000 501.587
24.09000 504.166
24.10000 500.237
24.11000 492.689
24.12000 485.431
24.13000 483.907
24.14000 484.482
24.15000 485.704
24.16000 493.060
24.17000 501.937
24.18000 509.070
24.19000 506.220
24.20000 501.785
24.21000 498.228
24.22000 487.417
24.23000 478.114
24.24000 473.459
24.25000 480.292
24.26000 487.660
24.27000 488.481
24.28000 478.473
24.29000 468.302
24.30000 463.029
24.31000 472.349
24.32000 478.616
24.33000 481.740
24.34000 482.695
24.35000 483.621
24.36000 483.711
24.37000 483.417
24.38000 483.139
24.39000 481.076
24.40000 478.679
24.41000 477.119
24.42000 481.722
24.43000 487.569
24.44000 492.816
24.45000 495.295
24.46000 497.427
24.47000 499.058
24.48000 489.049
24.49000 480.516
24.50000 472.724
24.51000 466.447
24.52000 460.215
24.53000 460.479
24.54000 469.552
24.55000 478.668
24.56000 482.237
24.57000 481.012
24.58000 479.742
24.59000 476.183
24.60000 471.327
24.61000 466.941
24.62000 471.436
24.63000 479.304
24.64000 486.576
24.65000 481.982
24.66000 475.165
24.67000 469.044
24.68000 466.992
24.69000 465.601
24.70000 465.751
24.71000 471.724
24.72000 478.258
24.73000 482.997
24.74000 468.028
24.75000 455.791
24.76000 452.355
24.77000 463.762
24.78000 475.408
24.79000 477.235
24.80000 468.265
24.81000 459.328
24.82000 456.203
24.83000 457.157
24.84000 458.247
24.85000 463.404
24.86000 470.464
24.87000 477.032
24.88000 476.995
24.89000 474.886
24.90000 472.986
24.91000 462.294
24.92000 451.325
24.93000 443.693
24.94000 451.803
24.95000 461.934
24.96000 470.686
24.97000 475.160
24.98000 479.329
24.99000 482.173
25.00000 476.077
25.01000 471.311
25.02000 467.600
25.03000 465.350
25.04000 463.108
25.05000 460.437
25.06000 457.389
25.07000 454.374
25.08000 457.932
25.09000 465.115
25.10000 472.292
25.11000 479.352
25.12000 486.367
25.13000 492.056
25.14000 484.478
25.15000 473.479
25.16000 463.861
25.17000 462.847
25.18000 463.200
25.19000 465.989
25.20000 478.152
25.21000 491.243
25.22000 499.903
25.23000 497.194
25.24000 493.913
25.25000 491.826
25.26000 481.727
25.27000 474.290
25.28000 470.055
25.29000 469.419
25.30000 468.771
25.31000 465.859
25.32000 461.323
25.33000 456.883
25.34000 457.434
25.35000 460.249
25.36000 462.793
25.37000 461.601
25.38000 459.213
25.39000 457.933
25.40000 465.205
25.41000 474.277
25.42000 481.941
25.43000 470.990
25.44000 459.786
25.45000 450.247
25.46000 445.978
25.47000 442.097
25.48000 442.205
25.49000 450.778
25.50000 459.627
25.51000 464.821
25.52000 459.666
25.53000 455.984
25.54000 457.053
25.55000 462.406
25.56000 467.703
25.57000 469.587
25.58000 469.462
25.59000 469.342
25.60000 467.602
25.61000 465.360
25.62000 463.627
25.63000 467.128
25.64000 472.004
25.65000 475.846
25.66000 473.364
25.67000 469.811
25.68000 466.924
25.69000 471.647
25.70000 476.130
25.71000 478.415
25.72000 474.956
25.73000 471.198
25.74000 467.902
25.75000 465.419
25.76000 462.950
25.77000 461.630
25.78000 463.149
25.79000 464.181
25.80000 464.127
25.81000 463.278
25.82000 462.326
25.83000 457.931
25.84000 451.864
25.85000 446.102
25.86000 445.330
25.87000 446.118
25.88000 447.258
25.89000 451.177
25.90000 455.693
25.91000 458.360
25.92000 451.941
25.93000 444.299
25.94000 438.366
25.95000 449.484
25.96000 459.355
25.97000 466.630
25.98000 468.289
25.99000 469.756
26.00000 469.438
26.01000 466.550
26.02000 463.642
26.03000 463.348
26.04000 465.464
26.05000 467.563
26.06000 468.654
26.07000 469.140
26.08000 469.469
26.09000 466.486
26.10000 462.174
26.11000 458.161
26.12000 456.574
26.13000 455.728
26.14000 454.575
26.15000 451.508
26.16000 448.110
26.17000 445.774
26.18000 447.691
26.19000 450.052
26.20000 451.793
26.21000 455.155
26.22000 457.827
26.23000 457.827
26.24000 453.056
26.25000 448.190
26.26000 449.681
26.27000 458.617
26.28000 467.538
26.29000 465.688
26.30000 455.865
26.31000 446.307
26.32000 446.001
26.33000 450.272
26.34000 454.368
26.35000 455.875
26.36000 456.523
26.37000 457.111
26.38000 458.643
26.39000 460.179
26.40000 460.281
26.41000 453.190
26.42000 445.107
26.43000 440.406
26.44000 446.824
26.45000 454.113
26.46000 459.181
26.47000 455.145
26.48000 451.857
26.49000 446.936
26.50000 439.622
26.51000 432.288
26.52000 434.418
26.53000 445.457
26.54000 456.399
26.55000 455.018
26.56000 446.271
26.57000 438.011
26.58000 440.461
26.59000 447.293
26.60000 453.380
26.61000 451.372
26.62000 447.150
26.63000 443.425
26.64000 440.428
26.65000 437.954
26.66000 437.443
26.67000 444.943
26.68000 453.302
26.69000 457.404
26.70000 449.952
26.71000 441.851
26.72000 436.585
26.73000 443.314
26.74000 448.429
26.75000 452.103
26.76000 454.052
26.77000 455.991
26.78000 456.704
26.79000 456.482
26.80000 456.264
26.81000 458.012
26.82000 460.657
26.83000 462.633
26.84000 454.439
26.85000 442.804
26.86000 432.055
26.87000 428.661
26.88000 426.912
26.89000 425.419
26.90000 427.927
26.91000 430.515
26.92000 433.619
26.93000 438.455
26.94000 443.431
26.95000 446.045
26.96000 443.361
26.97000 440.478
26.98000 438.744
26.99000 444.015
27.00000 447.813
27.01000 447.653
27.02000 443.687
27.03000 439.733
27.04000 436.637
27.05000 434.076
27.06000 431.592
27.07000 431.026
27.08000 431.247
27.09000 431.853
27.10000 436.763
27.11000 442.872
27.12000 448.619
27.13000 452.005
27.14000 454.963
27.15000 457.395
27.16000 448.193
27.17000 439.579
27.18000 432.619
27.19000 430.230
27.20000 428.107
27.21000 426.983
27.22000 427.714
27.23000 428.486
27.24000 428.910
27.25000 435.826
27.26000 440.596
27.27000 444.221
27.28000 446.955
27.29000 449.624
27.30000 449.721
27.31000 448.498
27.32000 447.331
27.33000 445.775
27.34000 444.204
27.35000 442.518
27.36000 439.841
27.37000 436.939
27.38000 433.924
27.39000 430.316
27.40000 426.623
27.41000 423.716
27.42000 423.325
27.43000 423.179
27.44000 424.612
27.45000 429.655
27.46000 434.840
27.47000 437.069
27.48000 434.786
27.49000 432.456
27.50000 432.397
27.51000 434.569
27.52000 436.725
27.53000 437.588
27.54000 437.629
27.55000 437.673
27.56000 437.776
27.57000 437.905
27.58000 438.026
27.59000 439.312
27.60000 440.782
27.61000 441.200
27.62000 434.588
27.63000 426.675
27.64000 420.733
27.65000 423.166
27.66000 426.543
27.67000 429.073
27.68000 431.145
27.69000 432.741
27.70000 432.609
27.71000 429.212
27.72000 425.737
27.73000 425.694
27.74000 429.927
27.75000 434.165
27.76000 437.523
27.77000 440.170
27.78000 442.734
27.79000 441.894
27.80000 439.272
27.81000 436.705
27.82000 435.046
27.83000 433.705
27.84000 432.478
27.85000 430.537
27.86000 428.663
27.87000 427.740
27.88000 431.892
27.89000 436.795
27.90000 439.553
27.91000 434.845
27.92000 429.497
27.93000 425.711
27.94000 433.102
27.95000 439.066
27.96000 443.879
27.97000 446.901
27.98000 449.902
27.99000 447.181
28.00000 438.711
28.01000 430.298
28.02000 425.664
28.03000 423.512
28.04000 421.379
28.05000 419.721
28.06000 418.267
28.07000 417.505
28.08000 424.920
28.09000 434.702
28.10000 443.412
28.11000 432.942
28.12000 420.697
28.13000 411.913
28.14000 418.125
28.15000 426.071
28.16000 431.727
28.17000 430.808
28.18000 429.479
28.19000 428.597
28.20000 422.396
28.21000 417.716
28.22000 414.072
28.23000 411.746
28.24000 409.432
28.25000 410.061
28.26000 413.073
28.27000 416.041
28.28000 422.086
28.29000 429.545
28.30000 436.587
28.31000 436.582
28.32000 434.058
28.33000 431.593
28.34000 429.674
28.35000 427.884
28.36000 426.340
28.37000 426.610
28.38000 427.072
28.39000 427.266
28.40000 426.505
28.41000 425.659
28.42000 427.729
28.43000 436.716
28.44000 445.999
28.45000 451.719
28.46000 437.371
28.47000 426.891
28.48000 423.152
28.49000 426.335
28.50000 429.531
28.51000 433.949
28.52000 439.175
28.53000 444.266
28.54000 438.824
28.55000 429.210
28.56000 420.442
28.57000 421.971
28.58000 426.541
28.59000 430.246
28.60000 427.911
28.61000 424.410
28.62000 421.499
28.63000 425.438
28.64000 429.371
28.65000 431.292
28.66000 427.326
28.67000 422.980
28.68000 419.210
28.69000 416.572
28.70000 413.963
28.71000 412.487
28.72000 415.240
28.73000 417.158
28.74000 415.154
28.75000 409.907
28.76000 404.754
28.77000 403.883
28.78000 405.340
28.79000 406.738
28.80000 404.958
28.81000 402.211
28.82000 399.828
28.83000 400.790
28.84000 402.563
28.85000 404.033
28.86000 403.820
28.87000 403.348
28.88000 402.970
28.89000 405.910
28.90000 408.525
28.91000 411.522
28.92000 415.440
28.93000 419.399
28.94000 422.974
28.95000 425.925
28.96000 428.868
28.97000 430.376
28.98000 427.081
28.99000 424.856
29.00000 421.428
29.01000 417.189
29.02000 412.959
29.03000 408.984
29.04000 405.123
29.05000 401.485
29.06000 395.198
29.07000 388.713
29.08000 383.405
29.09000 386.533
29.10000 391.321
29.11000 396.458
29.12000 403.162
29.13000 410.057
29.14000 415.302
29.15000 409.141
29.16000 403.697
29.17000 401.819
29.18000 407.072
29.19000 412.522
29.20000 415.797
29.21000 416.192
29.22000 416.572
29.23000 414.026
29.24000 409.025
29.25000 404.117
29.26000 403.808
29.27000 406.046
29.28000 408.385
29.29000 412.554
29.30000 417.403
29.31000 421.872
29.32000 416.299
29.33000 409.088
29.34000 403.290
29.35000 405.537
29.36000 409.055
29.37000 411.853
29.38000 411.995
29.39000 411.889
29.40000 411.812
29.41000 413.318
29.42000 414.528
29.43000 411.687
29.44000 402.166
29.45000 392.548
29.46000 392.365
29.47000 402.299
29.48000 412.187
29.49000 418.646
29.50000 422.702
29.51000 426.452
29.52000 421.505
29.53000 412.579
29.54000 404.160
29.55000 402.299
29.56000 402.450
29.57000 402.585
29.58000 394.611
29.59000 386.208
29.60000 379.051
29.61000 377.634
29.62000 376.932
29.63000 379.152
29.64000 390.246
29.65000 401.950
29.66000 409.874
29.67000 412.557
29.68000 414.442
29.69000 413.934
29.70000 410.196
29.71000 406.441
29.72000 403.841
29.73000 402.236
29.74000 400.650
29.75000 400.731
29.76000 401.728
29.77000 402.806
29.78000 405.391
29.79000 408.547
29.80000 411.209
29.81000 409.094
29.82000 405.776
29.83000 402.885
29.84000 405.455
29.85000 408.404
29.86000 411.192
29.87000 413.373
29.88000 415.496
29.89000 419.051
29.90000 426.201
29.91000 433.524
29.92000 438.141
29.93000 427.537
29.94000 419.683
29.95000 415.722
29.96000 416.022
29.97000 416.360
29.98000 421.285
29.99000 429.425
30.00000 437.383
30.01000 435.206
30.02000 428.590
30.03000 422.483
30.04000 423.167
30.05000 425.974
30.06000 427.890
30.07000 423.124
30.08000 416.986
30.09000 411.823
30.10000 418.711
30.11000 425.739
30.12000 429.698
30.13000 424.163
30.14000 417.953
30.15000 416.380
30.16000 424.433
30.17000 432.783
30.18000 437.633
30.19000 425.759
30.20000 417.351
30.21000 410.385
30.22000 404.686
30.23000 399.168
30.24000 403.690
30.25000 413.989
30.26000 423.919
30.27000 421.220
30.28000 414.101
30.29000 407.524
30.30000 406.335
30.31000 406.529
30.32000 407.341
30.33000 411.830
30.34000 416.925
30.35000 421.044
30.36000 417.754
30.37000 414.485
30.38000 410.776
30.39000 405.941
30.40000 401.050
30.41000 397.544
30.42000 396.409
30.43000 395.315
30.44000 394.737
30.45000 397.749
30.46000 399.816
30.47000 404.777
30.48000 411.808
30.49000 418.517
30.50000 415.171
30.51000 407.050
30.52000 399.353
30.53000 407.835
30.54000 420.394
30.55000 431.145
30.56000 427.994
30.57000 421.929
30.58000 415.561
30.59000 407.739
30.60000 399.726
30.61000 393.540
30.62000 406.131
30.63000 417.203
30.64000 423.378
30.65000 419.199
30.66000 414.685
30.67000 415.047
30.68000 422.265
30.69000 429.527
30.70000 428.928
30.71000 421.272
30.72000 413.739
30.73000 413.441
30.74000 417.388
30.75000 421.125
30.76000 420.643
30.77000 418.502
30.78000 416.516
30.79000 419.062
30.80000 422.427
30.81000 425.376
30.82000 425.799
30.83000 425.794
30.84000 426.867
30.85000 432.155
30.86000 437.869
30.87000 442.055
30.88000 441.310
30.89000 440.537
30.90000 440.859
30.91000 443.095
30.92000 445.366
30.93000 447.648
30.94000 449.945
30.95000 452.234
30.96000 455.621
30.97000 459.773
30.98000 464.015
30.99000 471.197
31.00000 479.802
31.01000 488.377
31.02000 496.519
31.03000 504.521
31.04000 511.765
31.05000 522.569
31.06000 532.757
31.07000 544.029
31.08000 560.603
31.09000 577.887
31.10000 594.470
31.11000 608.801
31.12000 622.961
31.13000 632.734
31.14000 672.548
31.15000 703.230
31.16000 738.582
31.17000 780.629
31.18000 822.728
31.19000 862.039
31.20000 898.794
31.21000 935.193
31.22000 976.719
31.23000 1020.384
31.24000 1064.354
31.25000 1114.742
31.26000 1167.698
31.27000 1221.111
31.28000 1279.320
31.29000 1338.809
31.30000 1391.124
31.31000 1440.884
31.32000 1483.318
31.33000 1527.425
31.34000 1578.203
31.35000 1629.673
31.36000 1672.286
31.37000 1691.387
31.38000 1709.224
31.39000 1720.722
31.40000 1735.652
31.41000 1746.605
31.42000 1749.263
31.43000 1742.242
31.44000 1735.144
31.45000 1716.088
31.46000 1688.138
31.47000 1660.719
31.48000 1632.314
31.49000 1604.474
31.50000 1574.938
31.51000 1520.556
31.52000 1457.956
31.53000 1397.372
31.54000 1353.061
31.55000 1312.301
31.56000 1277.639
31.57000 1212.147
31.58000 1153.590
31.59000 1099.128
31.60000 1058.078
31.61000 1018.073
31.62000 977.233
31.63000 934.557
31.64000 891.816
31.65000 866.347
31.66000 805.237
31.67000 761.715
31.68000 725.416
31.69000 695.890
31.70000 666.506
31.71000 646.917
31.72000 633.299
31.73000 620.110
31.74000 601.119
31.75000 580.918
31.76000 561.470
31.77000 550.154
31.78000 541.052
31.79000 531.518
31.80000 519.235
31.81000 506.467
31.82000 496.020
31.83000 494.005
31.84000 493.091
31.85000 490.025
31.86000 481.141
31.87000 471.932
31.88000 463.111
31.89000 454.993
31.90000 446.890
31.91000 442.481
31.92000 433.458
31.93000 427.291
31.94000 427.249
31.95000 431.857
31.96000 436.202
31.97000 430.947
31.98000 420.871
31.99000 411.269
32.00000 409.020
32.01000 409.232
32.02000 409.572
32.03000 410.972
32.04000 412.608
32.05000 413.916
32.06000 413.552
32.07000 412.952
32.08000 412.483
32.09000 410.898
32.10000 409.560
32.11000 406.410
32.12000 399.208
32.13000 391.855
32.14000 388.295
32.15000 390.389
32.16000 392.536
32.17000 392.230
32.18000 389.575
32.19000 386.973
32.20000 388.379
32.21000 392.275
32.22000 395.884
32.23000 392.956
32.24000 387.314
32.25000 382.043
32.26000 389.148
32.27000 398.711
32.28000 405.938
32.29000 397.983
32.30000 387.291
32.31000 378.753
32.32000 379.154
32.33000 380.533
32.34000 381.560
32.35000 387.120
32.36000 391.651
32.37000 393.414
32.38000 390.065
32.39000 386.603
32.40000 382.419
32.41000 377.358
32.42000 372.306
32.43000 369.703
32.44000 369.000
32.45000 368.484
32.46000 375.129
32.47000 385.441
32.48000 394.906
32.49000 391.125
32.50000 382.796
32.51000 375.198
32.52000 374.403
32.53000 375.070
32.54000 376.261
32.55000 380.182
32.56000 384.495
32.57000 387.327
32.58000 385.122
32.59000 382.501
32.60000 380.658
32.61000 375.146
32.62000 370.864
32.63000 369.182
32.64000 371.454
32.65000 373.767
32.66000 374.966
32.67000 375.074
32.68000 375.181
32.69000 377.075
32.70000 380.050
32.71000 382.773
32.72000 379.528
32.73000 373.757
32.74000 367.927
32.75000 361.424
32.76000 354.730
32.77000 348.791
32.78000 352.838
32.79000 357.938
32.80000 363.609
32.81000 371.698
32.82000 380.059
32.83000 388.236
32.84000 395.900
32.85000 403.533
32.86000 408.559
32.87000 415.246
32.88000 420.200
32.89000 429.649
32.90000 444.676
32.91000 459.681
32.92000 463.431
32.93000 458.286
32.94000 453.223
32.95000 450.325
32.96000 448.612
32.97000 447.023
32.98000 447.439
32.99000 448.557
33.00000 449.292
33.01000 446.694
33.02000 443.323
33.03000 440.426
33.04000 437.647
33.05000 435.312
33.06000 431.946
33.07000 425.010
33.08000 417.769
33.09000 407.202
33.10000 388.912
33.11000 370.308
33.12000 358.949
33.13000 353.117
33.14000 348.990
33.15000 348.438
33.16000 351.460
33.17000 354.466
33.18000 356.094
33.19000 356.832
33.20000 357.550
33.21000 361.036
33.22000 365.488
33.23000 368.854
33.24000 359.436
33.25000 346.330
33.26000 335.189
33.27000 337.419
33.28000 342.164
33.29000 346.094
33.30000 353.119
33.31000 359.212
33.32000 363.103
33.33000 360.700
33.34000 357.907
33.35000 355.963
33.36000 355.648
33.37000 355.373
33.38000 355.219
33.39000 355.398
33.40000 355.513
33.41000 352.151
33.42000 345.984
33.43000 339.850
33.44000 335.107
33.45000 331.104
33.46000 327.269
33.47000 327.696
33.48000 329.511
33.49000 331.400
33.50000 333.947
33.51000 336.650
33.52000 339.038
33.53000 339.715
33.54000 340.135
33.55000 340.468
33.56000 335.731
33.57000 331.561
33.58000 327.810
33.59000 325.052
33.60000 322.335
33.61000 321.504
33.62000 323.653
33.63000 325.838
33.64000 326.943
33.65000 328.357
33.66000 329.308
33.67000 330.766
33.68000 332.558
33.69000 334.367
33.70000 336.603
33.71000 339.025
33.72000 341.303
33.73000 340.948
33.74000 339.918
33.75000 339.359
33.76000 342.080
33.77000 345.431
33.78000 348.056
33.79000 347.482
33.80000 346.530
33.81000 345.810
33.82000 348.608
33.83000 350.979
33.84000 349.668
33.85000 341.158
33.86000 332.460
33.87000 328.618
33.88000 331.053
33.89000 333.509
33.90000 331.801
33.91000 326.680
33.92000 321.631
33.93000 319.858
33.94000 319.859
33.95000 320.228
33.96000 326.992
33.97000 336.078
33.98000 344.429
33.99000 345.560
34.00000 345.014
34.01000 344.096
34.02000 341.113
34.03000 337.813
34.04000 334.210
34.05000 329.519
34.06000 324.728
34.07000 321.301
34.08000 326.253
34.09000 330.318
34.10000 333.903
34.11000 336.717
34.12000 339.521
34.13000 338.237
34.14000 332.679
34.15000 327.152
34.16000 326.160
34.17000 328.184
34.18000 330.182
34.19000 331.465
34.20000 332.429
34.21000 332.985
34.22000 328.456
34.23000 322.402
34.24000 316.984
34.25000 320.891
34.26000 325.897
34.27000 329.632
34.28000 327.660
34.29000 324.997
34.30000 322.611
34.31000 321.049
34.32000 319.541
34.33000 318.528
34.34000 321.547
34.35000 323.872
34.36000 326.252
34.37000 328.702
34.38000 331.147
34.39000 330.375
34.40000 326.898
34.41000 323.467
34.42000 325.061
34.43000 329.312
34.44000 333.004
34.45000 326.645
34.46000 316.566
34.47000 308.029
34.48000 313.971
34.49000 323.475
34.50000 331.724
34.51000 330.420
34.52000 328.027
34.53000 326.381
34.54000 327.475
34.55000 328.824
34.56000 329.778
34.57000 329.763
34.58000 329.704
34.59000 329.667
34.60000 324.572
34.61000 320.843
34.62000 321.158
34.63000 325.792
34.64000 330.406
34.65000 332.587
34.66000 333.103
34.67000 333.607
34.68000 329.716
34.69000 324.078
34.70000 318.826
34.71000 318.547
34.72000 319.788
34.73000 321.587
34.74000 327.465
34.75000 334.160
34.76000 339.768
34.77000 333.719
34.78000 327.488
34.79000 323.207
34.80000 324.824
34.81000 326.845
34.82000 329.200
34.83000 332.234
34.84000 335.287
34.85000 337.043
34.86000 335.232
34.87000 333.951
34.88000 331.939
34.89000 329.301
34.90000 326.762
34.91000 329.279
34.92000 334.640
34.93000 339.801
34.94000 336.194
34.95000 329.707
34.96000 324.061
34.97000 326.523
34.98000 331.019
34.99000 334.635
35.00000 333.145
35.01000 330.832
35.02000 328.973
35.03000 319.553
35.04000 311.330
35.05000 307.442
35.06000 314.391
35.07000 321.858
35.08000 324.140
35.09000 317.742
35.10000 311.208
35.11000 307.798
35.12000 310.893
35.13000 313.001
35.14000 316.898
35.15000 322.044
35.16000 326.921
35.17000 323.886
35.18000 317.175
35.19000 310.828
35.20000 305.837
35.21000 301.638
35.22000 298.182
35.23000 300.277
35.24000 303.507
35.25000 306.717
35.26000 309.837
35.27000 312.946
35.28000 315.332
35.29000 311.969
35.30000 308.990
35.31000 305.906
35.32000 302.603
35.33000 299.294
35.34000 297.037
35.35000 296.224
35.36000 295.420
35.37000 299.091
35.38000 306.670
35.39000 314.063
35.40000 311.238
35.41000 302.553
35.42000 294.445
35.43000 297.469
35.44000 304.770
35.45000 311.527
35.46000 307.222
35.47000 300.808
35.48000 295.941
35.49000 300.244
35.50000 306.055
35.51000 310.716
35.52000 310.976
35.53000 310.806
35.54000 310.682
35.55000 305.145
35.56000 300.676
35.57000 300.639
35.58000 308.163
35.59000 315.815
35.60000 316.541
35.61000 309.552
35.62000 302.585
35.63000 300.321
35.64000 301.397
35.65000 302.532
35.66000 305.486
35.67000 309.302
35.68000 312.518
35.69000 307.542
35.70000 299.966
35.71000 293.129
35.72000 295.346
35.73000 298.954
35.74000 301.989
35.75000 302.287
35.76000 302.229
35.77000 302.643
35.78000 304.539
35.79000 306.543
35.80000 307.916
35.81000 303.852
35.82000 300.678
35.83000 297.152
35.84000 293.133
35.85000 289.114
35.86000 290.485
35.87000 296.679
35.88000 302.806
35.89000 304.614
35.90000 303.912
35.91000 303.166
35.92000 301.531
35.93000 299.548
35.94000 297.606
35.95000 296.078
35.96000 294.658
35.97000 293.415
35.98000 296.731
35.99000 300.234
36.00000 304.414
36.01000 311.230
36.02000 318.311
36.03000 322.786
36.04000 320.493
36.05000 317.853
36.06000 316.165
36.07000 305.638
36.08000 297.860
36.09000 295.399
36.10000 298.987
36.11000 302.569
36.12000 304.230
36.13000 304.496
36.14000 304.756
36.15000 298.862
36.16000 290.341
36.17000 282.556
36.18000 285.148
36.19000 291.096
36.20000 296.430
36.21000 296.953
36.22000 296.451
36.23000 296.025
36.24000 292.286
36.25000 288.784
36.26000 286.665
36.27000 288.977
36.28000 291.621
36.29000 293.736
36.30000 294.715
36.31000 295.655
36.32000 296.210
36.33000 292.538
36.34000 289.924
36.35000 289.720
36.36000 291.717
36.37000 293.746
36.38000 297.676
36.39000 302.739
36.40000 307.635
36.41000 302.135
36.42000 293.031
36.43000 285.071
36.44000 289.056
36.45000 296.220
36.46000 302.657
36.47000 304.594
36.48000 305.758
36.49000 306.706
36.50000 304.999
36.51000 303.381
36.52000 303.386
36.53000 307.685
36.54000 312.212
36.55000 312.175
36.56000 304.046
36.57000 295.761
36.58000 291.306
36.59000 290.128
36.60000 289.351
36.61000 292.984
36.62000 299.885
36.63000 306.563
36.64000 305.625
36.65000 300.944
36.66000 296.493
36.67000 297.740
36.68000 300.629
36.69000 303.665
36.70000 307.881
36.71000 312.353
36.72000 314.365
36.73000 304.123
36.74000 292.207
36.75000 282.929
36.76000 279.582
36.77000 277.282
36.78000 276.937
36.79000 280.868
36.80000 284.949
36.81000 289.704
36.82000 295.442
36.83000 301.186
36.84000 300.373
36.85000 293.441
36.86000 286.610
36.87000 286.692
36.88000 290.972
36.89000 295.156
36.90000 297.259
36.91000 298.516
36.92000 299.688
36.93000 299.386
36.94000 298.752
36.95000 298.916
36.96000 304.134
36.97000 310.240
36.98000 314.457
36.99000 311.018
37.00000 306.767
37.01000 303.621
37.02000 314.647
37.03000 323.810
37.04000 328.564
37.05000 325.350
37.06000 321.974
37.07000 315.496
37.08000 305.337
37.09000 295.199
37.10000 294.217
37.11000 300.119
37.12000 305.931
37.13000 308.533
37.14000 309.528
37.15000 310.270
37.16000 307.226
37.17000 302.909
37.18000 298.983
37.19000 295.880
37.20000 293.297
37.21000 291.838
37.22000 296.095
37.23000 301.151
37.24000 303.109
37.25000 294.760
37.26000 285.589
37.27000 279.187
37.28000 283.557
37.29000 287.156
37.30000 290.833
37.31000 294.628
37.32000 298.423
37.33000 298.697
37.34000 295.613
37.35000 292.555
37.36000 291.059
37.37000 290.540
37.38000 290.041
37.39000 290.005
37.40000 290.159
37.41000 290.437
37.42000 292.076
37.43000 294.091
37.44000 295.874
37.45000 299.145
37.46000 302.203
37.47000 304.653
37.48000 304.594
37.49000 304.262
37.50000 304.000
37.51000 303.928
37.52000 303.867
37.53000 303.827
37.54000 298.954
37.55000 295.299
37.56000 294.359
37.57000 296.705
37.58000 299.049
37.59000 298.919
37.60000 296.881
37.61000 294.878
37.62000 293.550
37.63000 292.598
37.64000 291.550
37.65000 289.006
37.66000 285.950
37.67000 283.531
37.68000 286.487
37.69000 290.659
37.70000 294.229
37.71000 291.598
37.72000 288.629
37.73000 286.427
37.74000 286.824
37.75000 287.434
37.76000 288.771
37.77000 291.756
37.78000 294.804
37.79000 296.648
37.80000 290.355
37.81000 285.811
37.82000 285.681
37.83000 289.853
37.84000 294.018
37.85000 297.677
37.86000 301.017
37.87000 304.261
37.88000 303.896
37.89000 302.107
37.90000 300.437
37.91000 300.123
37.92000 300.192
37.93000 299.636
37.94000 294.943
37.95000 289.491
37.96000 284.998
37.97000 293.129
37.98000 300.982
37.99000 307.386
38.00000 309.739
38.01000 311.851
38.02000 312.533
38.03000 310.528
38.04000 308.462
38.05000 307.318
38.06000 302.699
38.07000 299.518
38.08000 300.104
38.09000 303.656
38.10000 307.137
38.11000 307.767
38.12000 306.915
38.13000 306.101
38.14000 306.866
38.15000 308.089
38.16000 309.192
38.17000 309.253
38.18000 309.073
38.19000 308.948
38.20000 309.114
38.21000 309.323
38.22000 309.488
38.23000 318.251
38.24000 325.868
38.25000 330.402
38.26000 327.807
38.27000 324.925
38.28000 321.693
38.29000 317.923
38.30000 314.147
38.31000 315.119
38.32000 320.824
38.33000 326.493
38.34000 329.144
38.35000 329.853
38.36000 330.731
38.37000 335.747
38.38000 342.542
38.39000 348.914
38.40000 363.841
38.41000 379.674
38.42000 395.073
38.43000 407.524
38.44000 419.424
38.45000 431.195
38.46000 442.414
38.47000 453.570
38.48000 461.954
38.49000 510.785
38.50000 550.911
38.51000 586.047
38.52000 611.646
38.53000 637.012
38.54000 669.830
38.55000 712.053
38.56000 754.238
38.57000 803.165
38.58000 857.281
38.59000 911.211
38.60000 957.225
38.61000 999.047
38.62000 1041.526
38.63000 1094.937
38.64000 1152.231
38.65000 1204.737
38.66000 1248.970
38.67000 1286.623
38.68000 1326.194
38.69000 1376.141
38.70000 1427.643
38.71000 1470.866
38.72000 1484.914
38.73000 1496.419
38.74000 1504.595
38.75000 1530.484
38.76000 1550.758
38.77000 1554.255
38.78000 1531.333
38.79000 1508.089
38.80000 1478.293
38.81000 1441.825
38.82000 1405.588
38.83000 1369.714
38.84000 1334.594
38.85000 1298.631
38.86000 1241.117
38.87000 1174.169
38.88000 1108.168
38.89000 1053.566
38.90000 1002.305
38.91000 956.579
38.92000 903.495
38.93000 856.082
38.94000 808.327
38.95000 759.068
38.96000 709.633
38.97000 662.696
38.98000 623.016
38.99000 583.798
39.00000 557.659
39.01000 516.720
39.02000 486.129
39.03000 460.581
39.04000 441.529
39.05000 422.505
39.06000 405.102
39.07000 389.028
39.08000 373.182
39.09000 359.433
39.10000 347.179
39.11000 335.517
39.12000 334.077
39.13000 336.336
39.14000 338.295
39.15000 337.529
39.16000 336.108
39.17000 334.879
39.18000 322.565
39.19000 310.660
39.20000 300.754
39.21000 298.023
39.22000 295.936
39.23000 295.861
39.24000 300.618
39.25000 305.586
39.26000 308.662
39.27000 304.819
39.28000 301.990
39.29000 297.448
39.30000 291.123
39.31000 284.799
39.32000 278.592
39.33000 272.463
39.34000 266.488
39.35000 266.825
39.36000 269.834
39.37000 272.962
39.38000 277.575
39.39000 282.630
39.40000 286.953
39.41000 286.072
39.42000 284.176
39.43000 282.594
39.44000 273.787
39.45000 265.764
39.46000 261.850
39.47000 270.100
39.48000 279.150
39.49000 285.660
39.50000 287.128
39.51000 288.459
39.52000 289.216
39.53000 279.516
39.54000 272.737
39.55000 272.386
39.56000 277.418
39.57000 282.261
39.58000 278.077
39.59000 268.927
39.60000 260.136
39.61000 258.816
39.62000 260.158
39.63000 261.438
39.64000 262.141
39.65000 262.702
39.66000 263.284
39.67000 263.982
39.68000 264.699
39.69000 265.273
39.70000 262.947
39.71000 260.850
39.72000 259.995
39.73000 262.179
39.74000 264.501
39.75000 266.219
39.76000 266.947
39.77000 267.662
39.78000 268.030
39.79000 273.159
39.80000 276.576
39.81000 275.644
39.82000 271.746
39.83000 267.918
39.84000 266.040
39.85000 265.049
39.86000 264.113
39.87000 268.394
39.88000 273.772
39.89000 278.891
39.90000 282.129
39.91000 284.991
39.92000 284.938
39.93000 271.569
39.94000 256.556
39.95000 245.100
39.96000 248.386
39.97000 251.764
39.98000 253.840
39.99000 253.285
40.00000 252.654
40.01000 253.468
40.02000 256.222
40.03000 258.983
40.04000 262.951
40.05000 267.939
40.06000 272.828
40.07000 272.694
40.08000 269.743
40.09000 266.711
40.10000 262.162
40.11000 257.043
40.12000 252.318
40.13000 257.978
40.14000 265.379
40.15000 270.922
40.16000 265.731
40.17000 258.819
40.18000 253.605
40.19000 254.729
40.20000 256.454
40.21000 257.701
40.22000 256.553
40.23000 255.586
40.24000 254.164
40.25000 251.986
40.26000 249.796
40.27000 248.220
40.28000 247.310
40.29000 246.405
40.30000 249.100
40.31000 254.242
40.32000 259.254
40.33000 260.450
40.34000 259.879
40.35000 259.146
40.36000 256.279
40.37000 252.749
40.38000 249.575
40.39000 255.925
40.40000 263.188
40.41000 268.675
40.42000 265.886
40.43000 262.050
40.44000 259.354
40.45000 260.161
40.46000 261.214
40.47000 261.930
40.48000 257.606
40.49000 254.264
40.50000 251.531
40.51000 249.632
40.52000 247.737
40.53000 245.769
40.54000 243.738
40.55000 241.731
40.56000 246.351
40.57000 254.555
40.58000 262.319
40.59000 261.655
40.60000 257.765
40.61000 254.418
40.62000 256.418
40.63000 259.781
40.64000 262.717
40.65000 261.992
40.66000 260.857
40.67000 259.960
40.68000 259.964
40.69000 260.057
40.70000 260.275
40.71000 260.811
40.72000 261.364
40.73000 261.714
40.74000 255.148
40.75000 250.303
40.76000 249.163
40.77000 252.135
40.78000 255.121
40.79000 259.635
40.80000 265.234
40.81000 270.712
40.82000 270.439
40.83000 267.574
40.84000 264.769
40.85000 262.785
40.86000 261.060
40.87000 259.367
40.88000 257.908
40.89000 256.498
40.90000 255.309
40.91000 254.781
40.92000 254.411
40.93000 253.668
40.94000 251.757
40.95000 249.761
40.96000 248.896
40.97000 250.404
40.98000 251.987
40.99000 252.912
41.00000 250.270
41.01000 248.396
41.02000 246.765
41.03000 245.351
41.04000 243.997
41.05000 246.148
41.06000 250.339
41.07000 254.383
41.08000 253.495
41.09000 250.846
41.10000 248.405
41.11000 248.056
41.12000 248.252
41.13000 248.395
41.14000 248.221
41.15000 247.993
41.16000 247.808
41.17000 248.121
41.18000 248.416
41.19000 248.044
41.20000 245.945
41.21000 243.758
41.22000 242.715
41.23000 243.653
41.24000 244.626
41.25000 245.143
41.26000 241.479
41.27000 238.991
41.28000 237.723
41.29000 237.340
41.30000 237.150
41.31000 243.226
41.32000 252.313
41.33000 260.934
41.34000 253.114
41.35000 241.014
41.36000 230.465
41.37000 232.013
41.38000 236.129
41.39000 239.555
41.40000 239.631
41.41000 239.262
41.42000 238.976
41.43000 244.568
41.44000 249.356
41.45000 252.042
41.46000 250.230
41.47000 248.268
41.48000 243.770
41.49000 235.663
41.50000 227.532
41.51000 230.412
41.52000 243.305
41.53000 256.015
41.54000 257.337
41.55000 251.901
41.56000 246.531
41.57000 242.541
41.58000 239.098
41.59000 235.899
41.60000 236.930
41.61000 238.872
41.62000 240.468
41.63000 239.933
41.64000 239.033
41.65000 239.004
41.66000 242.418
41.67000 246.187
41.68000 248.957
41.69000 239.353
41.70000 231.417
41.71000 227.715
41.72000 231.491
41.73000 235.409
41.74000 237.302
41.75000 236.852
41.76000 236.400
41.77000 235.071
41.78000 233.111
41.79000 231.260
41.80000 233.147
41.81000 236.864
41.82000 240.294
41.83000 239.572
41.84000 237.485
41.85000 235.593
41.86000 238.891
41.87000 242.791
41.88000 245.260
41.89000 240.636
41.90000 235.048
41.91000 231.015
41.92000 232.041
41.93000 233.458
41.94000 234.439
41.95000 234.645
41.96000 234.780
41.97000 235.809
41.98000 238.137
41.99000 240.475
42.00000 241.167
42.01000 240.328
42.02000 239.497
42.03000 237.886
42.04000 235.845
42.05000 233.960
42.06000 235.432
42.07000 238.262
42.08000 240.672
42.09000 238.589
42.10000 235.291
42.11000 232.386
42.12000 225.824
42.13000 219.618
42.14000 215.703
42.15000 221.036
42.16000 227.345
42.17000 232.636
42.18000 235.193
42.19000 237.599
42.20000 239.157
42.21000 237.005
42.22000 235.376
42.23000 234.186
42.24000 233.516
42.25000 232.867
42.26000 236.307
42.27000 242.827
42.28000 249.227
42.29000 246.264
42.30000 238.901
42.31000 231.688
42.32000 226.704
42.33000 222.467
42.34000 219.052
42.35000 222.367
42.36000 227.169
42.37000 231.263
42.38000 229.006
42.39000 226.365
42.40000 225.485
42.41000 230.443
42.42000 235.864
42.43000 238.915
42.44000 236.705
42.45000 234.303
42.46000 232.865
42.47000 227.249
42.48000 223.235
42.49000 222.134
42.50000 223.803
42.51000 225.435
42.52000 224.491
42.53000 221.957
42.54000 219.501
42.55000 222.656
42.56000 227.835
42.57000 232.734
42.58000 234.543
42.59000 235.501
42.60000 236.055
42.61000 234.010
42.62000 231.499
42.63000 229.440
42.64000 236.407
42.65000 242.926
42.66000 245.246
42.67000 236.076
42.68000 226.250
42.69000 221.224
42.70000 225.001
42.71000 228.967
42.72000 231.138
42.73000 234.977
42.74000 237.600
42.75000 235.857
42.76000 230.758
42.77000 225.829
42.78000 227.306
42.79000 232.039
42.80000 236.554
42.81000 234.778
42.82000 231.140
42.83000 227.840
42.84000 227.386
42.85000 227.573
42.86000 227.766
42.87000 227.991
42.88000 228.221
42.89000 228.401
42.90000 229.923
42.91000 231.229
42.92000 231.446
42.93000 229.203
42.94000 226.866
42.95000 224.370
42.96000 221.636
42.97000 218.900
42.98000 219.341
42.99000 222.867
43.00000 226.306
43.01000 222.891
43.02000 215.167
43.03000 207.849
43.04000 210.003
43.05000 216.137
43.06000 221.875
43.07000 220.637
43.08000 217.731
43.09000 215.443
43.10000 217.233
43.11000 219.767
43.12000 221.267
43.13000 218.424
43.14000 215.097
43.15000 212.612
43.16000 213.277
43.17000 213.939
43.18000 216.157
43.19000 221.282
43.20000 226.474
43.21000 229.552
43.22000 230.029
43.23000 230.498
43.24000 232.051
43.25000 234.442
43.26000 236.748
43.27000 235.685
43.28000 232.877
43.29000 230.094
43.30000 227.697
43.31000 225.434
43.32000 223.367
43.33000 227.942
43.34000 233.363
43.35000 236.874
43.36000 230.302
43.37000 222.259
43.38000 216.415
43.39000 218.141
43.40000 220.504
43.41000 222.172
43.42000 224.018
43.43000 225.424
43.44000 227.200
43.45000 229.543
43.46000 231.893
43.47000 233.118
43.48000 233.226
43.49000 233.335
43.50000 227.362
43.51000 217.650
43.52000 208.480
43.53000 212.514
43.54000 222.201
43.55000 230.865
43.56000 227.627
43.57000 220.980
43.58000 215.071
43.59000 219.032
43.60000 224.067
43.61000 227.982
43.62000 227.102
43.63000 225.675
43.64000 224.664
43.65000 224.836
43.66000 225.081
43.67000 225.242
43.68000 214.602
43.69000 206.558
43.70000 205.953
43.71000 214.700
43.72000 223.455
43.73000 225.496
43.74000 222.162
43.75000 218.880
43.76000 220.245
43.77000 223.947
43.78000 227.273
43.79000 224.401
43.80000 219.335
43.81000 215.249
43.82000 219.829
43.83000 226.443
43.84000 232.138
43.85000 225.395
43.86000 218.112
43.87000 212.346
43.88000 211.907
43.89000 211.929
43.90000 213.774
43.91000 219.899
43.92000 226.202
43.93000 230.070
43.94000 220.242
43.95000 213.083
43.96000 211.138
43.97000 214.482
43.98000 217.842
43.99000 222.726
44.00000 228.606
44.01000 234.329
44.02000 229.333
44.03000 220.123
44.04000 211.593
44.05000 211.206
44.06000 213.197
44.07000 215.257
44.08000 217.792
44.09000 220.417
44.10000 222.596
44.11000 220.805
44.12000 218.941
44.13000 216.961
44.14000 214.644
44.15000 212.306
44.16000 211.895
44.17000 215.223
44.18000 218.646
44.19000 220.573
44.20000 215.185
44.21000 211.433
44.22000 210.822
44.23000 212.776
44.24000 214.749
44.25000 217.574
44.26000 220.857
44.27000 224.005
44.28000 227.009
44.29000 229.765
44.30000 232.251
44.31000 232.291
44.32000 231.745
44.33000 230.724
44.34000 227.083
44.35000 223.043
44.36000 219.827
44.37000 222.683
44.38000 225.421
44.39000 225.350
44.40000 218.557
44.41000 211.473
44.42000 207.295
44.43000 207.766
44.44000 208.298
44.45000 208.568
44.46000 212.484
44.47000 215.103
44.48000 216.914
44.49000 218.187
44.50000 219.414
44.51000 219.422
44.52000 218.889
44.53000 218.386
44.54000 216.992
44.55000 215.474
44.56000 214.334
44.57000 215.866
44.58000 217.917
44.59000 219.587
44.60000 219.561
44.61000 219.331
44.62000 219.157
44.63000 223.702
44.64000 227.514
44.65000 230.415
44.66000 231.513
44.67000 232.563
44.68000 230.873
44.69000 225.597
44.70000 220.311
44.71000 221.717
44.72000 228.683
44.73000 235.501
44.74000 235.333
44.75000 231.337
44.76000 227.583
44.77000 228.138
44.78000 230.276
44.79000 232.244
44.80000 234.112
44.81000 235.761
44.82000 236.654
44.83000 233.293
44.84000 229.269
44.85000 225.743
44.86000 224.037
44.87000 222.497
44.88000 221.392
44.89000 227.708
44.90000 232.795
44.91000 236.760
44.92000 238.895
44.93000 241.004
44.94000 242.517
44.95000 243.397
44.96000 244.272
44.97000 244.474
44.98000 244.223
44.99000 244.025
45.00000 245.306
45.01000 247.258
45.02000 249.283
45.03000 252.243
45.04000 255.486
45.05000 258.394
45.06000 261.546
45.07000 264.342
45.08000 267.023
45.09000 269.183
45.10000 271.279
45.11000 271.808
45.12000 267.625
45.13000 263.124
45.14000 260.087
45.15000 257.334
45.16000 255.292
45.17000 254.382
45.18000 254.983
45.19000 255.593
45.20000 257.120
45.21000 259.428
45.22000 261.706
45.23000 265.257
45.24000 269.408
45.25000 273.055
45.26000 267.438
45.27000 258.354
45.28000 250.330
45.29000 252.435
45.30000 257.062
45.31000 261.086
45.32000 262.782
45.33000 263.912
45.34000 262.918
45.35000 254.023
45.36000 244.384
45.37000 239.228
45.38000 245.208
45.39000 251.712
45.40000 255.795
45.41000 251.799
45.42000 248.821
45.43000 250.179
45.44000 256.230
45.45000 262.219
45.46000 260.419
45.47000 253.220
45.48000 246.186
45.49000 246.599
45.50000 250.283
45.51000 253.542
45.52000 251.228
45.53000 247.193
45.54000 242.997
45.55000 237.618
45.56000 231.998
45.57000 227.281
45.58000 224.192
45.59000 221.790
45.60000 221.064
45.61000 225.470
45.62000 230.234
45.63000 236.298
45.64000 245.035
45.65000 253.851
45.66000 258.948
45.67000 241.713
45.68000 229.556
45.69000 227.898
45.70000 235.367
45.71000 242.763
45.72000 246.291
45.73000 247.616
45.74000 248.893
45.75000 239.686
45.76000 227.280
45.77000 216.166
45.78000 217.704
45.79000 222.456
45.80000 225.572
45.81000 219.070
45.82000 210.999
45.83000 204.492
45.84000 216.614
45.85000 227.924
45.86000 235.310
45.87000 232.766
45.88000 229.737
45.89000 225.928
45.90000 220.799
45.91000 215.648
45.92000 212.943
45.93000 214.247
45.94000 215.152
45.95000 218.646
45.96000 223.970
45.97000 229.009
45.98000 225.413
45.99000 217.758
46.00000 210.511
46.01000 212.260
46.02000 216.476
46.03000 219.991
46.04000 218.191
46.05000 215.291
46.06000 212.833
46.07000 212.471
46.08000 212.379
46.09000 212.309
46.10000 217.253
46.11000 221.452
46.12000 220.845
46.13000 210.182
46.14000 199.202
46.15000 193.390
46.16000 194.762
46.17000 196.180
46.18000 198.411
46.19000 201.359
46.20000 204.303
46.21000 206.996
46.22000 209.544
46.23000 212.047
46.24000 213.669
46.25000 214.948
46.26000 216.133
46.27000 210.648
46.28000 204.156
46.29000 198.912
46.30000 201.165
46.31000 204.668
46.32000 207.117
46.33000 205.490
46.34000 203.457
46.35000 201.972
46.36000 202.307
46.37000 202.637
46.38000 203.027
46.39000 203.522
46.40000 204.018
46.41000 204.874
46.42000 206.135
46.43000 207.392
46.44000 205.956
46.45000 202.608
46.46000 199.334
46.47000 198.383
46.48000 198.545
46.49000 198.744
46.50000 199.463
46.51000 200.349
46.52000 201.149
46.53000 202.900
46.54000 204.617
46.55000 206.009
46.56000 205.831
46.57000 205.446
46.58000 205.179
46.59000 205.293
46.60000 205.435
46.61000 205.533
46.62000 201.502
46.63000 198.375
46.64000 196.660
46.65000 196.946
46.66000 197.247
46.67000 198.010
46.68000 199.193
46.69000 200.363
46.70000 199.110
46.71000 196.481
46.72000 193.965
46.73000 193.756
46.74000 194.460
46.75000 195.130
46.76000 195.454
46.77000 195.686
46.78000 195.889
46.79000 192.053
46.80000 188.165
46.81000 185.213
46.82000 185.950
46.83000 187.065
46.84000 187.916
46.85000 188.077
46.86000 188.201
46.87000 188.280
46.88000 191.663
46.89000 194.175
46.90000 197.177
46.91000 200.745
46.92000 204.307
46.93000 206.622
46.94000 208.021
46.95000 209.392
46.96000 205.542
46.97000 199.383
46.98000 193.636
46.99000 193.810
47.00000 195.922
47.01000 197.635
47.02000 196.176
47.03000 194.032
47.04000 192.213
47.05000 189.952
47.06000 188.005
47.07000 187.132
47.08000 189.738
47.09000 192.610
47.10000 192.825
47.11000 187.272
47.12000 181.519
47.13000 178.107
47.14000 181.675
47.15000 184.240
47.16000 186.911
47.17000 189.682
47.18000 192.423
47.19000 193.185
47.20000 192.755
47.21000 192.338
47.22000 188.093
47.23000 182.621
47.24000 177.866
47.25000 180.728
47.26000 185.642
47.27000 190.064
47.28000 191.394
47.29000 192.186
47.30000 192.833
47.31000 191.097
47.32000 189.473
47.33000 188.139
47.34000 187.581
47.35000 187.065
47.36000 187.551
47.37000 189.835
47.38000 192.154
47.39000 193.409
47.40000 195.129
47.41000 196.291
47.42000 194.280
47.43000 189.888
47.44000 185.658
47.45000 187.152
47.46000 191.490
47.47000 195.620
47.48000 194.653
47.49000 192.184
47.50000 190.265
47.51000 192.827
47.52000 196.375
47.53000 199.213
47.54000 198.463
47.55000 197.216
47.56000 196.243
47.57000 192.373
47.58000 189.105
47.59000 187.829
47.60000 190.965
47.61000 194.260
47.62000 195.419
47.63000 193.429
47.64000 191.410
47.65000 186.024
47.66000 177.455
47.67000 169.011
47.68000 169.550
47.69000 175.608
47.70000 181.698
47.71000 188.512
47.72000 195.623
47.73000 202.258
47.74000 199.998
47.75000 195.737
47.76000 191.736
47.77000 189.399
47.78000 187.358
47.79000 186.040
47.80000 187.687
47.81000 189.652
47.82000 191.112
47.83000 191.292
47.84000 191.375
47.85000 189.003
47.86000 182.143
47.87000 175.187
47.88000 175.434
47.89000 184.337
47.90000 193.237
47.91000 194.404
47.92000 189.681
47.93000 185.056
47.94000 184.109
47.95000 185.024
47.96000 185.851
47.97000 185.333
47.98000 184.357
47.99000 183.468
48.00000 185.976
48.01000 188.873
48.02000 190.939
48.03000 188.731
48.04000 185.916
48.05000 183.893
48.06000 184.537
48.07000 185.397
48.08000 186.000
48.09000 187.912
48.10000 189.396
48.11000 189.138
48.12000 186.262
48.13000 183.360
48.14000 182.576
48.15000 183.840
48.16000 185.094
48.17000 185.011
48.18000 184.107
48.19000 183.236
48.20000 183.098
48.21000 183.268
48.22000 183.582
48.23000 185.507
48.24000 187.883
48.25000 189.988
48.26000 188.622
48.27000 186.895
48.28000 185.299
48.29000 184.258
48.30000 183.278
48.31000 181.103
48.32000 175.611
48.33000 169.924
48.34000 166.195
48.35000 166.497
48.36000 166.787
48.37000 167.462
48.38000 168.611
48.39000 169.763
48.40000 171.535
48.41000 173.793
48.42000 176.013
48.43000 179.287
48.44000 182.981
48.45000 186.437
48.46000 186.105
48.47000 184.461
48.48000 183.274
48.49000 186.006
48.50000 189.637
48.51000 192.751
48.52000 189.007
48.53000 185.003
48.54000 181.482
48.55000 179.619
48.56000 177.895
48.57000 176.169
48.58000 174.438
48.59000 172.706
48.60000 171.654
48.61000 172.832
48.62000 173.689
48.63000 177.107
48.64000 183.054
48.65000 188.945
48.66000 190.248
48.67000 188.620
48.68000 187.037
48.69000 183.020
48.70000 178.216
48.71000 173.698
48.72000 172.481
48.73000 172.205
48.74000 172.281
48.75000 174.710
48.76000 177.578
48.77000 179.946
48.78000 175.793
48.79000 171.759
48.80000 168.779
48.81000 168.779
48.82000 168.961
48.83000 172.265
48.84000 181.498
48.85000 190.873
48.86000 196.092
48.87000 188.325
48.88000 182.936
48.89000 180.529
48.90000 180.499
48.91000 180.509
48.92000 182.144
48.93000 184.634
48.94000 187.017
48.95000 185.160
48.96000 182.037
48.97000 179.010
48.98000 176.822
48.99000 174.830
49.00000 173.520
49.01000 175.869
49.02000 178.762
49.03000 181.053
49.04000 179.070
49.05000 177.181
49.06000 177.134
49.07000 181.398
49.08000 185.841
49.09000 187.809
49.10000 185.912
49.11000 183.969
49.12000 182.993
49.13000 182.488
49.14000 182.146
49.15000 181.385
49.16000 180.352
49.17000 179.260
49.18000 176.691
49.19000 173.481
49.20000 170.467
49.21000 171.704
49.22000 173.960
49.23000 176.098
49.24000 177.424
49.25000 178.597
49.26000 179.363
49.27000 178.359
49.28000 177.150
49.29000 176.238
49.30000 174.661
49.31000 173.394
49.32000 173.355
49.33000 175.693
49.34000 178.092
49.35000 180.954
49.36000 184.408
49.37000 187.860
49.38000 188.128
49.39000 185.815
49.40000 183.430
49.41000 177.849
49.42000 170.557
49.43000 163.908
49.44000 168.209
49.45000 176.446
49.46000 184.005
49.47000 183.167
49.48000 180.632
49.49000 178.117
49.50000 175.709
49.51000 173.318
49.52000 173.124
49.53000 180.767
49.54000 189.104
49.55000 195.050
49.56000 183.779
49.57000 174.620
49.58000 169.431
49.59000 170.568
49.60000 171.786
49.61000 171.779
49.62000 170.508
49.63000 169.245
49.64000 171.176
49.65000 175.173
49.66000 179.080
49.67000 180.620
49.68000 181.112
49.69000 181.298
49.70000 177.718
49.71000 173.022
49.72000 168.826
49.73000 175.000
49.74000 182.131
49.75000 187.045
49.76000 182.108
49.77000 175.996
49.78000 172.248
49.79000 175.444
49.80000 179.090
49.81000 181.531
49.82000 178.089
49.83000 175.420
49.84000 174.439
49.85000 175.658
49.86000 176.880
49.87000 174.848
49.88000 170.115
49.89000 165.446
49.90000 165.838
49.91000 168.906
49.92000 172.045
49.93000 176.422
49.94000 181.253
49.95000 185.471
49.96000 184.028
49.97000 181.207
49.98000 178.763
49.99000 181.859
50.00000 185.226
50.01000 187.054
50.02000 183.290
50.03000 179.015
50.04000 175.861
50.05000 175.431
50.06000 175.122
50.07000 174.930
50.08000 167.602
50.09000 162.252
50.10000 163.541
50.11000 171.831
50.12000 180.078
50.13000 183.419
50.14000 183.438
50.15000 183.456
50.16000 178.281
50.17000 171.097
50.18000 164.676
50.19000 167.902
50.20000 174.043
50.21000 179.237
50.22000 177.617
50.23000 174.647
50.24000 172.166
50.25000 172.395
50.26000 172.860
50.27000 172.039
50.28000 167.369
50.29000 162.441
50.30000 162.113
50.31000 171.022
50.32000 180.192
50.33000 185.437
50.34000 174.191
50.35000 166.295
50.36000 166.413
50.37000 173.327
50.38000 180.109
50.39000 180.312
50.40000 176.854
50.41000 173.528
50.42000 176.540
50.43000 181.579
50.44000 186.128
50.45000 186.026
50.46000 184.771
50.47000 183.689
50.48000 183.608
50.49000 183.686
50.50000 183.748
50.51000 189.158
50.52000 193.945
50.53000 196.335
50.54000 192.792
50.55000 188.972
50.56000 187.481
50.57000 189.849
50.58000 192.274
50.59000 193.532
50.60000 195.269
50.61000 196.428
50.62000 196.063
50.63000 194.645
50.64000 193.182
50.65000 190.458
50.66000 187.154
50.67000 184.033
50.68000 186.148
50.69000 189.569
50.70000 192.710
50.71000 193.781
50.72000 194.434
50.73000 194.177
50.74000 189.711
50.75000 184.717
50.76000 180.895
50.77000 186.145
50.78000 190.784
50.79000 195.076
50.80000 198.657
50.81000 202.217
50.82000 202.152
50.83000 197.168
50.84000 192.160
50.85000 189.147
50.86000 187.865
50.87000 186.615
50.88000 187.083
50.89000 188.525
50.90000 189.858
50.91000 189.142
50.92000 187.646
50.93000 186.264
50.94000 189.141
50.95000 192.692
50.96000 195.093
50.97000 190.766
50.98000 185.345
50.99000 181.487
51.00000 183.533
51.01000 186.149
51.02000 188.046
51.03000 188.040
51.04000 187.964
51.05000 187.419
51.06000 186.081
51.07000 184.731
51.08000 183.615
51.09000 182.757
51.10000 181.903
51.11000 180.098
51.12000 177.649
51.13000 175.331
51.14000 176.975
51.15000 180.474
51.16000 183.593
51.17000 181.609
51.18000 178.022
51.19000 174.791
51.20000 172.616
51.21000 170.899
51.22000 169.819
51.23000 171.750
51.24000 174.068
51.25000 175.907
51.26000 176.257
51.27000 176.500
51.28000 176.666
51.29000 172.959
51.30000 170.097
51.31000 170.035
51.32000 173.851
51.33000 177.687
51.34000 177.173
51.35000 172.812
51.36000 168.499
51.37000 171.450
51.38000 178.433
51.39000 184.948
51.40000 182.267
51.41000 176.025
51.42000 170.253
51.43000 169.201
51.44000 169.368
51.45000 169.513
51.46000 170.685
51.47000 171.836
51.48000 172.031
51.49000 168.547
51.50000 164.698
51.51000 161.800
51.52000 161.347
51.53000 161.017
51.54000 160.807
51.55000 155.619
51.56000 151.786
51.57000 152.151
51.58000 157.235
51.59000 162.301
51.60000 163.886
51.61000 162.972
51.62000 162.077
51.63000 159.635
51.64000 156.581
51.65000 153.892
51.66000 156.267
51.67000 160.262
51.68000 164.141
51.69000 167.114
51.70000 169.898
51.71000 172.250
51.72000 175.266
51.73000 177.861
51.74000 178.567
51.75000 173.287
51.76000 167.566
51.77000 164.020
51.78000 165.096
51.79000 166.323
51.80000 167.044
51.81000 163.810
51.82000 161.513
51.83000 161.531
51.84000 163.639
51.85000 165.663
51.86000 162.549
51.87000 156.408
51.88000 150.475
51.89000 151.177
51.90000 154.308
51.91000 157.344
51.92000 159.417
51.93000 161.236
51.94000 162.749
51.95000 162.392
51.96000 161.717
51.97000 161.168
51.98000 160.768
51.99000 160.454
52.00000 160.700
52.01000 162.414
52.02000 164.205
52.03000 165.651
52.04000 166.493
52.05000 167.324
52.06000 167.769
52.07000 158.666
52.08000 152.486
52.09000 152.305
52.10000 156.519
52.11000 160.724
52.12000 164.617
52.13000 168.357
52.14000 171.910
52.15000 171.783
52.16000 170.557
52.17000 168.870
52.18000 163.537
52.19000 157.420
52.20000 152.285
52.21000 151.986
52.22000 152.339
52.23000 152.613
52.24000 158.797
52.25000 164.072
52.26000 167.870
52.27000 168.471
52.28000 168.962
52.29000 165.975
52.30000 157.977
52.31000 149.941
52.32000 149.341
52.33000 155.596
52.34000 161.768
52.35000 162.502
52.36000 159.970
52.37000 157.592
52.38000 158.498
52.39000 160.723
52.40000 162.794
52.41000 163.599
52.42000 164.021
52.43000 164.156
52.44000 162.501
52.45000 160.536
52.46000 159.363
52.47000 161.367
52.48000 163.703
52.49000 165.426
52.50000 164.191
52.51000 163.110
52.52000 161.529
52.53000 159.056
52.54000 156.565
52.55000 153.468
52.56000 149.659
52.57000 145.860
52.58000 149.281
52.59000 158.036
52.60000 166.496
52.61000 164.620
52.62000 157.625
52.63000 151.179
52.64000 152.847
52.65000 157.209
52.66000 161.172
52.67000 163.724
52.68000 165.706
52.69000 167.292
52.70000 166.890
52.71000 166.214
52.72000 164.699
52.73000 160.421
52.74000 155.926
52.75000 152.799
52.76000 158.574
52.77000 163.170
52.78000 165.299
52.79000 163.807
52.80000 162.283
52.81000 161.071
52.82000 160.153
52.83000 159.244
52.84000 159.096
52.85000 159.409
52.86000 159.585
52.87000 156.742
52.88000 152.662
52.89000 149.143
52.90000 151.713
52.91000 155.950
52.92000 159.690
52.93000 158.410
52.94000 156.537
52.95000 155.565
52.96000 158.275
52.97000 161.380
52.98000 162.067
52.99000 156.184
53.00000 149.932
53.01000 145.866
53.02000 150.439
53.03000 153.924
53.04000 154.978
53.05000 153.121
53.06000 151.263
53.07000 150.717
53.08000 151.169
53.09000 151.614
53.10000 155.700
53.11000 161.421
53.12000 166.658
53.13000 164.513
53.14000 159.870
53.15000 155.722
53.16000 155.698
53.17000 156.596
53.18000 157.363
53.19000 157.240
53.20000 157.031
53.21000 157.090
53.22000 158.049
53.23000 159.081
53.24000 160.645
53.25000 163.406
53.26000 166.213
53.27000 167.902
53.28000 159.436
53.29000 153.344
53.30000 150.548
53.31000 150.927
53.32000 151.323
53.33000 153.025
53.34000 155.542
53.35000 157.984
53.36000 159.509
53.37000 160.592
53.38000 161.522
53.39000 160.745
53.40000 159.492
53.41000 158.262
53.42000 157.192
53.43000 156.151
53.44000 155.295
53.45000 163.124
53.46000 170.344
53.47000 175.754
53.48000 176.151
53.49000 176.257
53.50000 176.046
53.51000 175.247
53.52000 174.435
53.53000 173.988
53.54000 160.841
53.55000 151.793
53.56000 150.548
53.57000 155.374
53.58000 160.094
53.59000 160.680
53.60000 159.139
53.61000 157.668
53.62000 158.555
53.63000 160.135
53.64000 161.468
53.65000 160.702
53.66000 159.457
53.67000 158.054
53.68000 155.820
53.69000 153.466
53.70000 151.613
53.71000 158.968
53.72000 165.476
53.73000 170.716
53.74000 173.056
53.75000 175.282
53.76000 174.129
53.77000 167.815
53.78000 161.446
53.79000 157.702
53.80000 156.541
53.81000 155.373
53.82000 153.636
53.83000 151.536
53.84000 149.496
53.85000 148.877
53.86000 148.862
53.87000 148.847
53.88000 151.977
53.89000 155.637
53.90000 158.751
53.91000 158.213
53.92000 156.998
53.93000 156.257
53.94000 157.527
53.95000 159.024
53.96000 160.147
53.97000 158.362
53.98000 156.832
53.99000 154.529
54.00000 150.763
54.01000 146.962
54.02000 146.193
54.03000 149.206
54.04000 152.225
54.05000 154.317
54.06000 155.665
54.07000 157.044
54.08000 159.634
54.09000 162.861
54.10000 165.913
54.11000 166.133
54.12000 165.357
54.13000 164.648
54.14000 159.811
54.15000 154.654
54.16000 150.580
54.17000 152.300
54.18000 154.876
54.19000 156.283
54.20000 153.614
54.21000 150.596
54.22000 148.458
54.23000 152.273
54.24000 155.358
54.25000 157.288
54.26000 157.418
54.27000 157.528
54.28000 156.551
54.29000 154.482
54.30000 152.427
54.31000 151.199
54.32000 150.520
54.33000 149.899
54.34000 150.733
54.35000 152.196
54.36000 153.414
54.37000 151.718
54.38000 149.177
54.39000 146.915
54.40000 152.112
54.41000 157.853
54.42000 162.628
54.43000 163.211
54.44000 163.309
54.45000 163.120
54.46000 162.109
54.47000 161.046
54.48000 160.341
54.49000 157.427
54.50000 155.232
54.51000 154.172
54.52000 154.556
54.53000 154.947
54.54000 156.134
54.55000 157.967
54.56000 159.773
54.57000 157.532
54.58000 153.260
54.59000 149.391
54.60000 152.314
54.61000 157.668
54.62000 162.096
54.63000 158.212
54.64000 152.352
54.65000 147.297
54.66000 151.961
54.67000 157.166
54.68000 160.665
54.69000 158.103
54.70000 155.007
54.71000 153.881
54.72000 157.438
54.73000 161.194
54.74000 163.510
54.75000 162.825
54.76000 162.306
54.77000 161.550
54.78000 160.552
54.79000 159.564
54.80000 159.656
54.81000 160.462
54.82000 161.247
54.83000 163.268
54.84000 165.714
54.85000 167.658
54.86000 163.482
54.87000 157.499
54.88000 152.376
54.89000 153.287
54.90000 155.363
54.91000 157.091
54.92000 153.455
54.93000 149.917
54.94000 147.741
54.95000 149.553
54.96000 151.622
54.97000 153.292
54.98000 154.180
54.99000 155.047
55.00000 155.537
55.01000 159.625
55.02000 162.474
55.03000 163.319
55.04000 162.504
55.05000 161.672
55.06000 160.003
55.07000 157.880
55.08000 155.842
55.09000 160.195
55.10000 166.446
55.11000 172.119
55.12000 172.483
55.13000 171.559
55.14000 170.098
55.15000 165.636
55.16000 160.710
55.17000 156.779
55.18000 162.841
55.19000 168.468
55.20000 172.742
55.21000 173.743
55.22000 174.599
55.23000 172.667
55.24000 166.224
55.25000 159.718
55.26000 156.385
55.27000 156.633
55.28000 156.811
55.29000 158.254
55.30000 160.549
55.31000 162.890
55.32000 166.465
55.33000 170.594
55.34000 174.486
55.35000 173.917
55.36000 172.167
55.37000 170.398
55.38000 168.492
55.39000 166.560
55.40000 165.823
55.41000 170.488
55.42000 175.811
55.43000 179.861
55.44000 181.022
55.45000 181.784
55.46000 185.585
55.47000 195.469
55.48000 205.522
55.49000 210.328
55.50000 208.181
55.51000 206.002
55.52000 205.555
55.53000 206.567
55.54000 207.678
55.55000 213.628
55.56000 222.261
55.57000 230.940
55.58000 240.436
55.59000 250.237
55.60000 259.271
55.61000 261.304
55.62000 261.573
55.63000 263.595
55.64000 275.609
55.65000 289.206
55.66000 302.183
55.67000 312.874
55.68000 323.352
55.69000 330.903
55.70000 346.197
55.71000 358.190
55.72000 373.443
55.73000 394.076
55.74000 414.788
55.75000 435.496
55.76000 456.199
55.77000 476.799
55.78000 502.566
55.79000 531.547
55.80000 560.376
55.81000 584.867
55.82000 607.371
55.83000 629.751
55.84000 650.519
55.85000 670.793
55.86000 689.001
55.87000 713.659
55.88000 736.371
55.89000 757.349
55.90000 770.331
55.91000 782.315
55.92000 798.827
55.93000 829.102
55.94000 860.324
55.95000 881.472
55.96000 891.706
55.97000 899.096
55.98000 901.721
55.99000 897.905
56.00000 894.049
56.01000 886.817
56.02000 876.675
56.03000 866.655
56.04000 862.916
56.05000 862.731
56.06000 862.035
56.07000 851.724
56.08000 837.771
56.09000 824.473
56.10000 817.538
56.11000 812.206
56.12000 807.561
56.13000 782.659
56.14000 758.579
56.15000 734.666
56.16000 711.375
56.17000 688.143
56.18000 664.734
56.19000 640.877
56.20000 616.999
56.21000 601.936
56.22000 552.235
56.23000 515.844
56.24000 488.881
56.25000 472.257
56.26000 455.692
56.27000 446.364
56.28000 442.113
56.29000 437.957
56.30000 421.343
56.31000 399.844
56.32000 378.627
56.33000 361.180
56.34000 344.912
56.35000 328.861
56.36000 314.436
56.37000 300.344
56.38000 288.488
56.39000 277.995
56.40000 269.391
56.41000 261.537
56.42000 256.009
56.43000 250.646
56.44000 245.936
56.45000 242.580
56.46000 239.266
56.47000 237.340
56.48000 217.050
56.49000 202.731
56.50000 197.691
56.51000 200.824
56.52000 203.899
56.53000 203.747
56.54000 201.737
56.55000 199.798
56.56000 196.194
56.57000 192.200
56.58000 188.237
56.59000 184.587
56.60000 181.016
56.61000 177.333
56.62000 172.978
56.63000 168.512
56.64000 164.902
56.65000 164.769
56.66000 164.939
56.67000 164.935
56.68000 164.484
56.69000 164.012
56.70000 163.531
56.71000 163.035
56.72000 162.539
56.73000 162.277
56.74000 164.027
56.75000 165.199
56.76000 163.701
56.77000 160.292
56.78000 156.939
56.79000 155.334
56.80000 154.560
56.81000 153.826
56.82000 151.662
56.83000 149.248
56.84000 147.005
56.85000 146.072
56.86000 145.415
56.87000 144.806
56.88000 144.431
56.89000 144.088
56.90000 143.822
56.91000 147.950
56.92000 151.477
56.93000 154.506
56.94000 156.477
56.95000 158.414
56.96000 158.684
56.97000 156.609
56.98000 154.519
56.99000 152.658
57.00000 151.005
57.01000 149.414
57.02000 151.536
57.03000 155.839
57.04000 159.786
57.05000 156.540
57.06000 150.466
57.07000 144.828
57.08000 144.391
57.09000 145.227
57.10000 145.603
57.11000 143.172
57.12000 140.267
57.13000 138.536
57.14000 141.401
57.15000 144.731
57.16000 147.171
57.17000 149.217
57.18000 150.781
57.19000 151.909
57.20000 152.277
57.21000 152.631
57.22000 151.735
57.23000 149.410
57.24000 147.091
57.25000 146.155
57.26000 146.228
57.27000 146.296
57.28000 146.210
57.29000 146.049
57.30000 145.983
57.31000 147.256
57.32000 148.963
57.33000 150.509
57.34000 152.349
57.35000 154.025
57.36000 155.899
57.37000 158.743
57.38000 161.716
57.39000 162.620
57.40000 156.863
57.41000 150.603
57.42000 146.281
57.43000 148.167
57.44000 149.742
57.45000 149.194
57.46000 145.599
57.47000 141.981
57.48000 143.821
57.49000 150.674
57.50000 157.460
57.51000 160.446
57.52000 161.142
57.53000 161.528
57.54000 155.409
57.55000 146.684
57.56000 139.039
57.57000 142.764
57.58000 149.530
57.59000 155.480
57.60000 155.431
57.61000 154.497
57.62000 153.691
57.63000 153.401
57.64000 153.164
57.65000 153.062
57.66000 153.321
57.67000 153.599
57.68000 153.778
57.69000 144.393
57.70000 137.401
57.71000 134.576
57.72000 136.617
57.73000 138.655
57.74000 138.927
57.75000 137.884
57.76000 136.861
57.77000 140.202
57.78000 145.498
57.79000 150.407
57.80000 149.643
57.81000 147.003
57.82000 144.263
57.83000 140.721
57.84000 137.004
57.85000 133.843
57.86000 139.714
57.87000 145.688
57.88000 149.517
57.89000 146.316
57.90000 142.566
57.91000 139.924
57.92000 139.716
57.93000 139.594
57.94000 139.522
57.95000 141.306
57.96000 142.582
57.97000 143.626
57.98000 144.451
57.99000 145.206
58.00000 141.102
58.01000 134.033
58.02000 127.186
58.03000 129.159
58.04000 134.431
58.05000 139.320
58.06000 140.068
58.07000 139.687
58.08000 139.662
58.09000 141.904
58.10000 144.546
58.11000 146.708
58.12000 142.895
58.13000 139.248
58.14000 136.348
58.15000 135.472
58.16000 134.710
58.17000 133.500
58.18000 131.478
58.19000 129.440
58.20000 128.330
58.21000 130.552
58.22000 132.092
58.23000 136.190
58.24000 142.231
58.25000 148.037
58.26000 145.233
58.27000 138.100
58.28000 131.302
58.29000 131.315
58.30000 133.458
58.31000 135.736
58.32000 139.130
58.33000 142.773
58.34000 145.134
58.35000 140.941
58.36000 135.826
58.37000 131.821
58.38000 136.638
58.39000 141.052
58.40000 143.793
58.41000 142.787
58.42000 141.642
58.43000 141.132
58.44000 141.570
58.45000 142.017
58.46000 142.237
58.47000 142.239
58.48000 142.229
58.49000 141.278
58.50000 139.744
58.51000 138.277
58.52000 138.343
58.53000 139.045
58.54000 139.702
58.55000 140.184
58.56000 140.579
58.57000 140.985
58.58000 141.473
58.59000 141.975
58.60000 142.245
58.61000 141.551
58.62000 140.750
58.63000 140.154
58.64000 140.717
58.65000 141.207
58.66000 140.128
58.67000 136.146
58.68000 132.099
58.69000 130.935
58.70000 133.278
58.71000 135.624
58.72000 136.885
58.73000 137.301
58.74000 137.699
58.75000 137.392
58.76000 136.725
58.77000 136.200
58.78000 137.917
58.79000 140.403
58.80000 142.672
58.81000 143.273
58.82000 143.469
58.83000 143.883
58.84000 145.434
58.85000 147.150
58.86000 147.294
58.87000 142.088
58.88000 136.440
58.89000 132.467
58.90000 136.940
58.91000 140.578
58.92000 140.730
58.93000 135.578
58.94000 130.370
58.95000 128.288
58.96000 129.267
58.97000 130.240
58.98000 133.644
58.99000 138.508
59.00000 143.170
59.01000 143.051
59.02000 140.905
59.03000 138.805
59.04000 137.220
59.05000 135.780
59.06000 134.503
59.07000 132.204
59.08000 130.049
59.09000 128.667
59.10000 130.557
59.11000 132.814
59.12000 134.310
59.13000 133.665
59.14000 132.891
59.15000 132.381
59.16000 129.262
59.17000 126.918
59.18000 128.338
59.19000 134.431
59.20000 140.524
59.21000 142.636
59.22000 141.599
59.23000 140.578
59.24000 134.744
59.25000 126.660
59.26000 119.355
59.27000 124.680
59.28000 134.428
59.29000 143.022
59.30000 141.564
59.31000 137.775
59.32000 134.518
59.33000 135.822
59.34000 137.494
59.35000 137.148
59.36000 129.797
59.37000 121.850
59.38000 118.767
59.39000 126.989
59.40000 135.671
59.41000 140.974
59.42000 135.621
59.43000 131.705
59.44000 131.747
59.45000 135.753
59.46000 139.734
59.47000 141.488
59.48000 141.801
59.49000 142.106
59.50000 141.624
59.51000 140.842
59.52000 140.049
59.53000 139.119
59.54000 138.150
59.55000 137.179
59.56000 136.190
59.57000 135.198
59.58000 134.377
59.59000 130.211
59.60000 126.454
59.61000 124.894
59.62000 129.627
59.63000 134.750
59.64000 137.261
59.65000 134.754
59.66000 132.123
59.67000 130.649
59.68000 123.605
59.69000 118.727
59.70000 119.873
59.71000 125.882
59.72000 131.807
59.73000 134.088
59.74000 134.431
59.75000 134.759
59.76000 135.668
59.77000 136.708
59.78000 137.612
59.79000 137.293
59.80000 136.684
59.81000 136.320
59.82000 137.286
59.83000 138.453
59.84000 139.379
59.85000 139.581
59.86000 139.692
59.87000 139.521
59.88000 138.680
59.89000 137.811
59.90000 136.524
59.91000 134.574
59.92000 132.617
59.93000 131.626
59.94000 137.450
59.95000 141.282
59.96000 138.839
59.97000 132.260
59.98000 125.813
59.99000 122.794
60.00000 121.281
60.01000 119.859
60.02000 125.020
60.03000 131.501
60.04000 136.581
60.05000 131.890
60.06000 125.320
60.07000 120.937
60.08000 126.196
60.09000 132.594
60.10000 137.433
60.11000 138.003
60.12000 138.235
60.13000 137.619
60.14000 135.341
60.15000 133.021
60.16000 132.970
60.17000 135.855
60.18000 138.748
60.19000 140.315
60.20000 140.787
60.21000 141.196
60.22000 138.713
60.23000 134.660
60.24000 130.860
60.25000 131.437
60.26000 133.605
60.27000 135.598
60.28000 133.734
60.29000 131.238
60.30000 128.880
60.31000 127.295
60.32000 125.830
60.33000 125.266
60.34000 127.959
60.35000 130.946
60.36000 133.084
60.37000 128.219
60.38000 124.267
60.39000 125.491
60.40000 135.060
60.41000 144.743
60.42000 148.464
60.43000 145.946
60.44000 143.442
60.45000 142.859
60.46000 143.558
60.47000 144.057
60.48000 139.151
60.49000 131.823
60.50000 125.067
60.51000 125.447
60.52000 127.969
60.53000 130.227
60.54000 134.513
60.55000 138.601
60.56000 140.877
60.57000 135.002
60.58000 128.139
60.59000 123.032
60.60000 123.146
60.61000 123.606
60.62000 123.915
60.63000 122.368
60.64000 121.181
60.65000 120.733
60.66000 121.261
60.67000 121.793
60.68000 122.190
60.69000 122.473
60.70000 122.753
60.71000 124.471
60.72000 126.916
60.73000 129.270
60.74000 130.010
60.75000 130.150
60.76000 129.913
60.77000 126.121
60.78000 121.454
60.79000 117.404
60.80000 123.748
60.81000 130.550
60.82000 136.245
60.83000 137.866
60.84000 139.109
60.85000 139.509
60.86000 137.838
60.87000 136.071
60.88000 134.967
60.89000 138.294
60.90000 140.741
60.91000 138.764
60.92000 132.057
60.93000 125.393
60.94000 123.929
60.95000 126.027
60.96000 128.075
60.97000 128.824
60.98000 128.974
60.99000 129.186
61.00000 130.194
61.01000 131.447
61.02000 132.552
61.03000 132.580
61.04000 132.391
61.05000 132.233
61.06000 128.373
61.07000 124.780
61.08000 122.625
61.09000 124.823
61.10000 127.320
61.11000 128.419
61.12000 126.677
61.13000 124.853
61.14000 123.804
61.15000 127.874
61.16000 130.741
61.17000 134.333
61.18000 138.547
61.19000 142.699
61.20000 143.613
61.21000 142.703
61.22000 141.828
61.23000 139.672
61.24000 137.196
61.25000 134.833
61.26000 133.554
61.27000 132.547
61.28000 132.123
61.29000 135.075
61.30000 138.572
61.31000 141.385
61.32000 138.431
61.33000 135.589
61.34000 132.316
61.35000 127.967
61.36000 123.565
61.37000 122.212
61.38000 125.967
61.39000 129.801
61.40000 131.803
61.41000 132.573
61.42000 133.079
61.43000 131.663
61.44000 128.903
61.45000 126.437
61.46000 132.680
61.47000 142.971
61.48000 152.703
61.49000 158.423
61.50000 162.531
61.51000 166.134
61.52000 165.963
61.53000 165.020
61.54000 165.478
61.55000 172.502
61.56000 180.362
61.57000 186.396
61.58000 197.812
61.59000 207.136
61.60000 217.554
61.61000 230.235
61.62000 242.985
61.63000 250.123
61.64000 249.548
61.65000 248.927
61.66000 248.393
61.67000 247.937
61.68000 247.635
61.69000 255.849
61.70000 268.950
61.71000 281.223
61.72000 277.473
61.73000 267.560
61.74000 258.384
61.75000 256.608
61.76000 256.716
61.77000 254.351
61.78000 237.318
61.79000 217.870
61.80000 200.602
61.81000 191.674
61.82000 183.565
61.83000 177.661
61.84000 176.797
61.85000 176.325
61.86000 171.999
61.87000 161.091
61.88000 150.071
61.89000 143.093
61.90000 140.624
61.91000 138.168
61.92000 138.877
61.93000 141.814
61.94000 144.802
61.95000 149.386
61.96000 154.727
61.97000 159.320
61.98000 153.678
61.99000 144.784
62.00000 136.757
62.01000 134.907
62.02000 134.415
62.03000 133.897
62.04000 133.255
62.05000 132.597
62.06000 132.310
62.07000 133.189
62.08000 134.154
62.09000 134.815
62.10000 138.592
62.11000 141.496
62.12000 143.543
62.13000 144.390
62.14000 145.226
62.15000 143.630
62.16000 139.854
62.17000 136.119
62.18000 136.847
62.19000 140.111
62.20000 143.199
62.21000 142.737
62.22000 140.883
62.23000 139.375
62.24000 141.385
62.25000 144.313
62.26000 146.879
62.27000 143.568
62.28000 139.878
62.29000 137.230
62.30000 138.644
62.31000 140.467
62.32000 142.054
62.33000 143.026
62.34000 143.966
62.35000 144.567
62.36000 140.236
62.37000 137.019
62.38000 137.044
62.39000 140.762
62.40000 144.471
62.41000 146.014
62.42000 145.981
62.43000 145.949
62.44000 144.075
62.45000 141.418
62.46000 138.853
62.47000 137.596
62.48000 136.762
62.49000 136.090
62.50000 136.684
62.51000 137.548
62.52000 138.280
62.53000 140.142
62.54000 141.829
62.55000 142.862
62.56000 141.803
62.57000 140.585
62.58000 138.543
62.59000 134.730
62.60000 130.857
62.61000 128.572
62.62000 133.044
62.63000 136.238
62.64000 139.301
62.65000 142.243
62.66000 145.146
62.67000 145.510
62.68000 144.360
62.69000 143.249
62.70000 144.422
62.71000 146.390
62.72000 148.001
62.73000 145.878
62.74000 142.759
62.75000 139.668
62.76000 136.745
62.77000 133.851
62.78000 131.494
62.79000 135.262
62.80000 138.859
62.81000 141.665
62.82000 142.380
62.83000 142.983
62.84000 141.701
62.85000 137.075
62.86000 132.384
62.87000 129.860
62.88000 131.232
62.89000 132.197
62.90000 137.263
62.91000 145.372
62.92000 153.198
62.93000 151.324
62.94000 144.680
62.95000 138.361
62.96000 138.017
62.97000 139.520
62.98000 140.706
62.99000 139.346
63.00000 137.432
63.01000 136.263
63.02000 138.806
63.03000 141.857
63.04000 144.233
63.05000 149.076
63.06000 153.087
63.07000 154.962
63.08000 152.165
63.09000 149.202
63.10000 147.217
63.11000 146.657
63.12000 146.109
63.13000 146.129
63.14000 146.681
63.15000 147.204
63.16000 145.801
63.17000 143.226
63.18000 140.821
63.19000 142.091
63.20000 144.854
63.21000 147.430
63.22000 146.664
63.23000 145.150
63.24000 144.835
63.25000 152.115
63.26000 160.731
63.27000 165.607
63.28000 155.308
63.29000 143.398
63.30000 134.584
63.31000 140.448
63.32000 145.630
63.33000 148.306
63.34000 146.450
63.35000 144.500
63.36000 144.163
63.37000 145.741
63.38000 147.318
63.39000 147.755
63.40000 147.331
63.41000 146.888
63.42000 145.704
63.43000 144.150
63.44000 142.513
63.45000 139.613
63.46000 136.289
63.47000 133.265
63.48000 135.297
63.49000 138.087
63.50000 140.779
63.51000 142.966
63.52000 145.082
63.53000 146.187
63.54000 143.921
63.55000 141.385
63.56000 139.615
63.57000 140.768
63.58000 141.721
63.59000 142.601
63.60000 143.372
63.61000 144.143
63.62000 144.371
63.63000 144.082
63.64000 143.795
63.65000 145.835
63.66000 149.252
63.67000 152.504
63.68000 152.033
63.69000 150.018
63.70000 148.056
63.71000 146.673
63.72000 145.451
63.73000 144.370
63.74000 143.970
63.75000 143.730
63.76000 143.693
63.77000 144.500
63.78000 145.399
63.79000 145.471
63.80000 143.269
63.81000 140.937
63.82000 139.413
63.83000 145.455
63.84000 150.012
63.85000 151.443
63.86000 149.082
63.87000 146.727
63.88000 147.904
63.89000 151.809
63.90000 155.647
63.91000 160.446
63.92000 165.560
63.93000 170.349
63.94000 170.084
63.95000 168.089
63.96000 165.741
63.97000 160.416
63.98000 154.416
63.99000 149.281
64.00000 147.793
64.01000 146.979
64.02000 146.637
64.03000 147.897
64.04000 149.290
64.05000 149.505
64.06000 147.046
64.07000 144.482
64.08000 142.932
64.09000 147.112
64.10000 150.134
64.11000 153.575
64.12000 157.425
64.13000 161.220
64.14000 160.584
64.15000 157.148
64.16000 153.813
64.17000 153.901
64.18000 155.356
64.19000 156.757
64.20000 157.546
64.21000 158.161
64.22000 158.432
64.23000 156.416
64.24000 153.981
64.25000 151.974
64.26000 154.252
64.27000 156.522
64.28000 157.891
64.29000 156.741
64.30000 155.440
64.31000 155.414
64.32000 157.782
64.33000 160.206
64.34000 161.548
64.35000 159.605
64.36000 158.258
64.37000 156.955
64.38000 155.688
64.39000 154.451
64.40000 154.443
64.41000 155.074
64.42000 155.677
64.43000 156.328
64.44000 156.948
64.45000 157.577
64.46000 158.279
64.47000 158.999
64.48000 160.149
64.49000 163.581
64.50000 167.348
64.51000 170.323
64.52000 164.756
64.53000 159.706
64.54000 158.459
64.55000 166.015
64.56000 173.926
64.57000 177.730
64.58000 175.183
64.59000 172.564
64.60000 169.817
64.61000 166.942
64.62000 164.119
64.63000 165.842
64.64000 170.492
64.65000 174.896
64.66000 173.252
64.67000 169.007
64.68000 165.026
64.69000 168.900
64.70000 174.487
64.71000 178.732
64.72000 173.871
64.73000 167.302
64.74000 162.134
64.75000 162.993
64.76000 164.544
64.77000 165.710
64.78000 170.218
64.79000 173.905
64.80000 176.781
64.81000 178.107
64.82000 179.394
64.83000 178.374
64.84000 174.440
64.85000 170.503
64.86000 169.733
64.87000 171.503
64.88000 173.244
64.89000 173.742
64.90000 173.580
64.91000 173.428
64.92000 173.435
64.93000 173.497
64.94000 173.555
64.95000 178.450
64.96000 183.826
64.97000 188.152
64.98000 186.789
64.99000 184.573
65.00000 183.467
65.01000 186.277
65.02000 189.429
65.03000 191.670
65.04000 192.492
65.05000 193.073
65.06000 193.659
65.07000 194.252
65.08000 194.845
65.09000 192.818
65.10000 188.119
65.11000 183.450
65.12000 180.709
65.13000 179.257
65.14000 178.005
65.15000 181.915
65.16000 188.086
65.17000 194.198
65.18000 199.595
65.19000 204.782
65.20000 209.410
65.21000 211.642
65.22000 213.185
65.23000 214.775
65.24000 216.571
65.25000 218.390
65.26000 219.771
65.27000 219.878
65.28000 219.903
65.29000 219.920
65.30000 225.427
65.31000 229.610
65.32000 230.643
65.33000 227.615
65.34000 224.577
65.35000 224.110
65.36000 225.752
65.37000 227.372
65.38000 232.387
65.39000 239.042
65.40000 245.571
65.41000 249.945
65.42000 253.538
65.43000 257.102
65.44000 260.405
65.45000 263.645
65.46000 266.446
65.47000 269.447
65.48000 272.024
65.49000 274.657
65.50000 277.495
65.51000 280.351
65.52000 284.356
65.53000 291.122
65.54000 298.008
65.55000 302.275
65.56000 299.180
65.57000 296.884
65.58000 297.847
65.59000 302.207
65.60000 306.595
65.61000 313.834
65.62000 322.984
65.63000 331.904
65.64000 338.554
65.65000 343.936
65.66000 350.378
65.67000 369.991
65.68000 393.543
65.69000 418.350
65.70000 452.086
65.71000 487.567
65.72000 517.156
65.73000 566.149
65.74000 608.711
65.75000 654.090
65.76000 707.818
65.77000 762.096
65.78000 811.515
65.79000 851.277
65.80000 890.776
65.81000 913.257
65.82000 943.662
65.83000 964.866
65.84000 979.599
65.85000 988.909
65.86000 998.144
65.87000 1003.782
65.88000 1007.439
65.89000 1010.953
65.90000 1011.756
65.91000 1011.571
65.92000 1008.797
65.93000 981.800
65.94000 948.859
65.95000 913.641
65.96000 865.535
65.97000 815.407
65.98000 775.296
65.99000 708.657
66.00000 652.793
66.01000 598.029
66.02000 545.958
66.03000 494.011
66.04000 454.550
66.05000 435.544
66.06000 416.831
66.07000 407.181
66.08000 371.281
66.09000 347.178
66.10000 332.875
66.11000 325.261
66.12000 317.627
66.13000 309.416
66.14000 300.943
66.15000 292.949
66.16000 289.006
66.17000 286.524
66.18000 285.203
66.19000 292.330
66.20000 301.145
66.21000 308.622
66.22000 309.976
66.23000 310.574
66.24000 311.030
66.25000 314.341
66.26000 317.104
66.27000 321.361
66.28000 328.642
66.29000 336.011
66.30000 343.993
66.31000 352.796
66.32000 361.597
66.33000 366.811
66.34000 368.950
66.35000 371.228
66.36000 380.626
66.37000 394.017
66.38000 407.017
66.39000 412.744
66.40000 415.737
66.41000 418.499
66.42000 427.525
66.43000 437.024
66.44000 444.057
66.45000 436.837
66.46000 427.329
66.47000 418.436
66.48000 411.840
66.49000 405.463
66.50000 400.850
66.51000 399.146
66.52000 397.943
66.53000 390.899
66.54000 374.101
66.55000 357.151
66.56000 345.693
66.57000 340.210
66.58000 334.754
66.59000 328.901
66.60000 322.838
66.61000 316.856
66.62000 313.266
66.63000 310.784
66.64000 308.555
66.65000 309.679
66.66000 311.844
66.67000 313.792
66.68000 308.302
66.69000 302.162
66.70000 297.107
66.71000 297.112
66.72000 297.758
66.73000 298.580
66.74000 299.939
66.75000 301.337
66.76000 302.287
66.77000 299.398
66.78000 297.155
66.79000 298.194
66.80000 303.729
66.81000 309.289
66.82000 312.848
66.83000 314.659
66.84000 316.450
66.85000 313.022
66.86000 306.764
66.87000 300.906
66.88000 302.718
66.89000 307.470
66.90000 311.990
66.91000 314.232
66.92000 315.892
66.93000 317.341
66.94000 318.455
66.95000 319.362
66.96000 321.978
66.97000 331.113
66.98000 340.883
66.99000 345.461
67.00000 336.845
67.01000 327.579
67.02000 321.707
67.03000 321.798
67.04000 321.936
67.05000 322.050
67.06000 322.135
67.07000 322.256
67.08000 327.335
67.09000 335.936
67.10000 344.351
67.11000 348.729
67.12000 351.103
67.13000 353.090
67.14000 349.822
67.15000 344.891
67.16000 340.994
67.17000 344.994
67.18000 350.637
67.19000 355.396
67.20000 348.472
67.21000 341.422
67.22000 338.157
67.23000 346.752
67.24000 356.207
67.25000 361.381
67.26000 357.558
67.27000 353.449
67.28000 351.048
67.29000 356.605
67.30000 360.551
67.31000 362.795
67.32000 363.521
67.33000 364.284
67.34000 367.246
67.35000 371.491
67.36000 375.588
67.37000 375.786
67.38000 374.541
67.39000 373.906
67.40000 379.469
67.41000 386.644
67.42000 392.455
67.43000 390.026
67.44000 386.214
67.45000 383.126
67.46000 385.173
67.47000 387.260
67.48000 389.537
67.49000 392.306
67.50000 395.099
67.51000 396.733
67.52000 396.355
67.53000 395.941
67.54000 395.721
67.55000 401.795
67.56000 405.940
67.57000 411.160
67.58000 417.158
67.59000 422.774
67.60000 416.044
67.61000 403.376
67.62000 391.355
67.63000 401.531
67.64000 417.523
67.65000 431.830
67.66000 432.975
67.67000 431.325
67.68000 430.056
67.69000 430.641
67.70000 431.472
67.71000 432.116
67.72000 435.468
67.73000 438.290
67.74000 440.502
67.75000 441.405
67.76000 442.264
67.77000 444.592
67.78000 449.011
67.79000 453.444
67.80000 457.046
67.81000 459.887
67.82000 462.678
67.83000 462.387
67.84000 460.263
67.85000 458.338
67.86000 460.522
67.87000 464.340
67.88000 467.889
67.89000 464.952
67.90000 460.747
67.91000 457.802
67.92000 462.629
67.93000 468.789
67.94000 473.964
67.95000 475.231
67.96000 476.096
67.97000 476.732
67.98000 484.747
67.99000 491.250
68.00000 496.997
68.01000 501.408
68.02000 505.793
68.03000 509.026
68.04000 510.925
68.05000 512.816
68.06000 513.177
68.07000 512.413
68.08000 511.748
68.09000 514.406
68.10000 518.694
68.11000 523.456
68.12000 535.109
68.13000 549.026
68.14000 561.648
68.15000 552.221
68.16000 539.688
68.17000 529.512
68.18000 531.041
68.19000 534.163
68.20000 538.718
68.21000 547.939
68.22000 557.519
68.23000 564.159
68.24000 564.741
68.25000 565.019
68.26000 567.879
68.27000 574.488
68.28000 581.128
68.29000 588.014
68.30000 595.127
68.31000 602.176
68.32000 608.154
68.33000 613.379
68.34000 618.573
68.35000 623.121
68.36000 627.406
68.37000 631.773
68.38000 637.026
68.39000 642.518
68.40000 647.357
68.41000 648.501
68.42000 648.929
68.43000 651.276
68.44000 661.374
68.45000 672.292
68.46000 681.073
68.47000 684.110
68.48000 686.831
68.49000 688.594
68.50000 713.133
68.51000 731.428
68.52000 748.640
68.53000 764.569
68.54000 780.459
68.55000 788.785
68.56000 791.408
68.57000 793.982
68.58000 816.003
68.59000 846.613
68.60000 876.970
68.61000 903.548
68.62000 928.859
68.63000 955.194
68.64000 989.922
68.65000 1026.508
68.66000 1057.693
68.67000 1113.733
68.68000 1163.787
68.69000 1215.368
68.70000 1272.011
68.71000 1329.057
68.72000 1379.774
68.73000 1416.423
68.74000 1452.558
68.75000 1474.209
68.76000 1557.552
68.77000 1617.140
68.78000 1670.301
68.79000 1717.352
68.80000 1764.443
68.81000 1814.459
68.82000 1866.281
68.83000 1916.518
68.84000 2015.654
68.85000 2128.668
68.86000 2243.227
68.87000 2374.783
68.88000 2511.028
68.89000 2673.213
68.90000 3002.848
68.91000 3362.455
68.92000 3657.490
68.93000 4944.647
68.94000 6089.298
68.95000 7593.648
68.96000 10082.977
68.97000 12628.563
68.98000 15684.072
68.99000 19675.938
69.00000 23688.027
69.01000 25884.908
69.02000 31865.266
69.03000 35979.715
69.04000 39349.012
69.05000 42145.074
69.06000 44909.703
69.07000 46489.508
69.08000 47466.504
69.09000 48398.590
69.10000 48869.656
69.11000 49160.852
69.12000 49468.617
69.13000 49915.727
69.14000 50394.293
69.15000 50898.945
69.16000 51538.590
69.17000 52197.488
69.18000 52714.965
69.19000 52484.773
69.20000 52251.598
69.21000 51461.918
69.22000 49411.973
69.23000 47313.773
69.24000 44845.051
69.25000 41816.648
69.26000 38782.648
69.27000 36126.402
69.28000 33837.477
69.29000 31556.805
69.30000 29925.156
69.31000 28701.959
69.32000 27494.555
69.33000 26656.277
69.34000 25973.262
69.35000 25334.295
69.36000 24657.512
69.37000 24033.018
69.38000 23337.063
69.39000 22169.273
69.40000 20915.203
69.41000 19503.729
69.42000 17430.467
69.43000 15283.538
69.44000 13679.438
69.45000 11198.095
69.46000 9223.250
69.47000 7497.369
69.48000 6237.367
69.49000 4988.042
69.50000 4023.191
69.51000 3409.012
69.52000 2796.988
69.53000 2389.383
69.54000 2143.507
69.55000 1899.710
69.56000 1738.678
69.57000 1620.555
69.58000 1504.653
69.59000 1424.313
69.60000 1356.339
69.61000 1294.220
69.62000 1246.259
69.63000 1206.554
69.64000 1165.541
69.65000 1117.615
69.66000 1068.680
69.67000 1024.230
69.68000 995.245
69.69000 967.565
69.70000 948.027
69.71000 923.563
69.72000 904.847
69.73000 888.352
69.74000 875.277
69.75000 862.241
69.76000 844.065
69.77000 820.785
69.78000 797.670
69.79000 781.542
69.80000 770.082
69.81000 758.604
69.82000 746.695
69.83000 734.599
69.84000 723.597
69.85000 725.326
69.86000 730.706
69.87000 735.489
69.88000 721.184
69.89000 705.677
69.90000 692.379
69.91000 688.559
69.92000 685.820
69.93000 680.842
69.94000 669.498
69.95000 657.763
69.96000 650.003
69.97000 647.269
69.98000 645.342
69.99000 645.874
70.00000 649.500
