20.00000 545.480
20.01000 547.644
20.02000 550.117
20.03000 551.598
20.04000 549.243
20.05000 546.508
20.06000 544.510
20.07000 551.795
20.08000 557.773
20.09000 559.893
20.10000 555.355
20.11000 550.701
20.12000 552.617
20.13000 561.942
20.14000 571.238
20.15000 574.006
20.16000 572.090
20.17000 570.123
20.18000 566.519
20.19000 562.131
20.20000 558.404
20.21000 563.871
20.22000 572.287
20.23000 579.893
20.24000 573.070
20.25000 564.387
20.26000 555.849
20.27000 548.009
20.28000 540.261
20.29000 537.431
20.30000 550.223
20.31000 564.172
20.32000 573.763
20.33000 568.841
20.34000 564.790
20.35000 564.078
20.36000 568.094
20.37000 572.141
20.38000 570.082
20.39000 562.495
20.40000 554.985
20.41000 551.794
20.42000 551.169
20.43000 550.577
20.44000 550.643
20.45000 550.969
20.46000 551.520
20.47000 554.382
20.48000 557.854
20.49000 560.901
20.50000 569.112
20.51000 576.922
20.52000 580.580
20.53000 567.874
20.54000 553.496
20.55000 545.640
20.56000 554.892
20.57000 565.045
20.58000 571.560
20.59000 571.406
20.60000 571.202
20.61000 571.499
20.62000 572.372
20.63000 573.214
20.64000 568.570
20.65000 559.896
20.66000 551.392
20.67000 547.540
20.68000 546.015
20.69000 544.829
20.70000 548.524
20.71000 553.814
20.72000 558.597
20.73000 559.347
20.74000 559.229
20.75000 559.129
20.76000 560.689
20.77000 562.185
20.78000 563.253
20.79000 562.936
20.80000 562.513
20.81000 561.464
20.82000 559.057
20.83000 556.602
20.84000 555.147
20.85000 544.672
20.86000 537.214
20.87000 536.365
20.88000 541.632
20.89000 546.857
20.90000 549.321
20.91000 550.122
20.92000 550.897
20.93000 546.472
20.94000 540.311
20.95000 534.765
20.96000 535.747
20.97000 538.486
20.98000 541.260
20.99000 544.252
21.00000 547.282
21.01000 549.756
21.02000 541.454
21.03000 533.738
21.04000 529.916
21.05000 536.501
21.06000 543.653
21.07000 550.560
21.08000 557.027
21.09000 563.486
21.10000 566.979
21.11000 558.066
21.12000 551.969
21.13000 549.316
21.14000 549.245
21.15000 549.281
21.16000 553.066
21.17000 558.713
21.18000 564.089
21.19000 562.677
21.20000 559.278
21.21000 556.751
21.22000 561.334
21.23000 567.482
21.24000 572.654
21.25000 572.917
21.26000 572.499
21.27000 572.174
21.28000 555.654
21.29000 541.461
21.30000 536.815
21.31000 553.276
21.32000 570.500
21.33000 579.795
21.34000 577.412
21.35000 574.923
21.36000 568.619
21.37000 558.710
21.38000 548.937
21.39000 548.795
21.40000 554.565
21.41000 560.214
21.42000 563.196
21.43000 565.083
21.44000 566.843
21.45000 565.461
21.46000 563.428
21.47000 561.511
21.48000 560.334
21.49000 559.288
21.50000 557.817
21.51000 554.602
21.52000 551.198
21.53000 548.672
21.54000 544.983
21.55000 542.065
21.56000 542.340
21.57000 548.448
21.58000 554.679
21.59000 560.181
21.60000 564.807
21.61000 569.421
21.62000 569.444
21.63000 565.979
21.64000 562.661
21.65000 564.789
21.66000 569.674
21.67000 574.176
21.68000 572.809
21.69000 569.449
21.70000 566.389
21.71000 573.029
21.72000 580.838
21.73000 585.884
21.74000 576.720
21.75000 565.542
21.76000 557.794
21.77000 561.587
21.78000 566.316
21.79000 569.628
21.80000 580.559
21.81000 589.043
21.82000 592.863
21.83000 589.676
21.84000 586.419
21.85000 587.546
21.86000 592.906
21.87000 598.224
21.88000 601.045
21.89000 602.281
21.90000 603.481
21.91000 603.821
21.92000 603.803
21.93000 603.683
21.94000 602.424
21.95000 600.846
21.96000 599.449
21.97000 598.488
21.98000 597.725
21.99000 598.800
22.00000 607.561
22.01000 617.170
22.02000 622.794
22.03000 617.358
22.04000 611.274
22.05000 607.286
22.06000 620.170
22.07000 629.923
22.08000 636.848
22.09000 640.305
22.10000 643.724
22.11000 638.969
22.12000 627.837
22.13000 616.888
22.14000 606.824
22.15000 597.529
22.16000 588.728
22.17000 587.750
22.18000 589.478
22.19000 591.254
22.20000 593.447
22.21000 595.735
22.22000 597.696
22.23000 597.724
22.24000 597.512
22.25000 596.245
22.26000 591.364
22.27000 586.182
22.28000 580.904
22.29000 575.410
22.30000 569.907
22.31000 566.564
22.32000 574.360
22.33000 580.012
22.34000 579.377
22.35000 572.537
22.36000 565.722
22.37000 560.967
22.38000 557.527
22.39000 554.184
22.40000 557.924
22.41000 564.348
22.42000 570.098
22.43000 568.072
22.44000 563.829
22.45000 559.502
22.46000 554.607
22.47000 549.608
22.48000 545.478
22.49000 541.836
22.50000 538.881
22.51000 535.295
22.52000 529.929
22.53000 524.455
22.54000 521.736
22.55000 524.243
22.56000 526.875
22.57000 528.340
22.58000 537.088
22.59000 543.127
22.60000 541.018
22.61000 532.418
22.62000 524.039
22.63000 524.748
22.64000 530.232
22.65000 535.480
22.66000 536.398
22.67000 535.833
22.68000 534.418
22.69000 525.550
22.70000 514.941
22.71000 507.540
22.72000 517.349
22.73000 529.711
22.74000 539.496
22.75000 544.076
22.76000 547.396
22.77000 547.012
22.78000 537.963
22.79000 528.558
22.80000 524.056
22.81000 527.211
22.82000 530.456
22.83000 532.086
22.84000 520.449
22.85000 512.753
22.86000 511.746
22.87000 515.090
22.88000 518.542
22.89000 524.728
22.90000 532.101
22.91000 539.023
22.92000 543.558
22.93000 547.060
22.94000 548.869
22.95000 539.049
22.96000 527.025
22.97000 518.185
22.98000 523.203
22.99000 529.832
23.00000 534.829
23.01000 536.597
23.02000 537.823
23.03000 538.761
23.04000 539.142
23.05000 539.509
23.06000 537.683
23.07000 533.057
23.08000 528.429
23.09000 524.164
23.10000 520.210
23.11000 516.355
23.12000 516.817
23.13000 519.592
23.14000 522.273
23.15000 523.374
23.16000 523.908
23.17000 524.399
23.18000 518.204
23.19000 511.259
23.20000 506.487
23.21000 513.618
23.22000 522.557
23.23000 527.387
23.24000 517.585
23.25000 506.487
23.26000 498.574
23.27000 504.450
23.28000 509.382
23.29000 513.142
23.30000 515.036
23.31000 516.907
23.32000 517.492
23.33000 516.752
23.34000 516.017
23.35000 512.434
23.36000 507.037
23.37000 502.093
23.38000 509.028
23.39000 521.217
23.40000 532.310
23.41000 529.960
23.42000 523.629
23.43000 517.972
23.44000 516.999
23.45000 516.940
23.46000 517.208
23.47000 518.925
23.48000 520.815
23.49000 522.906
23.50000 525.587
23.51000 528.306
23.52000 530.126
23.53000 528.531
23.54000 527.282
23.55000 524.837
23.56000 520.835
23.57000 516.840
23.58000 519.477
23.59000 527.616
23.60000 535.644
23.61000 535.652
23.62000 531.406
23.63000 527.422
23.64000 528.026
23.65000 530.310
23.66000 532.369
23.67000 532.354
23.68000 531.836
23.69000 531.387
23.70000 538.880
23.71000 546.302
23.72000 553.276
23.73000 558.619
23.74000 563.813
23.75000 566.122
23.76000 561.433
23.77000 556.430
23.78000 553.318
23.79000 549.178
23.80000 546.186
23.81000 549.604
23.82000 559.774
23.83000 569.844
23.84000 568.875
23.85000 560.439
23.86000 552.209
23.87000 548.631
23.88000 547.215
23.89000 546.205
23.90000 550.309
23.91000 555.958
23.92000 561.089
23.93000 562.499
23.94000 563.174
23.95000 563.738
23.96000 569.394
23.97000 574.605
23.98000 578.740
23.99000 579.657
24.00000 580.359
24.01000 577.171
24.02000 566.180
24.03000 554.969
24.04000 548.559
24.05000 558.386
24.06000 565.285
24.07000 562.139
24.08000 550.484
24.09000 539.120
24.10000 542.206
24.11000 553.326
24.12000 564.019
24.13000 562.945
24.14000 557.829
24.15000 552.949
24.16000 550.318
24.17000 548.244
24.18000 545.554
24.19000 539.348
24.20000 532.583
24.21000 527.157
24.22000 528.229
24.23000 529.589
24.24000 530.398
24.25000 529.843
24.26000 529.226
24.27000 526.821
24.28000 521.459
24.29000 516.052
24.30000 513.249
24.31000 514.594
24.32000 515.466
24.33000 512.068
24.34000 505.723
24.35000 499.713
24.36000 503.330
24.37000 511.368
24.38000 518.959
24.39000 516.188
24.40000 510.718
24.41000 505.471
24.42000 501.864
24.43000 498.586
24.44000 496.127
24.45000 497.443
24.46000 499.233
24.47000 500.602
24.48000 503.083
24.49000 505.101
24.50000 502.611
24.51000 490.903
24.52000 478.922
24.53000 476.775
24.54000 487.960
24.55000 499.212
24.56000 499.966
24.57000 491.656
24.58000 483.476
24.59000 482.196
24.60000 484.824
24.61000 487.580
24.62000 492.729
24.63000 498.788
24.64000 504.388
24.65000 499.306
24.66000 492.319
24.67000 485.793
24.68000 481.961
24.69000 478.566
24.70000 478.061
24.71000 488.468
24.72000 499.925
24.73000 508.235
24.74000 511.038
24.75000 512.987
24.76000 513.553
24.77000 511.789
24.78000 509.987
24.79000 503.944
24.80000 493.240
24.81000 482.579
24.82000 481.700
24.83000 487.642
24.84000 493.431
24.85000 494.623
24.86000 493.663
24.87000 492.587
24.88000 489.953
24.89000 486.829
24.90000 484.015
24.91000 486.803
24.92000 490.260
24.93000 492.376
24.94000 488.162
24.95000 483.136
24.96000 481.635
24.97000 491.087
24.98000 501.322
24.99000 508.305
25.00000 489.789
25.01000 475.351
25.02000 468.444
25.03000 471.954
25.04000 475.533
25.05000 482.139
25.06000 491.420
25.07000 500.597
25.08000 496.471
25.09000 484.937
25.10000 473.739
25.11000 469.110
25.12000 467.023
25.13000 465.207
25.14000 466.096
25.15000 467.684
25.16000 469.072
25.17000 471.598
25.18000 473.923
25.19000 476.913
25.20000 482.461
25.21000 488.262
25.22000 490.864
25.23000 485.256
25.24000 479.236
25.25000 475.406
25.26000 490.323
25.27000 501.396
25.28000 504.185
25.29000 497.670
25.30000 491.172
25.31000 488.309
25.32000 488.055
25.33000 487.806
25.34000 485.614
25.35000 482.620
25.36000 479.617
25.37000 476.499
25.38000 473.344
25.39000 470.319
25.40000 468.299
25.41000 466.489
25.42000 464.960
25.43000 462.266
25.44000 459.884
25.45000 457.578
25.46000 455.508
25.47000 453.455
25.48000 454.429
25.49000 461.827
25.50000 469.434
25.51000 473.899
25.52000 462.928
25.53000 455.123
25.54000 452.332
25.55000 454.066
25.56000 455.845
25.57000 460.320
25.58000 466.382
25.59000 472.238
25.60000 469.446
25.61000 463.599
25.62000 458.536
25.63000 461.516
25.64000 466.611
25.65000 471.142
25.66000 472.223
25.67000 472.719
25.68000 473.122
25.69000 474.085
25.70000 474.917
25.71000 474.186
25.72000 469.368
25.73000 464.337
25.74000 461.305
25.75000 461.774
25.76000 462.308
25.77000 462.594
25.78000 469.805
25.79000 474.680
25.80000 471.491
25.81000 462.399
25.82000 453.740
25.83000 459.432
25.84000 472.094
25.85000 484.120
25.86000 482.842
25.87000 477.661
25.88000 472.825
25.89000 470.730
25.90000 469.223
25.91000 467.436
25.92000 464.273
25.93000 460.925
25.94000 458.325
25.95000 455.852
25.96000 453.893
25.97000 453.627
25.98000 457.021
25.99000 460.540
26.00000 461.175
26.01000 457.659
26.02000 454.110
26.03000 452.067
26.04000 451.409
26.05000 450.769
26.06000 451.246
26.07000 452.391
26.08000 453.751
26.09000 459.637
26.10000 467.341
26.11000 474.509
26.12000 469.858
26.13000 462.791
26.14000 456.360
26.15000 453.900
26.16000 452.127
26.17000 449.810
26.18000 445.308
26.19000 440.578
26.20000 437.091
26.21000 455.558
26.22000 470.784
26.23000 477.796
26.24000 470.144
26.25000 462.203
26.26000 455.569
26.27000 450.467
26.28000 445.382
26.29000 445.910
26.30000 450.596
26.31000 455.245
26.32000 458.632
26.33000 461.395
26.34000 464.003
26.35000 464.325
26.36000 463.888
26.37000 463.492
26.38000 458.890
26.39000 454.011
26.40000 449.676
26.41000 448.069
26.42000 446.839
26.43000 446.018
26.44000 446.545
26.45000 447.178
26.46000 447.618
26.47000 448.233
26.48000 448.702
26.49000 445.321
26.50000 436.292
26.51000 427.215
26.52000 431.243
26.53000 447.606
26.54000 463.826
26.55000 461.291
26.56000 447.555
26.57000 434.530
26.58000 437.166
26.59000 446.211
26.60000 454.254
26.61000 451.412
26.62000 445.595
26.63000 440.462
26.64000 450.644
26.65000 461.771
26.66000 470.465
26.67000 469.226
26.68000 466.922
26.69000 464.615
26.70000 462.297
26.71000 459.980
26.72000 458.473
26.73000 454.004
26.74000 450.684
26.75000 447.279
26.76000 443.773
26.77000 440.298
26.78000 443.809
26.79000 452.642
26.80000 461.318
26.81000 459.076
26.82000 451.596
26.83000 444.347
26.84000 440.599
26.85000 438.036
26.86000 435.680
26.87000 435.042
26.88000 434.787
26.89000 434.570
26.90000 435.255
26.91000 435.939
26.92000 437.855
26.93000 443.901
26.94000 450.280
26.95000 452.724
26.96000 446.335
26.97000 439.615
26.98000 435.572
26.99000 443.388
27.00000 449.029
27.01000 449.553
27.02000 445.154
27.03000 440.747
27.04000 435.792
27.05000 430.494
27.06000 425.355
27.07000 429.260
27.08000 436.537
27.09000 443.665
27.10000 449.135
27.11000 454.141
27.12000 458.326
27.13000 457.139
27.14000 454.980
27.15000 453.205
27.16000 446.690
27.17000 440.907
27.18000 434.901
27.19000 428.273
27.20000 421.610
27.21000 422.378
27.22000 436.928
27.23000 451.784
27.24000 459.959
27.25000 455.304
27.26000 452.064
27.27000 445.263
27.28000 435.694
27.29000 426.332
27.30000 424.941
27.31000 427.647
27.32000 430.230
27.33000 432.470
27.34000 434.441
27.35000 436.431
27.36000 438.588
27.37000 440.783
27.38000 443.369
27.39000 448.002
27.40000 452.930
27.41000 456.810
27.42000 456.369
27.43000 455.728
27.44000 452.481
27.45000 443.277
27.46000 433.840
27.47000 432.009
27.48000 441.785
27.49000 451.684
27.50000 452.100
27.51000 443.195
27.52000 434.346
27.53000 430.180
27.54000 428.990
27.55000 428.120
27.56000 434.884
27.57000 444.891
27.58000 454.263
27.59000 445.622
27.60000 433.111
27.61000 423.942
27.62000 437.109
27.63000 454.406
27.64000 467.368
27.65000 461.916
27.66000 454.386
27.67000 448.744
27.68000 448.241
27.69000 448.091
27.70000 449.725
27.71000 454.732
27.72000 459.818
27.73000 457.243
27.74000 445.123
27.75000 432.996
27.76000 434.360
27.77000 446.370
27.78000 457.995
27.79000 453.884
27.80000 441.535
27.81000 430.091
27.82000 433.389
27.83000 441.865
27.84000 449.620
27.85000 453.683
27.86000 456.532
27.87000 458.396
27.88000 454.995
27.89000 450.816
27.90000 446.431
27.91000 441.327
27.92000 436.161
27.93000 432.503
27.94000 435.704
27.95000 438.350
27.96000 440.696
27.97000 442.577
27.98000 444.453
27.99000 443.371
28.00000 439.317
28.01000 435.291
28.02000 434.058
28.03000 434.628
28.04000 435.165
28.05000 434.874
28.06000 434.224
28.07000 433.657
28.08000 434.070
28.09000 434.766
28.10000 435.386
28.11000 433.202
28.12000 430.845
28.13000 428.761
28.14000 427.861
28.15000 427.098
28.16000 426.443
28.17000 426.100
28.18000 425.776
28.19000 425.560
28.20000 429.322
28.21000 432.175
28.22000 434.805
28.23000 437.152
28.24000 439.490
28.25000 438.669
28.26000 435.291
28.27000 431.963
28.28000 425.259
28.29000 417.007
28.30000 409.835
28.31000 420.861
28.32000 438.399
28.33000 453.960
28.34000 451.802
28.35000 445.438
28.36000 439.948
28.37000 435.202
28.38000 431.270
28.39000 427.992
28.40000 427.031
28.41000 426.274
28.42000 426.807
28.43000 430.403
28.44000 434.129
28.45000 436.426
28.46000 432.269
28.47000 429.228
28.48000 431.225
28.49000 438.397
28.50000 445.454
28.51000 441.250
28.52000 429.605
28.53000 418.263
28.54000 419.340
28.55000 425.587
28.56000 431.450
28.57000 432.640
28.58000 432.450
28.59000 432.200
28.60000 431.533
28.61000 430.785
28.62000 430.162
28.63000 424.471
28.64000 419.263
28.65000 417.808
28.66000 427.332
28.67000 437.563
28.68000 442.945
28.69000 438.814
28.70000 434.431
28.71000 431.952
28.72000 426.945
28.73000 423.469
28.74000 425.603
28.75000 432.375
28.76000 438.995
28.77000 438.582
28.78000 434.345
28.79000 430.279
28.80000 430.279
28.81000 431.665
28.82000 432.429
28.83000 427.471
28.84000 421.127
28.85000 416.175
28.86000 418.985
28.87000 422.996
28.88000 426.195
28.89000 418.077
28.90000 410.696
28.91000 407.248
28.92000 413.313
28.93000 419.800
28.94000 421.957
28.95000 417.115
28.96000 412.176
28.97000 409.647
28.98000 409.483
28.99000 409.376
29.00000 409.715
29.01000 410.354
29.02000 411.185
29.03000 417.231
29.04000 425.620
29.05000 433.523
29.06000 437.052
29.07000 439.076
29.08000 440.115
29.09000 434.090
29.10000 426.673
29.11000 419.801
29.12000 415.383
29.13000 411.264
29.14000 408.130
29.15000 412.324
29.16000 416.006
29.17000 418.791
29.18000 419.778
29.19000 420.715
29.20000 423.060
29.21000 427.267
29.22000 431.478
29.23000 432.579
29.24000 431.059
29.25000 429.556
29.26000 428.914
29.27000 428.750
29.28000 428.181
29.29000 420.300
29.30000 409.704
29.31000 399.937
29.32000 403.513
29.33000 409.665
29.34000 414.544
29.35000 412.164
29.36000 408.638
29.37000 406.385
29.38000 408.832
29.39000 411.717
29.40000 413.796
29.41000 419.648
29.42000 424.264
29.43000 427.221
29.44000 427.442
29.45000 427.623
29.46000 426.396
29.47000 423.659
29.48000 420.935
29.49000 419.678
29.50000 419.431
29.51000 419.130
29.52000 417.321
29.53000 414.822
29.54000 412.636
29.55000 414.488
29.56000 417.579
29.57000 420.355
29.58000 420.040
29.59000 419.221
29.60000 418.497
29.61000 418.209
29.62000 417.976
29.63000 416.994
29.64000 413.740
29.65000 410.329
29.66000 408.020
29.67000 413.830
29.68000 418.338
29.69000 422.678
29.70000 426.793
29.71000 430.902
29.72000 431.795
29.73000 429.918
29.74000 428.064
29.75000 422.470
29.76000 414.959
29.77000 407.795
29.78000 407.141
29.79000 408.951
29.80000 411.097
29.81000 416.510
29.82000 422.745
29.83000 428.177
29.84000 423.595
29.85000 418.297
29.86000 413.402
29.87000 410.020
29.88000 406.783
29.89000 405.034
29.90000 407.018
29.91000 409.182
29.92000 410.546
29.93000 427.344
29.94000 439.684
29.95000 441.648
29.96000 432.248
29.97000 422.876
29.98000 417.975
29.99000 416.209
30.00000 414.482
30.01000 417.531
30.02000 422.587
30.03000 427.079
30.04000 424.046
30.05000 418.660
30.06000 415.031
30.07000 424.587
30.08000 436.850
30.09000 447.165
30.10000 441.276
30.11000 434.640
30.12000 428.173
30.13000 422.228
30.14000 416.320
30.15000 412.294
30.16000 412.174
30.17000 412.175
30.18000 412.175
30.19000 409.114
30.20000 406.957
30.21000 409.571
30.22000 416.383
30.23000 423.045
30.24000 421.351
30.25000 414.847
30.26000 408.577
30.27000 412.330
30.28000 419.494
30.29000 426.197
30.30000 428.308
30.31000 429.240
30.32000 428.809
30.33000 420.270
30.34000 410.391
30.35000 402.408
30.36000 404.224
30.37000 406.485
30.38000 409.984
30.39000 416.644
30.40000 423.463
30.41000 426.746
30.42000 423.974
30.43000 421.099
30.44000 419.580
30.45000 421.703
30.46000 423.148
30.47000 424.900
30.48000 426.870
30.49000 428.757
30.50000 428.016
30.51000 426.028
30.52000 424.144
30.53000 427.119
30.54000 431.286
30.55000 434.568
30.56000 431.046
30.57000 426.098
30.58000 422.201
30.59000 423.341
30.60000 425.141
30.61000 426.530
30.62000 426.315
30.63000 426.052
30.64000 427.100
30.65000 430.922
30.66000 434.833
30.67000 438.054
30.68000 440.303
30.69000 442.544
30.70000 446.030
30.71000 450.629
30.72000 455.129
30.73000 453.748
30.74000 448.917
30.75000 444.181
30.76000 441.390
30.77000 439.361
30.78000 437.479
30.79000 436.663
30.80000 436.180
30.81000 436.861
30.82000 444.623
30.83000 453.582
30.84000 460.970
30.85000 462.217
30.86000 462.843
30.87000 463.302
30.88000 476.876
30.89000 487.883
30.90000 490.754
30.91000 479.421
30.92000 467.829
30.93000 470.504
30.94000 489.478
30.95000 508.404
30.96000 508.551
30.97000 495.119
30.98000 482.284
30.99000 489.054
31.00000 505.312
31.01000 520.647
31.02000 522.896
31.03000 520.896
31.04000 519.086
31.05000 536.165
31.06000 554.768
31.07000 572.252
31.08000 584.257
31.09000 595.528
31.10000 609.145
31.11000 630.307
31.12000 652.038
31.13000 667.037
31.14000 675.772
31.15000 682.176
31.16000 697.500
31.17000 725.610
31.18000 753.818
31.19000 775.523
31.20000 791.261
31.21000 806.847
31.22000 829.750
31.23000 856.461
31.24000 882.867
31.25000 902.904
31.26000 920.390
31.27000 939.006
31.28000 969.489
31.29000 1003.142
31.30000 1032.736
31.31000 1050.112
31.32000 1063.248
31.33000 1074.203
31.34000 1076.463
31.35000 1077.820
31.36000 1079.511
31.37000 1082.092
31.38000 1084.720
31.39000 1086.414
31.40000 1102.808
31.41000 1114.990
31.42000 1122.334
31.43000 1124.035
31.44000 1125.667
31.45000 1115.907
31.46000 1097.671
31.47000 1079.783
31.48000 1057.135
31.49000 1033.052
31.50000 1009.148
31.51000 987.873
31.52000 967.467
31.53000 946.687
31.54000 922.885
31.55000 898.424
31.56000 877.622
31.57000 854.176
31.58000 834.179
31.59000 813.252
31.60000 789.276
31.61000 765.061
31.62000 741.292
31.63000 718.500
31.64000 695.743
31.65000 682.182
31.66000 662.148
31.67000 647.910
31.68000 629.526
31.69000 607.254
31.70000 585.088
31.71000 570.201
31.72000 559.750
31.73000 549.628
31.74000 539.216
31.75000 529.255
31.76000 520.360
31.77000 522.990
31.78000 528.759
31.79000 532.149
31.80000 520.412
31.81000 506.007
31.82000 494.220
31.83000 479.212
31.84000 466.634
31.85000 458.570
31.86000 462.713
31.87000 467.536
31.88000 468.873
31.89000 463.886
31.90000 458.768
31.91000 455.984
31.92000 445.097
31.93000 437.625
31.94000 431.664
31.95000 426.851
31.96000 422.261
31.97000 425.803
31.98000 433.431
31.99000 440.700
32.00000 437.417
32.01000 431.077
32.02000 425.219
32.03000 423.349
32.04000 422.368
32.05000 421.654
32.06000 422.298
32.07000 423.133
32.08000 423.787
32.09000 426.874
32.10000 429.497
32.11000 429.631
32.12000 424.203
32.13000 418.567
32.14000 411.629
32.15000 402.748
32.16000 393.849
32.17000 391.204
32.18000 394.549
32.19000 397.899
32.20000 401.594
32.21000 405.503
32.22000 409.215
32.23000 408.423
32.24000 405.760
32.25000 403.272
32.26000 401.238
32.27000 399.507
32.28000 398.838
32.29000 405.078
32.30000 412.562
32.31000 417.436
32.32000 411.477
32.33000 404.333
32.34000 399.014
32.35000 399.580
32.36000 400.284
32.37000 400.830
32.38000 401.081
32.39000 401.325
32.40000 399.908
32.41000 396.471
32.42000 393.038
32.43000 393.832
32.44000 397.878
32.45000 401.827
32.46000 402.078
32.47000 400.434
32.48000 398.569
32.49000 393.235
32.50000 386.710
32.51000 380.757
32.52000 386.021
32.53000 392.950
32.54000 397.900
32.55000 392.535
32.56000 385.688
32.57000 380.232
32.58000 379.514
32.59000 379.188
32.60000 378.959
32.61000 389.614
32.62000 398.006
32.63000 399.899
32.64000 391.914
32.65000 383.825
32.66000 379.628
32.67000 379.240
32.68000 378.855
32.69000 381.574
32.70000 386.180
32.71000 390.454
32.72000 386.858
32.73000 379.932
32.74000 373.823
32.75000 377.048
32.76000 382.915
32.77000 388.120
32.78000 386.929
32.79000 384.877
32.80000 383.896
32.81000 387.454
32.82000 391.521
32.83000 398.371
32.84000 413.038
32.85000 428.172
32.86000 438.135
32.87000 450.555
32.88000 459.745
32.89000 467.816
32.90000 474.495
32.91000 481.155
32.92000 482.958
32.93000 480.924
32.94000 478.921
32.95000 474.887
32.96000 469.953
32.97000 465.113
32.98000 461.798
32.99000 459.016
33.00000 456.198
33.01000 453.064
33.02000 449.856
33.03000 447.100
33.04000 442.214
33.05000 437.816
33.06000 432.404
33.07000 423.472
33.08000 414.239
33.09000 404.812
33.10000 394.930
33.11000 385.031
33.12000 378.987
33.13000 366.926
33.14000 358.252
33.15000 352.854
33.16000 350.735
33.17000 348.663
33.18000 350.751
33.19000 355.525
33.20000 360.167
33.21000 358.058
33.22000 353.282
33.23000 349.083
33.24000 351.682
33.25000 356.241
33.26000 359.538
33.27000 354.246
33.28000 347.338
33.29000 341.618
33.30000 335.052
33.31000 329.553
33.32000 327.053
33.33000 333.135
33.34000 339.749
33.35000 346.546
33.36000 353.695
33.37000 360.854
33.38000 364.860
33.39000 359.042
33.40000 354.990
33.41000 351.424
33.42000 348.251
33.43000 345.159
33.44000 345.566
33.45000 347.833
33.46000 350.004
33.47000 348.365
33.48000 345.570
33.49000 343.290
33.50000 345.617
33.51000 349.032
33.52000 352.399
33.53000 355.504
33.54000 358.569
33.55000 361.002
33.56000 359.880
33.57000 358.726
33.58000 355.932
33.59000 349.258
33.60000 342.421
33.61000 343.027
33.62000 355.398
33.63000 367.915
33.64000 374.244
33.65000 366.216
33.66000 360.867
33.67000 357.774
33.68000 356.168
33.69000 354.595
33.70000 353.905
33.71000 353.602
33.72000 353.317
33.73000 348.298
33.74000 342.445
33.75000 336.833
33.76000 332.906
33.77000 329.302
33.78000 327.730
33.79000 335.114
33.80000 343.554
33.81000 349.937
33.82000 350.221
33.83000 350.138
33.84000 349.397
33.85000 347.373
33.86000 345.315
33.87000 345.541
33.88000 348.719
33.89000 351.905
33.90000 356.532
33.91000 362.326
33.92000 367.947
33.93000 365.670
33.94000 359.115
33.95000 353.077
33.96000 356.015
33.97000 362.212
33.98000 367.909
33.99000 368.881
34.00000 368.732
34.01000 367.962
34.02000 363.739
34.03000 358.984
34.04000 355.060
34.05000 354.131
34.06000 353.473
34.07000 353.001
34.08000 354.485
34.09000 355.684
34.10000 360.161
34.11000 369.919
34.12000 379.749
34.13000 381.735
34.14000 375.524
34.15000 369.348
34.16000 364.750
34.17000 361.258
34.18000 358.100
34.19000 363.937
34.20000 373.799
34.21000 382.858
34.22000 381.896
34.23000 377.931
34.24000 374.382
34.25000 380.385
34.26000 387.259
34.27000 391.619
34.28000 384.685
34.29000 376.383
34.30000 369.355
34.31000 366.110
34.32000 363.116
34.33000 361.104
34.34000 362.697
34.35000 363.955
34.36000 366.674
34.37000 371.322
34.38000 375.970
34.39000 376.315
34.40000 373.043
34.41000 369.814
34.42000 367.174
34.43000 364.920
34.44000 362.687
34.45000 360.811
34.46000 359.066
34.47000 356.983
34.48000 351.714
34.49000 345.662
34.50000 340.409
34.51000 346.751
34.52000 353.709
34.53000 357.410
34.54000 349.139
34.55000 339.759
34.56000 334.532
34.57000 339.499
34.58000 344.934
34.59000 348.331
34.60000 349.689
34.61000 350.648
34.62000 351.034
34.63000 350.806
34.64000 350.568
34.65000 349.131
34.66000 346.872
34.67000 344.667
34.68000 340.738
34.69000 336.227
34.70000 332.076
34.71000 332.552
34.72000 334.441
34.73000 336.097
34.74000 336.055
34.75000 335.673
34.76000 335.353
34.77000 329.029
34.78000 323.151
34.79000 318.044
34.80000 315.267
34.81000 312.650
34.82000 313.509
34.83000 321.425
34.84000 329.545
34.85000 334.214
34.86000 330.314
34.87000 327.557
34.88000 326.811
34.89000 327.790
34.90000 328.792
34.91000 330.939
34.92000 333.730
34.93000 336.417
34.94000 335.165
34.95000 332.597
34.96000 330.252
34.97000 330.053
34.98000 330.393
34.99000 331.028
35.00000 333.376
35.01000 336.000
35.02000 338.110
35.03000 333.378
35.04000 329.013
35.05000 325.744
35.06000 325.214
35.07000 324.815
35.08000 324.037
35.09000 322.625
35.10000 321.203
35.11000 320.461
35.12000 318.779
35.13000 317.650
35.14000 317.586
35.15000 318.267
35.16000 318.972
35.17000 320.385
35.18000 322.128
35.19000 323.776
35.20000 328.318
35.21000 333.321
35.22000 337.169
35.23000 332.389
35.24000 325.844
35.25000 319.866
35.26000 316.537
35.27000 313.545
35.28000 311.249
35.29000 316.155
35.30000 320.435
35.31000 322.839
35.32000 321.364
35.33000 319.771
35.34000 318.032
35.35000 316.092
35.36000 314.151
35.37000 314.102
35.38000 315.707
35.39000 317.302
35.40000 318.305
35.41000 318.970
35.42000 319.406
35.43000 315.429
35.44000 309.756
35.45000 304.505
35.46000 306.678
35.47000 310.338
35.48000 313.676
35.49000 315.105
35.50000 316.221
35.51000 318.098
35.52000 322.885
35.53000 327.958
35.54000 331.650
35.55000 321.333
35.56000 312.858
35.57000 307.133
35.58000 306.102
35.59000 305.150
35.60000 307.249
35.61000 312.745
35.62000 318.222
35.63000 319.610
35.64000 318.102
35.65000 316.605
35.66000 315.480
35.67000 314.530
35.68000 313.681
35.69000 314.188
35.70000 315.126
35.71000 315.972
35.72000 309.206
35.73000 301.867
35.74000 297.625
35.75000 308.182
35.76000 320.666
35.77000 327.899
35.78000 318.630
35.79000 308.159
35.80000 300.987
35.81000 307.705
35.82000 313.071
35.83000 315.012
35.84000 312.157
35.85000 309.270
35.86000 307.120
35.87000 305.629
35.88000 304.154
35.89000 306.246
35.90000 310.328
35.91000 314.098
35.92000 311.614
35.93000 306.681
35.94000 302.477
35.95000 305.689
35.96000 310.836
35.97000 315.346
35.98000 315.238
35.99000 314.479
36.00000 312.373
36.01000 305.014
36.02000 297.128
36.03000 291.874
36.04000 293.454
36.05000 295.385
36.06000 296.620
36.07000 294.306
36.08000 292.576
36.09000 294.906
36.10000 301.858
36.11000 308.792
36.12000 312.050
36.13000 312.638
36.14000 313.214
36.15000 311.190
36.16000 308.038
36.17000 304.805
36.18000 300.430
36.19000 295.686
36.20000 291.487
36.21000 291.569
36.22000 292.563
36.23000 293.404
36.24000 290.952
36.25000 288.530
36.26000 288.537
36.27000 296.325
36.28000 304.698
36.29000 309.561
36.30000 306.889
36.31000 303.964
36.32000 302.238
36.33000 304.105
36.34000 305.442
36.35000 305.272
36.36000 303.726
36.37000 302.248
36.38000 305.033
36.39000 310.357
36.40000 315.505
36.41000 304.257
36.42000 287.470
36.43000 272.559
36.44000 277.244
36.45000 287.145
36.46000 295.714
36.47000 296.037
36.48000 294.943
36.49000 294.052
36.50000 301.904
36.51000 309.056
36.52000 313.100
36.53000 308.926
36.54000 304.312
36.55000 300.068
36.56000 296.479
36.57000 292.903
36.58000 290.980
36.59000 297.778
36.60000 302.412
36.61000 303.394
36.62000 301.671
36.63000 300.128
36.64000 304.727
36.65000 312.344
36.66000 319.587
36.67000 316.033
36.68000 309.457
36.69000 303.740
36.70000 304.923
36.71000 307.606
36.72000 309.111
36.73000 304.749
36.74000 299.585
36.75000 295.565
36.76000 295.378
36.77000 295.465
36.78000 295.975
36.79000 297.410
36.80000 298.879
36.81000 300.048
36.82000 300.783
36.83000 301.514
36.84000 301.102
36.85000 299.623
36.86000 298.209
36.87000 301.230
36.88000 306.943
36.89000 312.529
36.90000 315.360
36.91000 317.072
36.92000 318.668
36.93000 317.165
36.94000 315.044
36.95000 313.439
36.96000 315.100
36.97000 317.335
36.98000 318.337
36.99000 314.344
37.00000 309.821
37.01000 306.474
37.02000 304.082
37.03000 302.266
37.04000 301.695
37.05000 303.372
37.06000 305.095
37.07000 306.405
37.08000 307.225
37.09000 308.041
37.10000 306.501
37.11000 303.203
37.12000 300.026
37.13000 301.264
37.14000 304.712
37.15000 307.614
37.16000 302.314
37.17000 294.260
37.18000 286.935
37.19000 289.312
37.20000 293.318
37.21000 296.402
37.22000 294.792
37.23000 292.526
37.24000 291.895
37.25000 296.709
37.26000 301.956
37.27000 305.619
37.28000 309.979
37.29000 313.291
37.30000 313.116
37.31000 307.760
37.32000 302.357
37.33000 299.400
37.34000 298.777
37.35000 298.159
37.36000 295.327
37.37000 291.201
37.38000 287.345
37.39000 289.580
37.40000 294.337
37.41000 298.761
37.42000 299.508
37.43000 299.237
37.44000 298.998
37.45000 300.030
37.46000 301.119
37.47000 301.141
37.48000 296.754
37.49000 291.888
37.50000 289.958
37.51000 296.089
37.52000 302.682
37.53000 306.988
37.54000 303.894
37.55000 301.504
37.56000 300.516
37.57000 301.226
37.58000 301.935
37.59000 301.509
37.60000 300.209
37.61000 298.932
37.62000 296.345
37.63000 293.199
37.64000 290.193
37.65000 289.364
37.66000 289.279
37.67000 289.603
37.68000 293.376
37.69000 297.930
37.70000 301.827
37.71000 303.597
37.72000 304.833
37.73000 305.814
37.74000 305.933
37.75000 305.980
37.76000 304.765
37.77000 300.685
37.78000 296.495
37.79000 293.961
37.80000 292.483
37.81000 291.437
37.82000 295.273
37.83000 303.868
37.84000 312.343
37.85000 311.228
37.86000 304.063
37.87000 297.105
37.88000 292.230
37.89000 288.437
37.90000 285.186
37.91000 288.100
37.92000 292.754
37.93000 296.346
37.94000 292.900
37.95000 288.163
37.96000 284.259
37.97000 294.378
37.98000 303.994
37.99000 310.439
38.00000 308.015
38.01000 305.064
38.02000 304.269
38.03000 307.521
38.04000 310.865
38.05000 312.717
38.06000 310.314
38.07000 308.660
38.08000 310.431
38.09000 314.899
38.10000 319.259
38.11000 319.292
38.12000 317.075
38.13000 314.956
38.14000 313.331
38.15000 311.980
38.16000 311.027
38.17000 313.521
38.18000 316.811
38.19000 318.933
38.20000 314.858
38.21000 309.877
38.22000 305.944
38.23000 315.890
38.24000 324.814
38.25000 331.837
38.26000 334.460
38.27000 336.907
38.28000 339.324
38.29000 341.696
38.30000 344.067
38.31000 348.110
38.32000 353.820
38.33000 359.563
38.34000 368.267
38.35000 378.875
38.36000 389.081
38.37000 389.446
38.38000 385.583
38.39000 381.961
38.40000 392.572
38.41000 405.963
38.42000 419.421
38.43000 433.337
38.44000 447.339
38.45000 461.639
38.46000 477.220
38.47000 492.948
38.48000 504.770
38.49000 535.782
38.50000 560.954
38.51000 583.957
38.52000 602.815
38.53000 621.572
38.54000 638.280
38.55000 652.403
38.56000 666.495
38.57000 693.103
38.58000 729.614
38.59000 765.841
38.60000 789.961
38.61000 807.670
38.62000 826.088
38.63000 856.308
38.64000 890.722
38.65000 922.260
38.66000 935.029
38.67000 942.463
38.68000 948.801
38.69000 949.206
38.70000 948.722
38.71000 948.265
38.72000 947.904
38.73000 947.552
38.74000 947.301
38.75000 942.712
38.76000 939.080
38.77000 925.993
38.78000 898.018
38.79000 869.861
38.80000 847.511
38.81000 831.074
38.82000 814.741
38.83000 793.788
38.84000 770.151
38.85000 746.296
38.86000 716.876
38.87000 685.020
38.88000 654.400
38.89000 638.672
38.90000 627.308
38.91000 617.171
38.92000 585.177
38.93000 553.701
38.94000 523.852
38.95000 501.146
38.96000 479.278
38.97000 458.908
38.98000 442.886
38.99000 427.140
39.00000 416.646
39.01000 396.649
39.02000 381.662
39.03000 369.660
39.04000 361.500
39.05000 353.357
39.06000 345.880
39.07000 338.948
39.08000 332.115
39.09000 329.048
39.10000 328.044
39.11000 327.249
39.12000 330.052
39.13000 334.157
39.14000 337.440
39.15000 333.245
39.16000 327.253
39.17000 322.073
39.18000 308.400
39.19000 295.678
39.20000 286.505
39.21000 290.084
39.22000 294.807
39.23000 297.947
39.24000 297.289
39.25000 296.465
39.26000 295.955
39.27000 289.487
39.28000 284.779
39.29000 283.174
39.30000 284.797
39.31000 286.438
39.32000 289.911
39.33000 294.611
39.34000 299.192
39.35000 298.524
39.36000 295.653
39.37000 292.957
39.38000 292.441
39.39000 292.575
39.40000 292.535
39.41000 291.252
39.42000 289.726
39.43000 288.454
39.44000 289.320
39.45000 290.252
39.46000 292.160
39.47000 296.957
39.48000 301.944
39.49000 301.427
39.50000 289.986
39.51000 278.246
39.52000 271.568
39.53000 277.817
39.54000 282.208
39.55000 284.425
39.56000 284.822
39.57000 285.238
39.58000 286.582
39.59000 288.435
39.60000 290.216
39.61000 287.666
39.62000 283.783
39.63000 280.398
39.64000 281.669
39.65000 284.081
39.66000 285.027
39.67000 277.697
39.68000 269.069
39.69000 262.167
39.70000 263.829
39.71000 265.810
39.72000 267.088
39.73000 266.644
39.74000 266.122
39.75000 267.673
39.76000 272.616
39.77000 277.608
39.78000 280.180
39.79000 275.610
39.80000 272.566
39.81000 273.632
39.82000 277.501
39.83000 281.113
39.84000 277.544
39.85000 270.713
39.86000 264.269
39.87000 265.302
39.88000 268.336
39.89000 271.354
39.90000 274.258
39.91000 277.140
39.92000 278.440
39.93000 272.513
39.94000 265.695
39.95000 260.492
39.96000 260.250
39.97000 260.326
39.98000 259.920
39.99000 258.540
40.00000 257.133
40.01000 255.611
40.02000 253.937
40.03000 252.264
40.04000 255.071
40.05000 261.692
40.06000 268.141
40.07000 265.803
40.08000 258.540
40.09000 251.847
40.10000 255.699
40.11000 263.512
40.12000 270.724
40.13000 272.559
40.14000 272.998
40.15000 273.156
40.16000 271.689
40.17000 269.961
40.18000 267.466
40.19000 262.105
40.20000 256.473
40.21000 252.401
40.22000 255.795
40.23000 258.670
40.24000 260.837
40.25000 261.822
40.26000 262.788
40.27000 263.534
40.28000 264.039
40.29000 264.543
40.30000 262.101
40.31000 257.660
40.32000 253.369
40.33000 253.444
40.34000 255.540
40.35000 257.530
40.36000 258.112
40.37000 258.256
40.38000 258.386
40.39000 261.412
40.40000 264.581
40.41000 267.247
40.42000 267.575
40.43000 267.607
40.44000 266.779
40.45000 263.306
40.46000 259.647
40.47000 257.160
40.48000 258.796
40.49000 260.111
40.50000 259.875
40.51000 257.519
40.52000 255.150
40.53000 252.862
40.54000 250.643
40.55000 248.449
40.56000 254.567
40.57000 265.169
40.58000 275.070
40.59000 271.496
40.60000 262.763
40.61000 254.974
40.62000 256.470
40.63000 260.333
40.64000 263.706
40.65000 256.061
40.66000 247.975
40.67000 241.615
40.68000 241.828
40.69000 242.682
40.70000 243.335
40.71000 243.480
40.72000 243.599
40.73000 243.675
40.74000 248.984
40.75000 252.898
40.76000 254.700
40.77000 254.157
40.78000 253.625
40.79000 254.701
40.80000 256.920
40.81000 259.091
40.82000 257.658
40.83000 254.653
40.84000 251.826
40.85000 251.409
40.86000 251.755
40.87000 251.797
40.88000 249.523
40.89000 246.766
40.90000 244.443
40.91000 246.492
40.92000 248.677
40.93000 249.700
40.94000 247.084
40.95000 244.203
40.96000 243.584
40.97000 247.713
40.98000 251.993
40.99000 254.492
41.00000 255.480
41.01000 256.165
41.02000 253.222
41.03000 247.046
41.04000 240.899
41.05000 236.456
41.06000 233.005
41.07000 229.674
41.08000 234.051
41.09000 241.004
41.10000 247.380
41.11000 247.924
41.12000 246.953
41.13000 246.141
41.14000 246.294
41.15000 246.610
41.16000 246.865
41.17000 245.556
41.18000 244.362
41.19000 243.834
41.20000 245.028
41.21000 246.310
41.22000 247.144
41.23000 247.204
41.24000 247.249
41.25000 247.274
41.26000 247.471
41.27000 247.610
41.28000 248.405
41.29000 249.675
41.30000 250.836
41.31000 248.500
41.32000 244.483
41.33000 240.672
41.34000 242.540
41.35000 245.951
41.36000 248.689
41.37000 246.176
41.38000 242.548
41.39000 239.860
41.40000 241.740
41.41000 244.226
41.42000 246.151
41.43000 249.199
41.44000 251.685
41.45000 250.847
41.46000 242.895
41.47000 234.707
41.48000 231.947
41.49000 236.910
41.50000 241.930
41.51000 246.307
41.52000 250.097
41.53000 253.750
41.54000 248.875
41.55000 238.938
41.56000 229.502
41.57000 230.424
41.58000 235.463
41.59000 240.146
41.60000 239.504
41.61000 237.650
41.62000 236.554
41.63000 240.130
41.64000 244.506
41.65000 248.298
41.66000 249.777
41.67000 251.018
41.68000 251.930
41.69000 252.618
41.70000 253.140
41.71000 252.238
41.72000 248.820
41.73000 245.355
41.74000 244.565
41.75000 246.872
41.76000 249.176
41.77000 252.534
41.78000 256.637
41.79000 260.610
41.80000 260.133
41.81000 257.478
41.82000 254.678
41.83000 249.780
41.84000 244.194
41.85000 239.128
41.86000 240.198
41.87000 242.315
41.88000 244.758
41.89000 248.816
41.90000 253.095
41.91000 256.500
41.92000 257.066
41.93000 257.414
41.94000 257.654
41.95000 256.385
41.96000 255.390
41.97000 255.208
41.98000 256.207
41.99000 257.215
42.00000 256.871
42.01000 255.270
42.02000 253.683
42.03000 252.554
42.04000 251.720
42.05000 250.806
42.06000 248.197
42.07000 244.902
42.08000 241.755
42.09000 240.187
42.10000 239.046
42.11000 238.041
42.12000 238.918
42.13000 239.956
42.14000 243.048
42.15000 254.431
42.16000 266.688
42.17000 274.211
42.18000 269.018
42.19000 263.126
42.20000 259.311
42.21000 259.222
42.22000 259.212
42.23000 260.654
42.24000 263.812
42.25000 266.957
42.26000 266.927
42.27000 264.505
42.28000 262.128
42.29000 258.538
42.30000 254.490
42.31000 250.637
42.32000 249.677
42.33000 249.686
42.34000 249.750
42.35000 250.273
42.36000 250.897
42.37000 251.429
42.38000 251.545
42.39000 251.594
42.40000 251.752
42.41000 252.272
42.42000 252.821
42.43000 252.156
42.44000 248.796
42.45000 245.339
42.46000 243.268
42.47000 238.427
42.48000 234.974
42.49000 236.196
42.50000 241.862
42.51000 247.447
42.52000 247.247
42.53000 243.478
42.54000 239.824
42.55000 240.027
42.56000 241.725
42.57000 243.507
42.58000 246.202
42.59000 249.150
42.60000 250.990
42.61000 245.688
42.62000 239.110
42.63000 233.714
42.64000 234.766
42.65000 236.203
42.66000 237.447
42.67000 238.165
42.68000 238.852
42.69000 240.345
42.70000 243.314
42.71000 246.315
42.72000 247.958
42.73000 247.279
42.74000 246.801
42.75000 244.354
42.76000 240.393
42.77000 236.475
42.78000 234.156
42.79000 232.650
42.80000 231.213
42.81000 235.627
42.82000 241.576
42.83000 246.807
42.84000 246.020
42.85000 243.875
42.86000 241.813
42.87000 240.181
42.88000 238.611
42.89000 237.379
42.90000 236.496
42.91000 235.812
42.92000 233.938
42.93000 229.372
42.94000 224.702
42.95000 224.507
42.96000 231.067
42.97000 237.694
42.98000 240.541
42.99000 239.718
43.00000 238.922
43.01000 240.274
43.02000 242.976
43.03000 245.549
43.04000 245.108
43.05000 243.402
43.06000 241.805
43.07000 238.525
43.08000 235.115
43.09000 232.025
43.10000 231.041
43.11000 230.443
43.12000 230.000
43.13000 230.215
43.14000 230.502
43.15000 230.717
43.16000 229.786
43.17000 229.008
43.18000 230.851
43.19000 237.592
43.20000 244.445
43.21000 243.599
43.22000 233.272
43.23000 222.940
43.24000 222.731
43.25000 230.420
43.26000 237.963
43.27000 239.725
43.28000 238.492
43.29000 237.130
43.30000 233.710
43.31000 229.576
43.32000 225.798
43.33000 227.595
43.34000 230.329
43.35000 232.015
43.36000 228.160
43.37000 223.498
43.38000 220.087
43.39000 220.990
43.40000 222.255
43.41000 223.148
43.42000 227.013
43.43000 230.035
43.44000 232.928
43.45000 235.620
43.46000 238.311
43.47000 238.721
43.48000 236.870
43.49000 235.032
43.50000 233.661
43.51000 232.608
43.52000 231.497
43.53000 228.991
43.54000 225.888
43.55000 223.031
43.56000 223.046
43.57000 223.883
43.58000 224.627
43.59000 226.938
43.60000 229.196
43.61000 230.234
43.62000 226.041
43.63000 221.252
43.64000 218.819
43.65000 223.076
43.66000 227.742
43.67000 230.827
43.68000 232.956
43.69000 234.510
43.70000 235.031
43.71000 234.253
43.72000 233.470
43.73000 232.300
43.74000 230.820
43.75000 229.363
43.76000 230.204
43.77000 232.195
43.78000 234.235
43.79000 237.109
43.80000 240.277
43.81000 242.397
43.82000 235.255
43.83000 225.939
43.84000 217.918
43.85000 218.382
43.86000 219.847
43.87000 222.132
43.88000 227.293
43.89000 232.703
43.90000 235.182
43.91000 230.776
43.92000 226.084
43.93000 223.205
43.94000 229.498
43.95000 234.085
43.96000 233.842
43.97000 228.699
43.98000 223.593
43.99000 221.887
44.00000 222.405
44.01000 222.908
44.02000 222.979
44.03000 222.867
44.04000 222.664
44.05000 221.381
44.06000 219.782
44.07000 218.873
44.08000 222.725
44.09000 227.486
44.10000 231.437
44.11000 234.925
44.12000 237.763
44.13000 239.096
44.14000 236.071
44.15000 232.770
44.16000 230.537
44.17000 230.373
44.18000 230.263
44.19000 230.201
44.20000 235.541
44.21000 239.254
44.22000 239.427
44.23000 236.709
44.24000 233.929
44.25000 228.359
44.26000 221.290
44.27000 214.511
44.28000 216.995
44.29000 222.434
44.30000 227.687
44.31000 231.258
44.32000 234.426
44.33000 236.931
44.34000 235.782
44.35000 234.075
44.36000 232.716
44.37000 238.159
44.38000 243.035
44.39000 245.636
44.40000 242.793
44.41000 239.714
44.42000 237.837
44.43000 237.880
44.44000 237.949
44.45000 237.984
44.46000 235.977
44.47000 234.640
44.48000 234.283
44.49000 234.579
44.50000 234.958
44.51000 237.535
44.52000 241.089
44.53000 244.434
44.54000 242.247
44.55000 238.743
44.56000 236.430
44.57000 242.530
44.58000 250.267
44.59000 256.433
44.60000 255.596
44.61000 253.919
44.62000 252.647
44.63000 252.050
44.64000 251.615
44.65000 251.030
44.66000 250.146
44.67000 249.254
44.68000 250.781
44.69000 255.474
44.70000 260.176
44.71000 260.403
44.72000 256.908
44.73000 253.494
44.74000 253.922
44.75000 256.456
44.76000 258.953
44.77000 260.816
44.78000 262.446
44.79000 263.946
44.80000 261.905
44.81000 259.306
44.82000 257.614
44.83000 261.020
44.84000 265.221
44.85000 268.307
44.86000 267.322
44.87000 265.962
44.88000 264.986
44.89000 268.504
44.90000 271.350
44.91000 274.698
44.92000 278.867
44.93000 283.047
44.94000 281.748
44.95000 274.645
44.96000 267.578
44.97000 266.727
44.98000 270.059
44.99000 273.446
45.00000 278.374
45.01000 284.000
45.02000 289.315
45.03000 290.664
45.04000 290.810
45.05000 290.941
45.06000 285.446
45.07000 279.668
45.08000 275.115
45.09000 276.141
45.10000 277.853
45.11000 280.118
45.12000 284.047
45.13000 288.088
45.14000 290.814
45.15000 281.139
45.16000 273.677
45.17000 270.024
45.18000 271.457
45.19000 272.910
45.20000 271.194
45.21000 266.780
45.22000 262.422
45.23000 261.221
45.24000 261.770
45.25000 262.370
45.26000 263.922
45.27000 265.830
45.28000 267.059
45.29000 261.810
45.30000 254.948
45.31000 248.981
45.32000 253.105
45.33000 257.999
45.34000 260.511
45.35000 254.165
45.36000 246.984
45.37000 242.701
45.38000 245.615
45.39000 248.867
45.40000 250.909
45.41000 252.416
45.42000 253.498
45.43000 253.831
45.44000 253.353
45.45000 252.853
45.46000 249.797
45.47000 244.968
45.48000 240.251
45.49000 234.882
45.50000 229.452
45.51000 224.495
45.52000 225.732
45.53000 228.882
45.54000 231.821
45.55000 233.189
45.56000 234.239
45.57000 235.121
45.58000 233.353
45.59000 231.604
45.60000 229.875
45.61000 228.212
45.62000 226.554
45.63000 225.022
45.64000 223.751
45.65000 222.488
45.66000 221.758
45.67000 228.340
45.68000 232.980
45.69000 234.382
45.70000 232.971
45.71000 231.521
45.72000 227.994
45.73000 223.285
45.74000 218.749
45.75000 218.282
45.76000 219.302
45.77000 220.063
45.78000 218.277
45.79000 215.845
45.80000 213.391
45.81000 210.813
45.82000 208.215
45.83000 206.120
45.84000 212.023
45.85000 217.446
45.86000 220.579
45.87000 217.918
45.88000 214.973
45.89000 215.265
45.90000 221.042
45.91000 226.909
45.92000 229.990
45.93000 217.816
45.94000 209.609
45.95000 208.399
45.96000 212.135
45.97000 215.771
45.98000 216.336
45.99000 215.459
46.00000 214.629
46.01000 214.838
46.02000 215.332
46.03000 215.022
46.04000 208.608
46.05000 200.931
46.06000 195.724
46.07000 202.226
46.08000 210.239
46.09000 216.408
46.10000 213.964
46.11000 211.540
46.12000 209.231
46.13000 207.166
46.14000 205.109
46.15000 203.759
46.16000 203.391
46.17000 203.029
46.18000 201.838
46.19000 199.912
46.20000 198.011
46.21000 197.541
46.22000 197.901
46.23000 198.330
46.24000 200.128
46.25000 202.458
46.26000 204.617
46.27000 202.337
46.28000 199.248
46.29000 197.122
46.30000 200.775
46.31000 205.392
46.32000 208.726
46.33000 207.098
46.34000 204.976
46.35000 203.426
46.36000 201.946
46.37000 200.807
46.38000 200.396
46.39000 201.243
46.40000 202.111
46.41000 203.658
46.42000 205.972
46.43000 208.277
46.44000 210.428
46.45000 212.448
46.46000 214.412
46.47000 214.588
46.48000 213.909
46.49000 213.015
46.50000 209.114
46.51000 204.249
46.52000 199.851
46.53000 199.963
46.54000 200.901
46.55000 201.249
46.56000 198.745
46.57000 195.864
46.58000 194.172
46.59000 196.259
46.60000 198.627
46.61000 200.255
46.62000 202.312
46.63000 203.866
46.64000 204.572
46.65000 204.076
46.66000 203.573
46.67000 205.343
46.68000 209.174
46.69000 212.966
46.70000 213.366
46.71000 211.796
46.72000 210.212
46.73000 208.347
46.74000 206.370
46.75000 204.831
46.76000 207.808
46.77000 211.978
46.78000 215.639
46.79000 214.781
46.80000 213.381
46.81000 211.348
46.82000 206.819
46.83000 202.035
46.84000 198.345
46.85000 197.527
46.86000 196.859
46.87000 196.431
46.88000 196.277
46.89000 196.169
46.90000 196.637
46.91000 197.772
46.92000 198.900
46.93000 198.777
46.94000 197.732
46.95000 196.707
46.96000 194.918
46.97000 192.836
46.98000 191.156
46.99000 195.259
47.00000 201.255
47.01000 206.066
47.02000 201.453
47.03000 194.807
47.04000 189.167
47.05000 194.099
47.06000 199.436
47.07000 203.161
47.08000 201.665
47.09000 199.768
47.10000 197.656
47.11000 195.075
47.12000 192.478
47.13000 190.938
47.14000 195.875
47.15000 199.404
47.16000 200.084
47.17000 198.124
47.18000 196.184
47.19000 195.534
47.20000 195.661
47.21000 195.784
47.22000 195.557
47.23000 195.209
47.24000 194.567
47.25000 190.803
47.26000 186.198
47.27000 182.621
47.28000 185.502
47.29000 189.507
47.30000 192.777
47.31000 188.159
47.32000 183.703
47.33000 180.962
47.34000 182.809
47.35000 184.906
47.36000 187.117
47.37000 189.532
47.38000 191.950
47.39000 193.258
47.40000 196.028
47.41000 197.910
47.42000 196.497
47.43000 192.612
47.44000 188.760
47.45000 186.065
47.46000 183.946
47.47000 181.929
47.48000 182.777
47.49000 184.447
47.50000 186.266
47.51000 189.303
47.52000 192.608
47.53000 195.819
47.54000 198.552
47.55000 201.218
47.56000 203.301
47.57000 197.606
47.58000 192.574
47.59000 190.364
47.60000 194.400
47.61000 198.663
47.62000 198.758
47.63000 192.710
47.64000 186.606
47.65000 182.789
47.66000 181.136
47.67000 179.606
47.68000 186.883
47.69000 199.572
47.70000 211.618
47.71000 209.393
47.72000 201.302
47.73000 193.752
47.74000 187.523
47.75000 182.208
47.76000 177.982
47.77000 180.753
47.78000 184.769
47.79000 187.817
47.80000 186.890
47.81000 185.535
47.82000 184.529
47.83000 187.246
47.84000 189.522
47.85000 190.152
47.86000 187.775
47.87000 185.335
47.88000 185.290
47.89000 188.126
47.90000 190.961
47.91000 191.068
47.92000 189.099
47.93000 187.151
47.94000 185.969
47.95000 185.176
47.96000 184.448
47.97000 184.725
47.98000 185.344
47.99000 185.909
48.00000 187.549
48.01000 189.216
48.02000 190.270
48.03000 188.168
48.04000 185.619
48.05000 183.525
48.06000 182.958
48.07000 182.515
48.08000 182.205
48.09000 183.376
48.10000 184.304
48.11000 184.040
48.12000 181.984
48.13000 179.910
48.14000 179.027
48.15000 179.294
48.16000 179.559
48.17000 181.685
48.18000 184.918
48.19000 187.877
48.20000 184.480
48.21000 178.421
48.22000 172.938
48.23000 173.937
48.24000 176.751
48.25000 179.243
48.26000 180.561
48.27000 181.517
48.28000 182.207
48.29000 181.788
48.30000 181.247
48.31000 180.243
48.32000 177.955
48.33000 175.591
48.34000 174.042
48.35000 183.060
48.36000 189.868
48.37000 192.212
48.38000 189.081
48.39000 185.948
48.40000 186.093
48.41000 188.797
48.42000 191.458
48.43000 189.516
48.44000 185.340
48.45000 181.362
48.46000 180.530
48.47000 180.786
48.48000 181.634
48.49000 187.549
48.50000 194.625
48.51000 200.694
48.52000 199.446
48.53000 197.496
48.54000 195.722
48.55000 194.556
48.56000 193.440
48.57000 191.492
48.58000 187.634
48.59000 183.700
48.60000 181.309
48.61000 181.929
48.62000 182.395
48.63000 182.961
48.64000 183.626
48.65000 184.280
48.66000 183.992
48.67000 183.103
48.68000 182.239
48.69000 180.479
48.70000 178.444
48.71000 176.454
48.72000 174.971
48.73000 173.634
48.74000 172.868
48.75000 175.936
48.76000 179.716
48.77000 182.839
48.78000 182.103
48.79000 181.135
48.80000 181.228
48.81000 184.324
48.82000 187.602
48.83000 189.766
48.84000 189.815
48.85000 189.815
48.86000 189.814
48.87000 189.687
48.88000 189.592
48.89000 187.461
48.90000 183.707
48.91000 180.033
48.92000 179.683
48.93000 181.081
48.94000 182.419
48.95000 182.007
48.96000 181.048
48.97000 180.192
48.98000 180.237
48.99000 180.494
49.00000 180.938
49.01000 182.385
49.02000 183.981
49.03000 185.245
49.04000 186.402
49.05000 187.324
49.06000 188.534
49.07000 190.420
49.08000 192.333
49.09000 191.620
49.10000 186.802
49.11000 181.935
49.12000 179.489
49.13000 180.229
49.14000 180.701
49.15000 179.136
49.16000 176.245
49.17000 173.554
49.18000 175.911
49.19000 180.461
49.20000 184.733
49.21000 182.940
49.22000 179.696
49.23000 176.817
49.24000 176.440
49.25000 176.539
49.26000 177.209
49.27000 180.362
49.28000 183.805
49.29000 186.401
49.30000 183.141
49.31000 180.299
49.32000 178.467
49.33000 178.588
49.34000 178.758
49.35000 178.510
49.36000 177.729
49.37000 176.947
49.38000 179.292
49.39000 184.165
49.40000 188.880
49.41000 186.652
49.42000 180.704
49.43000 175.300
49.44000 179.133
49.45000 186.287
49.46000 192.852
49.47000 186.996
49.48000 179.130
49.49000 171.968
49.50000 168.665
49.51000 165.948
49.52000 165.520
49.53000 173.256
49.54000 181.717
49.55000 187.750
49.56000 185.256
49.57000 183.074
49.58000 182.191
49.59000 183.379
49.60000 184.594
49.61000 184.046
49.62000 181.679
49.63000 179.326
49.64000 176.580
49.65000 173.614
49.66000 170.756
49.67000 170.734
49.68000 171.967
49.69000 172.958
49.70000 170.963
49.71000 168.084
49.72000 165.510
49.73000 172.338
49.74000 179.874
49.75000 185.402
49.76000 182.003
49.77000 177.539
49.78000 173.472
49.79000 170.569
49.80000 167.743
49.81000 165.851
49.82000 172.958
49.83000 178.407
49.84000 179.386
49.85000 174.538
49.86000 169.670
49.87000 167.194
49.88000 166.704
49.89000 166.222
49.90000 166.693
49.91000 167.657
49.92000 168.661
49.93000 170.377
49.94000 172.354
49.95000 174.152
49.96000 174.299
49.97000 174.045
49.98000 173.824
49.99000 177.893
50.00000 181.923
50.01000 184.962
50.02000 184.398
50.03000 183.507
50.04000 182.005
50.05000 179.023
50.06000 175.975
50.07000 174.078
50.08000 178.330
50.09000 181.455
50.10000 184.010
50.11000 185.964
50.12000 187.862
50.13000 183.662
50.14000 175.333
50.15000 167.208
50.16000 169.220
50.17000 175.512
50.18000 181.536
50.19000 184.174
50.20000 185.788
50.21000 186.971
50.22000 185.049
50.23000 182.513
50.24000 180.393
50.25000 183.071
50.26000 185.781
50.27000 187.410
50.28000 185.803
50.29000 183.980
50.30000 181.787
50.31000 178.854
50.32000 175.900
50.33000 174.210
50.34000 173.425
50.35000 172.885
50.36000 175.218
50.37000 179.988
50.38000 184.744
50.39000 188.811
50.40000 192.494
50.41000 196.035
50.42000 192.512
50.43000 186.739
50.44000 181.599
50.45000 182.464
50.46000 184.819
50.47000 186.814
50.48000 186.747
50.49000 186.353
50.50000 186.037
50.51000 186.186
50.52000 186.342
50.53000 188.208
50.54000 194.305
50.55000 200.600
50.56000 202.338
50.57000 196.532
50.58000 190.612
50.59000 187.541
50.60000 192.723
50.61000 196.213
50.62000 198.483
50.63000 199.912
50.64000 201.272
50.65000 200.681
50.66000 199.193
50.67000 197.787
50.68000 201.210
50.69000 205.716
50.70000 209.161
50.71000 204.783
50.72000 198.823
50.73000 193.740
50.74000 192.715
50.75000 192.199
50.76000 191.804
50.77000 192.933
50.78000 193.908
50.79000 195.034
50.80000 196.472
50.81000 197.918
50.82000 195.252
50.83000 187.003
50.84000 178.728
50.85000 177.670
50.86000 182.851
50.87000 187.944
50.88000 188.411
50.89000 186.253
50.90000 184.135
50.91000 182.751
50.92000 181.647
50.93000 180.627
50.94000 182.349
50.95000 184.518
50.96000 186.233
50.97000 185.288
50.98000 183.910
50.99000 182.595
51.00000 181.517
51.01000 180.461
51.02000 179.695
51.03000 182.734
51.04000 185.211
51.05000 184.130
51.06000 177.041
51.07000 169.854
51.08000 168.504
51.09000 173.577
51.10000 178.632
51.11000 180.807
51.12000 180.953
51.13000 181.001
51.14000 178.136
51.15000 173.907
51.16000 169.980
51.17000 170.104
51.18000 171.500
51.19000 172.758
51.20000 172.091
51.21000 171.158
51.22000 170.180
51.23000 168.989
51.24000 167.771
51.25000 166.591
51.26000 165.525
51.27000 164.467
51.28000 163.745
51.29000 166.053
51.30000 167.850
51.31000 169.166
51.32000 169.816
51.33000 170.464
51.34000 172.876
51.35000 176.847
51.36000 180.775
51.37000 180.049
51.38000 176.711
51.39000 173.635
51.40000 175.686
51.41000 179.724
51.42000 183.128
51.43000 180.188
51.44000 175.610
51.45000 171.606
51.46000 168.451
51.47000 165.868
51.48000 165.433
51.49000 173.272
51.50000 181.930
51.51000 186.357
51.52000 179.914
51.53000 172.924
51.54000 168.475
51.55000 172.689
51.56000 175.860
51.57000 177.022
51.58000 175.926
51.59000 174.834
51.60000 174.551
51.61000 174.851
51.62000 175.144
51.63000 172.430
51.64000 168.445
51.65000 164.656
51.66000 163.580
51.67000 163.371
51.68000 163.302
51.69000 164.309
51.70000 165.543
51.71000 166.586
51.72000 161.833
51.73000 157.221
51.74000 154.688
51.75000 158.738
51.76000 163.275
51.77000 166.419
51.78000 166.606
51.79000 166.695
51.80000 166.748
51.81000 160.927
51.82000 156.798
51.83000 158.197
51.84000 164.589
51.85000 170.905
51.86000 172.647
51.87000 171.694
51.88000 170.774
51.89000 169.806
51.90000 168.876
51.91000 167.958
51.92000 167.157
51.93000 166.387
51.94000 165.992
51.95000 167.897
51.96000 170.191
51.97000 172.055
51.98000 166.518
51.99000 161.386
52.00000 159.147
52.01000 164.480
52.02000 170.209
52.03000 174.452
52.04000 176.088
52.05000 177.676
52.06000 178.526
52.07000 169.844
52.08000 163.946
52.09000 163.373
52.10000 166.701
52.11000 169.983
52.12000 171.719
52.13000 172.703
52.14000 173.637
52.15000 171.430
52.16000 168.446
52.17000 165.806
52.18000 165.890
52.19000 166.560
52.20000 167.126
52.21000 167.183
52.22000 167.171
52.23000 167.162
52.24000 165.031
52.25000 163.208
52.26000 162.251
52.27000 163.172
52.28000 164.158
52.29000 164.014
52.30000 162.243
52.31000 160.460
52.32000 159.700
52.33000 159.885
52.34000 160.093
52.35000 161.870
52.36000 164.590
52.37000 167.152
52.38000 166.391
52.39000 164.293
52.40000 162.341
52.41000 160.046
52.42000 157.889
52.43000 155.539
52.44000 151.982
52.45000 148.214
52.46000 146.546
52.47000 153.289
52.48000 160.911
52.49000 166.533
52.50000 167.272
52.51000 167.639
52.52000 166.544
52.53000 162.839
52.54000 159.082
52.55000 157.321
52.56000 157.901
52.57000 158.483
52.58000 158.798
52.59000 158.913
52.60000 159.047
52.61000 159.869
52.62000 161.031
52.63000 162.098
52.64000 161.753
52.65000 160.939
52.66000 160.200
52.67000 162.120
52.68000 164.331
52.69000 166.640
52.70000 169.438
52.71000 172.304
52.72000 173.791
52.73000 170.745
52.74000 167.342
52.75000 164.976
52.76000 163.160
52.77000 161.807
52.78000 161.357
52.79000 162.234
52.80000 163.123
52.81000 164.176
52.82000 165.384
52.83000 166.580
52.84000 167.821
52.85000 169.064
52.86000 170.138
52.87000 167.496
52.88000 163.331
52.89000 159.587
52.90000 160.409
52.91000 162.480
52.92000 164.308
52.93000 162.405
52.94000 160.191
52.95000 158.596
52.96000 159.528
52.97000 160.731
52.98000 161.480
52.99000 160.994
53.00000 160.439
53.01000 160.078
53.02000 163.374
53.03000 165.846
53.04000 167.182
53.05000 167.159
53.06000 167.136
53.07000 167.942
53.08000 169.380
53.09000 170.793
53.10000 169.345
53.11000 166.552
53.12000 163.674
53.13000 159.492
53.14000 154.870
53.15000 151.128
53.16000 154.717
53.17000 159.945
53.18000 164.411
53.19000 161.180
53.20000 157.542
53.21000 156.010
53.22000 161.541
53.23000 167.643
53.24000 170.000
53.25000 163.940
53.26000 157.564
53.27000 153.725
53.28000 154.386
53.29000 154.887
53.30000 157.562
53.31000 162.330
53.32000 167.037
53.33000 167.186
53.34000 164.489
53.35000 161.872
53.36000 162.613
53.37000 164.643
53.38000 166.401
53.39000 165.105
53.40000 162.958
53.41000 161.316
53.42000 162.980
53.43000 165.242
53.44000 167.103
53.45000 169.399
53.46000 171.325
53.47000 171.639
53.48000 167.490
53.49000 163.081
53.50000 161.667
53.51000 165.812
53.52000 170.081
53.53000 172.431
53.54000 165.785
53.55000 161.210
53.56000 161.552
53.57000 165.719
53.58000 169.723
53.59000 167.368
53.60000 161.744
53.61000 156.373
53.62000 155.854
53.63000 156.928
53.64000 157.840
53.65000 157.379
53.66000 156.605
53.67000 156.080
53.68000 156.862
53.69000 157.833
53.70000 158.597
53.71000 162.019
53.72000 164.939
53.73000 167.143
53.74000 167.710
53.75000 168.212
53.76000 168.385
53.77000 168.054
53.78000 167.717
53.79000 166.533
53.80000 164.516
53.81000 162.483
53.82000 159.250
53.83000 155.252
53.84000 151.425
53.85000 151.699
53.86000 153.716
53.87000 155.605
53.88000 155.216
53.89000 154.273
53.90000 153.712
53.91000 155.703
53.92000 158.166
53.93000 160.751
53.94000 163.850
53.95000 167.007
53.96000 169.373
53.97000 166.230
53.98000 163.516
53.99000 161.626
54.00000 161.296
54.01000 161.002
54.02000 159.511
54.03000 156.526
54.04000 153.542
54.05000 150.606
54.06000 147.720
54.07000 144.985
54.08000 148.474
54.09000 155.223
54.10000 161.861
54.11000 166.704
54.12000 170.915
54.13000 174.768
54.14000 173.593
54.15000 171.505
54.16000 169.521
54.17000 168.088
54.18000 166.738
54.19000 165.591
54.20000 165.157
54.21000 164.783
54.22000 164.519
54.23000 159.154
54.24000 154.917
54.25000 153.555
54.26000 156.670
54.27000 159.838
54.28000 161.855
54.29000 162.715
54.30000 163.569
54.31000 162.488
54.32000 160.188
54.33000 158.007
54.34000 158.813
54.35000 160.914
54.36000 162.891
54.37000 163.413
54.38000 163.512
54.39000 163.601
54.40000 161.677
54.41000 159.674
54.42000 158.389
54.43000 160.222
54.44000 162.416
54.45000 163.477
54.46000 161.278
54.47000 158.877
54.48000 157.282
54.49000 159.863
54.50000 161.847
54.51000 161.501
54.52000 158.189
54.53000 154.878
54.54000 155.782
54.55000 160.103
54.56000 164.360
54.57000 164.282
54.58000 161.960
54.59000 159.815
54.60000 160.644
54.61000 162.539
54.62000 164.322
54.63000 165.112
54.64000 165.665
54.65000 166.142
54.66000 163.396
54.67000 160.652
54.68000 158.421
54.69000 158.012
54.70000 157.765
54.71000 158.611
54.72000 162.057
54.73000 165.614
54.74000 167.807
54.75000 165.063
54.76000 163.048
54.77000 160.867
54.78000 158.515
54.79000 156.190
54.80000 156.403
54.81000 158.297
54.82000 160.141
54.83000 162.051
54.84000 163.900
54.85000 165.430
54.86000 163.063
54.87000 159.544
54.88000 157.211
54.89000 163.178
54.90000 170.749
54.91000 177.047
54.92000 176.925
54.93000 176.192
54.94000 174.719
54.95000 171.080
54.96000 167.301
54.97000 166.775
54.98000 172.640
54.99000 178.674
55.00000 182.089
55.01000 177.005
55.02000 173.445
55.03000 170.298
55.04000 167.493
55.05000 164.774
55.06000 165.986
55.07000 169.338
55.08000 172.555
55.09000 170.042
55.10000 165.739
55.11000 162.062
55.12000 164.160
55.13000 167.658
55.14000 171.140
55.15000 174.533
55.16000 177.912
55.17000 180.609
55.18000 182.094
55.19000 183.204
55.20000 183.507
55.21000 181.853
55.22000 180.112
55.23000 180.066
55.24000 182.762
55.25000 185.496
55.26000 186.896
55.27000 184.654
55.28000 183.179
55.29000 185.213
55.30000 189.615
55.31000 193.884
55.32000 194.523
55.33000 193.529
55.34000 192.593
55.35000 191.197
55.36000 189.793
55.37000 188.255
55.38000 185.751
55.39000 183.058
55.40000 181.992
55.41000 188.278
55.42000 195.460
55.43000 200.924
55.44000 204.956
55.45000 208.053
55.46000 210.805
55.47000 212.866
55.48000 214.908
55.49000 217.777
55.50000 221.741
55.51000 225.708
55.52000 229.490
55.53000 233.109
55.54000 236.700
55.55000 238.933
55.56000 240.412
55.57000 242.232
55.58000 250.228
55.59000 260.519
55.60000 270.006
55.61000 274.290
55.62000 276.974
55.63000 280.303
55.64000 287.309
55.65000 294.898
55.66000 302.639
55.67000 310.942
55.68000 319.298
55.69000 325.320
55.70000 329.779
55.71000 333.141
55.72000 335.870
55.73000 337.558
55.74000 339.230
55.75000 345.404
55.76000 356.410
55.77000 367.362
55.78000 376.062
55.79000 383.129
55.80000 390.323
55.81000 401.157
55.82000 413.658
55.83000 425.889
55.84000 434.621
55.85000 442.279
55.86000 449.157
55.87000 452.793
55.88000 455.404
55.89000 458.148
55.90000 461.509
55.91000 464.948
55.92000 465.889
55.93000 459.238
55.94000 452.064
55.95000 447.205
55.96000 450.692
55.97000 453.473
55.98000 453.316
55.99000 449.185
56.00000 445.034
56.01000 442.086
56.02000 440.175
56.03000 438.287
56.04000 441.076
56.05000 446.371
56.06000 450.963
56.07000 442.350
56.08000 428.735
56.09000 415.162
56.10000 402.000
56.11000 388.940
56.12000 377.561
56.13000 373.660
56.14000 371.360
56.15000 368.703
56.16000 364.703
56.17000 360.574
56.18000 353.144
56.19000 337.420
56.20000 321.297
56.21000 311.126
56.22000 309.873
56.23000 309.069
56.24000 307.169
56.25000 304.069
56.26000 300.967
56.27000 297.754
56.28000 294.464
56.29000 291.247
56.30000 280.287
56.31000 266.316
56.32000 253.023
56.33000 248.776
56.34000 247.358
56.35000 245.539
56.36000 240.694
56.37000 235.227
56.38000 230.628
56.39000 224.770
56.40000 219.752
56.41000 216.410
56.42000 218.261
56.43000 220.481
56.44000 219.978
56.45000 213.817
56.46000 207.482
56.47000 203.800
56.48000 191.853
56.49000 183.434
56.50000 182.434
56.51000 187.968
56.52000 193.412
56.53000 193.895
56.54000 191.518
56.55000 189.227
56.56000 184.293
56.57000 178.693
56.58000 173.628
56.59000 173.891
56.60000 175.524
56.61000 177.233
56.62000 179.397
56.63000 181.636
56.64000 183.446
56.65000 179.723
56.66000 176.251
56.67000 173.213
56.68000 171.284
56.69000 169.411
56.70000 168.823
56.71000 170.438
56.72000 172.090
56.73000 172.964
56.74000 172.966
56.75000 172.949
56.76000 170.395
56.77000 166.026
56.78000 161.791
56.79000 161.773
56.80000 163.760
56.81000 165.644
56.82000 166.013
56.83000 165.907
56.84000 165.295
56.85000 160.777
56.86000 155.439
56.87000 151.526
56.88000 154.450
56.89000 158.270
56.90000 161.219
56.91000 162.017
56.92000 162.524
56.93000 161.536
56.94000 157.381
56.95000 153.124
56.96000 149.901
56.97000 148.133
56.98000 146.376
56.99000 148.769
57.00000 154.888
57.01000 160.963
57.02000 164.347
57.03000 166.152
57.04000 167.785
57.05000 165.934
57.06000 162.712
57.07000 159.722
57.08000 156.133
57.09000 152.757
57.10000 149.659
57.11000 148.258
57.12000 147.145
57.13000 146.758
57.14000 149.218
57.15000 151.966
57.16000 153.981
57.17000 158.265
57.18000 161.665
57.19000 161.609
57.20000 155.515
57.21000 149.309
57.22000 146.484
57.23000 147.524
57.24000 148.565
57.25000 150.467
57.26000 152.976
57.27000 155.337
57.28000 152.804
57.29000 147.901
57.30000 143.451
57.31000 145.450
57.32000 149.544
57.33000 153.251
57.34000 148.525
57.35000 142.769
57.36000 138.380
57.37000 140.682
57.38000 143.882
57.39000 145.689
57.40000 143.015
57.41000 140.002
57.42000 137.921
57.43000 143.583
57.44000 148.036
57.45000 152.805
57.46000 158.026
57.47000 163.247
57.48000 162.178
57.49000 155.329
57.50000 148.546
57.51000 145.401
57.52000 144.453
57.53000 143.647
57.54000 145.816
57.55000 149.176
57.56000 152.244
57.57000 152.224
57.58000 151.378
57.59000 150.634
57.60000 150.536
57.61000 150.548
57.62000 150.115
57.63000 147.905
57.64000 145.511
57.65000 144.633
57.66000 147.782
57.67000 151.149
57.68000 153.320
57.69000 149.788
57.70000 147.126
57.71000 145.456
57.72000 144.942
57.73000 144.433
57.74000 144.459
57.75000 144.882
57.76000 145.297
57.77000 148.665
57.78000 153.314
57.79000 157.573
57.80000 156.110
57.81000 152.753
57.82000 149.546
57.83000 147.547
57.84000 145.813
57.85000 144.337
57.86000 144.329
57.87000 144.491
57.88000 144.399
57.89000 143.478
57.90000 142.493
57.91000 142.490
57.92000 144.649
57.93000 146.884
57.94000 148.217
57.95000 145.366
57.96000 143.320
57.97000 141.269
57.98000 139.215
57.99000 137.249
58.00000 141.381
58.01000 149.235
58.02000 156.842
58.03000 157.424
58.04000 155.263
58.05000 152.887
58.06000 148.177
58.07000 142.830
58.08000 138.070
58.09000 137.039
58.10000 136.667
58.11000 136.362
58.12000 135.841
58.13000 135.396
58.14000 135.882
58.15000 138.889
58.16000 142.036
58.17000 144.739
58.18000 146.634
58.19000 148.512
58.20000 149.534
58.21000 147.062
58.22000 145.368
58.23000 145.353
58.24000 146.613
58.25000 147.780
58.26000 145.535
58.27000 141.574
58.28000 137.799
58.29000 138.344
58.30000 140.199
58.31000 142.030
58.32000 143.658
58.33000 145.240
58.34000 146.432
58.35000 145.629
58.36000 144.546
58.37000 143.697
58.38000 139.506
58.39000 135.944
58.40000 134.677
58.41000 138.548
58.42000 142.611
58.43000 144.772
58.44000 144.094
58.45000 143.389
58.46000 142.754
58.47000 142.185
58.48000 141.598
58.49000 139.592
58.50000 136.705
58.51000 133.971
58.52000 134.723
58.53000 136.923
58.54000 138.979
58.55000 139.719
58.56000 140.058
58.57000 140.712
58.58000 143.419
58.59000 146.497
58.60000 148.871
58.61000 148.324
58.62000 147.456
58.63000 146.810
58.64000 137.092
58.65000 129.120
58.66000 127.202
58.67000 136.483
58.68000 146.012
58.69000 148.645
58.70000 142.885
58.71000 137.119
58.72000 134.161
58.73000 133.386
58.74000 132.600
58.75000 131.402
58.76000 129.992
58.77000 128.843
58.78000 131.774
58.79000 136.108
58.80000 140.063
58.81000 142.035
58.82000 143.384
58.83000 144.449
58.84000 144.026
58.85000 143.390
58.86000 143.224
58.87000 144.658
58.88000 146.224
58.89000 147.325
58.90000 146.925
58.91000 146.578
58.92000 145.292
58.93000 142.577
58.94000 139.847
58.95000 137.458
58.96000 135.403
58.97000 133.363
58.98000 134.221
58.99000 136.871
59.00000 139.366
59.01000 138.193
59.02000 135.468
59.03000 132.896
59.04000 132.082
59.05000 131.766
59.06000 131.485
59.07000 129.919
59.08000 128.357
59.09000 127.876
59.10000 131.979
59.11000 136.597
59.12000 139.569
59.13000 137.917
59.14000 135.988
59.15000 134.717
59.16000 134.896
59.17000 135.054
59.18000 135.968
59.19000 137.822
59.20000 139.674
59.21000 140.137
59.22000 139.501
59.23000 138.876
59.24000 138.425
59.25000 138.077
59.26000 137.676
59.27000 136.417
59.28000 134.858
59.29000 133.697
59.30000 135.996
59.31000 139.099
59.32000 141.766
59.33000 138.090
59.34000 134.190
59.35000 132.111
59.36000 136.351
59.37000 141.130
59.38000 143.633
59.39000 140.848
59.40000 137.849
59.41000 136.017
59.42000 139.240
59.43000 141.586
59.44000 141.034
59.45000 137.579
59.46000 134.129
59.47000 131.095
59.48000 128.330
59.49000 125.641
59.50000 126.731
59.51000 129.321
59.52000 131.818
59.53000 133.221
59.54000 134.308
59.55000 135.431
59.56000 136.804
59.57000 138.225
59.58000 139.401
59.59000 139.768
59.60000 139.993
59.61000 139.388
59.62000 136.404
59.63000 133.272
59.64000 131.846
59.65000 133.696
59.66000 135.627
59.67000 136.708
59.68000 132.195
59.69000 129.064
59.70000 129.556
59.71000 132.973
59.72000 136.283
59.73000 134.966
59.74000 131.186
59.75000 127.565
59.76000 128.834
59.77000 131.644
59.78000 134.136
59.79000 133.795
59.80000 132.783
59.81000 131.147
59.82000 126.117
59.83000 120.577
59.84000 116.178
59.85000 125.761
59.86000 134.462
59.87000 138.959
59.88000 133.502
59.89000 127.623
59.90000 126.235
59.91000 131.951
59.92000 137.755
59.93000 140.692
59.94000 140.743
59.95000 140.761
59.96000 139.254
59.97000 136.741
59.98000 134.412
59.99000 136.848
60.00000 141.377
60.01000 145.636
60.02000 140.264
60.03000 132.771
60.04000 126.775
60.05000 131.222
60.06000 137.678
60.07000 142.009
60.08000 136.972
60.09000 130.828
60.10000 126.181
60.11000 130.385
60.12000 134.128
60.13000 138.114
60.14000 142.574
60.15000 147.047
60.16000 148.218
60.17000 145.116
60.18000 142.001
60.19000 138.904
60.20000 135.831
60.21000 132.855
60.22000 134.324
60.23000 138.204
60.24000 141.652
60.25000 137.598
60.26000 130.817
60.27000 124.584
60.28000 127.513
60.29000 132.105
60.30000 136.322
60.31000 138.458
60.32000 140.273
60.33000 141.864
60.34000 142.649
60.35000 143.361
60.36000 143.870
60.37000 136.864
60.38000 131.260
60.39000 128.305
60.40000 129.622
60.41000 130.997
60.42000 131.944
60.43000 132.443
60.44000 132.940
60.45000 132.810
60.46000 132.266
60.47000 131.846
60.48000 134.781
60.49000 139.219
60.50000 143.274
60.51000 142.552
60.52000 140.395
60.53000 138.465
60.54000 134.521
60.55000 130.735
60.56000 128.520
60.57000 133.373
60.58000 139.083
60.59000 142.815
60.60000 140.669
60.61000 138.134
60.62000 136.430
60.63000 135.672
60.64000 135.128
60.65000 134.495
60.66000 133.744
60.67000 132.996
60.68000 134.513
60.69000 137.937
60.70000 141.315
60.71000 141.098
60.72000 138.953
60.73000 136.696
60.74000 132.410
60.75000 127.372
60.76000 122.967
60.77000 124.518
60.78000 127.535
60.79000 130.154
60.80000 133.134
60.81000 135.721
60.82000 138.205
60.83000 140.305
60.84000 142.370
60.85000 143.112
60.86000 140.604
60.87000 137.946
60.88000 136.285
60.89000 131.773
60.90000 128.486
60.91000 128.679
60.92000 132.591
60.93000 136.498
60.94000 139.661
60.95000 142.313
60.96000 144.903
60.97000 144.286
60.98000 142.294
60.99000 140.331
61.00000 138.730
61.01000 137.240
61.02000 135.968
61.03000 136.294
61.04000 136.940
61.05000 137.481
61.06000 138.652
61.07000 139.690
61.08000 140.673
61.09000 141.491
61.10000 142.298
61.11000 142.361
61.12000 140.915
61.13000 139.424
61.14000 138.567
61.15000 135.148
61.16000 132.751
61.17000 133.640
61.18000 137.352
61.19000 141.017
61.20000 142.230
61.21000 142.061
61.22000 141.899
61.23000 141.097
61.24000 140.118
61.25000 139.294
61.26000 139.957
61.27000 140.993
61.28000 141.751
61.29000 140.895
61.30000 139.779
61.31000 138.881
61.32000 135.055
61.33000 131.725
61.34000 128.919
61.35000 127.421
61.36000 125.986
61.37000 127.925
61.38000 135.519
61.39000 143.203
61.40000 147.214
61.41000 140.046
61.42000 135.231
61.43000 135.295
61.44000 138.769
61.45000 142.140
61.46000 142.459
61.47000 141.360
61.48000 140.320
61.49000 143.232
61.50000 147.040
61.51000 151.181
61.52000 157.810
61.53000 164.949
61.54000 172.219
61.55000 180.107
61.56000 188.074
61.57000 194.191
61.58000 211.969
61.59000 226.673
61.60000 240.301
61.61000 251.700
61.62000 263.030
61.63000 267.636
61.64000 263.001
61.65000 258.312
61.66000 258.348
61.67000 262.522
61.68000 266.716
61.69000 272.012
61.70000 277.941
61.71000 283.380
61.72000 279.352
61.73000 271.684
61.74000 264.586
61.75000 254.544
61.76000 244.838
61.77000 236.446
61.78000 235.840
61.79000 236.518
61.80000 233.506
61.81000 216.380
61.82000 197.871
61.83000 184.396
61.84000 173.026
61.85000 164.354
61.86000 158.629
61.87000 157.942
61.88000 157.339
61.89000 157.714
61.90000 159.178
61.91000 160.637
61.92000 158.209
61.93000 153.061
61.94000 148.011
61.95000 145.987
61.96000 145.397
61.97000 144.745
61.98000 143.258
61.99000 141.506
62.00000 139.925
62.01000 142.696
62.02000 145.930
62.03000 148.844
62.04000 150.233
62.05000 151.423
62.06000 151.888
62.07000 150.071
62.08000 148.088
62.09000 146.729
62.10000 145.127
62.11000 143.921
62.12000 143.246
62.13000 143.317
62.14000 143.393
62.15000 142.570
62.16000 140.941
62.17000 139.330
62.18000 140.585
62.19000 143.451
62.20000 146.130
62.21000 145.058
62.22000 142.516
62.23000 140.379
62.24000 142.368
62.25000 145.436
62.26000 148.124
62.27000 147.293
62.28000 146.072
62.29000 144.721
62.30000 142.865
62.31000 140.959
62.32000 141.405
62.33000 147.965
62.34000 154.841
62.35000 159.236
62.36000 152.677
62.37000 147.758
62.38000 146.253
62.39000 148.635
62.40000 151.010
62.41000 151.333
62.42000 150.165
62.43000 149.021
62.44000 146.408
62.45000 143.215
62.46000 140.246
62.47000 140.454
62.48000 141.690
62.49000 142.950
62.50000 144.399
62.51000 145.888
62.52000 147.149
62.53000 145.098
62.54000 143.009
62.55000 142.419
62.56000 146.632
62.57000 151.207
62.58000 152.853
62.59000 148.208
62.60000 143.352
62.61000 140.485
62.62000 144.193
62.63000 146.846
62.64000 147.961
62.65000 147.669
62.66000 147.454
62.67000 152.147
62.68000 159.766
62.69000 167.133
62.70000 165.457
62.71000 160.468
62.72000 155.331
62.73000 148.642
62.74000 141.539
62.75000 135.761
62.76000 138.203
62.77000 142.059
62.78000 145.200
62.79000 144.344
62.80000 143.308
62.81000 142.785
62.82000 143.624
62.83000 144.535
62.84000 146.045
62.85000 148.617
62.86000 151.209
62.87000 152.604
62.88000 146.450
62.89000 142.259
62.90000 142.306
62.91000 145.496
62.92000 148.551
62.93000 147.005
62.94000 143.196
62.95000 139.574
62.96000 138.138
62.97000 137.476
62.98000 137.248
62.99000 140.519
63.00000 144.550
63.01000 148.212
63.02000 150.030
63.03000 151.597
63.04000 152.817
63.05000 150.902
63.06000 149.183
63.07000 147.065
63.08000 144.073
63.09000 141.051
63.10000 140.197
63.11000 142.503
63.12000 144.836
63.13000 146.962
63.14000 148.892
63.15000 150.766
63.16000 148.751
63.17000 144.373
63.18000 140.257
63.19000 141.818
63.20000 145.687
63.21000 149.292
63.22000 149.262
63.23000 148.341
63.24000 147.786
63.25000 149.545
63.26000 151.712
63.27000 153.976
63.28000 156.632
63.29000 159.330
63.30000 161.327
63.31000 150.809
63.32000 142.108
63.33000 138.113
63.34000 142.626
63.35000 147.313
63.36000 151.009
63.37000 153.527
63.38000 156.036
63.39000 155.695
63.40000 153.213
63.41000 150.720
63.42000 147.769
63.43000 144.591
63.44000 141.560
63.45000 140.757
63.46000 140.704
63.47000 140.655
63.48000 142.881
63.49000 145.297
63.50000 147.497
63.51000 148.603
63.52000 149.556
63.53000 150.436
63.54000 151.074
63.55000 151.693
63.56000 152.125
63.57000 156.141
63.58000 159.273
63.59000 159.812
63.60000 156.492
63.61000 153.137
63.62000 150.103
63.63000 147.375
63.64000 144.671
63.65000 146.357
63.66000 150.684
63.67000 154.851
63.68000 155.390
63.69000 154.427
63.70000 153.624
63.71000 154.595
63.72000 156.057
63.73000 157.350
63.74000 156.125
63.75000 154.675
63.76000 153.836
63.77000 155.521
63.78000 157.481
63.79000 157.656
63.80000 152.923
63.81000 147.908
63.82000 144.632
63.83000 148.640
63.84000 151.699
63.85000 152.608
63.86000 150.913
63.87000 149.224
63.88000 150.696
63.89000 154.609
63.90000 158.455
63.91000 156.054
63.92000 150.650
63.93000 145.635
63.94000 146.680
63.95000 149.801
63.96000 152.279
63.97000 149.325
63.98000 145.141
63.99000 141.559
64.00000 149.599
64.01000 157.786
64.02000 163.886
64.03000 162.898
64.04000 161.328
64.05000 159.947
64.06000 158.999
64.07000 158.068
64.08000 157.505
64.09000 162.491
64.10000 166.086
64.11000 164.911
64.12000 159.083
64.13000 153.321
64.14000 152.920
64.15000 155.904
64.16000 158.803
64.17000 160.380
64.18000 161.349
64.19000 162.137
64.20000 160.867
64.21000 159.016
64.22000 157.884
64.23000 161.519
64.24000 166.030
64.25000 169.748
64.26000 171.171
64.27000 172.131
64.28000 172.048
64.29000 169.044
64.30000 165.866
64.31000 163.075
64.32000 161.013
64.33000 158.967
64.34000 157.835
64.35000 157.788
64.36000 157.761
64.37000 158.509
64.38000 159.868
64.39000 161.240
64.40000 163.098
64.41000 165.209
64.42000 167.227
64.43000 166.346
64.44000 164.585
64.45000 162.868
64.46000 161.535
64.47000 160.291
64.48000 159.503
64.49000 161.140
64.50000 163.133
64.51000 164.706
64.52000 161.528
64.53000 158.654
64.54000 157.065
64.55000 158.449
64.56000 159.953
64.57000 161.056
64.58000 161.541
64.59000 162.018
64.60000 163.733
64.61000 166.684
64.62000 169.633
64.63000 172.435
64.64000 175.141
64.65000 177.718
64.66000 177.120
64.67000 175.155
64.68000 173.313
64.69000 174.050
64.70000 175.396
64.71000 176.206
64.72000 173.374
64.73000 169.859
64.74000 167.150
64.75000 167.911
64.76000 169.071
64.77000 169.942
64.78000 170.952
64.79000 171.749
64.80000 173.638
64.81000 177.617
64.82000 181.648
64.83000 183.204
64.84000 181.635
64.85000 180.057
64.86000 178.690
64.87000 177.495
64.88000 176.344
64.89000 177.004
64.90000 178.626
64.91000 180.391
64.92000 184.549
64.93000 189.559
64.94000 194.151
64.95000 193.999
64.96000 192.868
64.97000 191.666
64.98000 190.080
64.99000 188.438
65.00000 187.965
65.01000 191.616
65.02000 195.627
65.03000 198.478
65.04000 195.074
65.05000 192.282
65.06000 192.243
65.07000 196.544
65.08000 200.898
65.09000 202.795
65.10000 202.189
65.11000 201.586
65.12000 201.960
65.13000 202.960
65.14000 203.814
65.15000 200.945
65.16000 196.445
65.17000 192.275
65.18000 192.090
65.19000 193.073
65.20000 193.951
65.21000 197.084
65.22000 200.186
65.23000 204.441
65.24000 213.762
65.25000 223.678
65.26000 230.053
65.27000 226.135
65.28000 221.561
65.29000 218.511
65.30000 222.911
65.31000 226.313
65.32000 226.241
65.33000 221.693
65.34000 217.136
65.35000 216.175
65.36000 218.167
65.37000 220.130
65.38000 224.166
65.39000 229.172
65.40000 233.901
65.41000 233.837
65.42000 232.036
65.43000 230.642
65.44000 232.952
65.45000 236.154
65.46000 238.923
65.47000 240.989
65.48000 242.652
65.49000 244.851
65.50000 248.975
65.51000 253.271
65.52000 254.625
65.53000 248.908
65.54000 242.880
65.55000 239.146
65.56000 251.152
65.57000 259.936
65.58000 268.266
65.59000 276.122
65.60000 283.972
65.61000 291.277
65.62000 298.216
65.63000 304.980
65.64000 314.560
65.65000 324.904
65.66000 336.115
65.67000 358.086
65.68000 383.274
65.69000 408.362
65.70000 432.734
65.71000 456.967
65.72000 477.175
65.73000 534.381
65.74000 585.511
65.75000 640.282
65.76000 705.840
65.77000 772.108
65.78000 828.102
65.79000 863.680
65.80000 898.699
65.81000 918.631
65.82000 944.964
65.83000 963.334
65.84000 979.205
65.85000 992.982
65.86000 1007.003
65.87000 1032.758
65.88000 1064.973
65.89000 1095.923
65.90000 1086.879
65.91000 1064.592
65.92000 1041.631
65.93000 1012.362
65.94000 981.544
65.95000 948.165
65.96000 900.290
65.97000 850.141
65.98000 810.014
65.99000 729.766
66.00000 661.884
66.01000 600.510
66.02000 555.072
66.03000 510.360
66.04000 467.413
66.05000 427.355
66.06000 387.338
66.07000 366.702
66.08000 337.285
66.09000 317.570
66.10000 309.571
66.11000 309.571
66.12000 309.427
66.13000 305.235
66.14000 299.202
66.15000 293.510
66.16000 293.611
66.17000 295.321
66.18000 296.761
66.19000 296.233
66.20000 295.312
66.21000 294.562
66.22000 294.598
66.23000 294.730
66.24000 294.831
66.25000 307.358
66.26000 317.896
66.27000 326.136
66.28000 329.723
66.29000 333.175
66.30000 341.941
66.31000 357.835
66.32000 373.754
66.33000 385.587
66.34000 393.906
66.35000 402.210
66.36000 409.706
66.37000 416.750
66.38000 423.641
66.39000 427.687
66.40000 430.664
66.41000 433.412
66.42000 431.750
66.43000 429.271
66.44000 427.431
66.45000 429.287
66.46000 431.737
66.47000 434.445
66.48000 438.119
66.49000 441.885
66.50000 444.609
66.51000 417.782
66.52000 396.119
66.53000 383.407
66.54000 385.641
66.55000 388.107
66.56000 382.761
66.57000 368.919
66.58000 355.137
66.59000 344.521
66.60000 336.199
66.61000 327.900
66.62000 320.240
66.63000 312.877
66.64000 306.101
66.65000 307.088
66.66000 310.485
66.67000 313.541
66.68000 316.260
66.69000 318.582
66.70000 320.206
66.71000 318.576
66.72000 316.533
66.73000 316.001
66.74000 320.119
66.75000 324.563
66.76000 327.585
66.77000 329.317
66.78000 330.581
66.79000 332.365
66.80000 334.863
66.81000 337.359
66.82000 335.093
66.83000 328.665
66.84000 322.312
66.85000 319.716
66.86000 319.278
66.87000 318.990
66.88000 321.582
66.89000 325.278
66.90000 328.636
66.91000 328.660
66.92000 327.833
66.93000 327.112
66.94000 331.790
66.95000 336.552
66.96000 339.912
66.97000 337.929
66.98000 335.425
66.99000 335.204
67.00000 340.783
67.01000 346.648
67.02000 350.365
67.03000 361.717
67.04000 370.044
67.05000 368.482
67.06000 355.933
67.07000 343.442
67.08000 340.181
67.09000 343.477
67.10000 346.702
67.11000 345.049
67.12000 341.252
67.13000 338.128
67.14000 344.157
67.15000 353.082
67.16000 360.975
67.17000 360.991
67.18000 359.368
67.19000 357.999
67.20000 363.536
67.21000 368.910
67.22000 372.224
67.23000 369.080
67.24000 365.469
67.25000 363.869
67.26000 366.496
67.27000 369.257
67.28000 370.871
67.29000 367.662
67.30000 365.383
67.31000 364.308
67.32000 364.307
67.33000 364.417
67.34000 371.011
67.35000 381.383
67.36000 391.394
67.37000 389.391
67.38000 383.088
67.39000 377.801
67.40000 382.806
67.41000 390.490
67.42000 397.345
67.43000 399.188
67.44000 400.192
67.45000 401.005
67.46000 400.971
67.47000 400.873
67.48000 404.942
67.49000 419.798
67.50000 435.208
67.51000 442.160
67.52000 434.442
67.53000 426.463
67.54000 422.219
67.55000 430.885
67.56000 436.763
67.57000 437.824
67.58000 435.397
67.59000 433.095
67.60000 434.821
67.61000 438.486
67.62000 441.964
67.63000 444.351
67.64000 446.228
67.65000 447.830
67.66000 447.275
67.67000 446.263
67.68000 445.185
67.69000 443.787
67.70000 442.346
67.71000 441.231
67.72000 443.024
67.73000 444.621
67.74000 447.120
67.75000 451.550
67.76000 456.045
67.77000 457.669
67.78000 455.206
67.79000 452.712
67.80000 456.186
67.81000 465.091
67.82000 473.983
67.83000 482.103
67.84000 489.764
67.85000 497.247
67.86000 501.036
67.87000 503.355
67.88000 505.512
67.89000 507.608
67.90000 509.485
67.91000 511.254
67.92000 512.356
67.93000 513.343
67.94000 514.272
67.95000 514.970
67.96000 515.644
67.97000 516.140
67.98000 517.686
67.99000 518.926
68.00000 519.643
68.01000 519.437
68.02000 519.213
68.03000 517.911
68.04000 515.357
68.05000 512.811
68.06000 515.481
68.07000 521.956
68.08000 528.361
68.09000 532.385
68.10000 535.241
68.11000 538.302
68.12000 544.321
68.13000 551.312
68.14000 557.652
68.15000 568.114
68.16000 578.132
68.17000 585.710
68.18000 581.178
68.19000 574.997
68.20000 571.742
68.21000 578.009
68.22000 585.011
68.23000 589.864
68.24000 593.690
68.25000 596.543
68.26000 598.408
68.27000 598.836
68.28000 599.253
68.29000 599.938
68.30000 600.873
68.31000 601.800
68.32000 612.329
68.33000 628.347
68.34000 643.957
68.35000 650.782
68.36000 654.047
68.37000 657.300
68.38000 660.434
68.39000 663.535
68.40000 666.268
68.41000 655.820
68.42000 644.826
68.43000 640.415
68.44000 662.605
68.45000 687.607
68.46000 706.612
68.47000 709.500
68.48000 711.500
68.49000 712.795
68.50000 732.675
68.51000 747.498
68.52000 762.044
68.53000 776.264
68.54000 790.469
68.55000 801.785
68.56000 810.924
68.57000 819.896
68.58000 848.991
68.59000 886.752
68.60000 923.726
68.61000 948.907
68.62000 970.138
68.63000 995.059
68.64000 1050.245
68.65000 1112.128
68.66000 1164.875
68.67000 1217.436
68.68000 1261.628
68.69000 1302.461
68.70000 1332.147
68.71000 1360.948
68.72000 1397.271
68.73000 1450.318
68.74000 1503.976
68.75000 1536.128
68.76000 1615.011
68.77000 1671.334
68.78000 1726.137
68.79000 1779.493
68.80000 1832.789
68.81000 1881.718
68.82000 1927.950
68.83000 1972.768
68.84000 2051.956
68.85000 2140.395
68.86000 2232.451
68.87000 2364.309
68.88000 2507.148
68.89000 2681.277
68.90000 3057.382
68.91000 3469.639
68.92000 3807.870
68.93000 5129.577
68.94000 6301.812
68.95000 7873.832
68.96000 10540.600
68.97000 13269.896
68.98000 16526.191
68.99000 20750.199
69.00000 24995.109
69.01000 27319.473
69.02000 33831.645
69.03000 38312.051
69.04000 41973.711
69.05000 45005.516
69.06000 48004.629
69.07000 49771.422
69.08000 50911.246
69.09000 51998.672
69.10000 52470.387
69.11000 52713.184
69.12000 52976.770
69.13000 53415.184
69.14000 53893.066
69.15000 54392.477
69.16000 55003.309
69.17000 55630.031
69.18000 56122.238
69.19000 55910.410
69.20000 55694.789
69.21000 54896.215
69.22000 52777.480
69.23000 50608.199
69.24000 48007.504
69.25000 44755.160
69.26000 41496.289
69.27000 38605.707
69.28000 36073.258
69.29000 33549.641
69.30000 31719.980
69.31000 30327.051
69.32000 28957.938
69.33000 28145.498
69.34000 27567.205
69.35000 27026.205
69.36000 26313.492
69.37000 25622.148
69.38000 24853.422
69.39000 23573.758
69.40000 22200.662
69.41000 20685.707
69.42000 18574.307
69.43000 16396.516
69.44000 14769.354
69.45000 12015.729
69.46000 9817.128
69.47000 7899.796
69.48000 6508.797
69.49000 5129.862
69.50000 4102.817
69.51000 3509.546
69.52000 2918.611
69.53000 2501.888
69.54000 2223.350
69.55000 1947.389
69.56000 1774.017
69.57000 1653.830
69.58000 1536.079
69.59000 1457.291
69.60000 1392.052
69.61000 1332.433
69.62000 1286.194
69.63000 1247.859
69.64000 1208.153
69.65000 1161.198
69.66000 1113.186
69.67000 1070.173
69.68000 1044.394
69.69000 1020.068
69.70000 1002.898
69.71000 984.021
69.72000 969.643
69.73000 948.360
69.74000 916.443
69.75000 884.407
69.76000 865.747
69.77000 860.374
69.78000 855.040
69.79000 839.160
69.80000 816.875
69.81000 795.127
69.82000 786.449
69.83000 783.372
69.84000 779.976
69.85000 772.859
69.86000 764.675
69.87000 757.399
69.88000 743.656
69.89000 730.682
69.90000 717.558
69.91000 703.790
69.92000 689.950
69.93000 677.807
69.94000 670.494
69.95000 663.476
69.96000 658.835
69.97000 665.751
69.98000 671.062
69.99000 666.546
70.00000 649.667
