20.00000 557.815
20.01000 553.243
20.02000 548.018
20.03000 544.880
20.04000 549.804
20.05000 555.529
20.06000 559.710
20.07000 565.493
20.08000 570.013
20.09000 573.043
20.10000 573.501
20.11000 573.914
20.12000 571.944
20.13000 567.287
20.14000 562.646
20.15000 560.487
20.16000 560.120
20.17000 559.920
20.18000 565.030
20.19000 572.681
20.20000 579.475
20.21000 574.353
20.22000 565.409
20.23000 557.325
20.24000 558.402
20.25000 561.052
20.26000 564.054
20.27000 568.754
20.28000 573.678
20.29000 577.805
20.30000 579.398
20.31000 580.803
20.32000 581.769
20.33000 555.890
20.34000 535.814
20.35000 531.370
20.36000 549.062
20.37000 566.907
20.38000 572.081
20.39000 565.779
20.40000 559.541
20.41000 559.802
20.42000 563.814
20.43000 567.536
20.44000 565.282
20.45000 560.664
20.46000 556.852
20.47000 561.369
20.48000 568.082
20.49000 573.975
20.50000 573.899
20.51000 572.959
20.52000 570.393
20.53000 561.416
20.54000 551.785
20.55000 545.222
20.56000 546.710
20.57000 548.622
20.58000 549.848
20.59000 563.202
20.60000 573.103
20.61000 578.628
20.62000 579.115
20.63000 579.580
20.64000 577.186
20.65000 572.692
20.66000 568.287
20.67000 565.776
20.68000 564.247
20.69000 562.529
20.70000 558.097
20.71000 552.777
20.72000 548.018
20.73000 547.716
20.74000 548.374
20.75000 548.933
20.76000 559.653
20.77000 569.794
20.78000 575.383
20.79000 566.229
20.80000 555.949
20.81000 549.470
20.82000 551.239
20.83000 553.293
20.84000 554.510
20.85000 555.800
20.86000 556.713
20.87000 557.526
20.88000 558.247
20.89000 559.023
20.90000 563.404
20.91000 569.956
20.92000 576.295
20.93000 572.273
20.94000 564.527
20.95000 557.402
20.96000 556.883
20.97000 558.141
20.98000 559.147
20.99000 558.576
21.00000 557.731
21.01000 557.041
21.02000 550.331
21.03000 544.325
21.04000 540.846
21.05000 544.124
21.06000 547.769
21.07000 550.012
21.08000 549.739
21.09000 549.416
21.10000 549.241
21.11000 561.792
21.12000 570.363
21.13000 571.947
21.14000 568.291
21.15000 564.537
21.16000 557.279
21.17000 548.281
21.18000 539.716
21.19000 537.027
21.20000 536.350
21.21000 536.359
21.22000 541.967
21.23000 548.807
21.24000 554.128
21.25000 551.799
21.26000 548.412
21.27000 545.768
21.28000 542.074
21.29000 539.063
21.30000 541.720
21.31000 556.912
21.32000 572.557
21.33000 575.862
21.34000 560.988
21.35000 545.954
21.36000 542.109
21.37000 548.839
21.38000 555.507
21.39000 557.713
21.40000 557.180
21.41000 556.629
21.42000 555.675
21.43000 554.556
21.44000 553.512
21.45000 557.988
21.46000 563.414
21.47000 568.358
21.48000 570.206
21.49000 571.502
21.50000 572.402
21.51000 571.674
21.52000 570.771
21.53000 570.101
21.54000 564.989
21.55000 560.821
21.56000 558.883
21.57000 561.017
21.58000 563.237
21.59000 564.554
21.60000 564.784
21.61000 565.012
21.62000 565.177
21.63000 565.292
21.64000 565.406
21.65000 565.502
21.66000 565.589
21.67000 565.918
21.68000 569.957
21.69000 575.257
21.70000 580.084
21.71000 591.196
21.72000 602.287
21.73000 613.569
21.74000 625.839
21.75000 638.250
21.76000 647.494
21.77000 646.088
21.78000 643.818
21.79000 642.228
21.80000 657.892
21.81000 670.231
21.82000 686.303
21.83000 707.980
21.84000 729.713
21.85000 756.142
21.86000 787.107
21.87000 817.826
21.88000 836.847
21.89000 848.341
21.90000 860.023
21.91000 876.021
21.92000 893.825
21.93000 910.505
21.94000 914.562
21.95000 915.088
21.96000 915.554
21.97000 928.610
21.98000 941.886
21.99000 953.184
22.00000 956.214
22.01000 958.331
22.02000 959.127
22.03000 956.259
22.04000 953.175
22.05000 951.154
22.06000 934.634
22.07000 922.247
22.08000 915.565
22.09000 915.874
22.10000 916.163
22.11000 906.087
22.12000 887.922
22.13000 870.058
22.14000 848.884
22.15000 826.747
22.16000 805.071
22.17000 790.694
22.18000 778.841
22.19000 765.868
22.20000 743.303
22.21000 718.543
22.22000 697.312
22.23000 685.099
22.24000 675.888
22.25000 665.716
22.26000 652.253
22.27000 638.514
22.28000 627.650
22.29000 623.380
22.30000 619.371
22.31000 616.935
22.32000 612.573
22.33000 609.444
22.34000 601.722
22.35000 589.467
22.36000 577.266
22.37000 569.618
22.38000 564.875
22.39000 560.266
22.40000 560.473
22.41000 562.620
22.42000 564.366
22.43000 561.490
22.44000 557.295
22.45000 554.042
22.46000 557.110
22.47000 561.352
22.48000 564.856
22.49000 554.678
22.50000 545.012
22.51000 538.718
22.52000 541.959
22.53000 545.778
22.54000 548.410
22.55000 548.793
22.56000 549.121
22.57000 549.304
22.58000 544.129
22.59000 540.542
22.60000 538.122
22.61000 536.629
22.62000 535.135
22.63000 533.588
22.64000 532.014
22.65000 530.508
22.66000 532.431
22.67000 535.348
22.68000 537.682
22.69000 534.897
22.70000 530.916
22.71000 527.631
22.72000 528.080
22.73000 529.084
22.74000 529.879
22.75000 527.915
22.76000 526.146
22.77000 524.766
22.78000 524.299
22.79000 523.869
22.80000 521.104
22.81000 514.694
22.82000 508.240
22.83000 504.999
22.84000 515.876
22.85000 523.087
22.86000 525.650
22.87000 525.189
22.88000 524.735
22.89000 524.455
22.90000 524.250
22.91000 524.058
22.92000 520.688
22.93000 516.773
22.94000 514.950
22.95000 527.491
22.96000 542.755
22.97000 554.264
22.98000 549.438
22.99000 542.713
23.00000 537.643
23.01000 533.996
23.02000 531.210
23.03000 529.668
23.04000 530.531
23.05000 531.455
23.06000 529.762
23.07000 524.728
23.08000 519.690
23.09000 514.562
23.10000 509.382
23.11000 504.455
23.12000 510.617
23.13000 522.716
23.14000 534.220
23.15000 535.625
23.16000 533.403
23.17000 531.364
23.18000 520.142
23.19000 508.184
23.20000 499.491
23.21000 508.691
23.22000 520.606
23.23000 528.279
23.24000 520.838
23.25000 512.058
23.26000 505.798
23.27000 514.420
23.28000 521.481
23.29000 522.710
23.30000 514.654
23.31000 506.479
23.32000 501.415
23.33000 499.558
23.34000 497.713
23.35000 502.641
23.36000 511.933
23.37000 520.703
23.38000 515.781
23.39000 504.800
23.40000 494.351
23.41000 490.415
23.42000 488.409
23.43000 486.616
23.44000 494.265
23.45000 502.522
23.46000 508.323
23.47000 503.216
23.48000 496.809
23.49000 491.343
23.50000 488.642
23.51000 486.120
23.52000 484.433
23.53000 487.714
23.54000 490.245
23.55000 496.326
23.56000 507.033
23.57000 517.732
23.58000 515.706
23.59000 503.120
23.60000 490.708
23.61000 489.049
23.62000 493.140
23.63000 497.121
23.64000 499.173
23.65000 500.519
23.66000 502.082
23.67000 505.650
23.68000 509.706
23.69000 513.219
23.70000 506.977
23.71000 500.378
23.72000 494.956
23.73000 493.809
23.74000 493.051
23.75000 493.341
23.76000 496.177
23.77000 499.126
23.78000 500.960
23.79000 501.971
23.80000 502.690
23.81000 500.775
23.82000 496.082
23.83000 491.420
23.84000 490.221
23.85000 491.365
23.86000 492.480
23.87000 489.521
23.88000 484.939
23.89000 481.234
23.90000 488.610
23.91000 499.331
23.92000 508.085
23.93000 502.693
23.94000 494.503
23.95000 487.661
23.96000 498.930
23.97000 510.122
23.98000 516.330
23.99000 507.625
24.00000 497.922
24.01000 491.752
24.02000 492.670
24.03000 493.788
24.04000 494.428
24.05000 492.704
24.06000 491.495
24.07000 491.757
24.08000 493.266
24.09000 494.756
24.10000 495.317
24.11000 495.359
24.12000 495.401
24.13000 494.941
24.14000 494.335
24.15000 493.696
24.16000 492.745
24.17000 491.716
24.18000 491.988
24.19000 499.706
24.20000 508.606
24.21000 515.744
24.22000 503.690
24.23000 492.475
24.24000 484.099
24.25000 482.743
24.26000 481.714
24.27000 481.528
24.28000 482.739
24.29000 483.971
24.30000 484.610
24.31000 487.954
24.32000 490.168
24.33000 487.142
24.34000 480.501
24.35000 474.244
24.36000 478.999
24.37000 488.810
24.38000 498.076
24.39000 499.844
24.40000 499.349
24.41000 498.400
24.42000 494.109
24.43000 489.143
24.44000 485.550
24.45000 488.309
24.46000 491.863
24.47000 494.582
24.48000 488.837
24.49000 483.843
24.50000 480.645
24.51000 481.122
24.52000 481.707
24.53000 483.586
24.54000 487.219
24.55000 490.859
24.56000 486.728
24.57000 475.897
24.58000 465.334
24.59000 468.987
24.60000 480.694
24.61000 491.663
24.62000 488.693
24.63000 480.429
24.64000 472.791
24.65000 484.099
24.66000 498.549
24.67000 510.345
24.68000 506.620
24.69000 500.377
24.70000 494.702
24.71000 491.177
24.72000 487.858
24.73000 485.451
24.74000 480.067
24.75000 475.819
24.76000 476.944
24.77000 487.134
24.78000 497.469
24.79000 501.148
24.80000 497.507
24.81000 493.878
24.82000 488.752
24.83000 482.636
24.84000 476.744
24.85000 477.544
24.86000 481.477
24.87000 485.298
24.88000 487.629
24.89000 489.492
24.90000 491.171
24.91000 493.874
24.92000 496.429
24.93000 496.894
24.94000 487.497
24.95000 476.834
24.96000 469.280
24.97000 471.383
24.98000 474.175
24.99000 476.081
25.00000 474.949
25.01000 474.032
25.02000 473.099
25.03000 472.144
25.04000 471.192
25.05000 473.344
25.06000 478.238
25.07000 483.078
25.08000 483.132
25.09000 480.485
25.10000 478.023
25.11000 479.179
25.12000 481.736
25.13000 483.825
25.14000 481.234
25.15000 477.438
25.16000 474.118
25.17000 473.375
25.18000 473.105
25.19000 472.143
25.20000 468.512
25.21000 464.617
25.22000 464.388
25.23000 473.568
25.24000 483.222
25.25000 489.363
25.26000 487.360
25.27000 485.803
25.28000 482.858
25.29000 478.353
25.30000 473.851
25.31000 469.884
25.32000 466.303
25.33000 462.797
25.34000 461.654
25.35000 461.638
25.36000 461.972
25.37000 467.138
25.38000 473.849
25.39000 479.445
25.40000 476.427
25.41000 471.596
25.42000 467.515
25.43000 465.253
25.44000 463.562
25.45000 462.409
25.46000 462.962
25.47000 463.641
25.48000 462.573
25.49000 457.799
25.50000 452.904
25.51000 450.030
25.52000 455.437
25.53000 459.292
25.54000 467.340
25.55000 479.170
25.56000 490.754
25.57000 487.447
25.58000 475.373
25.59000 463.710
25.60000 461.957
25.61000 463.987
25.62000 465.809
25.63000 465.495
25.64000 464.620
25.65000 463.760
25.66000 462.993
25.67000 462.242
25.68000 461.632
25.69000 466.095
25.70000 470.156
25.71000 473.360
25.72000 474.325
25.73000 475.173
25.74000 474.532
25.75000 471.282
25.76000 467.983
25.77000 466.220
25.78000 465.692
25.79000 465.355
25.80000 468.785
25.81000 474.973
25.82000 480.880
25.83000 477.496
25.84000 469.601
25.85000 462.101
25.86000 460.032
25.87000 459.754
25.88000 459.334
25.89000 457.790
25.90000 456.005
25.91000 456.304
25.92000 466.844
25.93000 478.763
25.94000 488.016
25.95000 479.285
25.96000 471.255
25.97000 465.594
25.98000 465.058
25.99000 464.697
26.00000 465.059
26.01000 466.461
26.02000 467.871
26.03000 472.102
26.04000 478.927
26.05000 485.620
26.06000 483.661
26.07000 476.512
26.08000 469.530
26.09000 466.092
26.10000 464.078
26.11000 462.205
26.12000 463.680
26.13000 465.824
26.14000 466.885
26.15000 461.182
26.16000 454.305
26.17000 449.886
26.18000 455.300
26.19000 461.741
26.20000 466.491
26.21000 458.942
26.22000 452.579
26.23000 451.688
26.24000 460.565
26.25000 469.635
26.26000 471.748
26.27000 465.711
26.28000 459.680
26.29000 456.105
26.30000 454.376
26.31000 452.750
26.32000 454.689
26.33000 458.393
26.34000 461.473
26.35000 455.362
26.36000 446.202
26.37000 437.883
26.38000 440.095
26.39000 444.088
26.40000 446.698
26.41000 442.375
26.42000 437.097
26.43000 435.315
26.44000 445.030
26.45000 455.645
26.46000 463.026
26.47000 461.253
26.48000 459.670
26.49000 457.245
26.50000 453.587
26.51000 449.919
26.52000 449.571
26.53000 452.349
26.54000 455.102
26.55000 460.574
26.56000 467.572
26.57000 474.361
26.58000 476.569
26.59000 476.902
26.60000 476.635
26.61000 469.855
26.62000 461.294
26.63000 453.739
26.64000 458.777
26.65000 465.050
26.66000 468.544
26.67000 460.694
26.68000 451.629
26.69000 446.273
26.70000 450.982
26.71000 456.257
26.72000 459.685
26.73000 457.138
26.74000 455.180
26.75000 454.593
26.76000 455.647
26.77000 456.705
26.78000 457.924
26.79000 459.266
26.80000 460.584
26.81000 455.100
26.82000 446.494
26.83000 438.123
26.84000 433.344
26.85000 429.780
26.86000 427.849
26.87000 439.496
26.88000 454.178
26.89000 466.715
26.90000 467.171
26.91000 466.120
26.92000 462.729
26.93000 451.496
26.94000 439.631
26.95000 432.581
26.96000 436.337
26.97000 440.499
26.98000 443.003
26.99000 453.259
27.00000 460.606
27.01000 461.055
27.02000 454.869
27.03000 448.706
27.04000 444.231
27.05000 440.808
27.06000 437.488
27.07000 437.497
27.08000 438.822
27.09000 440.016
27.10000 439.748
27.11000 439.072
27.12000 439.004
27.13000 442.897
27.14000 447.508
27.15000 451.299
27.16000 452.414
27.17000 453.088
27.18000 451.300
27.19000 442.702
27.20000 433.708
27.21000 431.066
27.22000 440.202
27.23000 449.600
27.24000 454.772
27.25000 456.727
27.26000 458.063
27.27000 458.095
27.28000 457.112
27.29000 456.081
27.30000 453.192
27.31000 449.348
27.32000 445.678
27.33000 442.624
27.34000 439.983
27.35000 437.664
27.36000 438.093
27.37000 439.148
27.38000 439.532
27.39000 436.407
27.40000 432.776
27.41000 429.917
27.42000 433.145
27.43000 436.137
27.44000 440.169
27.45000 446.579
27.46000 453.083
27.47000 456.567
27.48000 455.445
27.49000 454.275
27.50000 451.856
27.51000 448.212
27.52000 444.581
27.53000 441.975
27.54000 440.022
27.55000 438.116
27.56000 437.338
27.57000 437.040
27.58000 436.760
27.59000 436.923
27.60000 437.186
27.61000 437.724
27.62000 440.098
27.63000 442.812
27.64000 444.534
27.65000 442.044
27.66000 439.080
27.67000 436.859
27.68000 440.132
27.69000 442.945
27.70000 445.148
27.71000 446.199
27.72000 447.223
27.73000 445.745
27.74000 441.151
27.75000 436.556
27.76000 435.435
27.77000 437.063
27.78000 438.741
27.79000 442.496
27.80000 447.337
27.81000 451.478
27.82000 444.222
27.83000 432.963
27.84000 422.660
27.85000 425.655
27.86000 431.069
27.87000 435.794
27.88000 436.832
27.89000 437.325
27.90000 436.592
27.91000 431.589
27.92000 426.221
27.93000 422.420
27.94000 438.810
27.95000 451.894
27.96000 458.550
27.97000 455.205
27.98000 451.744
27.99000 449.264
28.00000 447.771
28.01000 446.288
28.02000 443.864
28.03000 440.877
28.04000 437.986
28.05000 437.490
28.06000 438.030
28.07000 438.457
28.08000 437.540
28.09000 436.235
28.10000 435.073
28.11000 440.084
28.12000 445.450
28.13000 449.495
28.14000 447.817
28.15000 445.476
28.16000 442.175
28.17000 436.115
28.18000 429.883
28.19000 425.746
28.20000 436.935
28.21000 445.488
28.22000 444.959
28.23000 432.883
28.24000 420.798
28.25000 419.879
28.26000 428.004
28.27000 436.008
28.28000 432.897
28.29000 424.125
28.30000 416.043
28.31000 419.596
28.32000 427.312
28.33000 434.562
28.34000 437.641
28.35000 439.730
28.36000 441.532
28.37000 434.760
28.38000 427.917
28.39000 423.184
28.40000 425.946
28.41000 429.368
28.42000 431.022
28.43000 428.480
28.44000 425.760
28.45000 424.083
28.46000 428.411
28.47000 431.571
28.48000 432.011
28.49000 429.656
28.50000 427.300
28.51000 424.812
28.52000 422.237
28.53000 419.729
28.54000 418.558
28.55000 418.003
28.56000 417.778
28.57000 421.578
28.58000 426.565
28.59000 430.503
28.60000 427.100
28.61000 422.282
28.62000 418.273
28.63000 415.030
28.64000 412.420
28.65000 411.972
28.66000 417.849
28.67000 424.133
28.68000 428.003
28.69000 427.137
28.70000 426.146
28.71000 425.585
28.72000 433.040
28.73000 438.232
28.74000 436.694
28.75000 429.592
28.76000 422.538
28.77000 417.649
28.78000 413.937
28.79000 410.374
28.80000 413.081
28.81000 417.747
28.82000 421.418
28.83000 415.923
28.84000 408.208
28.85000 402.120
28.86000 405.096
28.87000 409.474
28.88000 412.967
28.89000 414.745
28.90000 416.054
28.91000 418.149
28.92000 422.145
28.93000 426.224
28.94000 427.759
28.95000 425.178
28.96000 422.542
28.97000 421.191
28.98000 417.842
28.99000 415.591
29.00000 413.463
29.01000 411.417
29.02000 409.672
29.03000 416.091
29.04000 426.178
29.05000 435.683
29.06000 442.926
29.07000 448.933
29.08000 453.159
29.09000 444.635
29.10000 433.599
29.11000 425.418
29.12000 430.116
29.13000 436.380
29.14000 441.145
29.15000 435.294
29.16000 430.135
29.17000 427.570
29.18000 430.193
29.19000 432.960
29.20000 430.830
29.21000 422.217
29.22000 413.582
29.23000 410.359
29.24000 411.700
29.25000 413.070
29.26000 415.889
29.27000 419.511
29.28000 423.004
29.29000 424.150
29.30000 424.424
29.31000 424.677
29.32000 421.219
29.33000 417.303
29.34000 414.117
29.35000 415.095
29.36000 416.732
29.37000 419.094
29.38000 424.135
29.39000 429.425
29.40000 433.236
29.41000 432.737
29.42000 432.202
29.43000 431.061
29.44000 428.922
29.45000 426.769
29.46000 422.181
29.47000 414.983
29.48000 407.820
29.49000 404.378
29.50000 403.502
29.51000 402.873
29.52000 409.279
29.53000 418.905
29.54000 427.552
29.55000 423.546
29.56000 415.659
29.57000 408.577
29.58000 414.118
29.59000 421.187
29.60000 426.649
29.61000 424.712
29.62000 421.853
29.63000 420.116
29.64000 421.788
29.65000 423.695
29.66000 424.987
29.67000 420.524
29.68000 417.072
29.69000 414.773
29.70000 414.029
29.71000 413.302
29.72000 418.868
29.73000 429.856
29.74000 440.710
29.75000 436.512
29.76000 424.135
29.77000 412.519
29.78000 415.183
29.79000 423.251
29.80000 430.010
29.81000 424.085
29.82000 414.964
29.83000 407.018
29.84000 416.416
29.85000 426.840
29.86000 435.512
29.87000 437.589
29.88000 439.035
29.89000 442.023
29.90000 448.880
29.91000 455.924
29.92000 460.366
29.93000 457.332
29.94000 455.049
29.95000 450.834
29.96000 444.502
29.97000 438.233
29.98000 440.519
29.99000 448.802
30.00000 456.899
30.01000 458.213
30.02000 456.442
30.03000 455.043
30.04000 458.614
30.05000 463.739
30.06000 467.494
30.07000 460.979
30.08000 452.356
30.09000 445.101
30.10000 445.213
30.11000 446.091
30.12000 446.809
30.13000 447.034
30.14000 447.223
30.15000 446.776
30.16000 445.009
30.17000 443.201
30.18000 442.151
30.19000 436.087
30.20000 431.814
30.21000 434.206
30.22000 442.461
30.23000 450.621
30.24000 453.461
30.25000 453.240
30.26000 453.027
30.27000 452.786
30.28000 452.549
30.29000 451.584
30.30000 443.377
30.31000 433.309
30.32000 424.583
30.33000 423.842
30.34000 424.421
30.35000 424.888
30.36000 428.306
30.37000 431.322
30.38000 433.672
30.39000 434.316
30.40000 434.876
30.41000 435.812
30.42000 437.392
30.43000 438.984
30.44000 439.824
30.45000 432.083
30.46000 426.880
30.47000 430.326
30.48000 439.956
30.49000 449.182
30.50000 445.783
30.51000 436.387
30.52000 427.482
30.53000 430.153
30.54000 436.009
30.55000 441.582
30.56000 444.978
30.57000 447.918
30.58000 450.332
30.59000 450.228
30.60000 449.794
30.61000 449.459
30.62000 449.610
30.63000 449.758
30.64000 450.685
30.65000 453.259
30.66000 455.887
30.67000 456.645
30.68000 454.777
30.69000 452.892
30.70000 449.758
30.71000 445.509
30.72000 441.356
30.73000 442.985
30.74000 448.006
30.75000 452.884
30.76000 454.886
30.77000 455.759
30.78000 456.569
30.79000 467.458
30.80000 479.651
30.81000 489.654
30.82000 486.340
30.83000 480.775
30.84000 479.153
30.85000 492.948
30.86000 508.303
30.87000 519.552
30.88000 521.419
30.89000 522.485
30.90000 527.261
30.91000 538.514
30.92000 549.884
30.93000 565.352
30.94000 585.499
30.95000 605.582
30.96000 620.765
30.97000 632.276
30.98000 644.124
30.99000 666.997
31.00000 695.207
31.01000 723.787
31.02000 757.616
31.03000 793.148
31.04000 825.316
31.05000 869.883
31.06000 911.478
31.07000 955.706
31.08000 1012.826
31.09000 1071.672
31.10000 1138.110
31.11000 1228.950
31.12000 1321.634
31.13000 1385.603
31.14000 1506.041
31.15000 1597.979
31.16000 1700.496
31.17000 1818.178
31.18000 1935.978
31.19000 2053.855
31.20000 2171.803
31.21000 2288.609
31.22000 2417.087
31.23000 2549.725
31.24000 2681.640
31.25000 2798.368
31.26000 2909.017
31.27000 3020.383
31.28000 3139.289
31.29000 3260.208
31.30000 3366.545
31.31000 3439.822
31.32000 3497.959
31.33000 3547.008
31.34000 3559.810
31.35000 3568.848
31.36000 3574.949
31.37000 3573.253
31.38000 3571.137
31.39000 3569.773
31.40000 3469.395
31.41000 3394.676
31.42000 3316.973
31.43000 3235.788
31.44000 3154.479
31.45000 3050.728
31.46000 2930.282
31.47000 2812.128
31.48000 2686.636
31.49000 2562.226
31.50000 2437.458
31.51000 2307.460
31.52000 2175.731
31.53000 2045.029
31.54000 1922.616
31.55000 1802.012
31.56000 1699.452
31.57000 1576.160
31.58000 1470.222
31.59000 1369.169
31.60000 1284.118
31.61000 1200.314
31.62000 1120.420
31.63000 1049.109
31.64000 978.103
31.65000 935.790
31.66000 899.185
31.67000 873.276
31.68000 839.024
31.69000 796.950
31.70000 755.038
31.71000 724.331
31.72000 700.451
31.73000 677.323
31.74000 659.484
31.75000 644.649
31.76000 629.714
31.77000 613.700
31.78000 597.393
31.79000 581.322
31.80000 566.759
31.81000 552.463
31.82000 540.765
31.83000 521.825
31.84000 505.676
31.85000 492.713
31.86000 488.370
31.87000 484.508
31.88000 480.093
31.89000 474.675
31.90000 469.236
31.91000 466.276
31.92000 466.220
31.93000 466.169
31.94000 462.554
31.95000 456.235
31.96000 450.015
31.97000 447.362
31.98000 446.501
31.99000 445.681
32.00000 444.632
32.01000 443.587
32.02000 441.497
32.03000 430.763
32.04000 418.103
32.05000 407.883
32.06000 410.107
32.07000 414.079
32.08000 417.189
32.09000 415.348
32.10000 413.559
32.11000 413.308
32.12000 416.493
32.13000 419.806
32.14000 420.187
32.15000 416.195
32.16000 412.162
32.17000 411.605
32.18000 414.378
32.19000 417.142
32.20000 419.215
32.21000 420.859
32.22000 422.093
32.23000 414.004
32.24000 402.041
32.25000 390.866
32.26000 386.626
32.27000 384.525
32.28000 382.871
32.29000 384.115
32.30000 385.881
32.31000 389.019
32.32000 397.848
32.33000 407.300
32.34000 414.337
32.35000 406.379
32.36000 399.511
32.37000 394.744
32.38000 393.858
32.39000 393.057
32.40000 394.764
32.41000 399.519
32.42000 404.270
32.43000 402.343
32.44000 395.283
32.45000 388.439
32.46000 389.863
32.47000 395.519
32.48000 401.050
32.49000 404.618
32.50000 407.511
32.51000 410.151
32.52000 397.756
32.53000 383.732
32.54000 372.962
32.55000 379.144
32.56000 387.764
32.57000 393.574
32.58000 389.823
32.59000 385.282
32.60000 382.089
32.61000 379.580
32.62000 377.698
32.63000 378.238
32.64000 382.457
32.65000 386.715
32.66000 389.207
32.67000 389.970
32.68000 390.728
32.69000 392.037
32.70000 393.669
32.71000 395.193
32.72000 394.160
32.73000 392.045
32.74000 390.744
32.75000 398.745
32.76000 409.378
32.77000 418.814
32.78000 422.639
32.79000 425.058
32.80000 430.844
32.81000 450.879
32.82000 472.515
32.83000 493.654
32.84000 513.402
32.85000 533.067
32.86000 546.013
32.87000 565.180
32.88000 579.405
32.89000 591.477
32.90000 600.878
32.91000 610.242
32.92000 610.863
32.93000 604.576
32.94000 598.389
32.95000 600.346
32.96000 606.357
32.97000 611.876
32.98000 609.439
32.99000 604.219
33.00000 599.503
33.01000 599.176
33.02000 599.866
33.03000 600.460
33.04000 576.899
33.05000 553.964
33.06000 531.319
33.07000 509.682
33.08000 488.130
33.09000 465.929
33.10000 442.219
33.11000 418.447
33.12000 403.933
33.13000 410.779
33.14000 415.849
33.15000 411.586
33.16000 397.985
33.17000 384.472
33.18000 378.664
33.19000 377.831
33.20000 377.022
33.21000 372.691
33.22000 367.126
33.23000 361.981
33.24000 361.770
33.25000 362.983
33.26000 363.031
33.27000 355.146
33.28000 345.769
33.29000 338.005
33.30000 347.642
33.31000 357.250
33.32000 364.303
33.33000 364.050
33.34000 363.345
33.35000 362.367
33.36000 360.865
33.37000 359.350
33.38000 358.503
33.39000 359.668
33.40000 360.479
33.41000 360.994
33.42000 361.272
33.43000 361.428
33.44000 356.369
33.45000 348.537
33.46000 341.036
33.47000 336.863
33.48000 334.078
33.49000 331.752
33.50000 333.521
33.51000 336.259
33.52000 338.631
33.53000 339.016
33.54000 339.102
33.55000 339.171
33.56000 341.069
33.57000 342.726
33.58000 343.355
33.59000 341.557
33.60000 339.655
33.61000 340.810
33.62000 346.795
33.63000 352.840
33.64000 355.897
33.65000 357.869
33.66000 359.141
33.67000 355.848
33.68000 349.549
33.69000 343.414
33.70000 341.499
33.71000 341.439
33.72000 341.382
33.73000 337.122
33.74000 332.103
33.75000 328.538
33.76000 335.105
33.77000 343.617
33.78000 352.582
33.79000 363.542
33.80000 374.738
33.81000 383.204
33.82000 356.352
33.83000 333.519
33.84000 321.249
33.85000 329.633
33.86000 338.557
33.87000 340.992
33.88000 335.038
33.89000 329.058
33.90000 330.551
33.91000 338.169
33.92000 345.596
33.93000 344.286
33.94000 338.243
33.95000 332.603
33.96000 333.965
33.97000 337.869
33.98000 341.457
33.99000 347.189
34.00000 352.769
34.01000 356.165
34.02000 347.436
34.03000 336.841
34.04000 328.953
34.05000 330.822
34.06000 333.570
34.07000 335.537
34.08000 341.210
34.09000 345.666
34.10000 347.909
34.11000 346.586
34.12000 345.216
34.13000 342.843
34.14000 339.424
34.15000 336.025
34.16000 329.334
34.17000 320.549
34.18000 312.063
34.19000 311.636
34.20000 314.816
34.21000 318.000
34.22000 321.242
34.23000 324.502
34.24000 327.419
34.25000 321.676
34.26000 315.182
34.27000 310.650
34.28000 314.931
34.29000 320.279
34.30000 324.590
34.31000 325.820
34.32000 326.847
34.33000 327.536
34.34000 330.551
34.35000 332.837
34.36000 334.245
34.37000 334.495
34.38000 334.739
34.39000 335.031
34.40000 335.365
34.41000 335.694
34.42000 333.503
34.43000 330.016
34.44000 326.535
34.45000 323.138
34.46000 319.773
34.47000 317.622
34.48000 326.873
34.49000 338.929
34.50000 349.392
34.51000 340.877
34.52000 331.077
34.53000 322.694
34.54000 319.514
34.55000 316.816
34.56000 315.180
34.57000 316.149
34.58000 317.238
34.59000 317.918
34.60000 327.531
34.61000 334.561
34.62000 336.950
34.63000 334.383
34.64000 331.793
34.65000 326.664
34.66000 319.797
34.67000 313.094
34.68000 313.416
34.69000 316.788
34.70000 320.046
34.71000 321.824
34.72000 323.150
34.73000 323.971
34.74000 321.105
34.75000 317.499
34.76000 314.480
34.77000 316.402
34.78000 318.510
34.79000 321.545
34.80000 327.382
34.81000 333.412
34.82000 335.471
34.83000 329.473
34.84000 323.241
34.85000 319.658
34.86000 321.230
34.87000 322.351
34.88000 325.114
34.89000 329.284
34.90000 333.332
34.91000 331.042
34.92000 325.186
34.93000 319.550
34.94000 313.032
34.95000 306.604
34.96000 301.406
34.97000 308.069
34.98000 317.710
34.99000 325.321
35.00000 321.172
35.01000 315.129
35.02000 310.270
35.03000 316.141
35.04000 321.731
35.05000 326.098
35.06000 327.409
35.07000 328.575
35.08000 329.814
35.09000 331.177
35.10000 332.541
35.11000 333.253
35.12000 322.905
35.13000 315.926
35.14000 311.876
35.15000 309.871
35.16000 308.056
35.17000 311.865
35.18000 318.285
35.19000 324.356
35.20000 323.673
35.21000 321.112
35.22000 318.513
35.23000 315.626
35.24000 312.680
35.25000 309.790
35.26000 307.166
35.27000 304.576
35.28000 302.588
35.29000 308.282
35.30000 313.210
35.31000 315.744
35.32000 313.323
35.33000 310.750
35.34000 309.559
35.35000 310.263
35.36000 310.978
35.37000 315.210
35.38000 322.511
35.39000 329.675
35.40000 329.263
35.41000 324.506
35.42000 319.967
35.43000 319.632
35.44000 320.911
35.45000 322.096
35.46000 320.218
35.47000 317.825
35.48000 314.803
35.49000 308.047
35.50000 300.678
35.51000 295.433
35.52000 298.307
35.53000 301.976
35.54000 304.647
35.55000 302.593
35.56000 300.831
35.57000 302.725
35.58000 310.855
35.59000 319.091
35.60000 323.759
35.61000 324.453
35.62000 325.141
35.63000 324.200
35.64000 322.120
35.65000 320.137
35.66000 321.178
35.67000 323.651
35.68000 325.545
35.69000 319.541
35.70000 311.030
35.71000 303.349
35.72000 306.289
35.73000 310.819
35.74000 314.091
35.75000 311.350
35.76000 307.827
35.77000 304.374
35.78000 301.140
35.79000 297.922
35.80000 295.718
35.81000 305.607
35.82000 313.304
35.83000 318.734
35.84000 320.992
35.85000 323.226
35.86000 323.156
35.87000 321.025
35.88000 318.917
35.89000 319.704
35.90000 322.128
35.91000 324.106
35.92000 317.144
35.93000 306.683
35.94000 297.300
35.95000 298.888
35.96000 303.340
35.97000 307.240
35.98000 303.592
35.99000 299.372
36.00000 296.866
36.01000 301.038
36.02000 305.882
36.03000 310.482
36.04000 314.452
36.05000 318.390
36.06000 320.906
36.07000 314.542
36.08000 309.793
36.09000 306.970
36.10000 306.339
36.11000 305.705
36.12000 304.333
36.13000 302.425
36.14000 300.555
36.15000 301.837
36.16000 304.531
36.17000 307.073
36.18000 307.453
36.19000 307.135
36.20000 307.404
36.21000 312.276
36.22000 318.129
36.23000 323.085
36.24000 315.982
36.25000 308.687
36.26000 303.971
36.27000 307.517
36.28000 311.684
36.29000 312.577
36.30000 306.440
36.31000 300.067
36.32000 296.307
36.33000 301.111
36.34000 304.548
36.35000 306.126
36.36000 306.005
36.37000 305.914
36.38000 307.662
36.39000 310.506
36.40000 313.256
36.41000 310.797
36.42000 306.515
36.43000 302.448
36.44000 300.616
36.45000 299.379
36.46000 297.935
36.47000 295.212
36.48000 292.269
36.49000 289.872
36.50000 293.612
36.51000 297.184
36.52000 298.764
36.53000 295.074
36.54000 291.102
36.55000 288.870
36.56000 289.725
36.57000 290.639
36.58000 291.130
36.59000 297.049
36.60000 301.095
36.61000 304.593
36.62000 307.684
36.63000 310.534
36.64000 305.158
36.65000 295.739
36.66000 286.783
36.67000 289.978
36.68000 296.635
36.69000 302.439
36.70000 301.397
36.71000 298.867
36.72000 296.814
36.73000 297.139
36.74000 297.790
36.75000 298.297
36.76000 301.097
36.77000 303.468
36.78000 305.204
36.79000 305.549
36.80000 305.845
36.81000 307.001
36.82000 309.411
36.83000 311.831
36.84000 313.760
36.85000 315.230
36.86000 316.637
36.87000 313.808
36.88000 308.405
36.89000 303.323
36.90000 305.193
36.91000 309.889
36.92000 314.265
36.93000 310.501
36.94000 305.097
36.95000 300.462
36.96000 300.696
36.97000 301.786
36.98000 302.267
36.99000 300.284
37.00000 298.040
37.01000 296.379
37.02000 302.336
37.03000 307.285
37.04000 309.432
37.05000 306.516
37.06000 303.496
37.07000 300.281
37.08000 296.834
37.09000 293.397
37.10000 297.974
37.11000 308.541
37.12000 318.865
37.13000 320.487
37.14000 317.752
37.15000 314.937
37.16000 310.931
37.17000 306.526
37.18000 302.519
37.19000 299.633
37.20000 297.300
37.21000 294.738
37.22000 291.005
37.23000 287.109
37.24000 285.293
37.25000 290.399
37.26000 296.057
37.27000 300.007
37.28000 302.350
37.29000 304.075
37.30000 304.424
37.31000 302.727
37.32000 301.010
37.33000 298.564
37.34000 295.420
37.35000 292.303
37.36000 292.460
37.37000 294.605
37.38000 296.746
37.39000 298.805
37.40000 300.832
37.41000 302.398
37.42000 298.882
37.43000 293.959
37.44000 289.607
37.45000 286.792
37.46000 284.598
37.47000 283.965
37.48000 289.783
37.49000 296.302
37.50000 303.412
37.51000 312.142
37.52000 320.964
37.53000 326.725
37.54000 310.013
37.55000 297.385
37.56000 291.007
37.57000 292.198
37.58000 293.419
37.59000 297.815
37.60000 304.660
37.61000 311.388
37.62000 305.367
37.63000 293.262
37.64000 281.980
37.65000 283.479
37.66000 289.353
37.67000 294.588
37.68000 294.434
37.69000 293.061
37.70000 291.885
37.71000 292.836
37.72000 293.894
37.73000 294.049
37.74000 291.138
37.75000 287.976
37.76000 286.258
37.77000 287.822
37.78000 289.513
37.79000 290.535
37.80000 299.800
37.81000 306.463
37.82000 310.017
37.83000 310.542
37.84000 311.011
37.85000 307.009
37.86000 300.185
37.87000 293.559
37.88000 295.189
37.89000 300.041
37.90000 304.311
37.91000 301.966
37.92000 297.755
37.93000 294.120
37.94000 294.299
37.95000 295.178
37.96000 295.903
37.97000 295.339
37.98000 294.756
37.99000 294.280
38.00000 294.102
38.01000 293.942
38.02000 295.084
38.03000 298.670
38.04000 302.313
38.05000 304.330
38.06000 303.868
38.07000 303.544
38.08000 303.257
38.09000 302.999
38.10000 302.896
38.11000 308.989
38.12000 318.303
38.13000 327.207
38.14000 331.372
38.15000 333.709
38.16000 335.079
38.17000 328.079
38.18000 319.144
38.19000 312.061
38.20000 314.788
38.21000 318.951
38.22000 322.238
38.23000 327.768
38.24000 332.358
38.25000 338.164
38.26000 346.785
38.27000 355.518
38.28000 362.296
38.29000 366.053
38.30000 369.776
38.31000 373.680
38.32000 377.766
38.33000 381.929
38.34000 392.751
38.35000 407.857
38.36000 422.747
38.37000 432.318
38.38000 439.603
38.39000 446.435
38.40000 464.931
38.41000 484.828
38.42000 504.436
38.43000 522.077
38.44000 539.350
38.45000 558.670
38.46000 586.792
38.47000 615.922
38.48000 637.817
38.49000 674.469
38.50000 703.836
38.51000 736.779
38.52000 776.559
38.53000 816.506
38.54000 850.187
38.55000 875.959
38.56000 901.665
38.57000 930.616
38.58000 962.043
38.59000 993.264
38.60000 1015.727
38.61000 1033.551
38.62000 1050.413
38.63000 1051.281
38.64000 1046.468
38.65000 1042.057
38.66000 1063.600
38.67000 1088.231
38.68000 1105.667
38.69000 1084.147
38.70000 1056.791
38.71000 1034.292
38.72000 1028.910
38.73000 1025.020
38.74000 1022.256
38.75000 997.438
38.76000 977.843
38.77000 952.735
38.78000 918.948
38.79000 885.055
38.80000 848.952
38.81000 810.599
38.82000 772.490
38.83000 732.258
38.84000 691.236
38.85000 650.762
38.86000 624.285
38.87000 603.935
38.88000 583.301
38.89000 559.245
38.90000 534.187
38.91000 511.835
38.92000 486.072
38.93000 463.087
38.94000 441.772
38.95000 427.785
38.96000 414.660
38.97000 400.959
38.98000 385.590
38.99000 370.114
39.00000 359.799
39.01000 355.682
39.02000 352.753
39.03000 347.561
39.04000 339.455
39.05000 331.344
39.06000 325.451
39.07000 321.377
39.08000 317.361
39.09000 316.609
39.10000 317.589
39.11000 318.459
39.12000 317.421
39.13000 315.694
39.14000 313.572
39.15000 307.863
39.16000 301.293
39.17000 295.613
39.18000 293.314
39.19000 291.801
39.20000 290.760
39.21000 291.411
39.22000 292.214
39.23000 292.158
39.24000 290.038
39.25000 287.827
39.26000 286.459
39.27000 291.261
39.28000 294.773
39.29000 292.607
39.30000 284.532
39.31000 276.519
39.32000 275.125
39.33000 278.157
39.34000 281.113
39.35000 281.970
39.36000 281.894
39.37000 281.724
39.38000 280.387
39.39000 278.702
39.40000 277.608
39.41000 280.714
39.42000 284.640
39.43000 287.913
39.44000 281.640
39.45000 275.487
39.46000 271.974
39.47000 276.279
39.48000 281.098
39.49000 285.133
39.50000 287.611
39.51000 290.047
39.52000 291.433
39.53000 286.550
39.54000 283.127
39.55000 278.968
39.56000 274.195
39.57000 269.476
39.58000 267.392
39.59000 266.757
39.60000 266.147
39.61000 270.526
39.62000 276.348
39.63000 281.268
39.64000 277.765
39.65000 272.197
39.66000 267.425
39.67000 267.147
39.68000 267.574
39.69000 267.915
39.70000 267.002
39.71000 266.169
39.72000 265.306
39.73000 264.368
39.74000 263.427
39.75000 262.160
39.76000 260.358
39.77000 258.548
39.78000 257.615
39.79000 264.057
39.80000 268.385
39.81000 271.360
39.82000 273.411
39.83000 275.233
39.84000 270.656
39.85000 263.171
39.86000 256.110
39.87000 255.183
39.88000 256.045
39.89000 257.016
39.90000 258.773
39.91000 260.686
39.92000 263.189
39.93000 268.383
39.94000 273.910
39.95000 278.127
39.96000 275.522
39.97000 273.103
39.98000 270.112
39.99000 265.960
40.00000 261.775
40.01000 260.636
40.02000 263.581
40.03000 266.545
40.04000 264.848
40.05000 259.182
40.06000 253.601
40.07000 252.369
40.08000 253.577
40.09000 254.838
40.10000 257.095
40.11000 259.727
40.12000 262.156
40.13000 261.072
40.14000 259.313
40.15000 257.887
40.16000 258.383
40.17000 259.188
40.18000 261.524
40.19000 269.578
40.20000 278.173
40.21000 284.388
40.22000 272.472
40.23000 262.669
40.24000 258.852
40.25000 265.020
40.26000 271.341
40.27000 274.748
40.28000 274.986
40.29000 275.223
40.30000 271.273
40.31000 264.487
40.32000 257.841
40.33000 255.280
40.34000 254.609
40.35000 253.945
40.36000 253.355
40.37000 252.789
40.38000 252.280
40.39000 253.322
40.40000 254.512
40.41000 254.545
40.42000 249.185
40.43000 243.143
40.44000 241.165
40.45000 251.676
40.46000 263.064
40.47000 270.805
40.48000 265.765
40.49000 261.714
40.50000 259.265
40.51000 259.007
40.52000 258.762
40.53000 257.576
40.54000 255.572
40.55000 253.590
40.56000 251.125
40.57000 248.451
40.58000 246.084
40.59000 249.607
40.60000 255.385
40.61000 260.358
40.62000 257.398
40.63000 252.415
40.64000 248.066
40.65000 250.831
40.66000 254.195
40.67000 257.163
40.68000 258.623
40.69000 259.937
40.70000 259.583
40.71000 254.997
40.72000 250.202
40.73000 247.165
40.74000 254.591
40.75000 260.103
40.76000 262.964
40.77000 262.884
40.78000 262.796
40.79000 261.947
40.80000 260.558
40.81000 259.198
40.82000 254.649
40.83000 248.841
40.84000 243.436
40.85000 243.516
40.86000 245.329
40.87000 247.262
40.88000 250.098
40.89000 253.121
40.90000 255.670
40.91000 259.831
40.92000 263.480
40.93000 264.498
40.94000 257.279
40.95000 249.462
40.96000 244.855
40.97000 246.985
40.98000 249.329
40.99000 250.698
41.00000 251.209
41.01000 251.566
41.02000 254.431
41.03000 259.531
41.04000 264.493
41.05000 261.419
41.06000 253.667
41.07000 246.185
41.08000 240.808
41.09000 236.517
41.10000 232.866
41.11000 235.687
41.12000 240.190
41.13000 245.089
41.14000 252.376
41.15000 260.062
41.16000 266.290
41.17000 259.461
41.18000 252.834
41.19000 248.791
41.20000 251.430
41.21000 254.411
41.22000 255.725
41.23000 254.151
41.24000 252.525
41.25000 251.661
41.26000 244.850
41.27000 240.233
41.28000 239.116
41.29000 240.531
41.30000 242.014
41.31000 245.675
41.32000 250.382
41.33000 254.848
41.34000 252.311
41.35000 247.889
41.36000 244.538
41.37000 249.543
41.38000 256.321
41.39000 261.306
41.40000 257.574
41.41000 252.685
41.42000 248.900
41.43000 250.865
41.44000 252.767
41.45000 254.338
41.46000 255.204
41.47000 256.046
41.48000 252.712
41.49000 243.434
41.50000 234.115
41.51000 228.873
41.52000 227.343
41.53000 225.924
41.54000 231.437
41.55000 241.065
41.56000 250.117
41.57000 247.259
41.58000 239.669
41.59000 232.615
41.60000 234.720
41.61000 238.811
41.62000 242.164
41.63000 240.971
41.64000 239.000
41.65000 238.390
41.66000 243.175
41.67000 248.513
41.68000 252.438
41.69000 244.416
41.70000 237.723
41.71000 235.124
41.72000 239.758
41.73000 244.529
41.74000 245.431
41.75000 241.855
41.76000 238.284
41.77000 236.718
41.78000 236.633
41.79000 236.665
41.80000 240.671
41.81000 246.622
41.82000 252.021
41.83000 249.417
41.84000 244.186
41.85000 239.442
41.86000 239.717
41.87000 240.918
41.88000 242.151
41.89000 243.542
41.90000 244.955
41.91000 244.621
41.92000 238.602
41.93000 232.145
41.94000 227.672
41.95000 232.847
41.96000 236.996
41.97000 240.473
41.98000 242.975
41.99000 245.468
42.00000 244.652
42.01000 240.760
42.02000 236.904
42.03000 233.939
42.04000 231.561
42.05000 229.219
42.06000 227.674
42.07000 226.451
42.08000 225.626
42.09000 229.065
42.10000 233.656
42.11000 237.702
42.12000 238.176
42.13000 238.046
42.14000 236.461
42.15000 229.002
42.16000 220.924
42.17000 217.575
42.18000 226.924
42.19000 236.972
42.20000 243.478
42.21000 238.324
42.22000 234.380
42.23000 233.157
42.24000 235.148
42.25000 237.134
42.26000 236.719
42.27000 234.497
42.28000 232.317
42.29000 230.575
42.30000 229.106
42.31000 227.766
42.32000 228.354
42.33000 229.587
42.34000 231.003
42.35000 233.920
42.36000 237.170
42.37000 239.939
42.38000 236.700
42.39000 233.272
42.40000 231.553
42.41000 235.499
42.42000 239.894
42.43000 242.915
42.44000 242.883
42.45000 242.740
42.46000 242.654
42.47000 234.238
42.48000 228.210
42.49000 227.823
42.50000 232.796
42.51000 237.728
42.52000 239.685
42.53000 239.808
42.54000 239.927
42.55000 235.108
42.56000 228.616
42.57000 222.914
42.58000 225.903
42.59000 231.288
42.60000 235.790
42.61000 234.596
42.62000 232.383
42.63000 230.569
42.64000 228.004
42.65000 225.833
42.66000 224.925
42.67000 227.469
42.68000 230.211
42.69000 231.495
42.70000 230.106
42.71000 228.660
42.72000 227.868
42.73000 225.830
42.74000 224.434
42.75000 224.626
42.76000 226.039
42.77000 227.439
42.78000 228.355
42.79000 229.026
42.80000 229.666
42.81000 229.909
42.82000 230.008
42.83000 230.008
42.84000 229.165
42.85000 228.132
42.86000 228.383
42.87000 235.270
42.88000 243.103
42.89000 249.253
42.90000 245.635
42.91000 242.102
42.92000 239.059
42.93000 237.128
42.94000 235.238
42.95000 233.763
42.96000 232.914
42.97000 232.071
42.98000 233.748
42.99000 237.869
43.00000 241.956
43.01000 243.359
43.02000 243.075
43.03000 242.628
43.04000 238.378
43.05000 232.531
43.06000 227.061
43.07000 227.592
43.08000 229.607
43.09000 230.708
43.10000 225.779
43.11000 219.749
43.12000 216.992
43.13000 227.982
43.14000 240.500
43.15000 249.851
43.16000 243.544
43.17000 237.907
43.18000 232.332
43.19000 226.872
43.20000 221.414
43.21000 224.642
43.22000 238.564
43.23000 252.487
43.24000 252.603
43.25000 241.948
43.26000 231.546
43.27000 231.223
43.28000 236.120
43.29000 240.543
43.30000 237.392
43.31000 231.611
43.32000 226.328
43.33000 224.517
43.34000 223.618
43.35000 223.486
43.36000 227.408
43.37000 231.921
43.38000 234.566
43.39000 230.781
43.40000 226.454
43.41000 223.401
43.42000 226.899
43.43000 229.752
43.44000 230.716
43.45000 228.776
43.46000 226.804
43.47000 225.490
43.48000 224.829
43.49000 224.173
43.50000 222.643
43.51000 220.586
43.52000 218.774
43.53000 222.942
43.54000 229.669
43.55000 235.865
43.56000 235.884
43.57000 234.134
43.58000 232.577
43.59000 233.157
43.60000 234.006
43.61000 233.745
43.62000 228.729
43.63000 223.170
43.64000 220.902
43.65000 227.980
43.66000 235.629
43.67000 240.687
43.68000 233.190
43.69000 227.434
43.70000 221.665
43.71000 215.877
43.72000 210.116
43.73000 213.005
43.74000 222.818
43.75000 232.479
43.76000 232.692
43.77000 228.063
43.78000 223.778
43.79000 225.166
43.80000 228.564
43.81000 231.458
43.82000 229.899
43.83000 227.296
43.84000 225.055
43.85000 227.882
43.86000 230.917
43.87000 233.341
43.88000 233.619
43.89000 233.710
43.90000 232.762
43.91000 229.375
43.92000 225.886
43.93000 223.746
43.94000 229.661
43.95000 233.969
43.96000 234.625
43.97000 231.576
43.98000 228.539
43.99000 226.611
44.00000 225.408
44.01000 224.236
44.02000 225.786
44.03000 228.393
44.04000 230.857
44.05000 231.610
44.06000 231.862
44.07000 231.934
44.08000 230.759
44.09000 229.347
44.10000 228.174
44.11000 222.834
44.12000 218.016
44.13000 215.923
44.14000 221.712
44.15000 228.000
44.16000 232.613
44.17000 233.973
44.18000 235.250
44.19000 235.968
44.20000 230.764
44.21000 227.142
44.22000 226.528
44.23000 228.371
44.24000 230.121
44.25000 227.771
44.26000 223.215
44.27000 218.846
44.28000 221.588
44.29000 226.543
44.30000 231.495
44.31000 236.412
44.32000 241.321
44.33000 244.698
44.34000 239.641
44.35000 233.296
44.36000 228.247
44.37000 227.007
44.38000 226.282
44.39000 225.434
44.40000 224.293
44.41000 223.140
44.42000 226.152
44.43000 235.824
44.44000 245.584
44.45000 250.551
44.46000 241.866
44.47000 236.136
44.48000 240.183
44.49000 250.746
44.50000 260.911
44.51000 260.518
44.52000 255.434
44.53000 250.649
44.54000 254.281
44.55000 259.891
44.56000 265.254
44.57000 268.876
44.58000 272.159
44.59000 275.601
44.60000 279.753
44.61000 283.991
44.62000 287.205
44.63000 288.528
44.64000 289.469
44.65000 291.600
44.66000 296.085
44.67000 300.632
44.68000 308.678
44.69000 321.302
44.70000 333.932
44.71000 340.169
44.72000 341.073
44.73000 342.163
44.74000 352.033
44.75000 366.715
44.76000 381.489
44.77000 397.900
44.78000 414.912
44.79000 430.571
44.80000 437.018
44.81000 440.770
44.82000 445.860
44.83000 458.477
44.84000 472.269
44.85000 487.161
44.86000 506.067
44.87000 525.342
44.88000 539.183
44.89000 560.598
44.90000 577.240
44.91000 589.833
44.92000 595.822
44.93000 601.718
44.94000 609.256
44.95000 618.535
44.96000 627.764
44.97000 623.724
44.98000 610.826
44.99000 598.305
45.00000 596.212
45.01000 598.840
45.02000 600.957
45.03000 596.580
45.04000 590.232
45.05000 584.542
45.06000 577.795
45.07000 571.716
45.08000 564.695
45.09000 553.383
45.10000 541.544
45.11000 529.739
45.12000 518.037
45.13000 506.343
45.14000 498.455
45.15000 480.526
45.16000 466.972
45.17000 456.930
45.18000 451.575
45.19000 446.235
45.20000 435.246
45.21000 419.448
45.22000 403.849
45.23000 396.619
45.24000 394.130
45.25000 391.420
45.26000 384.640
45.27000 376.337
45.28000 367.939
45.29000 358.645
45.30000 349.128
45.31000 340.852
45.32000 339.286
45.33000 338.863
45.34000 336.043
45.35000 324.302
45.36000 311.720
45.37000 301.795
45.38000 298.465
45.39000 295.445
45.40000 293.549
45.41000 298.611
45.42000 302.347
45.43000 301.464
45.44000 295.581
45.45000 289.738
45.46000 289.017
45.47000 291.847
45.48000 294.611
45.49000 289.820
45.50000 281.894
45.51000 274.100
45.52000 268.031
45.53000 262.495
45.54000 257.571
45.55000 257.185
45.56000 257.719
45.57000 258.167
45.58000 258.490
45.59000 258.745
45.60000 259.140
45.61000 259.963
45.62000 260.816
45.63000 260.456
45.64000 257.605
45.65000 254.679
45.66000 252.988
45.67000 237.706
45.68000 226.955
45.69000 229.248
45.70000 242.879
45.71000 256.254
45.72000 255.861
45.73000 247.630
45.74000 239.700
45.75000 235.644
45.76000 233.221
45.77000 231.270
45.78000 233.941
45.79000 237.787
45.80000 240.777
45.81000 238.739
45.82000 235.881
45.83000 233.576
45.84000 232.033
45.85000 230.839
45.86000 230.654
45.87000 233.022
45.88000 235.514
45.89000 236.541
45.90000 235.087
45.91000 233.593
45.92000 232.809
45.93000 228.346
45.94000 225.303
45.95000 219.865
45.96000 212.732
45.97000 205.851
45.98000 206.589
45.99000 210.907
46.00000 214.995
46.01000 215.275
46.02000 214.427
46.03000 213.474
46.04000 211.714
46.05000 209.788
46.06000 208.458
46.07000 209.957
46.08000 211.821
46.09000 213.256
46.10000 212.206
46.11000 211.233
46.12000 212.247
46.13000 217.418
46.14000 222.719
46.15000 223.730
46.16000 218.779
46.17000 213.792
46.18000 213.145
46.19000 216.348
46.20000 219.453
46.21000 216.913
46.22000 211.097
46.23000 205.489
46.24000 203.972
46.25000 204.045
46.26000 204.113
46.27000 205.626
46.28000 207.324
46.29000 208.812
46.30000 209.043
46.31000 209.063
46.32000 208.169
46.33000 203.742
46.34000 198.963
46.35000 195.472
46.36000 200.883
46.37000 205.403
46.38000 209.198
46.39000 211.741
46.40000 214.262
46.41000 215.464
46.42000 215.176
46.43000 214.888
46.44000 210.690
46.45000 203.737
46.46000 196.989
46.47000 196.764
46.48000 199.664
46.49000 202.511
46.50000 204.618
46.51000 206.488
46.52000 208.178
46.53000 208.419
46.54000 208.363
46.55000 208.122
46.56000 206.990
46.57000 205.740
46.58000 204.508
46.59000 203.330
46.60000 202.155
46.61000 201.348
46.62000 196.133
46.63000 192.112
46.64000 192.122
46.65000 197.847
46.66000 203.611
46.67000 203.169
46.68000 197.100
46.69000 191.093
46.70000 193.336
46.71000 200.305
46.72000 207.037
46.73000 208.890
46.74000 208.812
46.75000 208.576
46.76000 206.705
46.77000 204.402
46.78000 202.380
46.79000 203.111
46.80000 204.142
46.81000 205.032
46.82000 205.366
46.83000 205.642
46.84000 203.839
46.85000 196.575
46.86000 189.022
46.87000 184.174
46.88000 189.818
46.89000 194.076
46.90000 197.671
46.91000 200.500
46.92000 203.312
46.93000 203.192
46.94000 200.917
46.95000 198.686
46.96000 195.292
46.97000 191.478
46.98000 187.958
46.99000 188.662
47.00000 190.750
47.01000 193.016
47.02000 196.710
47.03000 200.712
47.04000 204.108
47.05000 203.235
47.06000 202.018
47.07000 201.515
47.08000 203.326
47.09000 205.314
47.10000 205.258
47.11000 200.763
47.12000 196.115
47.13000 193.358
47.14000 195.921
47.15000 197.764
47.16000 198.469
47.17000 198.121
47.18000 197.789
47.19000 198.603
47.20000 200.108
47.21000 201.565
47.22000 198.761
47.23000 194.488
47.24000 190.581
47.25000 190.571
47.26000 191.610
47.27000 192.779
47.28000 194.765
47.29000 196.892
47.30000 198.629
47.31000 200.319
47.32000 201.697
47.33000 202.075
47.34000 199.778
47.35000 197.335
47.36000 194.249
47.37000 190.008
47.38000 185.745
47.39000 183.438
47.40000 187.096
47.41000 189.595
47.42000 189.519
47.43000 187.511
47.44000 185.537
47.45000 184.773
47.46000 184.612
47.47000 184.459
47.48000 187.401
47.49000 191.080
47.50000 194.271
47.51000 193.478
47.52000 191.808
47.53000 190.442
47.54000 190.606
47.55000 190.983
47.56000 191.277
47.57000 191.796
47.58000 192.224
47.59000 191.983
47.60000 190.262
47.61000 188.487
47.62000 186.150
47.63000 182.985
47.64000 179.812
47.65000 179.161
47.66000 180.898
47.67000 182.630
47.68000 184.022
47.69000 185.207
47.70000 186.448
47.71000 188.951
47.72000 191.971
47.73000 194.790
47.74000 192.585
47.75000 189.337
47.76000 186.156
47.77000 183.410
47.78000 180.740
47.79000 178.636
47.80000 178.852
47.81000 179.318
47.82000 179.664
47.83000 184.718
47.84000 188.853
47.85000 190.427
47.86000 187.320
47.87000 184.113
47.88000 181.471
47.89000 179.507
47.90000 177.550
47.91000 176.382
47.92000 175.822
47.93000 175.270
47.94000 175.016
47.95000 174.911
47.96000 174.863
47.97000 175.677
47.98000 176.782
47.99000 177.790
48.00000 182.183
48.01000 186.748
48.02000 190.586
48.03000 190.679
48.04000 190.241
48.05000 189.891
48.06000 189.840
48.07000 189.814
48.08000 189.796
48.09000 190.342
48.10000 190.772
48.11000 190.052
48.12000 187.604
48.13000 185.139
48.14000 182.607
48.15000 180.010
48.16000 177.434
48.17000 177.891
48.18000 180.207
48.19000 182.552
48.20000 185.555
48.21000 188.833
48.22000 191.707
48.23000 190.034
48.24000 187.088
48.25000 184.479
48.26000 187.653
48.27000 191.310
48.28000 193.331
48.29000 188.502
48.30000 182.915
48.31000 178.436
48.32000 177.035
48.33000 175.814
48.34000 175.014
48.35000 180.567
48.36000 184.755
48.37000 188.798
48.38000 192.661
48.39000 196.507
48.40000 196.008
48.41000 192.114
48.42000 188.284
48.43000 188.218
48.44000 190.034
48.45000 191.784
48.46000 192.492
48.47000 192.838
48.48000 193.139
48.49000 193.048
48.50000 192.866
48.51000 192.711
48.52000 190.526
48.53000 188.431
48.54000 186.388
48.55000 184.526
48.56000 182.679
48.57000 180.555
48.58000 177.798
48.59000 175.015
48.60000 173.323
48.61000 178.926
48.62000 182.982
48.63000 184.076
48.64000 182.243
48.65000 180.436
48.66000 180.721
48.67000 182.344
48.68000 183.920
48.69000 178.656
48.70000 170.880
48.71000 164.218
48.72000 170.445
48.73000 180.350
48.74000 188.763
48.75000 187.154
48.76000 183.682
48.77000 180.814
48.78000 183.211
48.79000 185.679
48.80000 187.354
48.81000 186.782
48.82000 186.074
48.83000 186.731
48.84000 189.979
48.85000 193.290
48.86000 195.132
48.87000 185.537
48.88000 178.885
48.89000 175.016
48.90000 173.366
48.91000 171.796
48.92000 173.565
48.93000 177.089
48.94000 180.461
48.95000 177.461
48.96000 172.571
48.97000 168.630
48.98000 173.030
48.99000 179.381
49.00000 184.696
49.01000 184.452
49.02000 183.383
49.03000 182.536
49.04000 187.376
49.05000 191.660
49.06000 194.186
49.07000 192.600
49.08000 190.845
49.09000 187.312
49.10000 181.003
49.11000 174.661
49.12000 171.474
49.13000 177.483
49.14000 181.454
49.15000 181.580
49.16000 179.203
49.17000 176.934
49.18000 177.386
49.19000 179.022
49.20000 180.558
49.21000 181.685
49.22000 182.604
49.23000 183.588
49.24000 185.021
49.25000 186.538
49.26000 187.072
49.27000 183.322
49.28000 179.074
49.29000 175.871
49.30000 175.369
49.31000 175.110
49.32000 173.981
49.33000 171.173
49.34000 168.323
49.35000 167.685
49.36000 169.873
49.37000 172.068
49.38000 171.945
49.39000 169.943
49.40000 168.026
49.41000 169.835
49.42000 173.641
49.43000 177.429
49.44000 180.906
49.45000 184.272
49.46000 187.362
49.47000 186.484
49.48000 184.858
49.49000 182.812
49.50000 178.462
49.51000 173.762
49.52000 169.534
49.53000 166.987
49.54000 164.589
49.55000 162.879
49.56000 167.773
49.57000 171.721
49.58000 174.502
49.59000 175.422
49.60000 176.318
49.61000 176.126
49.62000 174.812
49.63000 173.505
49.64000 173.345
49.65000 173.938
49.66000 174.550
49.67000 175.664
49.68000 177.000
49.69000 178.302
49.70000 179.178
49.71000 179.929
49.72000 180.599
49.73000 180.214
49.74000 179.700
49.75000 179.347
49.76000 179.709
49.77000 180.156
49.78000 180.670
49.79000 181.378
49.80000 182.099
49.81000 182.581
49.82000 187.829
49.83000 191.816
49.84000 191.600
49.85000 185.906
49.86000 180.198
49.87000 179.242
49.88000 182.232
49.89000 185.182
49.90000 184.320
49.91000 181.458
49.92000 178.920
49.93000 182.082
49.94000 187.333
49.95000 191.607
49.96000 186.848
49.97000 179.891
49.98000 173.864
49.99000 178.952
50.00000 184.750
50.01000 189.261
50.02000 189.092
50.03000 188.496
50.04000 186.925
50.05000 182.987
50.06000 178.943
50.07000 176.427
50.08000 181.902
50.09000 185.926
50.10000 186.788
50.11000 184.315
50.12000 181.873
50.13000 182.952
50.14000 186.414
50.15000 189.792
50.16000 188.692
50.17000 185.710
50.18000 183.236
50.19000 187.180
50.20000 193.064
50.21000 197.548
50.22000 191.952
50.23000 184.362
50.24000 178.018
50.25000 183.678
50.26000 189.597
50.27000 193.444
50.28000 191.086
50.29000 188.312
50.30000 186.681
50.31000 187.345
50.32000 188.073
50.33000 188.490
50.34000 209.833
50.35000 224.787
50.36000 227.466
50.37000 219.736
50.38000 212.206
50.39000 214.665
50.40000 222.682
50.41000 230.392
50.42000 231.971
50.43000 231.308
50.44000 230.979
50.45000 233.836
50.46000 237.484
50.47000 241.694
50.48000 249.120
50.49000 257.057
50.50000 263.423
50.51000 262.942
50.52000 262.032
50.53000 261.574
50.54000 262.235
50.55000 262.949
50.56000 266.478
50.57000 274.670
50.58000 282.932
50.59000 287.218
50.60000 292.141
50.61000 295.389
50.62000 289.551
50.63000 277.439
50.64000 265.761
50.65000 266.555
50.66000 273.082
50.67000 279.247
50.68000 281.077
50.69000 281.531
50.70000 281.697
50.71000 279.745
50.72000 277.365
50.73000 274.212
50.74000 267.479
50.75000 260.297
50.76000 254.800
50.77000 254.867
50.78000 255.224
50.79000 254.782
50.80000 252.705
50.81000 250.579
50.82000 250.296
50.83000 252.515
50.84000 254.746
50.85000 251.824
50.86000 244.452
50.87000 237.147
50.88000 233.324
50.89000 231.476
50.90000 229.563
50.91000 226.408
50.92000 222.782
50.93000 219.429
50.94000 213.451
50.95000 207.488
50.96000 202.616
50.97000 204.137
50.98000 206.697
50.99000 208.410
51.00000 206.919
51.01000 205.120
51.02000 203.814
51.03000 203.443
51.04000 203.193
51.05000 199.503
51.06000 190.008
51.07000 180.419
51.08000 178.321
51.09000 184.471
51.10000 190.600
51.11000 190.972
51.12000 187.330
51.13000 183.708
51.14000 180.713
51.15000 178.012
51.16000 175.960
51.17000 182.611
51.18000 191.995
51.19000 200.450
51.20000 198.038
51.21000 193.954
51.22000 189.916
51.23000 186.089
51.24000 182.289
51.25000 179.467
51.26000 179.688
51.27000 180.127
51.28000 180.427
51.29000 179.653
51.30000 179.050
51.31000 176.992
51.32000 172.922
51.33000 168.840
51.34000 166.755
51.35000 166.435
51.36000 166.119
51.37000 165.486
51.38000 164.691
51.39000 164.355
51.40000 173.048
51.41000 185.238
51.42000 195.963
51.43000 192.008
51.44000 184.264
51.45000 177.492
51.46000 174.573
51.47000 172.621
51.48000 170.523
51.49000 167.867
51.50000 165.155
51.51000 163.176
51.52000 163.078
51.53000 163.076
51.54000 163.074
51.55000 165.418
51.56000 167.151
51.57000 167.849
51.58000 167.384
51.59000 166.913
51.60000 165.765
51.61000 164.130
51.62000 162.529
51.63000 164.933
51.64000 169.077
51.65000 172.657
51.66000 168.411
51.67000 161.661
51.68000 155.397
51.69000 152.895
51.70000 151.185
51.71000 149.740
51.72000 155.586
51.73000 161.276
51.74000 166.602
51.75000 170.770
51.76000 174.853
51.77000 176.018
51.78000 170.986
51.79000 165.751
51.80000 162.677
51.81000 161.539
51.82000 160.750
51.83000 163.402
51.84000 169.164
51.85000 174.879
51.86000 177.793
51.87000 179.058
51.88000 180.279
51.89000 179.184
51.90000 177.290
51.91000 175.059
51.92000 169.359
51.93000 162.746
51.94000 157.774
51.95000 162.832
51.96000 169.593
51.97000 175.086
51.98000 165.668
51.99000 156.748
52.00000 149.790
52.01000 147.971
52.02000 146.420
52.03000 148.478
52.04000 156.862
52.05000 165.363
52.06000 169.909
52.07000 167.029
52.08000 165.060
52.09000 163.246
52.10000 161.546
52.11000 159.935
52.12000 161.279
52.13000 164.060
52.14000 166.701
52.15000 165.240
52.16000 162.656
52.17000 160.512
52.18000 161.854
52.19000 163.944
52.20000 164.966
52.21000 160.731
52.22000 155.787
52.23000 151.949
52.24000 160.046
52.25000 167.208
52.26000 171.925
52.27000 171.353
52.28000 170.599
52.29000 169.107
52.30000 166.549
52.31000 163.984
52.32000 163.091
52.33000 163.741
52.34000 164.366
52.35000 163.403
52.36000 161.487
52.37000 159.499
52.38000 155.992
52.39000 151.873
52.40000 148.040
52.41000 153.864
52.42000 161.468
52.43000 167.891
52.44000 166.933
52.45000 164.693
52.46000 162.546
52.47000 160.770
52.48000 159.034
52.49000 157.753
52.50000 159.277
52.51000 160.575
52.52000 160.825
52.53000 159.198
52.54000 157.534
52.55000 159.719
52.56000 166.417
52.57000 173.102
52.58000 173.291
52.59000 168.657
52.60000 164.125
52.61000 163.151
52.62000 163.941
52.63000 164.623
52.64000 163.724
52.65000 162.300
52.66000 161.006
52.67000 162.332
52.68000 164.010
52.69000 164.661
52.70000 160.159
52.71000 154.945
52.72000 151.452
52.73000 153.619
52.74000 156.231
52.75000 158.047
52.76000 156.974
52.77000 156.087
52.78000 156.851
52.79000 160.042
52.80000 163.254
52.81000 164.057
52.82000 162.591
52.83000 161.138
52.84000 162.208
52.85000 164.772
52.86000 167.125
52.87000 164.815
52.88000 160.596
52.89000 156.766
52.90000 157.181
52.91000 158.757
52.92000 160.148
52.93000 161.071
52.94000 161.796
52.95000 162.198
52.96000 161.280
52.97000 160.221
52.98000 160.249
52.99000 163.229
53.00000 166.374
53.01000 168.420
53.02000 168.255
53.03000 168.101
53.04000 169.360
53.05000 172.311
53.06000 175.234
53.07000 170.943
53.08000 161.151
53.09000 151.533
53.10000 152.341
53.11000 158.204
53.12000 163.724
53.13000 164.022
53.14000 162.553
53.15000 161.902
53.16000 168.060
53.17000 175.742
53.18000 182.303
53.19000 181.927
53.20000 180.784
53.21000 178.695
53.22000 173.430
53.23000 167.908
53.24000 161.851
53.25000 154.593
53.26000 147.288
53.27000 142.891
53.28000 155.548
53.29000 164.669
53.30000 169.261
53.31000 169.494
53.32000 169.710
53.33000 168.669
53.34000 166.843
53.35000 165.071
53.36000 164.354
53.37000 164.091
53.38000 164.144
53.39000 167.729
53.40000 172.300
53.41000 175.778
53.42000 172.113
53.43000 167.154
53.44000 163.076
53.45000 162.279
53.46000 161.920
53.47000 161.675
53.48000 161.744
53.49000 161.831
53.50000 163.924
53.51000 169.740
53.52000 175.640
53.53000 178.888
53.54000 175.242
53.55000 172.719
53.56000 170.079
53.57000 167.349
53.58000 164.706
53.59000 165.460
53.60000 167.960
53.61000 170.349
53.62000 165.277
53.63000 158.173
53.64000 151.839
53.65000 152.070
53.66000 153.800
53.67000 156.000
53.68000 160.662
53.69000 165.681
53.70000 169.633
53.71000 166.869
53.72000 164.207
53.73000 162.518
53.74000 163.059
53.75000 163.688
53.76000 163.950
53.77000 163.654
53.78000 163.352
53.79000 162.942
53.80000 162.425
53.81000 161.935
53.82000 163.586
53.83000 166.599
53.84000 169.411
53.85000 167.403
53.86000 163.346
53.87000 159.546
53.88000 158.373
53.89000 157.984
53.90000 157.750
53.91000 158.547
53.92000 159.535
53.93000 159.414
53.94000 154.577
53.95000 149.207
53.96000 145.183
53.97000 153.426
53.98000 160.440
53.99000 164.227
54.00000 161.910
54.01000 159.449
54.02000 158.735
54.03000 160.200
54.04000 161.669
54.05000 161.893
54.06000 161.131
54.07000 160.435
54.08000 162.418
54.09000 165.806
54.10000 169.149
54.11000 171.764
54.12000 174.125
54.13000 176.285
54.14000 168.259
54.15000 159.009
54.16000 151.720
54.17000 154.915
54.18000 159.661
54.19000 163.204
54.20000 162.553
54.21000 161.543
54.22000 160.828
54.23000 161.257
54.24000 161.620
54.25000 163.142
54.26000 166.470
54.27000 169.818
54.28000 169.950
54.29000 166.846
54.30000 163.762
54.31000 161.144
54.32000 158.863
54.33000 156.674
54.34000 156.795
54.35000 157.916
54.36000 159.196
54.37000 162.364
54.38000 166.079
54.39000 169.387
54.40000 167.624
54.41000 165.259
54.42000 162.727
54.43000 159.469
54.44000 156.128
54.45000 154.208
54.46000 156.377
54.47000 158.801
54.48000 160.410
54.49000 162.934
54.50000 164.817
54.51000 165.142
54.52000 163.485
54.53000 161.817
54.54000 158.375
54.55000 153.496
54.56000 148.688
54.57000 150.385
54.58000 155.400
54.59000 160.304
54.60000 163.311
54.61000 165.638
54.62000 167.434
54.63000 164.460
54.64000 160.353
54.65000 156.809
54.66000 159.391
54.67000 162.368
54.68000 163.884
54.69000 160.206
54.70000 156.071
54.71000 154.379
54.72000 158.494
54.73000 162.857
54.74000 165.547
54.75000 162.654
54.76000 160.528
54.77000 158.538
54.78000 156.691
54.79000 154.869
54.80000 155.610
54.81000 158.046
54.82000 160.419
54.83000 161.736
54.84000 162.548
54.85000 163.407
54.86000 164.841
54.87000 166.446
54.88000 167.950
54.89000 168.750
54.90000 169.414
54.91000 169.967
54.92000 163.344
54.93000 157.155
54.94000 153.136
54.95000 155.468
54.96000 158.210
54.97000 162.958
54.98000 171.648
54.99000 180.443
55.00000 185.420
55.01000 175.343
55.02000 168.303
55.03000 167.177
55.04000 170.944
55.05000 174.664
55.06000 176.191
55.07000 176.526
55.08000 176.846
55.09000 176.343
55.10000 175.591
55.11000 175.174
55.12000 177.830
55.13000 181.231
55.14000 183.753
55.15000 181.365
55.16000 178.218
55.17000 175.706
55.18000 176.108
55.19000 176.645
55.20000 176.130
55.21000 173.065
55.22000 169.887
55.23000 169.439
55.24000 173.411
55.25000 177.444
55.26000 179.510
55.27000 184.641
55.28000 188.071
55.29000 189.375
55.30000 189.246
55.31000 189.101
55.32000 188.526
55.33000 187.757
55.34000 187.032
55.35000 191.665
55.36000 197.383
55.37000 203.092
55.38000 208.730
55.39000 214.354
55.40000 218.888
55.41000 218.501
55.42000 217.516
55.43000 216.765
55.44000 223.592
55.45000 229.362
55.46000 234.763
55.47000 239.427
55.48000 244.071
55.49000 248.100
55.50000 251.315
55.51000 254.523
55.52000 262.194
55.53000 273.605
55.54000 285.014
55.55000 296.331
55.56000 307.595
55.57000 319.094
55.58000 334.835
55.59000 352.153
55.60000 368.118
55.61000 386.722
55.62000 403.965
55.63000 421.540
55.64000 441.013
55.65000 460.786
55.66000 481.206
55.67000 504.014
55.68000 527.044
55.69000 543.641
55.70000 566.776
55.71000 584.734
55.72000 610.046
55.73000 647.495
55.74000 685.125
55.75000 713.171
55.76000 730.932
55.77000 748.602
55.78000 767.870
55.79000 788.002
55.80000 808.070
55.81000 826.328
55.82000 843.756
55.83000 860.428
55.84000 867.313
55.85000 871.195
55.86000 874.681
55.87000 892.091
55.88000 909.776
55.89000 924.816
55.90000 927.666
55.91000 928.996
55.92000 924.872
55.93000 904.167
55.94000 882.320
55.95000 867.523
55.96000 842.304
55.97000 823.280
55.98000 802.290
55.99000 778.643
56.00000 754.990
56.01000 737.834
56.02000 726.279
56.03000 714.864
56.04000 694.285
56.05000 669.172
56.06000 644.199
56.07000 621.839
56.08000 600.469
56.09000 579.385
56.10000 561.069
56.11000 543.451
56.12000 528.101
56.13000 504.504
56.14000 483.202
56.15000 462.467
56.16000 443.871
56.17000 425.479
56.18000 406.561
56.19000 386.322
56.20000 366.018
56.21000 353.210
56.22000 340.908
56.23000 332.006
56.24000 322.824
56.25000 313.335
56.26000 303.830
56.27000 292.109
56.28000 278.834
56.29000 265.855
56.30000 257.642
56.31000 251.900
56.32000 246.577
56.33000 246.839
56.34000 248.847
56.35000 249.294
56.36000 238.010
56.37000 224.316
56.38000 212.793
56.39000 212.731
56.40000 213.901
56.41000 212.397
56.42000 202.607
56.43000 192.228
56.44000 186.409
56.45000 190.062
56.46000 194.008
56.47000 196.302
56.48000 191.735
56.49000 188.499
56.50000 187.129
56.51000 187.402
56.52000 187.655
56.53000 186.841
56.54000 185.411
56.55000 184.032
56.56000 181.828
56.57000 179.456
56.58000 177.170
56.59000 175.736
56.60000 174.522
56.61000 173.184
56.62000 171.110
56.63000 168.914
56.64000 167.140
56.65000 162.103
56.66000 157.744
56.67000 156.003
56.68000 160.959
56.69000 166.250
56.70000 168.305
56.71000 164.811
56.72000 161.222
56.73000 159.326
56.74000 164.277
56.75000 167.612
56.76000 166.278
56.77000 161.601
56.78000 157.106
56.79000 158.284
56.80000 162.159
56.81000 165.832
56.82000 161.942
56.83000 156.137
56.84000 151.144
56.85000 152.403
56.86000 154.972
56.87000 156.806
56.88000 155.108
56.89000 152.947
56.90000 151.279
56.91000 155.886
56.92000 159.904
56.93000 161.839
56.94000 159.367
56.95000 156.752
56.96000 156.342
56.97000 159.033
56.98000 161.744
56.99000 161.994
57.00000 160.030
57.01000 158.062
57.02000 155.819
57.03000 153.415
57.04000 151.243
57.05000 153.752
57.06000 158.102
57.07000 162.139
57.08000 156.258
57.09000 148.613
57.10000 142.293
57.11000 144.045
57.12000 147.161
57.13000 149.427
57.14000 148.364
57.15000 146.963
57.16000 145.937
57.17000 143.553
57.18000 141.657
57.19000 140.478
57.20000 140.552
57.21000 140.649
57.22000 140.963
57.23000 141.526
57.24000 142.088
57.25000 145.233
57.26000 150.222
57.27000 155.008
57.28000 153.111
57.29000 147.976
57.30000 143.217
57.31000 143.777
57.32000 146.066
57.33000 148.139
57.34000 150.627
57.35000 152.898
57.36000 155.070
57.37000 156.764
57.38000 158.393
57.39000 159.045
57.40000 156.550
57.41000 153.817
57.42000 151.931
57.43000 150.064
57.44000 148.661
57.45000 148.039
57.46000 148.537
57.47000 149.043
57.48000 150.225
57.49000 152.027
57.50000 153.811
57.51000 154.229
57.52000 153.838
57.53000 153.435
57.54000 152.770
57.55000 152.001
57.56000 151.209
57.57000 150.178
57.58000 149.084
57.59000 148.121
57.60000 148.474
57.61000 148.973
57.62000 149.760
57.63000 151.699
57.64000 153.757
57.65000 154.727
57.66000 152.805
57.67000 150.728
57.68000 149.388
57.69000 143.593
57.70000 139.296
57.71000 137.812
57.72000 139.612
57.73000 141.404
57.74000 140.555
57.75000 137.740
57.76000 134.979
57.77000 138.816
57.78000 145.652
57.79000 151.979
57.80000 150.857
57.81000 147.269
57.82000 144.278
57.83000 146.112
57.84000 149.001
57.85000 151.458
57.86000 151.381
57.87000 151.025
57.88000 150.198
57.89000 147.830
57.90000 145.341
57.91000 143.684
57.92000 143.855
57.93000 144.091
57.94000 144.232
57.95000 140.665
57.96000 138.115
57.97000 137.222
57.98000 137.886
57.99000 138.583
58.00000 141.534
58.01000 145.861
58.02000 150.053
58.03000 147.777
58.04000 143.128
58.05000 138.634
58.06000 135.826
58.07000 133.476
58.08000 131.765
58.09000 134.122
58.10000 137.196
58.11000 139.712
58.12000 139.824
58.13000 139.706
58.14000 140.684
58.15000 144.628
58.16000 148.738
58.17000 150.476
58.18000 147.908
58.19000 145.250
58.20000 143.804
58.21000 145.913
58.22000 147.365
58.23000 148.735
58.24000 150.044
58.25000 151.166
58.26000 145.501
58.27000 136.423
58.28000 127.772
58.29000 130.324
58.30000 136.193
58.31000 141.430
58.32000 141.429
58.33000 140.260
58.34000 139.390
58.35000 140.047
58.36000 140.919
58.37000 141.602
58.38000 144.125
58.39000 146.259
58.40000 146.718
58.41000 143.425
58.42000 139.994
58.43000 138.227
58.44000 138.947
58.45000 139.691
58.46000 140.222
58.47000 140.551
58.48000 140.860
58.49000 139.730
58.50000 137.706
58.51000 135.823
58.52000 137.165
58.53000 139.848
58.54000 142.355
58.55000 142.628
58.56000 142.314
58.57000 142.204
58.58000 143.430
58.59000 144.897
58.60000 146.440
58.61000 148.305
58.62000 150.204
58.63000 151.619
58.64000 146.134
58.65000 141.554
58.66000 139.908
58.67000 143.687
58.68000 147.586
58.69000 146.030
58.70000 137.835
58.71000 129.642
58.72000 128.713
58.73000 133.389
58.74000 138.034
58.75000 141.535
58.76000 144.450
58.77000 147.007
58.78000 143.946
58.79000 138.954
58.80000 134.400
58.81000 135.523
58.82000 137.664
58.83000 139.274
58.84000 138.112
58.85000 136.551
58.86000 135.237
58.87000 134.762
58.88000 134.357
58.89000 134.072
58.90000 137.339
58.91000 139.919
58.92000 141.700
58.93000 142.263
58.94000 142.813
58.95000 142.135
58.96000 140.253
58.97000 138.385
58.98000 136.786
58.99000 135.380
59.00000 134.038
59.01000 134.234
59.02000 135.080
59.03000 135.879
59.04000 136.131
59.05000 136.228
59.06000 136.314
59.07000 140.337
59.08000 144.453
59.09000 147.562
59.10000 146.407
59.11000 144.773
59.12000 143.236
59.13000 141.972
59.14000 140.724
59.15000 139.902
59.16000 137.680
59.17000 136.019
59.18000 133.646
59.19000 130.387
59.20000 127.133
59.21000 125.972
59.22000 126.465
59.23000 126.951
59.24000 131.116
59.25000 137.009
59.26000 142.397
59.27000 139.589
59.28000 133.912
59.29000 129.002
59.30000 130.777
59.31000 134.104
59.32000 136.964
59.33000 134.493
59.34000 131.739
59.35000 130.705
59.36000 135.649
59.37000 141.101
59.38000 143.883
59.39000 140.456
59.40000 136.777
59.41000 134.529
59.42000 136.257
59.43000 137.526
59.44000 137.673
59.45000 136.695
59.46000 135.701
59.47000 133.224
59.48000 129.787
59.49000 126.445
59.50000 129.368
59.51000 134.722
59.52000 139.611
59.53000 139.030
59.54000 136.868
59.55000 134.915
59.56000 134.382
59.57000 134.116
59.58000 133.895
59.59000 134.042
59.60000 134.198
59.61000 133.478
59.62000 130.254
59.63000 126.873
59.64000 126.068
59.65000 130.208
59.66000 134.471
59.67000 136.857
59.68000 141.672
59.69000 145.010
59.70000 146.955
59.71000 147.776
59.72000 148.493
59.73000 144.761
59.74000 138.662
59.75000 132.820
59.76000 130.694
59.77000 129.948
59.78000 129.026
59.79000 126.541
59.80000 123.685
59.81000 122.207
59.82000 128.232
59.83000 135.387
59.84000 141.067
59.85000 138.429
59.86000 135.718
59.87000 133.756
59.88000 133.565
59.89000 133.449
59.90000 134.070
59.91000 135.854
59.92000 137.653
59.93000 138.563
59.94000 136.291
59.95000 134.779
59.96000 134.135
59.97000 134.063
59.98000 134.034
59.99000 135.085
60.00000 136.610
60.01000 138.045
60.02000 135.324
60.03000 131.723
60.04000 128.668
60.05000 129.421
60.06000 130.907
60.07000 131.571
60.08000 128.613
60.09000 125.227
60.10000 122.665
60.11000 131.322
60.12000 138.677
60.13000 142.419
60.14000 139.093
60.15000 135.581
60.16000 132.969
60.17000 131.522
60.18000 130.082
60.19000 129.514
60.20000 129.666
60.21000 129.801
60.22000 129.180
60.23000 128.151
60.24000 127.287
60.25000 129.307
60.26000 132.376
60.27000 135.197
60.28000 135.759
60.29000 135.774
60.30000 136.241
60.31000 139.227
60.32000 142.601
60.33000 145.067
60.34000 144.252
60.35000 143.142
60.36000 142.347
60.37000 136.218
60.38000 131.357
60.39000 127.991
60.40000 127.035
60.41000 126.112
60.42000 126.455
60.43000 128.124
60.44000 129.784
60.45000 129.165
60.46000 127.044
60.47000 125.010
60.48000 125.349
60.49000 126.751
60.50000 128.057
60.51000 128.161
60.52000 127.904
60.53000 127.674
60.54000 126.959
60.55000 126.253
60.56000 125.850
60.57000 126.812
60.58000 127.939
60.59000 129.150
60.60000 130.609
60.61000 132.085
60.62000 133.077
60.63000 134.346
60.64000 135.295
60.65000 137.153
60.66000 140.213
60.67000 143.271
60.68000 142.117
60.69000 137.420
60.70000 132.785
60.71000 129.471
60.72000 126.957
60.73000 124.666
60.74000 126.390
60.75000 129.602
60.76000 132.612
60.77000 133.719
60.78000 134.356
60.79000 134.909
60.80000 134.411
60.81000 133.844
60.82000 133.502
60.83000 133.984
60.84000 134.542
60.85000 135.670
60.86000 138.195
60.87000 140.785
60.88000 142.405
60.89000 143.379
60.90000 144.075
60.91000 143.477
60.92000 141.495
60.93000 139.519
60.94000 138.207
60.95000 137.351
60.96000 136.516
60.97000 136.432
60.98000 136.680
60.99000 136.805
61.00000 135.346
61.01000 133.402
61.02000 132.271
61.03000 137.075
61.04000 143.069
61.05000 148.090
61.06000 142.557
61.07000 136.866
61.08000 133.260
61.09000 135.970
61.10000 139.113
61.11000 140.036
61.12000 136.450
61.13000 132.733
61.14000 130.595
61.15000 138.832
61.16000 144.627
61.17000 145.547
61.18000 142.280
61.19000 139.024
61.20000 136.350
61.21000 134.002
61.22000 131.743
61.23000 132.105
61.24000 133.374
61.25000 134.713
61.26000 136.729
61.27000 138.916
61.28000 140.827
61.29000 141.136
61.30000 141.187
61.31000 141.227
61.32000 141.243
61.33000 141.253
61.34000 141.084
61.35000 140.462
61.36000 139.819
61.37000 138.963
61.38000 137.752
61.39000 136.535
61.40000 135.900
61.41000 139.954
61.42000 142.694
61.43000 144.910
61.44000 146.758
61.45000 148.703
61.46000 153.474
61.47000 159.560
61.48000 165.316
61.49000 170.248
61.50000 174.545
61.51000 179.055
61.52000 185.166
61.53000 191.604
61.54000 200.165
61.55000 218.669
61.56000 238.440
61.57000 253.618
61.58000 274.489
61.59000 291.304
61.60000 305.050
61.61000 312.444
61.62000 319.642
61.63000 324.342
61.64000 325.607
61.65000 326.851
61.66000 329.564
61.67000 333.559
61.68000 337.575
61.69000 342.763
61.70000 348.624
61.71000 354.170
61.72000 353.630
61.73000 350.750
61.74000 348.084
61.75000 333.160
61.76000 316.922
61.77000 301.120
61.78000 287.906
61.79000 275.118
61.80000 260.810
61.81000 240.681
61.82000 219.982
61.83000 204.913
61.84000 192.295
61.85000 182.675
61.86000 174.625
61.87000 169.254
61.88000 163.929
61.89000 161.028
61.90000 160.830
61.91000 160.635
61.92000 160.131
61.93000 159.413
61.94000 158.652
61.95000 156.551
61.96000 153.815
61.97000 151.039
61.98000 147.713
61.99000 144.213
62.00000 141.053
62.01000 140.213
62.02000 139.901
62.03000 139.431
62.04000 138.206
62.05000 136.884
62.06000 137.234
62.07000 142.848
62.08000 148.845
62.09000 152.955
62.10000 143.613
62.11000 136.292
62.12000 134.826
62.13000 141.567
62.14000 148.363
62.15000 152.762
62.16000 155.012
62.17000 157.239
62.18000 155.980
62.19000 152.757
62.20000 149.560
62.21000 146.903
62.22000 144.457
62.23000 142.225
62.24000 142.163
62.25000 142.668
62.26000 143.111
62.27000 140.106
62.28000 137.029
62.29000 135.578
62.30000 140.471
62.31000 146.004
62.32000 150.436
62.33000 152.010
62.34000 153.436
62.35000 154.348
62.36000 148.473
62.37000 144.107
62.38000 144.531
62.39000 150.410
62.40000 156.241
62.41000 153.103
62.42000 143.444
62.43000 133.981
62.44000 134.651
62.45000 139.999
62.46000 144.909
62.47000 143.646
62.48000 140.385
62.49000 137.446
62.50000 137.040
62.51000 137.173
62.52000 137.286
62.53000 137.581
62.54000 137.849
62.55000 138.854
62.56000 142.222
62.57000 145.767
62.58000 147.576
62.59000 145.654
62.60000 143.606
62.61000 142.397
62.62000 142.294
62.63000 142.228
62.64000 142.403
62.65000 142.798
62.66000 143.171
62.67000 142.105
62.68000 140.181
62.69000 138.321
62.70000 141.228
62.71000 145.767
62.72000 149.826
62.73000 148.870
62.74000 146.578
62.75000 144.748
62.76000 145.778
62.77000 147.302
62.78000 148.542
62.79000 148.676
62.80000 148.691
62.81000 149.622
62.82000 152.977
62.83000 156.461
62.84000 155.256
62.85000 145.729
62.86000 136.042
62.87000 130.829
62.88000 138.857
62.89000 144.336
62.90000 146.141
62.91000 145.220
62.92000 144.237
62.93000 141.113
62.94000 136.936
62.95000 132.964
62.96000 134.756
62.97000 138.171
62.98000 141.501
62.99000 144.144
63.00000 146.638
63.01000 148.888
63.02000 149.927
63.03000 150.800
63.04000 151.480
63.05000 151.103
63.06000 150.737
63.07000 150.116
63.08000 148.935
63.09000 147.735
63.10000 145.407
63.11000 141.437
63.12000 137.453
63.13000 136.629
63.14000 138.756
63.15000 140.879
63.16000 142.680
63.17000 144.287
63.18000 145.870
63.19000 146.952
63.20000 147.829
63.21000 148.647
63.22000 145.853
63.23000 142.437
63.24000 139.777
63.25000 141.911
63.26000 144.888
63.27000 147.303
63.28000 147.432
63.29000 147.320
63.30000 147.236
63.31000 148.872
63.32000 150.216
63.33000 150.176
63.34000 147.636
63.35000 145.045
63.36000 143.962
63.37000 144.673
63.38000 145.385
63.39000 146.505
63.40000 147.924
63.41000 149.327
63.42000 150.109
63.43000 150.580
63.44000 151.210
63.45000 154.242
63.46000 158.081
63.47000 161.573
63.48000 158.756
63.49000 155.025
63.50000 151.751
63.51000 150.809
63.52000 150.194
63.53000 150.245
63.54000 152.515
63.55000 154.962
63.56000 156.671
63.57000 147.402
63.58000 140.095
63.59000 136.516
63.60000 138.477
63.61000 140.491
63.62000 144.016
63.63000 148.983
63.64000 153.909
63.65000 158.663
63.66000 163.226
63.67000 167.368
63.68000 161.988
63.69000 152.662
63.70000 144.340
63.71000 147.131
63.72000 152.998
63.73000 158.187
63.74000 155.943
63.75000 152.850
63.76000 150.259
63.77000 149.749
63.78000 149.466
63.79000 149.629
63.80000 151.019
63.81000 152.479
63.82000 153.433
63.83000 153.338
63.84000 153.252
63.85000 153.279
63.86000 153.445
63.87000 153.604
63.88000 151.844
63.89000 148.603
63.90000 145.418
63.91000 148.473
63.92000 154.506
63.93000 160.307
63.94000 162.488
63.95000 163.429
63.96000 164.031
63.97000 161.769
63.98000 158.858
63.99000 156.366
64.00000 154.443
64.01000 152.889
64.02000 151.277
64.03000 149.466
64.04000 147.639
64.05000 148.456
64.06000 155.281
64.07000 162.339
64.08000 166.609
64.09000 161.946
64.10000 158.557
64.11000 157.398
64.12000 158.414
64.13000 159.415
64.14000 159.146
64.15000 158.076
64.16000 157.037
64.17000 160.210
64.18000 164.911
64.19000 169.100
64.20000 167.469
64.21000 164.196
64.22000 161.513
64.23000 162.750
64.24000 164.706
64.25000 166.318
64.26000 162.756
64.27000 159.349
64.28000 157.144
64.29000 158.309
64.30000 159.675
64.31000 159.828
64.32000 157.703
64.33000 155.527
64.34000 154.321
64.35000 162.054
64.36000 167.393
64.37000 168.275
64.38000 165.644
64.39000 163.109
64.40000 164.443
64.41000 167.791
64.42000 170.991
64.43000 169.138
64.44000 165.773
64.45000 162.879
64.46000 164.062
64.47000 166.188
64.48000 168.206
64.49000 169.655
64.50000 171.020
64.51000 172.098
64.52000 174.496
64.53000 176.511
64.54000 178.278
64.55000 179.470
64.56000 180.639
64.57000 180.209
64.58000 177.307
64.59000 174.376
64.60000 171.339
64.61000 168.195
64.62000 165.088
64.63000 165.140
64.64000 167.226
64.65000 169.324
64.66000 171.704
64.67000 174.205
64.68000 176.550
64.69000 176.588
64.70000 176.017
64.71000 175.917
64.72000 179.014
64.73000 182.711
64.74000 185.059
64.75000 181.602
64.76000 177.480
64.77000 174.381
64.78000 180.964
64.79000 186.579
64.80000 190.405
64.81000 190.809
64.82000 191.130
64.83000 192.123
64.84000 193.965
64.85000 195.807
64.86000 196.880
64.87000 197.330
64.88000 197.812
64.89000 199.625
64.90000 202.143
64.91000 204.661
64.92000 207.180
64.93000 209.700
64.94000 212.010
64.95000 213.443
64.96000 214.534
64.97000 215.629
64.98000 216.739
64.99000 217.851
65.00000 219.182
65.01000 221.283
65.02000 223.451
65.03000 224.992
65.04000 226.479
65.05000 227.609
65.06000 228.409
65.07000 228.687
65.08000 228.958
65.09000 229.605
65.10000 230.635
65.11000 231.658
65.12000 238.440
65.13000 248.851
65.14000 259.032
65.15000 263.336
65.16000 265.065
65.17000 266.937
65.18000 270.547
65.19000 274.667
65.20000 278.342
65.21000 285.381
65.22000 292.067
65.23000 297.997
65.24000 300.606
65.25000 302.825
65.26000 306.282
65.27000 313.342
65.28000 320.632
65.29000 325.492
65.30000 323.336
65.31000 321.606
65.32000 323.383
65.33000 329.680
65.34000 335.995
65.35000 342.438
65.36000 348.986
65.37000 355.441
65.38000 362.343
65.39000 369.281
65.40000 375.938
65.41000 377.721
65.42000 377.740
65.43000 378.275
65.44000 383.519
65.45000 389.896
65.46000 395.409
65.47000 408.680
65.48000 420.968
65.49000 430.746
65.50000 431.504
65.51000 431.452
65.52000 432.271
65.53000 435.182
65.54000 438.185
65.55000 440.046
65.56000 451.790
65.57000 460.330
65.58000 463.164
65.59000 460.053
65.60000 457.025
65.61000 462.693
65.62000 474.184
65.63000 485.385
65.64000 507.738
65.65000 533.826
65.66000 559.409
65.67000 578.720
65.68000 596.155
65.69000 620.444
65.70000 693.428
65.71000 775.937
65.72000 844.746
65.73000 920.174
65.74000 983.374
65.75000 1053.729
65.76000 1145.276
65.77000 1238.219
65.78000 1317.658
65.79000 1370.267
65.80000 1422.141
65.81000 1451.667
65.82000 1493.466
65.83000 1522.622
65.84000 1542.924
65.85000 1555.806
65.86000 1568.634
65.87000 1578.854
65.88000 1587.637
65.89000 1596.075
65.90000 1572.750
65.91000 1539.938
65.92000 1504.851
65.93000 1448.469
65.94000 1386.861
65.95000 1320.642
65.96000 1228.346
65.97000 1131.956
65.98000 1054.829
65.99000 940.360
66.00000 845.015
66.01000 760.850
66.02000 704.057
66.03000 648.513
66.04000 594.185
66.05000 541.852
66.06000 489.547
66.07000 462.573
66.08000 427.867
66.09000 404.577
66.10000 391.586
66.11000 385.627
66.12000 379.530
66.13000 369.564
66.14000 357.837
66.15000 346.773
66.16000 344.707
66.17000 345.327
66.18000 346.010
66.19000 347.150
66.20000 348.381
66.21000 351.247
66.22000 361.586
66.23000 372.849
66.24000 381.446
66.25000 387.444
66.26000 392.031
66.27000 400.867
66.28000 418.304
66.29000 435.989
66.30000 449.828
66.31000 458.507
66.32000 467.152
66.33000 479.638
66.34000 495.378
66.35000 511.087
66.36000 525.211
66.37000 538.446
66.38000 550.981
66.39000 550.548
66.40000 545.237
66.41000 540.335
66.42000 543.274
66.43000 547.670
66.44000 551.197
66.45000 549.705
66.46000 547.408
66.47000 543.541
66.48000 533.812
66.49000 523.526
66.50000 516.088
66.51000 510.273
66.52000 505.870
66.53000 495.067
66.54000 473.577
66.55000 451.922
66.56000 432.439
66.57000 415.321
66.58000 398.282
66.59000 388.487
66.60000 383.788
66.61000 379.130
66.62000 375.648
66.63000 372.712
66.64000 369.754
66.65000 366.498
66.66000 363.150
66.67000 360.138
66.68000 353.213
66.69000 346.446
66.70000 340.067
66.71000 335.499
66.72000 331.160
66.73000 329.761
66.74000 337.400
66.75000 345.675
66.76000 351.303
66.77000 353.547
66.78000 355.145
66.79000 357.854
66.80000 362.082
66.81000 366.311
66.82000 362.783
66.83000 352.478
66.84000 342.292
66.85000 346.214
66.86000 357.915
66.87000 368.950
66.88000 367.203
66.89000 360.558
66.90000 354.663
66.91000 356.170
66.92000 359.566
66.93000 362.532
66.94000 368.352
66.95000 373.734
66.96000 378.668
66.97000 381.899
66.98000 384.963
66.99000 389.632
67.00000 398.379
67.01000 407.327
67.02000 412.998
67.03000 402.119
67.04000 394.027
67.05000 392.827
67.06000 399.285
67.07000 405.727
67.08000 409.069
67.09000 410.210
67.10000 411.326
67.11000 405.903
67.12000 397.736
67.13000 390.227
67.14000 391.681
67.15000 395.972
67.16000 400.016
67.17000 402.173
67.18000 403.939
67.19000 405.427
67.20000 407.840
67.21000 409.955
67.22000 411.184
67.23000 409.635
67.24000 407.884
67.25000 407.341
67.26000 409.337
67.27000 411.413
67.28000 412.627
67.29000 434.529
67.30000 450.031
67.31000 457.133
67.32000 456.741
67.33000 456.280
67.34000 451.784
67.35000 444.937
67.36000 438.327
67.37000 438.007
67.38000 440.018
67.39000 442.013
67.40000 443.846
67.41000 445.636
67.42000 447.439
67.43000 449.319
67.44000 451.213
67.45000 452.748
67.46000 451.090
67.47000 449.479
67.48000 450.126
67.49000 456.621
67.50000 463.416
67.51000 466.045
67.52000 461.449
67.53000 456.724
67.54000 454.211
67.55000 462.312
67.56000 467.832
67.57000 473.160
67.58000 478.348
67.59000 483.483
67.60000 486.890
67.61000 489.467
67.62000 491.912
67.63000 495.453
67.64000 499.045
67.65000 501.910
67.66000 499.097
67.67000 495.077
67.68000 493.534
67.69000 504.036
67.70000 516.139
67.71000 525.512
67.72000 520.918
67.73000 516.440
67.74000 516.403
67.75000 525.877
67.76000 535.668
67.77000 542.225
67.78000 544.177
67.79000 546.093
67.80000 547.333
67.81000 547.956
67.82000 548.552
67.83000 547.454
67.84000 545.350
67.85000 543.161
67.86000 539.196
67.87000 534.525
67.88000 530.183
67.89000 540.867
67.90000 554.109
67.91000 565.231
67.92000 563.274
67.93000 559.074
67.94000 558.280
67.95000 570.986
67.96000 585.080
67.97000 595.444
67.98000 597.246
67.99000 598.288
68.00000 601.171
68.01000 607.309
68.02000 613.510
68.03000 613.563
68.04000 606.493
68.05000 599.437
68.06000 600.152
68.07000 606.560
68.08000 612.880
68.09000 616.185
68.10000 618.014
68.11000 619.738
68.12000 619.956
68.13000 619.678
68.14000 619.426
68.15000 628.470
68.16000 638.227
68.17000 647.073
68.18000 651.394
68.19000 655.099
68.20000 660.059
68.21000 669.103
68.22000 678.463
68.23000 684.949
68.24000 682.058
68.25000 679.635
68.26000 683.534
68.27000 696.616
68.28000 709.774
68.29000 718.591
68.30000 723.368
68.31000 728.101
68.32000 732.871
68.33000 737.567
68.34000 742.233
68.35000 746.237
68.36000 749.972
68.37000 754.173
68.38000 763.354
68.39000 773.882
68.40000 783.160
68.41000 795.434
68.42000 806.463
68.43000 815.488
68.44000 816.413
68.45000 816.481
68.46000 819.948
68.47000 832.550
68.48000 845.655
68.49000 854.143
68.50000 876.424
68.51000 892.932
68.52000 913.155
68.53000 937.770
68.54000 962.384
68.55000 985.384
68.56000 1007.167
68.57000 1028.551
68.58000 1061.802
68.59000 1099.595
68.60000 1138.586
68.61000 1195.497
68.62000 1258.411
68.63000 1320.788
68.64000 1378.757
68.65000 1435.751
68.66000 1484.332
68.67000 1592.226
68.68000 1689.942
68.69000 1778.427
68.70000 1836.281
68.71000 1891.700
68.72000 1953.085
68.73000 2027.729
68.74000 2102.859
68.75000 2147.876
68.76000 2257.441
68.77000 2335.668
68.78000 2408.817
68.79000 2477.137
68.80000 2546.115
68.81000 2662.837
68.82000 2809.035
68.83000 2950.762
68.84000 3169.968
68.85000 3407.881
68.86000 3660.061
68.87000 4069.277
68.88000 4521.815
68.89000 5051.235
68.90000 6076.938
68.91000 7191.472
68.92000 8105.875
68.93000 10873.256
68.94000 13309.313
68.95000 16319.762
68.96000 20903.086
68.97000 25576.248
68.98000 30781.664
68.99000 36964.441
69.00000 43168.328
69.01000 46565.363
69.02000 55384.949
69.03000 61452.305
69.04000 66365.352
69.05000 70390.398
69.06000 74373.047
69.07000 76757.305
69.08000 78328.344
69.09000 79827.164
69.10000 80760.086
69.11000 81446.758
69.12000 82129.422
69.13000 82778.422
69.14000 83419.813
69.15000 84066.898
69.16000 84743.453
69.17000 85424.203
69.18000 85958.836
69.19000 84407.484
69.20000 83029.508
69.21000 80929.141
69.22000 77192.836
69.23000 73393.891
69.24000 69482.945
69.25000 65402.816
69.26000 61321.082
69.27000 57620.406
69.28000 54290.340
69.29000 50970.273
69.30000 48436.309
69.31000 46397.063
69.32000 44384.000
69.33000 42982.918
69.34000 41839.246
69.35000 40769.332
69.36000 39274.652
69.37000 37808.273
69.38000 36225.035
69.39000 33870.230
69.40000 31374.332
69.41000 28743.865
69.42000 25547.611
69.43000 22288.377
69.44000 19853.205
69.45000 16437.350
69.46000 13729.212
69.47000 11327.593
69.48000 9499.553
69.49000 7684.658
69.50000 6241.962
69.51000 5258.075
69.52000 4277.367
69.53000 3606.257
69.54000 3180.364
69.55000 2757.949
69.56000 2473.984
69.57000 2261.796
69.58000 2054.313
69.59000 1922.120
69.60000 1816.108
69.61000 1719.228
69.62000 1634.464
69.63000 1561.652
69.64000 1490.289
69.65000 1426.584
69.66000 1363.997
69.67000 1306.968
69.68000 1269.098
69.69000 1232.844
69.70000 1207.255
69.71000 1169.513
69.72000 1140.502
69.73000 1113.803
69.74000 1090.665
69.75000 1067.567
69.76000 1047.201
69.77000 1029.549
69.78000 1012.022
69.79000 996.101
69.80000 981.446
69.81000 966.862
69.82000 953.973
69.83000 941.810
69.84000 928.993
69.85000 908.551
69.86000 885.923
69.87000 865.804
69.88000 862.412
69.89000 862.179
69.90000 857.430
69.91000 833.310
69.92000 806.979
69.93000 787.129
69.94000 785.702
69.95000 785.404
69.96000 785.207
69.97000 764.689
69.98000 749.183
69.99000 743.561
70.00000 750.374
