20.00000 552.625
20.01000 550.876
20.02000 548.878
20.03000 550.339
20.04000 565.163
20.05000 581.318
20.06000 593.112
20.07000 576.583
20.08000 562.735
20.09000 554.208
20.10000 554.861
20.11000 555.675
20.12000 557.540
20.13000 560.589
20.14000 563.629
20.15000 559.266
20.16000 549.660
20.17000 540.383
20.18000 541.610
20.19000 547.862
20.20000 553.769
20.21000 554.894
20.22000 554.483
20.23000 554.112
20.24000 557.556
20.25000 561.295
20.26000 565.028
20.27000 568.733
20.28000 572.436
20.29000 573.789
20.30000 567.681
20.31000 561.020
20.32000 556.440
20.33000 553.645
20.34000 551.593
20.35000 553.882
20.36000 562.318
20.37000 570.795
20.38000 573.166
20.39000 570.005
20.40000 566.877
20.41000 560.732
20.42000 552.976
20.43000 545.518
20.44000 544.158
20.45000 545.210
20.46000 546.532
20.47000 550.635
20.48000 555.473
20.49000 559.719
20.50000 556.216
20.51000 552.072
20.52000 549.507
20.53000 553.161
20.54000 557.451
20.55000 561.546
20.56000 565.127
20.57000 568.681
20.58000 570.962
20.59000 567.288
20.60000 564.527
20.61000 561.461
20.62000 558.043
20.63000 554.645
20.64000 554.948
20.65000 557.969
20.66000 560.931
20.67000 562.870
20.68000 564.256
20.69000 565.508
20.70000 564.840
20.71000 563.546
20.72000 561.905
20.73000 557.521
20.74000 552.546
20.75000 548.324
20.76000 544.334
20.77000 541.015
20.78000 539.339
20.79000 542.984
20.80000 547.037
20.81000 549.174
20.82000 547.155
20.83000 544.993
20.84000 543.711
20.85000 551.214
20.86000 556.569
20.87000 556.010
20.88000 549.978
20.89000 544.060
20.90000 545.621
20.91000 551.686
20.92000 557.554
20.93000 561.796
20.94000 565.184
20.95000 567.539
20.96000 558.927
20.97000 547.364
20.98000 538.202
20.99000 544.096
21.00000 552.610
21.01000 559.560
21.02000 562.870
21.03000 565.266
21.04000 565.659
21.05000 560.697
21.06000 555.443
21.07000 552.909
21.08000 555.250
21.09000 557.689
21.10000 559.008
21.11000 560.402
21.12000 561.351
21.13000 561.081
21.14000 559.897
21.15000 558.666
21.16000 555.793
21.17000 552.105
21.18000 548.595
21.19000 548.796
21.20000 550.128
21.21000 551.813
21.22000 556.384
21.23000 561.589
21.24000 564.403
21.25000 555.166
21.26000 544.261
21.27000 535.747
21.28000 543.740
21.29000 551.151
21.30000 556.076
21.31000 555.504
21.32000 554.734
21.33000 553.669
21.34000 552.169
21.35000 550.666
21.36000 548.325
21.37000 545.193
21.38000 542.170
21.39000 546.914
21.40000 556.426
21.41000 565.497
21.42000 564.785
21.43000 560.057
21.44000 555.645
21.45000 553.049
21.46000 551.149
21.47000 549.097
21.48000 546.074
21.49000 542.879
21.50000 541.782
21.51000 549.289
21.52000 557.723
21.53000 563.981
21.54000 551.254
21.55000 540.531
21.56000 534.443
21.57000 536.817
21.58000 539.371
21.59000 545.105
21.60000 554.656
21.61000 564.192
21.62000 570.860
21.63000 575.308
21.64000 579.779
21.65000 585.095
21.66000 590.839
21.67000 596.920
21.68000 608.169
21.69000 621.171
21.70000 633.015
21.71000 640.326
21.72000 645.899
21.73000 651.668
21.74000 658.442
21.75000 665.359
21.76000 673.734
21.77000 687.011
21.78000 700.686
21.79000 710.264
21.80000 735.290
21.81000 754.659
21.82000 773.060
21.83000 790.008
21.84000 806.942
21.85000 824.806
21.86000 843.568
21.87000 862.180
21.88000 879.086
21.89000 894.646
21.90000 910.387
21.91000 930.343
21.92000 952.061
21.93000 971.870
21.94000 970.248
21.95000 962.632
21.96000 955.887
21.97000 962.427
21.98000 970.175
21.99000 976.176
22.00000 974.873
22.01000 972.762
22.02000 972.951
22.03000 979.519
22.04000 986.462
22.05000 991.013
22.06000 948.820
22.07000 917.022
22.08000 894.291
22.09000 882.672
22.10000 871.048
22.11000 850.574
22.12000 823.194
22.13000 796.267
22.14000 775.226
22.15000 757.805
22.16000 740.385
22.17000 722.966
22.18000 705.549
22.19000 688.611
22.20000 675.776
22.21000 663.880
22.22000 653.681
22.23000 638.092
22.24000 624.265
22.25000 613.539
22.26000 613.446
22.27000 614.241
22.28000 613.366
22.29000 608.659
22.30000 603.801
22.31000 600.849
22.32000 596.547
22.33000 593.465
22.34000 588.396
22.35000 581.364
22.36000 574.323
22.37000 566.462
22.38000 558.077
22.39000 549.930
22.40000 549.972
22.41000 553.329
22.42000 556.206
22.43000 553.530
22.44000 549.271
22.45000 545.491
22.46000 544.927
22.47000 544.959
22.48000 544.986
22.49000 545.370
22.50000 545.720
22.51000 545.690
22.52000 544.591
22.53000 543.426
22.54000 541.126
22.55000 536.671
22.56000 532.166
22.57000 529.658
22.58000 533.470
22.59000 536.104
22.60000 534.211
22.61000 528.713
22.62000 523.315
22.63000 522.086
22.64000 523.049
22.65000 523.970
22.66000 523.976
22.67000 523.680
22.68000 523.370
22.69000 522.924
22.70000 522.446
22.71000 523.113
22.72000 529.921
22.73000 537.639
22.74000 543.748
22.75000 538.316
22.76000 533.152
22.77000 530.302
22.78000 532.857
22.79000 535.636
22.80000 534.339
22.81000 526.678
22.82000 518.943
22.83000 515.058
22.84000 518.128
22.85000 520.161
22.86000 520.771
22.87000 520.456
22.88000 520.290
22.89000 523.891
22.90000 529.127
22.91000 534.043
22.92000 534.999
22.93000 534.821
22.94000 533.958
22.95000 528.389
22.96000 521.928
22.97000 516.602
22.98000 516.218
22.99000 516.407
23.00000 516.550
23.01000 506.401
23.02000 497.948
23.03000 495.178
23.04000 503.389
23.05000 511.878
23.06000 516.148
23.07000 515.031
23.08000 513.897
23.09000 510.823
23.10000 506.188
23.11000 501.680
23.12000 502.673
23.13000 506.612
23.14000 510.117
23.15000 506.263
23.16000 499.767
23.17000 493.804
23.18000 497.102
23.19000 502.010
23.20000 505.922
23.21000 504.376
23.22000 502.000
23.23000 500.972
23.24000 504.741
23.25000 508.935
23.26000 511.926
23.27000 518.182
23.28000 523.059
23.29000 523.024
23.30000 515.167
23.31000 507.210
23.32000 508.537
23.33000 519.437
23.34000 530.272
23.35000 529.555
23.36000 521.290
23.37000 513.120
23.38000 507.426
23.39000 502.829
23.40000 498.609
23.41000 499.023
23.42000 500.810
23.43000 502.407
23.44000 494.681
23.45000 486.377
23.46000 481.036
23.47000 488.851
23.48000 498.233
23.49000 505.281
23.50000 505.475
23.51000 505.224
23.52000 505.056
23.53000 495.013
23.54000 487.371
23.55000 485.078
23.56000 489.751
23.57000 494.456
23.58000 499.982
23.59000 506.187
23.60000 512.308
23.61000 510.175
23.62000 503.723
23.63000 497.757
23.64000 500.307
23.65000 505.973
23.66000 511.307
23.67000 513.569
23.68000 515.084
23.69000 516.396
23.70000 509.205
23.71000 501.965
23.72000 496.918
23.73000 499.834
23.74000 503.477
23.75000 503.260
23.76000 493.677
23.77000 483.675
23.78000 477.454
23.79000 490.621
23.80000 500.298
23.81000 505.927
23.82000 507.290
23.83000 508.599
23.84000 503.954
23.85000 495.282
23.86000 486.823
23.87000 486.208
23.88000 488.999
23.89000 491.570
23.90000 491.375
23.91000 490.345
23.92000 489.721
23.93000 492.015
23.94000 494.886
23.95000 497.285
23.96000 499.914
23.97000 502.120
23.98000 503.566
23.99000 502.735
24.00000 501.753
24.01000 499.335
24.02000 494.038
24.03000 488.661
24.04000 485.585
24.05000 496.254
24.06000 503.739
24.07000 504.757
24.08000 500.296
24.09000 495.861
24.10000 492.673
24.11000 490.179
24.12000 487.781
24.13000 487.043
24.14000 486.931
24.15000 487.629
24.16000 496.022
24.17000 506.322
24.18000 515.069
24.19000 514.938
24.20000 513.398
24.21000 512.163
24.22000 508.001
24.23000 504.411
24.24000 500.729
24.25000 496.823
24.26000 492.907
24.27000 490.607
24.28000 490.983
24.29000 491.398
24.30000 491.614
24.31000 496.575
24.32000 499.946
24.33000 505.867
24.34000 513.546
24.35000 520.875
24.36000 518.164
24.37000 510.841
24.38000 503.925
24.39000 499.712
24.40000 496.610
24.41000 493.906
24.42000 494.134
24.43000 494.953
24.44000 496.892
24.45000 504.005
24.46000 511.766
24.47000 517.704
24.48000 506.170
24.49000 496.114
24.50000 488.470
24.51000 485.757
24.52000 483.189
24.53000 480.517
24.54000 477.701
24.55000 474.887
24.56000 477.231
24.57000 484.024
24.58000 490.766
24.59000 494.872
24.60000 497.483
24.61000 499.960
24.62000 499.897
24.63000 498.869
24.64000 497.918
24.65000 491.308
24.66000 484.090
24.67000 478.010
24.68000 478.578
24.69000 480.226
24.70000 480.541
24.71000 475.827
24.72000 470.628
24.73000 466.857
24.74000 474.899
24.75000 481.519
24.76000 486.690
24.77000 489.418
24.78000 492.106
24.79000 489.583
24.80000 481.328
24.81000 473.107
24.82000 468.973
24.83000 467.728
24.84000 466.438
24.85000 463.791
24.86000 460.511
24.87000 458.123
24.88000 467.709
24.89000 481.049
24.90000 493.068
24.91000 497.835
24.92000 500.706
24.93000 502.529
24.94000 499.413
24.95000 495.664
24.96000 489.207
24.97000 474.342
24.98000 458.877
24.99000 448.325
25.00000 460.590
25.01000 470.292
25.02000 477.101
25.03000 479.910
25.04000 482.694
25.05000 485.909
25.06000 489.505
25.07000 493.060
25.08000 489.830
25.09000 482.846
25.10000 476.220
25.11000 476.588
25.12000 479.661
25.13000 482.567
25.14000 483.791
25.15000 484.581
25.16000 485.273
25.17000 483.437
25.18000 481.505
25.19000 477.871
25.20000 467.688
25.21000 456.856
25.22000 451.102
25.23000 458.376
25.24000 466.306
25.25000 471.351
25.26000 473.706
25.27000 475.384
25.28000 478.736
25.29000 483.969
25.30000 489.149
25.31000 486.252
25.32000 477.558
25.33000 469.047
25.34000 467.649
25.35000 469.562
25.36000 471.039
25.37000 466.496
25.38000 460.029
25.39000 454.394
25.40000 455.185
25.41000 457.329
25.42000 459.140
25.43000 461.316
25.44000 463.176
25.45000 463.508
25.46000 459.005
25.47000 454.146
25.48000 451.471
25.49000 453.433
25.50000 455.546
25.51000 456.786
25.52000 469.205
25.53000 478.010
25.54000 482.373
25.55000 482.730
25.56000 483.023
25.57000 479.458
25.58000 473.622
25.59000 467.984
25.60000 467.592
25.61000 469.172
25.62000 470.036
25.63000 463.545
25.64000 455.120
25.65000 448.433
25.66000 452.353
25.67000 458.073
25.68000 462.719
25.69000 461.935
25.70000 460.845
25.71000 460.642
25.72000 462.758
25.73000 464.994
25.74000 464.494
25.75000 459.202
25.76000 453.821
25.77000 450.945
25.78000 460.949
25.79000 467.780
25.80000 474.594
25.81000 481.396
25.82000 487.859
25.83000 483.091
25.84000 472.867
25.85000 463.157
25.86000 464.644
25.87000 469.385
25.88000 473.358
25.89000 471.255
25.90000 467.848
25.91000 465.046
25.92000 465.217
25.93000 465.788
25.94000 466.231
25.95000 459.499
25.96000 453.712
25.97000 452.203
25.98000 459.946
25.99000 468.005
26.00000 473.355
26.01000 474.805
26.02000 476.225
26.03000 474.952
26.04000 471.200
26.05000 467.448
26.06000 463.618
26.07000 459.741
26.08000 456.169
26.09000 459.027
26.10000 464.468
26.11000 469.531
26.12000 471.183
26.13000 471.849
26.14000 472.368
26.15000 471.964
26.16000 471.401
26.17000 471.569
26.18000 474.669
26.19000 478.075
26.20000 480.586
26.21000 469.369
26.22000 460.104
26.23000 455.351
26.24000 458.651
26.25000 462.110
26.26000 463.984
26.27000 464.002
26.28000 464.018
26.29000 462.200
26.30000 459.036
26.31000 456.003
26.32000 457.539
26.33000 461.336
26.34000 464.692
26.35000 461.546
26.36000 456.242
26.37000 451.426
26.38000 455.606
26.39000 461.040
26.40000 465.275
26.41000 463.494
26.42000 460.884
26.43000 457.480
26.44000 451.467
26.45000 445.250
26.46000 440.927
26.47000 444.095
26.48000 446.687
26.49000 453.219
26.50000 465.534
26.51000 477.898
26.52000 479.989
26.53000 472.409
26.54000 464.896
26.55000 461.935
26.56000 461.763
26.57000 461.608
26.58000 461.846
26.59000 462.245
26.60000 462.266
26.61000 458.184
26.62000 452.981
26.63000 448.388
26.64000 449.780
26.65000 451.896
26.66000 455.550
26.67000 465.486
26.68000 476.095
26.69000 482.153
26.70000 475.863
26.71000 468.878
26.72000 464.338
26.73000 449.605
26.74000 438.652
26.75000 436.398
26.76000 444.546
26.77000 452.687
26.78000 454.579
26.79000 451.711
26.80000 448.895
26.81000 450.134
26.82000 453.304
26.83000 456.348
26.84000 457.458
26.85000 457.913
26.86000 457.748
26.87000 452.429
26.88000 445.958
26.89000 440.432
26.90000 442.105
26.91000 444.371
26.92000 445.793
26.93000 444.391
26.94000 442.761
26.95000 443.154
26.96000 448.087
26.97000 453.190
26.98000 456.261
26.99000 458.087
27.00000 459.376
27.01000 454.500
27.02000 443.692
27.03000 433.108
27.04000 439.344
27.05000 456.069
27.06000 472.295
27.07000 473.971
27.08000 469.809
27.09000 465.717
27.10000 462.392
27.11000 459.282
27.12000 455.497
27.13000 447.310
27.14000 438.325
27.15000 430.938
27.16000 434.674
27.17000 438.749
27.18000 444.956
27.19000 457.060
27.20000 469.507
27.21000 471.896
27.22000 455.631
27.23000 438.951
27.24000 429.773
27.25000 442.985
27.26000 452.091
27.27000 453.015
27.28000 447.579
27.29000 442.123
27.30000 435.923
27.31000 429.340
27.32000 423.055
27.33000 425.239
27.34000 429.981
27.35000 434.352
27.36000 435.561
27.37000 436.049
27.38000 435.882
27.39000 432.294
27.40000 428.211
27.41000 424.997
27.42000 436.784
27.43000 447.227
27.44000 451.927
27.45000 443.495
27.46000 434.548
27.47000 429.952
27.48000 431.996
27.49000 434.111
27.50000 434.080
27.51000 431.940
27.52000 429.903
27.53000 436.298
27.54000 448.054
27.55000 459.242
27.56000 456.872
27.57000 448.745
27.58000 441.134
27.59000 438.612
27.60000 437.633
27.61000 437.238
27.62000 440.742
27.63000 444.966
27.64000 445.681
27.65000 431.490
27.66000 415.618
27.67000 403.727
27.68000 430.890
27.69000 453.930
27.70000 465.701
27.71000 456.178
27.72000 446.152
27.73000 439.970
27.74000 438.579
27.75000 437.205
27.76000 438.840
27.77000 442.843
27.78000 446.669
27.79000 443.232
27.80000 435.992
27.81000 429.347
27.82000 432.392
27.83000 438.841
27.84000 444.741
27.85000 443.425
27.86000 440.761
27.87000 437.659
27.88000 432.218
27.89000 426.432
27.90000 421.679
27.91000 420.528
27.92000 419.684
27.93000 419.087
27.94000 435.177
27.95000 447.924
27.96000 451.118
27.97000 439.448
27.98000 427.606
27.99000 429.654
28.00000 445.658
28.01000 461.553
28.02000 465.022
28.03000 460.508
28.04000 455.879
28.05000 448.408
28.06000 439.707
28.07000 431.736
28.08000 432.391
28.09000 435.545
28.10000 438.353
28.11000 439.269
28.12000 439.754
28.13000 440.052
28.14000 439.537
28.15000 438.927
28.16000 438.892
28.17000 440.510
28.18000 442.230
28.19000 443.371
28.20000 433.988
28.21000 426.859
28.22000 426.953
28.23000 436.230
28.24000 445.516
28.25000 446.466
28.26000 440.666
28.27000 434.951
28.28000 432.691
28.29000 432.285
28.30000 432.159
28.31000 436.756
28.32000 443.043
28.33000 448.022
28.34000 441.281
28.35000 431.758
28.36000 423.542
28.37000 422.678
28.38000 422.888
28.39000 424.976
28.40000 433.733
28.41000 443.077
28.42000 448.481
28.43000 444.535
28.44000 440.189
28.45000 437.511
28.46000 437.514
28.47000 437.540
28.48000 436.917
28.49000 435.627
28.50000 434.335
28.51000 432.764
28.52000 431.010
28.53000 429.301
28.54000 432.272
28.55000 437.072
28.56000 440.939
28.57000 433.453
28.58000 422.615
28.59000 413.833
28.60000 419.429
28.61000 427.799
28.62000 434.761
28.63000 437.097
28.64000 438.576
28.65000 438.548
28.66000 434.113
28.67000 429.394
28.68000 427.407
28.69000 430.783
28.70000 434.300
28.71000 436.290
28.72000 433.132
28.73000 430.910
28.74000 424.076
28.75000 413.429
28.76000 403.186
28.77000 411.506
28.78000 429.918
28.79000 447.588
28.80000 436.846
28.81000 417.120
28.82000 399.853
28.83000 405.194
28.84000 416.011
28.85000 424.414
28.86000 419.364
28.87000 412.234
28.88000 406.546
28.89000 413.556
28.90000 420.144
28.91000 426.035
28.92000 430.242
28.93000 434.374
28.94000 435.554
28.95000 431.960
28.96000 428.302
28.97000 426.428
28.98000 425.130
28.99000 424.291
29.00000 427.096
29.01000 432.354
29.02000 437.294
29.03000 433.551
29.04000 425.908
29.05000 418.707
29.06000 411.429
29.07000 404.746
29.08000 399.800
29.09000 407.288
29.10000 417.225
29.11000 425.802
29.12000 428.242
29.13000 429.935
29.14000 431.223
29.15000 432.567
29.16000 433.627
29.17000 433.044
29.18000 429.177
29.19000 425.219
29.20000 423.364
29.21000 424.295
29.22000 425.238
29.23000 425.864
29.24000 426.221
29.25000 426.505
29.26000 423.233
29.27000 417.990
29.28000 413.117
29.29000 414.931
29.30000 419.229
29.31000 423.190
29.32000 426.039
29.33000 428.343
29.34000 429.519
29.35000 424.263
29.36000 417.990
29.37000 413.856
29.38000 417.613
29.39000 422.106
29.40000 425.343
29.41000 422.320
29.42000 419.782
29.43000 418.964
29.44000 420.978
29.45000 423.034
29.46000 422.855
29.47000 420.277
29.48000 417.712
29.49000 415.496
29.50000 413.542
29.51000 411.811
29.52000 416.430
29.53000 423.954
29.54000 430.139
29.55000 418.994
29.56000 402.536
29.57000 387.757
29.58000 391.097
29.59000 397.208
29.60000 404.044
29.61000 414.222
29.62000 424.816
29.63000 432.528
29.64000 431.484
29.65000 429.839
29.66000 428.724
29.67000 436.438
29.68000 442.379
29.69000 442.760
29.70000 435.632
29.71000 428.472
29.72000 428.448
29.73000 434.573
29.74000 440.623
29.75000 444.743
29.76000 447.696
29.77000 450.693
29.78000 454.520
29.79000 458.662
29.80000 462.198
29.81000 459.871
29.82000 456.066
29.83000 452.751
29.84000 457.885
29.85000 463.438
29.86000 466.993
29.87000 463.035
29.88000 458.358
29.89000 454.969
29.90000 454.817
29.91000 454.820
29.92000 454.822
29.93000 466.485
29.94000 475.064
29.95000 482.257
29.96000 487.934
29.97000 493.571
29.98000 493.993
29.99000 490.761
30.00000 487.601
30.01000 481.543
30.02000 474.442
30.03000 467.941
30.04000 469.455
30.05000 473.473
30.06000 475.730
30.07000 464.760
30.08000 451.075
30.09000 439.563
30.10000 440.665
30.11000 442.927
30.12000 445.268
30.13000 447.854
30.14000 450.456
30.15000 450.454
30.16000 445.046
30.17000 439.471
30.18000 436.231
30.19000 440.723
30.20000 443.908
30.21000 445.075
30.22000 444.468
30.23000 443.989
30.24000 450.617
30.25000 461.336
30.26000 471.671
30.27000 463.458
30.28000 449.008
30.29000 435.783
30.30000 434.740
30.31000 436.827
30.32000 437.852
30.33000 432.550
30.34000 426.204
30.35000 421.074
30.36000 437.474
30.37000 452.535
30.38000 460.400
30.39000 449.865
30.40000 438.411
30.41000 434.224
30.42000 442.482
30.43000 450.953
30.44000 455.427
30.45000 446.022
30.46000 439.657
30.47000 437.624
30.48000 438.687
30.49000 439.804
30.50000 442.605
30.51000 446.207
30.52000 449.620
30.53000 454.483
30.54000 459.387
30.55000 463.807
30.56000 464.503
30.57000 464.420
30.58000 463.577
30.59000 459.088
30.60000 454.123
30.61000 450.290
30.62000 447.766
30.63000 445.841
30.64000 448.304
30.65000 460.046
30.66000 472.088
30.67000 478.131
30.68000 475.742
30.69000 473.295
30.70000 472.583
30.71000 473.430
30.72000 474.258
30.73000 474.070
30.74000 473.285
30.75000 472.621
30.76000 474.385
30.77000 477.103
30.78000 479.625
30.79000 480.707
30.80000 481.342
30.81000 483.587
30.82000 495.634
30.83000 509.337
30.84000 522.097
30.85000 531.173
30.86000 539.875
30.87000 546.251
30.88000 561.945
30.89000 574.436
30.90000 582.086
30.91000 581.286
30.92000 580.331
30.93000 594.767
30.94000 626.786
30.95000 658.713
30.96000 683.911
30.97000 704.030
30.98000 724.800
30.99000 766.913
31.00000 819.355
31.01000 871.641
31.02000 921.704
31.03000 971.047
31.04000 1015.716
31.05000 1092.173
31.06000 1165.512
31.07000 1240.582
31.08000 1324.125
31.09000 1408.803
31.10000 1503.792
31.11000 1631.924
31.12000 1762.561
31.13000 1852.725
31.14000 2052.860
31.15000 2206.047
31.16000 2364.870
31.17000 2531.771
31.18000 2698.739
31.19000 2871.644
31.20000 3049.996
31.21000 3226.623
31.22000 3392.507
31.23000 3548.650
31.24000 3703.781
31.25000 3837.680
31.26000 3963.082
31.27000 4086.977
31.28000 4195.038
31.29000 4298.871
31.30000 4390.182
31.31000 4458.051
31.32000 4512.963
31.33000 4551.674
31.34000 4525.766
31.35000 4493.148
31.36000 4441.521
31.37000 4339.439
31.38000 4234.643
31.39000 4167.091
31.40000 4048.120
31.41000 3960.500
31.42000 3828.840
31.43000 3645.802
31.44000 3462.725
31.45000 3286.179
31.46000 3114.492
31.47000 2946.072
31.48000 2776.262
31.49000 2611.975
31.50000 2447.788
31.51000 2285.073
31.52000 2122.845
31.53000 1963.402
31.54000 1826.443
31.55000 1694.392
31.56000 1582.098
31.57000 1455.609
31.58000 1347.739
31.59000 1245.671
31.60000 1162.607
31.61000 1081.024
31.62000 1008.856
31.63000 957.357
31.64000 906.592
31.65000 876.342
31.66000 808.113
31.67000 759.532
31.68000 727.234
31.69000 710.201
31.70000 693.099
31.71000 671.291
31.72000 646.615
31.73000 622.716
31.74000 602.314
31.75000 584.365
31.76000 566.998
31.77000 555.915
31.78000 546.543
31.79000 536.518
31.80000 522.331
31.81000 507.410
31.82000 495.202
31.83000 498.383
31.84000 502.333
31.85000 501.034
31.86000 485.540
31.87000 469.254
31.88000 457.451
31.89000 453.778
31.90000 450.273
31.91000 448.367
31.92000 444.080
31.93000 441.152
31.94000 441.750
31.95000 445.023
31.96000 448.184
31.97000 447.273
31.98000 444.314
31.99000 441.495
32.00000 434.551
32.01000 426.826
32.02000 420.050
32.03000 421.128
32.04000 423.955
32.05000 427.070
32.06000 431.659
32.07000 436.454
32.08000 440.209
32.09000 437.638
32.10000 435.178
32.11000 430.748
32.12000 421.912
32.13000 412.911
32.14000 405.482
32.15000 400.394
32.16000 395.330
32.17000 396.158
32.18000 402.628
32.19000 409.025
32.20000 409.903
32.21000 407.353
32.22000 404.876
32.23000 404.070
32.24000 403.958
32.25000 403.853
32.26000 397.413
32.27000 389.976
32.28000 384.225
32.29000 389.446
32.30000 396.645
32.31000 401.284
32.32000 395.303
32.33000 388.159
32.34000 382.840
32.35000 377.889
32.36000 374.052
32.37000 374.064
32.38000 381.190
32.39000 388.471
32.40000 391.851
32.41000 390.487
32.42000 389.115
32.43000 385.587
32.44000 380.419
32.45000 375.395
32.46000 375.893
32.47000 379.218
32.48000 382.356
32.49000 382.573
32.50000 381.786
32.51000 381.068
32.52000 381.106
32.53000 381.291
32.54000 381.000
32.55000 378.229
32.56000 375.101
32.57000 372.551
32.58000 371.965
32.59000 371.541
32.60000 371.243
32.61000 380.312
32.62000 387.458
32.63000 392.564
32.64000 394.569
32.65000 396.542
32.66000 394.198
32.67000 387.628
32.68000 381.108
32.69000 379.288
32.70000 380.426
32.71000 381.559
32.72000 382.596
32.73000 383.591
32.74000 385.087
32.75000 392.293
32.76000 401.116
32.77000 408.946
32.78000 419.056
32.79000 428.181
32.80000 441.964
32.81000 475.466
32.82000 511.181
32.83000 540.635
32.84000 552.514
32.85000 563.341
32.86000 570.469
32.87000 593.839
32.88000 611.332
32.89000 624.455
32.90000 632.154
32.91000 639.818
32.92000 641.607
32.93000 638.754
32.94000 635.945
32.95000 642.566
32.96000 653.742
32.97000 663.897
32.98000 657.552
32.99000 645.432
33.00000 633.908
33.01000 627.573
33.02000 622.441
33.03000 618.032
33.04000 590.834
33.05000 564.992
33.06000 540.735
33.07000 521.974
33.08000 503.681
33.09000 482.989
33.10000 456.730
33.11000 430.245
33.12000 414.074
33.13000 410.258
33.14000 407.629
33.15000 403.819
33.16000 398.825
33.17000 393.808
33.18000 386.827
33.19000 378.576
33.20000 370.551
33.21000 369.271
33.22000 370.818
33.23000 371.744
33.24000 365.363
33.25000 356.873
33.26000 348.701
33.27000 342.699
33.28000 337.104
33.29000 332.472
33.30000 345.079
33.31000 357.122
33.32000 365.774
33.33000 364.726
33.34000 363.078
33.35000 360.217
33.36000 355.028
33.37000 349.782
33.38000 346.846
33.39000 353.497
33.40000 358.117
33.41000 358.692
33.42000 356.005
33.43000 353.386
33.44000 353.711
33.45000 355.601
33.46000 357.412
33.47000 361.984
33.48000 367.166
33.49000 370.852
33.50000 361.195
33.51000 348.382
33.52000 338.375
33.53000 343.626
33.54000 351.172
33.55000 357.162
33.56000 354.011
33.57000 350.831
33.58000 351.307
33.59000 360.432
33.60000 369.922
33.61000 374.431
33.62000 371.066
33.63000 367.603
33.64000 365.853
33.65000 356.429
33.66000 350.170
33.67000 348.425
33.68000 349.652
33.69000 350.585
33.70000 343.925
33.71000 333.930
33.72000 324.535
33.73000 323.602
33.74000 325.023
33.75000 327.045
33.76000 333.256
33.77000 340.272
33.78000 345.729
33.79000 344.321
33.80000 342.103
33.81000 340.425
33.82000 347.480
33.83000 353.452
33.84000 355.762
33.85000 350.915
33.86000 345.880
33.87000 340.422
33.88000 334.417
33.89000 328.417
33.90000 329.460
33.91000 336.279
33.92000 343.059
33.93000 348.078
33.94000 352.142
33.95000 355.949
33.96000 355.287
33.97000 353.002
33.98000 350.901
33.99000 347.524
34.00000 344.234
34.01000 341.348
34.02000 340.702
34.03000 340.401
34.04000 340.289
34.05000 340.858
34.06000 341.490
34.07000 341.941
34.08000 343.061
34.09000 343.938
34.10000 343.321
34.11000 340.297
34.12000 337.241
34.13000 337.071
34.14000 339.918
34.15000 342.749
34.16000 343.543
34.17000 342.977
34.18000 342.372
34.19000 340.738
34.20000 338.643
34.21000 336.614
34.22000 335.406
34.23000 334.444
34.24000 333.583
34.25000 336.908
34.26000 340.525
34.27000 342.612
34.28000 337.821
34.29000 332.197
34.30000 326.763
34.31000 321.890
34.32000 317.055
34.33000 313.806
34.34000 319.216
34.35000 323.412
34.36000 328.788
34.37000 335.721
34.38000 342.650
34.39000 343.936
34.40000 340.479
34.41000 337.068
34.42000 338.138
34.43000 341.587
34.44000 344.833
34.45000 344.426
34.46000 342.668
34.47000 340.770
34.48000 337.568
34.49000 334.045
34.50000 330.987
34.51000 332.862
34.52000 335.122
34.53000 336.912
34.54000 336.974
34.55000 336.877
34.56000 335.225
34.57000 329.758
34.58000 324.117
34.59000 320.591
34.60000 321.442
34.61000 322.102
34.62000 321.657
34.63000 320.034
34.64000 318.437
34.65000 320.044
34.66000 323.844
34.67000 327.554
34.68000 329.440
34.69000 330.449
34.70000 331.573
34.71000 334.183
34.72000 337.246
34.73000 339.506
34.74000 335.914
34.75000 331.149
34.76000 327.159
34.77000 331.851
34.78000 336.649
34.79000 339.303
34.80000 335.468
34.81000 331.191
34.82000 327.888
34.83000 326.564
34.84000 325.297
34.85000 324.569
34.86000 327.398
34.87000 329.382
34.88000 325.750
34.89000 317.299
34.90000 309.024
34.91000 309.865
34.92000 315.836
34.93000 321.582
34.94000 326.152
34.95000 330.024
34.96000 333.329
34.97000 331.176
34.98000 327.652
34.99000 324.015
35.00000 319.721
35.01000 315.321
35.02000 311.783
35.03000 314.966
35.04000 318.066
35.05000 321.096
35.06000 323.953
35.07000 326.802
35.08000 328.210
35.09000 327.209
35.10000 326.170
35.11000 325.627
35.12000 318.840
35.13000 314.266
35.14000 312.053
35.15000 311.488
35.16000 311.060
35.17000 314.656
35.18000 320.121
35.19000 325.289
35.20000 321.819
35.21000 316.159
35.22000 311.438
35.23000 313.734
35.24000 317.466
35.25000 319.894
35.26000 316.222
35.27000 311.775
35.28000 308.362
35.29000 311.656
35.30000 314.633
35.31000 317.083
35.32000 318.442
35.33000 319.767
35.34000 319.011
35.35000 315.397
35.36000 311.768
35.37000 311.702
35.38000 314.753
35.39000 317.724
35.40000 316.313
35.41000 312.389
35.42000 308.929
35.43000 314.450
35.44000 323.421
35.45000 331.725
35.46000 322.002
35.47000 309.116
35.48000 298.385
35.49000 300.430
35.50000 304.576
35.51000 308.010
35.52000 308.717
35.53000 309.158
35.54000 309.478
35.55000 313.228
35.56000 316.246
35.57000 316.277
35.58000 311.212
35.59000 306.062
35.60000 305.431
35.61000 309.837
35.62000 314.228
35.63000 317.104
35.64000 318.884
35.65000 320.484
35.66000 316.524
35.67000 309.932
35.68000 303.830
35.69000 304.416
35.70000 307.125
35.71000 309.569
35.72000 305.421
35.73000 300.567
35.74000 297.081
35.75000 300.133
35.76000 304.036
35.77000 306.704
35.78000 305.496
35.79000 304.005
35.80000 302.983
35.81000 306.535
35.82000 309.305
35.83000 312.660
35.84000 316.837
35.85000 321.015
35.86000 320.571
35.87000 315.990
35.88000 311.458
35.89000 311.841
35.90000 315.023
35.91000 317.914
35.92000 314.975
35.93000 309.754
35.94000 305.125
35.95000 306.511
35.96000 309.468
35.97000 312.058
35.98000 314.317
35.99000 316.208
36.00000 316.430
36.01000 310.151
36.02000 303.218
36.03000 299.177
36.04000 302.646
36.05000 306.501
36.06000 308.965
36.07000 306.745
36.08000 305.068
36.09000 301.768
36.10000 296.622
36.11000 291.541
36.12000 297.380
36.13000 311.152
36.14000 324.644
36.15000 320.747
36.16000 308.935
36.17000 297.878
36.18000 297.470
36.19000 300.506
36.20000 303.408
36.21000 305.254
36.22000 306.875
36.23000 308.248
36.24000 304.957
36.25000 301.680
36.26000 300.825
36.27000 307.727
36.28000 315.211
36.29000 320.225
36.30000 319.933
36.31000 319.462
36.32000 319.184
36.33000 304.454
36.34000 293.980
36.35000 291.874
36.36000 297.417
36.37000 302.891
36.38000 303.930
36.39000 302.328
36.40000 300.780
36.41000 296.269
36.42000 290.898
36.43000 286.950
36.44000 297.873
36.45000 312.754
36.46000 324.598
36.47000 317.640
36.48000 307.447
36.49000 299.148
36.50000 299.948
36.51000 301.369
36.52000 302.544
36.53000 303.066
36.54000 303.553
36.55000 305.197
36.56000 308.892
36.57000 312.626
36.58000 314.634
36.59000 296.558
36.60000 284.243
36.61000 281.943
36.62000 287.067
36.63000 292.119
36.64000 294.728
36.65000 296.138
36.66000 297.479
36.67000 304.524
36.68000 312.778
36.69000 319.581
36.70000 314.743
36.71000 307.372
36.72000 300.659
36.73000 297.217
36.74000 294.222
36.75000 291.890
36.76000 296.889
36.77000 301.322
36.78000 302.721
36.79000 297.481
36.80000 292.007
36.81000 291.411
36.82000 297.921
36.83000 304.490
36.84000 308.582
36.85000 310.361
36.86000 312.086
36.87000 310.158
36.88000 306.014
36.89000 301.943
36.90000 299.467
36.91000 297.639
36.92000 295.936
36.93000 301.449
36.94000 308.208
36.95000 313.708
36.96000 311.234
36.97000 307.359
36.98000 304.330
36.99000 304.732
37.00000 305.498
37.01000 306.065
37.02000 305.914
37.03000 305.766
37.04000 305.343
37.05000 304.425
37.06000 303.496
37.07000 306.030
37.08000 312.673
37.09000 319.306
37.10000 318.619
37.11000 312.439
37.12000 306.306
37.13000 301.830
37.14000 298.183
37.15000 294.744
37.16000 294.435
37.17000 295.176
37.18000 295.851
37.19000 298.130
37.20000 300.461
37.21000 302.660
37.22000 304.185
37.23000 305.617
37.24000 306.138
37.25000 303.632
37.26000 300.884
37.27000 298.967
37.28000 295.671
37.29000 293.145
37.30000 291.212
37.31000 290.161
37.32000 289.120
37.33000 290.653
37.34000 294.644
37.35000 298.602
37.36000 297.488
37.37000 293.314
37.38000 289.547
37.39000 294.958
37.40000 304.168
37.41000 312.523
37.42000 311.421
37.43000 307.704
37.44000 304.417
37.45000 302.953
37.46000 301.972
37.47000 301.620
37.48000 303.870
37.49000 306.404
37.50000 307.417
37.51000 304.257
37.52000 300.858
37.53000 298.638
37.54000 297.508
37.55000 296.695
37.56000 297.145
37.57000 299.123
37.58000 301.105
37.59000 303.017
37.60000 304.876
37.61000 306.704
37.62000 306.907
37.63000 306.304
37.64000 305.870
37.65000 308.084
37.66000 311.203
37.67000 313.523
37.68000 309.099
37.69000 303.148
37.70000 298.055
37.71000 295.233
37.72000 293.127
37.73000 291.982
37.74000 294.096
37.75000 296.478
37.76000 297.748
37.77000 296.493
37.78000 295.141
37.79000 294.323
37.80000 283.721
37.81000 276.095
37.82000 274.018
37.83000 277.351
37.84000 280.722
37.85000 287.135
37.86000 295.469
37.87000 303.561
37.88000 305.935
37.89000 305.898
37.90000 305.647
37.91000 302.948
37.92000 299.560
37.93000 297.180
37.94000 301.483
37.95000 307.011
37.96000 311.568
37.97000 311.557
37.98000 311.128
37.99000 310.417
38.00000 308.918
38.01000 307.373
38.02000 305.831
38.03000 304.297
38.04000 302.763
38.05000 301.914
38.06000 306.102
38.07000 308.995
38.08000 310.065
38.09000 309.698
38.10000 309.348
38.11000 309.703
38.12000 310.423
38.13000 311.112
38.14000 309.614
38.15000 307.510
38.16000 306.024
38.17000 309.883
38.18000 314.976
38.19000 319.536
38.20000 321.265
38.21000 322.581
38.22000 323.619
38.23000 320.945
38.24000 318.547
38.25000 321.117
38.26000 335.180
38.27000 349.705
38.28000 357.895
38.29000 356.301
38.30000 354.597
38.31000 359.443
38.32000 370.815
38.33000 382.215
38.34000 395.988
38.35000 411.288
38.36000 426.463
38.37000 438.573
38.38000 449.366
38.39000 459.487
38.40000 467.104
38.41000 473.386
38.42000 481.477
38.43000 501.828
38.44000 524.475
38.45000 547.240
38.46000 570.507
38.47000 593.833
38.48000 611.364
38.49000 638.919
38.50000 660.945
38.51000 682.680
38.52000 703.856
38.53000 725.018
38.54000 744.425
38.55000 761.616
38.56000 778.772
38.57000 793.043
38.58000 804.945
38.59000 816.954
38.60000 833.528
38.61000 852.519
38.62000 871.006
38.63000 881.106
38.64000 888.226
38.65000 894.751
38.66000 887.495
38.67000 878.141
38.68000 865.786
38.69000 837.181
38.70000 806.141
38.71000 780.374
38.72000 773.188
38.73000 767.620
38.74000 763.664
38.75000 740.759
38.76000 722.718
38.77000 702.948
38.78000 680.453
38.79000 657.926
38.80000 633.491
38.81000 607.112
38.82000 580.902
38.83000 556.540
38.84000 533.727
38.85000 511.078
38.86000 492.640
38.87000 476.045
38.88000 459.575
38.89000 444.616
38.90000 430.099
38.91000 417.149
38.92000 398.367
38.93000 381.054
38.94000 367.159
38.95000 368.261
38.96000 371.126
38.97000 369.431
38.98000 354.490
38.99000 338.707
39.00000 328.187
39.01000 323.567
39.02000 320.260
39.03000 315.114
39.04000 307.598
39.05000 300.089
39.06000 298.644
39.07000 302.172
39.08000 305.651
39.09000 305.452
39.10000 303.331
39.11000 301.188
39.12000 298.661
39.13000 295.996
39.14000 293.188
39.15000 289.087
39.16000 284.675
39.17000 280.862
39.18000 281.453
39.19000 282.530
39.20000 284.173
39.21000 287.850
39.22000 291.710
39.23000 293.620
39.24000 290.849
39.25000 287.874
39.26000 286.032
39.27000 281.774
39.28000 278.690
39.29000 275.744
39.30000 272.943
39.31000 270.182
39.32000 271.632
39.33000 275.899
39.34000 280.059
39.35000 278.760
39.36000 275.196
39.37000 271.606
39.38000 267.677
39.39000 263.647
39.40000 260.460
39.41000 263.258
39.42000 267.225
39.43000 270.532
39.44000 266.875
39.45000 263.148
39.46000 261.406
39.47000 265.539
39.48000 270.058
39.49000 273.912
39.50000 276.444
39.51000 278.941
39.52000 280.361
39.53000 265.543
39.54000 255.186
39.55000 255.424
39.56000 264.530
39.57000 273.525
39.58000 277.245
39.59000 278.063
39.60000 278.848
39.61000 278.788
39.62000 278.439
39.63000 278.266
39.64000 279.730
39.65000 281.596
39.66000 281.909
39.67000 273.451
39.68000 263.619
39.69000 255.753
39.70000 259.811
39.71000 263.982
39.72000 267.384
39.73000 268.908
39.74000 270.346
39.75000 271.633
39.76000 272.672
39.77000 273.707
39.78000 274.241
39.79000 274.852
39.80000 275.227
39.81000 271.373
39.82000 264.636
39.83000 258.097
39.84000 257.119
39.85000 258.668
39.86000 260.128
39.87000 262.122
39.88000 264.099
39.89000 265.680
39.90000 264.391
39.91000 262.529
39.92000 260.993
39.93000 260.947
39.94000 261.085
39.95000 261.190
39.96000 266.049
39.97000 270.132
39.98000 271.793
39.99000 268.556
40.00000 265.178
40.01000 263.836
40.02000 265.223
40.03000 266.623
40.04000 267.087
40.05000 266.751
40.06000 266.419
40.07000 266.274
40.08000 266.235
40.09000 266.256
40.10000 267.386
40.11000 268.932
40.12000 270.360
40.13000 266.774
40.14000 262.436
40.15000 258.214
40.16000 254.665
40.17000 251.223
40.18000 249.093
40.19000 251.860
40.20000 255.090
40.21000 257.426
40.22000 269.218
40.23000 278.609
40.24000 280.354
40.25000 269.344
40.26000 258.138
40.27000 254.745
40.28000 259.841
40.29000 264.917
40.30000 263.409
40.31000 257.387
40.32000 251.557
40.33000 251.345
40.34000 253.732
40.35000 255.811
40.36000 253.822
40.37000 250.571
40.38000 247.646
40.39000 255.737
40.40000 264.792
40.41000 270.970
40.42000 263.738
40.43000 254.810
40.44000 249.119
40.45000 253.377
40.46000 258.332
40.47000 261.701
40.48000 260.224
40.49000 259.012
40.50000 257.312
40.51000 254.945
40.52000 252.574
40.53000 250.362
40.54000 248.288
40.55000 246.238
40.56000 245.895
40.57000 246.510
40.58000 247.247
40.59000 250.306
40.60000 254.254
40.61000 257.777
40.62000 257.103
40.63000 255.358
40.64000 253.836
40.65000 247.586
40.66000 241.576
40.67000 237.900
40.68000 243.110
40.69000 249.186
40.70000 252.112
40.71000 247.037
40.72000 241.569
40.73000 238.105
40.74000 244.604
40.75000 249.438
40.76000 253.825
40.77000 257.716
40.78000 261.580
40.79000 261.675
40.80000 259.096
40.81000 256.573
40.82000 256.816
40.83000 258.301
40.84000 259.473
40.85000 256.386
40.86000 251.952
40.87000 248.050
40.88000 248.201
40.89000 249.196
40.90000 250.034
40.91000 246.165
40.92000 242.424
40.93000 240.876
40.94000 246.191
40.95000 252.002
40.96000 254.643
40.97000 250.624
40.98000 246.394
40.99000 243.923
41.00000 248.672
41.01000 252.045
41.02000 253.657
41.03000 253.700
41.04000 253.717
41.05000 252.245
41.06000 249.906
41.07000 247.648
41.08000 248.966
41.09000 251.520
41.10000 254.079
41.11000 256.680
41.12000 259.292
41.13000 261.078
41.14000 257.884
41.15000 253.855
41.16000 250.591
41.17000 249.390
41.18000 248.579
41.19000 247.900
41.20000 247.562
41.21000 247.241
41.22000 247.139
41.23000 247.418
41.24000 247.704
41.25000 247.856
41.26000 244.557
41.27000 242.296
41.28000 237.854
41.29000 231.832
41.30000 226.147
41.31000 231.288
41.32000 241.632
41.33000 251.446
41.34000 250.004
41.35000 245.327
41.36000 241.142
41.37000 240.795
41.38000 241.263
41.39000 242.352
41.40000 246.464
41.41000 250.978
41.42000 254.472
41.43000 244.232
41.44000 235.286
41.45000 232.056
41.46000 241.055
41.47000 250.460
41.48000 255.940
41.49000 255.834
41.50000 255.686
41.51000 254.234
41.52000 251.598
41.53000 248.958
41.54000 246.066
41.55000 243.025
41.56000 240.321
41.57000 244.588
41.58000 251.625
41.59000 258.165
41.60000 255.238
41.61000 250.332
41.62000 246.102
41.63000 246.046
41.64000 246.704
41.65000 246.253
41.66000 241.415
41.67000 236.125
41.68000 232.236
41.69000 233.204
41.70000 234.151
41.71000 234.440
41.72000 233.566
41.73000 232.670
41.74000 230.676
41.75000 227.412
41.76000 224.156
41.77000 226.681
41.78000 233.421
41.79000 240.021
41.80000 241.880
41.81000 241.418
41.82000 240.993
41.83000 241.111
41.84000 241.406
41.85000 241.674
41.86000 239.474
41.87000 237.061
41.88000 236.616
41.89000 245.934
41.90000 256.579
41.91000 263.189
41.92000 256.676
41.93000 249.151
41.94000 243.938
41.95000 245.976
41.96000 247.700
41.97000 247.707
41.98000 245.220
41.99000 242.714
42.00000 241.063
42.01000 240.208
42.02000 239.361
42.03000 238.784
42.04000 238.379
42.05000 238.067
42.06000 239.747
42.07000 242.232
42.08000 243.857
42.09000 236.278
42.10000 226.212
42.11000 217.343
42.12000 225.826
42.13000 235.752
42.14000 243.579
42.15000 242.935
42.16000 241.396
42.17000 241.269
42.18000 244.935
42.19000 248.810
42.20000 251.319
42.21000 245.811
42.22000 241.662
42.23000 239.624
42.24000 240.081
42.25000 240.531
42.26000 238.821
42.27000 235.482
42.28000 232.205
42.29000 231.761
42.30000 232.696
42.31000 233.490
42.32000 232.158
42.33000 230.116
42.34000 228.156
42.35000 226.866
42.36000 225.723
42.37000 224.749
42.38000 228.977
42.39000 233.141
42.40000 235.896
42.41000 233.975
42.42000 231.683
42.43000 231.393
42.44000 235.550
42.45000 239.868
42.46000 242.455
42.47000 242.610
42.48000 242.704
42.49000 240.397
42.50000 235.810
42.51000 231.338
42.52000 235.233
42.53000 244.289
42.54000 253.067
42.55000 246.737
42.56000 234.840
42.57000 224.369
42.58000 229.564
42.59000 239.077
42.60000 246.503
42.61000 240.473
42.62000 232.037
42.63000 225.117
42.64000 224.673
42.65000 224.884
42.66000 226.046
42.67000 229.810
42.68000 233.723
42.69000 236.177
42.70000 235.954
42.71000 235.674
42.72000 235.520
42.73000 234.469
42.74000 233.740
42.75000 231.760
42.76000 228.818
42.77000 226.051
42.78000 229.851
42.79000 236.989
42.80000 243.799
42.81000 244.301
42.82000 242.772
42.83000 241.515
42.84000 242.543
42.85000 244.088
42.86000 244.897
42.87000 241.905
42.88000 238.372
42.89000 235.597
42.90000 244.184
42.91000 251.797
42.92000 254.881
42.93000 247.720
42.94000 240.167
42.95000 238.181
42.96000 244.595
42.97000 251.094
42.98000 250.745
42.99000 243.749
43.00000 236.789
43.01000 232.613
43.02000 230.189
43.03000 227.924
43.04000 229.393
43.05000 232.431
43.06000 235.272
43.07000 237.701
43.08000 239.802
43.09000 241.841
43.10000 243.463
43.11000 245.009
43.12000 245.140
43.13000 239.323
43.14000 232.846
43.15000 228.007
43.16000 235.028
43.17000 241.046
43.18000 244.909
43.19000 244.745
43.20000 244.488
43.21000 241.123
43.22000 233.929
43.23000 226.740
43.24000 225.417
43.25000 228.677
43.26000 231.840
43.27000 231.122
43.28000 228.394
43.29000 225.722
43.30000 223.938
43.31000 222.462
43.32000 221.114
43.33000 220.181
43.34000 219.438
43.35000 218.967
43.36000 219.936
43.37000 221.115
43.38000 221.973
43.39000 221.724
43.40000 221.383
43.41000 221.141
43.42000 232.318
43.43000 241.144
43.44000 243.766
43.45000 236.840
43.46000 229.809
43.47000 226.835
43.48000 227.886
43.49000 228.930
43.50000 229.300
43.51000 229.240
43.52000 229.237
43.53000 230.642
43.54000 232.650
43.55000 234.621
43.56000 236.173
43.57000 237.603
43.58000 238.875
43.59000 236.975
43.60000 234.812
43.61000 232.251
43.62000 227.988
43.63000 223.530
43.64000 219.799
43.65000 218.132
43.66000 216.590
43.67000 215.571
43.68000 221.122
43.69000 225.335
43.70000 226.756
43.71000 224.666
43.72000 222.577
43.73000 224.064
43.74000 228.415
43.75000 232.698
43.76000 228.979
43.77000 221.279
43.78000 213.953
43.79000 212.807
43.80000 213.849
43.81000 214.943
43.82000 216.496
43.83000 218.155
43.84000 219.585
43.85000 221.216
43.86000 222.624
43.87000 224.259
43.88000 226.689
43.89000 229.189
43.90000 230.222
43.91000 227.810
43.92000 225.255
43.93000 223.687
43.94000 224.625
43.95000 225.319
43.96000 226.959
43.97000 229.560
43.98000 232.162
43.99000 234.801
44.00000 237.464
44.01000 240.057
44.02000 234.054
44.03000 224.767
44.04000 216.241
44.05000 216.824
44.06000 220.067
44.07000 222.735
44.08000 221.434
44.09000 219.377
44.10000 217.669
44.11000 221.785
44.12000 225.749
44.13000 229.038
44.14000 230.371
44.15000 231.580
44.16000 234.626
44.17000 241.236
44.18000 247.938
44.19000 251.709
44.20000 243.970
44.21000 238.573
44.22000 235.561
44.23000 234.497
44.24000 233.445
44.25000 232.965
44.26000 232.793
44.27000 232.628
44.28000 236.056
44.29000 240.467
44.30000 244.496
44.31000 245.062
44.32000 244.799
44.33000 243.567
44.34000 237.000
44.35000 229.620
44.36000 223.746
44.37000 230.919
44.38000 237.640
44.39000 241.838
44.40000 240.004
44.41000 237.909
44.42000 238.681
44.43000 244.041
44.44000 249.461
44.45000 252.220
44.46000 258.691
44.47000 263.015
44.48000 265.818
44.49000 267.607
44.50000 269.412
44.51000 271.639
44.52000 274.054
44.53000 276.327
44.54000 286.438
44.55000 297.814
44.56000 307.793
44.57000 307.898
44.58000 306.081
44.59000 306.051
44.60000 313.994
44.61000 322.892
44.62000 329.642
44.63000 337.484
44.64000 343.700
44.65000 349.270
44.66000 353.565
44.67000 357.824
44.68000 367.763
44.69000 385.134
44.70000 402.519
44.71000 415.301
44.72000 424.218
44.73000 433.336
44.74000 451.985
44.75000 475.858
44.76000 498.868
44.77000 506.595
44.78000 508.706
44.79000 510.650
44.80000 519.900
44.81000 529.766
44.82000 540.631
44.83000 557.114
44.84000 574.473
44.85000 589.309
44.86000 594.938
44.87000 599.722
44.88000 603.157
44.89000 622.222
44.90000 637.345
44.91000 644.705
44.92000 639.410
44.93000 633.935
44.94000 625.105
44.95000 612.720
44.96000 600.400
44.97000 591.499
44.98000 585.002
44.99000 578.721
45.00000 578.412
45.01000 580.807
45.02000 582.417
45.03000 574.035
45.04000 562.622
45.05000 552.390
45.06000 545.558
45.07000 540.178
45.08000 531.676
45.09000 508.961
45.10000 484.499
45.11000 461.471
45.12000 442.754
45.13000 424.329
45.14000 411.899
45.15000 407.106
45.16000 403.701
45.17000 402.589
45.18000 404.538
45.19000 406.494
45.20000 402.510
45.21000 393.469
45.22000 384.542
45.23000 371.173
45.24000 355.734
45.25000 340.480
45.26000 328.613
45.27000 318.014
45.28000 308.760
45.29000 312.341
45.30000 319.119
45.31000 325.013
45.32000 315.733
45.33000 305.748
45.34000 296.863
45.35000 292.064
45.36000 287.651
45.37000 282.188
45.38000 274.114
45.39000 265.918
45.40000 260.771
45.41000 269.302
45.42000 275.620
45.43000 277.126
45.44000 273.427
45.45000 269.747
45.46000 268.653
45.47000 269.353
45.48000 270.036
45.49000 267.961
45.50000 264.756
45.51000 261.571
45.52000 258.654
45.53000 255.820
45.54000 252.604
45.55000 246.561
45.56000 239.945
45.57000 234.390
45.58000 239.244
45.59000 244.377
45.60000 247.476
45.61000 244.347
45.62000 240.784
45.63000 237.850
45.64000 236.209
45.65000 234.607
45.66000 233.680
45.67000 235.284
45.68000 236.418
45.69000 236.821
45.70000 236.589
45.71000 236.338
45.72000 235.079
45.73000 233.247
45.74000 231.481
45.75000 229.114
45.76000 226.673
45.77000 224.499
45.78000 224.933
45.79000 226.030
45.80000 226.926
45.81000 226.635
45.82000 226.152
45.83000 225.762
45.84000 228.754
45.85000 231.450
45.86000 231.736
45.87000 225.925
45.88000 219.817
45.89000 215.387
45.90000 213.800
45.91000 212.260
45.92000 211.451
45.93000 217.315
45.94000 221.255
45.95000 219.911
45.96000 214.832
45.97000 209.975
45.98000 211.850
45.99000 216.888
46.00000 221.658
46.01000 218.594
46.02000 213.505
46.03000 209.364
46.04000 212.417
46.05000 216.960
46.06000 219.446
46.07000 212.183
46.08000 203.663
46.09000 197.103
46.10000 199.135
46.11000 201.233
46.12000 203.020
46.13000 204.157
46.14000 205.274
46.15000 207.373
46.16000 210.836
46.17000 214.307
46.18000 212.587
46.19000 206.268
46.20000 200.085
46.21000 201.791
46.22000 208.073
46.23000 213.961
46.24000 212.057
46.25000 207.123
46.26000 202.550
46.27000 201.663
46.28000 201.723
46.29000 202.091
46.30000 204.314
46.31000 206.846
46.32000 208.260
46.33000 205.355
46.34000 202.019
46.35000 199.582
46.36000 194.685
46.37000 190.812
46.38000 190.627
46.39000 196.809
46.40000 203.102
46.41000 205.878
46.42000 204.682
46.43000 203.487
46.44000 199.835
46.45000 194.462
46.46000 189.208
46.47000 187.770
46.48000 188.160
46.49000 188.618
46.50000 190.030
46.51000 191.747
46.52000 193.300
46.53000 197.740
46.54000 202.183
46.55000 205.663
46.56000 204.479
46.57000 202.680
46.58000 200.570
46.59000 197.475
46.60000 194.307
46.61000 192.128
46.62000 190.649
46.63000 189.556
46.64000 190.004
46.65000 192.636
46.66000 195.285
46.67000 198.371
46.68000 201.854
46.69000 205.302
46.70000 208.824
46.71000 212.313
46.72000 215.465
46.73000 211.683
46.74000 205.156
46.75000 199.374
46.76000 201.300
46.77000 205.263
46.78000 208.741
46.79000 205.252
46.80000 201.233
46.81000 198.092
46.82000 198.410
46.83000 199.082
46.84000 198.565
46.85000 194.925
46.86000 191.120
46.87000 188.677
46.88000 188.424
46.89000 188.269
46.90000 187.442
46.91000 185.840
46.92000 184.253
46.93000 185.454
46.94000 188.705
46.95000 191.893
46.96000 191.893
46.97000 190.394
46.98000 188.951
46.99000 188.289
47.00000 187.883
47.01000 188.009
47.02000 192.360
47.03000 197.623
47.04000 202.089
47.05000 196.032
47.06000 189.757
47.07000 186.141
47.08000 191.142
47.09000 196.803
47.10000 199.188
47.11000 194.456
47.12000 189.478
47.13000 186.526
47.14000 191.519
47.15000 195.095
47.16000 194.266
47.17000 189.356
47.18000 184.544
47.19000 186.260
47.20000 191.911
47.21000 197.379
47.22000 198.385
47.23000 197.635
47.24000 196.600
47.25000 192.538
47.26000 187.661
47.27000 183.733
47.28000 185.758
47.29000 188.821
47.30000 191.321
47.31000 192.401
47.32000 193.162
47.33000 192.968
47.34000 190.218
47.35000 187.329
47.36000 185.627
47.37000 186.053
47.38000 186.521
47.39000 186.775
47.40000 188.808
47.41000 190.189
47.42000 189.006
47.43000 185.899
47.44000 182.951
47.45000 185.625
47.46000 191.094
47.47000 196.300
47.48000 199.013
47.49000 200.754
47.50000 202.146
47.51000 200.694
47.52000 198.615
47.53000 196.648
47.54000 195.246
47.55000 193.922
47.56000 192.888
47.57000 189.996
47.58000 187.572
47.59000 185.545
47.60000 184.396
47.61000 183.278
47.62000 184.272
47.63000 188.378
47.64000 192.512
47.65000 191.996
47.66000 187.082
47.67000 182.227
47.68000 181.490
47.69000 183.284
47.70000 185.065
47.71000 186.545
47.72000 187.902
47.73000 189.169
47.74000 191.379
47.75000 193.616
47.76000 195.218
47.77000 192.742
47.78000 189.539
47.79000 186.672
47.80000 185.175
47.81000 183.827
47.82000 182.826
47.83000 183.162
47.84000 183.483
47.85000 183.839
47.86000 184.261
47.87000 184.684
47.88000 186.727
47.89000 190.717
47.90000 194.701
47.91000 195.216
47.92000 193.088
47.93000 190.947
47.94000 188.318
47.95000 185.442
47.96000 182.829
47.97000 184.276
47.98000 187.103
47.99000 189.677
48.00000 192.771
48.01000 195.614
48.02000 197.123
48.03000 191.762
48.04000 185.426
48.05000 181.201
48.06000 184.079
48.07000 187.536
48.08000 189.957
48.09000 189.294
48.10000 188.705
48.11000 189.720
48.12000 193.149
48.13000 196.602
48.14000 196.971
48.15000 194.358
48.16000 191.767
48.17000 191.443
48.18000 192.521
48.19000 193.485
48.20000 191.826
48.21000 189.068
48.22000 186.583
48.23000 187.160
48.24000 188.595
48.25000 189.866
48.26000 188.700
48.27000 187.308
48.28000 186.631
48.29000 188.945
48.30000 191.591
48.31000 192.848
48.32000 190.250
48.33000 187.426
48.34000 185.574
48.35000 190.001
48.36000 193.361
48.37000 192.450
48.38000 186.302
48.39000 180.164
48.40000 180.285
48.41000 185.297
48.42000 190.225
48.43000 190.448
48.44000 188.315
48.45000 186.305
48.46000 186.258
48.47000 186.890
48.48000 187.226
48.49000 185.022
48.50000 182.236
48.51000 179.848
48.52000 180.926
48.53000 182.263
48.54000 183.269
48.55000 183.140
48.56000 182.916
48.57000 183.159
48.58000 184.474
48.59000 185.831
48.60000 186.655
48.61000 176.476
48.62000 169.123
48.63000 168.188
48.64000 173.596
48.65000 178.955
48.66000 180.221
48.67000 178.873
48.68000 177.563
48.69000 179.593
48.70000 182.875
48.71000 186.143
48.72000 189.241
48.73000 192.290
48.74000 194.520
48.75000 191.248
48.76000 186.953
48.77000 183.404
48.78000 186.403
48.79000 189.488
48.80000 191.036
48.81000 188.233
48.82000 185.166
48.83000 183.620
48.84000 184.959
48.85000 186.367
48.86000 187.151
48.87000 189.867
48.88000 191.742
48.89000 191.574
48.90000 189.776
48.91000 187.975
48.92000 186.080
48.93000 184.134
48.94000 182.273
48.95000 180.958
48.96000 179.912
48.97000 179.400
48.98000 183.572
48.99000 188.841
49.00000 192.944
49.01000 190.791
49.02000 187.707
49.03000 185.267
49.04000 187.202
49.05000 189.061
49.06000 190.177
49.07000 189.553
49.08000 188.856
49.09000 184.560
49.10000 174.637
49.11000 164.646
49.12000 159.626
49.13000 169.482
49.14000 176.015
49.15000 178.113
49.16000 177.324
49.17000 176.568
49.18000 176.657
49.19000 177.112
49.20000 177.539
49.21000 179.615
49.22000 181.947
49.23000 183.687
49.24000 181.367
49.25000 178.276
49.26000 175.874
49.27000 176.466
49.28000 177.408
49.29000 178.118
49.30000 185.385
49.31000 191.399
49.32000 193.485
49.33000 187.970
49.34000 182.263
49.35000 178.409
49.36000 176.922
49.37000 175.447
49.38000 173.238
49.39000 170.442
49.40000 167.719
49.41000 168.144
49.42000 170.258
49.43000 172.339
49.44000 173.880
49.45000 175.225
49.46000 176.460
49.47000 176.984
49.48000 177.299
49.49000 177.994
49.50000 180.774
49.51000 183.870
49.52000 186.008
49.53000 184.726
49.54000 183.141
49.55000 182.010
49.56000 182.294
49.57000 182.557
49.58000 181.285
49.59000 177.570
49.60000 173.822
49.61000 173.560
49.62000 176.895
49.63000 180.210
49.64000 180.632
49.65000 179.152
49.66000 177.765
49.67000 178.794
49.68000 180.894
49.69000 182.873
49.70000 183.365
49.71000 183.415
49.72000 183.461
49.73000 182.441
49.74000 181.372
49.75000 180.611
49.76000 181.217
49.77000 181.987
49.78000 182.681
49.79000 183.153
49.80000 183.611
49.81000 183.918
49.82000 189.377
49.83000 193.528
49.84000 193.279
49.85000 187.291
49.86000 181.292
49.87000 181.269
49.88000 186.208
49.89000 191.080
49.90000 190.335
49.91000 186.630
49.92000 183.093
49.93000 182.529
49.94000 183.053
49.95000 183.610
49.96000 184.472
49.97000 185.408
49.98000 186.219
49.99000 184.882
50.00000 183.460
50.01000 183.261
50.02000 187.505
50.03000 192.155
50.04000 195.178
50.05000 194.251
50.06000 193.146
50.07000 192.459
50.08000 193.075
50.09000 193.532
50.10000 194.667
50.11000 196.516
50.12000 198.340
50.13000 197.255
50.14000 194.200
50.15000 191.220
50.16000 190.409
50.17000 190.568
50.18000 190.759
50.19000 191.349
50.20000 192.059
50.21000 193.675
50.22000 201.817
50.23000 211.250
50.24000 219.134
50.25000 212.244
50.26000 205.023
50.27000 200.765
50.28000 205.374
50.29000 210.579
50.30000 214.266
50.31000 214.906
50.32000 215.461
50.33000 215.778
50.34000 230.834
50.35000 241.388
50.36000 246.142
50.37000 245.979
50.38000 245.839
50.39000 246.869
50.40000 248.549
50.41000 250.165
50.42000 256.585
50.43000 264.283
50.44000 271.429
50.45000 273.346
50.46000 273.964
50.47000 274.907
50.48000 277.717
50.49000 280.822
50.50000 283.314
50.51000 294.038
50.52000 303.348
50.53000 309.629
50.54000 308.415
50.55000 306.852
50.56000 306.548
50.57000 308.326
50.58000 310.136
50.59000 311.075
50.60000 317.688
50.61000 322.095
50.62000 319.368
50.63000 311.717
50.64000 304.240
50.65000 301.764
50.66000 301.587
50.67000 301.420
50.68000 292.377
50.69000 281.568
50.70000 272.083
50.71000 272.355
50.72000 274.598
50.73000 275.579
50.74000 270.714
50.75000 265.116
50.76000 260.831
50.77000 260.318
50.78000 260.118
50.79000 258.867
50.80000 255.461
50.81000 251.991
50.82000 246.744
50.83000 239.084
50.84000 231.416
50.85000 229.166
50.86000 231.602
50.87000 233.950
50.88000 231.676
50.89000 226.780
50.90000 221.930
50.91000 217.961
50.92000 214.326
50.93000 210.966
50.94000 208.260
50.95000 205.979
50.96000 204.795
50.97000 210.029
50.98000 216.306
50.99000 220.093
51.00000 214.469
51.01000 207.937
51.02000 203.198
51.03000 194.687
51.04000 188.005
51.05000 185.328
51.06000 189.410
51.07000 193.602
51.08000 196.169
51.09000 196.948
51.10000 197.722
51.11000 193.437
51.12000 185.668
51.13000 178.179
51.14000 179.103
51.15000 183.967
51.16000 188.163
51.17000 183.396
51.18000 175.814
51.19000 168.983
51.20000 171.232
51.21000 174.850
51.22000 177.804
51.23000 177.631
51.24000 177.056
51.25000 177.173
51.26000 179.443
51.27000 181.867
51.28000 183.522
51.29000 178.967
51.30000 175.415
51.31000 174.531
51.32000 177.340
51.33000 180.169
51.34000 178.713
51.35000 173.469
51.36000 168.283
51.37000 165.667
51.38000 164.562
51.39000 163.608
51.40000 165.617
51.41000 168.774
51.42000 171.809
51.43000 173.623
51.44000 175.123
51.45000 176.434
51.46000 171.273
51.47000 165.930
51.48000 162.312
51.49000 165.346
51.50000 169.039
51.51000 171.939
51.52000 172.800
51.53000 173.558
51.54000 174.041
51.55000 166.597
51.56000 161.088
51.57000 160.794
51.58000 166.363
51.59000 171.893
51.60000 170.849
51.61000 165.082
51.62000 159.437
51.63000 161.760
51.64000 167.645
51.65000 173.297
51.66000 175.731
51.67000 177.134
51.68000 178.190
51.69000 176.551
51.70000 174.345
51.71000 172.481
51.72000 165.627
51.73000 159.345
51.74000 155.379
51.75000 158.749
51.76000 162.661
51.77000 165.296
51.78000 165.222
51.79000 165.059
51.80000 164.963
51.81000 167.906
51.82000 169.995
51.83000 170.472
51.84000 169.496
51.85000 168.552
51.86000 169.615
51.87000 171.861
51.88000 174.031
51.89000 170.417
51.90000 164.858
51.91000 159.676
51.92000 158.368
51.93000 158.080
51.94000 158.694
51.95000 164.827
51.96000 171.897
51.97000 177.640
51.98000 177.062
51.99000 176.066
52.00000 174.822
52.01000 172.927
52.02000 170.997
52.03000 168.014
52.04000 163.181
52.05000 158.314
52.06000 155.712
52.07000 152.939
52.08000 151.075
52.09000 153.790
52.10000 159.862
52.11000 165.759
52.12000 165.867
52.13000 163.160
52.14000 160.589
52.15000 161.923
52.16000 164.332
52.17000 166.477
52.18000 166.540
52.19000 166.156
52.20000 165.045
52.21000 160.357
52.22000 155.188
52.23000 151.173
52.24000 160.239
52.25000 168.241
52.26000 173.549
52.27000 173.027
52.28000 172.305
52.29000 170.039
52.30000 165.547
52.31000 161.038
52.32000 160.617
52.33000 163.965
52.34000 167.270
52.35000 167.815
52.36000 166.703
52.37000 165.581
52.38000 164.255
52.39000 162.847
52.40000 161.536
52.41000 162.606
52.42000 164.149
52.43000 165.307
52.44000 164.053
52.45000 162.380
52.46000 161.487
52.47000 163.718
52.48000 166.275
52.49000 168.162
52.50000 164.120
52.51000 160.740
52.52000 158.663
52.53000 158.916
52.54000 159.215
52.55000 159.915
52.56000 161.086
52.57000 162.253
52.58000 165.025
52.59000 168.967
52.60000 172.716
52.61000 169.728
52.62000 163.405
52.63000 157.380
52.64000 155.765
52.65000 155.615
52.66000 155.479
52.67000 159.546
52.68000 163.953
52.69000 168.133
52.70000 171.170
52.71000 174.050
52.72000 175.091
52.73000 170.083
52.74000 164.600
52.75000 160.787
52.76000 164.524
52.77000 167.545
52.78000 169.247
52.79000 169.009
52.80000 168.753
52.81000 167.141
52.82000 164.251
52.83000 161.386
52.84000 162.879
52.85000 166.961
52.86000 170.723
52.87000 167.440
52.88000 161.270
52.89000 155.801
52.90000 157.946
52.91000 162.175
52.92000 165.908
52.93000 159.105
52.94000 151.622
52.95000 146.482
52.96000 150.916
52.97000 156.377
52.98000 161.712
52.99000 166.704
53.00000 171.676
53.01000 174.910
53.02000 167.681
53.03000 162.222
53.04000 161.837
53.05000 167.524
53.06000 173.204
53.07000 174.585
53.08000 172.688
53.09000 170.824
53.10000 169.718
53.11000 169.019
53.12000 168.361
53.13000 168.326
53.14000 168.502
53.15000 168.564
53.16000 167.675
53.17000 166.574
53.18000 165.633
53.19000 166.554
53.20000 167.551
53.21000 168.906
53.22000 171.462
53.23000 174.116
53.24000 173.789
53.25000 166.766
53.26000 159.492
53.27000 155.113
53.28000 160.618
53.29000 164.603
53.30000 165.298
53.31000 162.826
53.32000 160.386
53.33000 160.383
53.34000 161.900
53.35000 163.372
53.36000 164.534
53.37000 165.512
53.38000 166.912
53.39000 173.037
53.40000 180.480
53.41000 186.199
53.42000 180.646
53.43000 173.049
53.44000 166.803
53.45000 164.938
53.46000 163.802
53.47000 163.520
53.48000 165.605
53.49000 167.827
53.50000 169.129
53.51000 168.725
53.52000 168.283
53.53000 168.039
53.54000 164.687
53.55000 162.386
53.56000 163.549
53.57000 167.407
53.58000 171.127
53.59000 169.459
53.60000 165.020
53.61000 160.781
53.62000 157.309
53.63000 154.328
53.64000 152.811
53.65000 163.772
53.66000 177.582
53.67000 187.961
53.68000 180.372
53.69000 170.185
53.70000 162.164
53.71000 162.977
53.72000 164.218
53.73000 165.644
53.74000 167.493
53.75000 169.359
53.76000 167.352
53.77000 159.430
53.78000 151.445
53.79000 148.294
53.80000 149.900
53.81000 151.496
53.82000 152.304
53.83000 152.610
53.84000 152.987
53.85000 155.055
53.86000 157.843
53.87000 160.453
53.88000 164.765
53.89000 169.126
53.90000 172.341
53.91000 167.883
53.92000 162.005
53.93000 157.012
53.94000 155.783
53.95000 154.980
53.96000 154.377
53.97000 151.199
53.98000 148.596
53.99000 147.974
54.00000 151.099
54.01000 154.314
54.02000 156.334
54.03000 156.865
54.04000 157.391
54.05000 157.546
54.06000 157.408
54.07000 157.290
54.08000 157.961
54.09000 159.047
54.10000 160.142
54.11000 161.397
54.12000 162.707
54.13000 163.906
54.14000 163.354
54.15000 162.500
54.16000 162.354
54.17000 165.997
54.18000 170.200
54.19000 172.142
54.20000 166.202
54.21000 159.587
54.22000 154.901
54.23000 155.304
54.24000 155.768
54.25000 155.824
54.26000 155.243
54.27000 154.655
54.28000 156.760
54.29000 161.575
54.30000 166.357
54.31000 166.667
54.32000 164.116
54.33000 161.541
54.34000 158.379
54.35000 154.962
54.36000 151.845
54.37000 152.273
54.38000 153.729
54.39000 155.025
54.40000 153.917
54.41000 152.559
54.42000 151.758
54.43000 153.376
54.44000 155.275
54.45000 156.842
54.46000 157.458
54.47000 158.014
54.48000 158.383
54.49000 155.982
54.50000 154.157
54.51000 154.497
54.52000 157.596
54.53000 160.698
54.54000 161.586
54.55000 160.679
54.56000 159.786
54.57000 158.293
54.58000 156.533
54.59000 154.933
54.60000 156.022
54.61000 158.074
54.62000 159.635
54.63000 156.789
54.64000 152.897
54.65000 149.538
54.66000 153.241
54.67000 157.289
54.68000 159.976
54.69000 157.826
54.70000 155.250
54.71000 153.111
54.72000 152.014
54.73000 150.961
54.74000 150.312
54.75000 155.852
54.76000 159.886
54.77000 162.800
54.78000 164.564
54.79000 166.296
54.80000 164.959
54.81000 161.591
54.82000 158.310
54.83000 157.803
54.84000 158.486
54.85000 159.281
54.86000 161.440
54.87000 164.002
54.88000 165.601
54.89000 160.457
54.90000 154.011
54.91000 148.648
54.92000 149.560
54.93000 150.933
54.94000 152.897
54.95000 156.590
54.96000 160.395
54.97000 163.030
54.98000 163.365
54.99000 163.640
55.00000 163.795
55.01000 171.046
55.02000 176.097
55.03000 174.853
55.04000 168.401
55.05000 162.070
55.06000 161.327
55.07000 163.624
55.08000 165.829
55.09000 167.137
55.10000 168.053
55.11000 168.913
55.12000 169.248
55.13000 169.455
55.14000 169.986
55.15000 172.317
55.16000 174.928
55.17000 177.011
55.18000 174.851
55.19000 172.797
55.20000 172.949
55.21000 178.441
55.22000 184.171
55.23000 187.334
55.24000 186.342
55.25000 185.293
55.26000 184.756
55.27000 188.741
55.28000 191.425
55.29000 194.699
55.30000 198.371
55.31000 201.974
55.32000 203.701
55.33000 204.584
55.34000 205.416
55.35000 206.466
55.36000 207.487
55.37000 208.971
55.38000 213.772
55.39000 219.227
55.40000 225.293
55.41000 234.112
55.42000 243.268
55.43000 250.234
55.44000 255.131
55.45000 258.876
55.46000 266.081
55.47000 280.214
55.48000 294.539
55.49000 306.192
55.50000 314.303
55.51000 322.389
55.52000 335.050
55.53000 351.533
55.54000 367.919
55.55000 379.521
55.56000 388.470
55.57000 397.903
55.58000 416.100
55.59000 437.555
55.60000 457.332
55.61000 473.626
55.62000 487.445
55.63000 503.288
55.64000 530.682
55.65000 559.905
55.66000 590.074
55.67000 623.740
55.68000 657.733
55.69000 682.230
55.70000 695.321
55.71000 704.945
55.72000 722.257
55.73000 752.253
55.74000 782.437
55.75000 806.071
55.76000 822.673
55.77000 839.191
55.78000 848.138
55.79000 851.834
55.80000 855.779
55.81000 866.846
55.82000 881.175
55.83000 894.340
55.84000 892.444
55.85000 885.924
55.86000 880.069
55.87000 880.790
55.88000 882.579
55.89000 881.818
55.90000 869.302
55.91000 855.320
55.92000 839.793
55.93000 819.574
55.94000 799.032
55.95000 785.118
55.96000 744.946
55.97000 714.429
55.98000 693.205
55.99000 684.546
56.00000 675.945
56.01000 658.852
56.02000 634.436
56.03000 610.314
56.04000 590.928
56.05000 574.638
56.06000 557.858
56.07000 531.894
56.08000 502.449
56.09000 474.618
56.10000 462.436
56.11000 454.199
56.12000 447.022
56.13000 426.879
56.14000 407.873
56.15000 388.629
56.16000 368.485
56.17000 348.256
56.18000 331.552
56.19000 323.707
56.20000 316.289
56.21000 311.609
56.22000 293.613
56.23000 280.428
56.24000 270.861
56.25000 265.261
56.26000 259.653
56.27000 252.646
56.28000 244.659
56.29000 236.850
56.30000 230.772
56.31000 225.720
56.32000 220.756
56.33000 216.956
56.34000 213.521
56.35000 210.026
56.36000 206.083
56.37000 202.048
56.38000 198.653
56.39000 200.004
56.40000 201.636
56.41000 201.376
56.42000 195.252
56.43000 188.712
56.44000 184.719
56.45000 186.018
56.46000 187.480
56.47000 188.330
56.48000 181.018
56.49000 175.851
56.50000 174.514
56.51000 176.551
56.52000 178.536
56.53000 177.598
56.54000 174.978
56.55000 172.451
56.56000 174.026
56.57000 176.995
56.58000 179.442
56.59000 176.673
56.60000 172.564
56.61000 168.818
56.62000 167.241
56.63000 166.022
56.64000 165.037
56.65000 162.320
56.66000 159.971
56.67000 157.615
56.68000 155.239
56.69000 152.862
56.70000 152.212
56.71000 154.522
56.72000 156.883
56.73000 158.131
56.74000 167.884
56.75000 174.457
56.76000 172.615
56.77000 164.752
56.78000 157.085
56.79000 155.535
56.80000 156.893
56.81000 158.181
56.82000 158.070
56.83000 157.558
56.84000 157.080
56.85000 156.870
56.86000 156.715
56.87000 156.185
56.88000 153.853
56.89000 151.285
56.90000 149.302
56.91000 152.790
56.92000 155.874
56.93000 157.778
56.94000 157.186
56.95000 156.513
56.96000 156.662
56.97000 157.968
56.98000 159.282
56.99000 158.206
57.00000 154.983
57.01000 151.833
57.02000 153.034
57.03000 156.790
57.04000 160.290
57.05000 158.605
57.06000 154.883
57.07000 151.427
57.08000 154.756
57.09000 159.360
57.10000 163.002
57.11000 160.792
57.12000 157.592
57.13000 153.683
57.14000 147.002
57.15000 140.040
57.16000 134.938
57.17000 134.880
57.18000 135.038
57.19000 136.981
57.20000 142.046
57.21000 147.167
57.22000 150.127
57.23000 150.616
57.24000 151.100
57.25000 149.703
57.26000 146.957
57.27000 144.332
57.28000 145.711
57.29000 149.029
57.30000 152.158
57.31000 152.589
57.32000 152.144
57.33000 151.741
57.34000 148.536
57.35000 145.183
57.36000 142.460
57.37000 142.821
57.38000 143.596
57.39000 144.732
57.40000 147.029
57.41000 149.413
57.42000 151.060
57.43000 153.006
57.44000 154.477
57.45000 154.150
57.46000 151.245
57.47000 148.321
57.48000 148.370
57.49000 151.150
57.50000 153.904
57.51000 154.290
57.52000 153.282
57.53000 152.209
57.54000 149.788
57.55000 146.827
57.56000 143.775
57.57000 139.767
57.58000 135.503
57.59000 131.752
57.60000 135.568
57.61000 139.978
57.62000 143.811
57.63000 145.347
57.64000 146.644
57.65000 147.343
57.66000 146.454
57.67000 145.479
57.68000 144.851
57.69000 143.234
57.70000 142.038
57.71000 142.080
57.72000 143.565
57.73000 145.045
57.74000 144.939
57.75000 143.652
57.76000 142.390
57.77000 141.787
57.78000 141.521
57.79000 141.374
57.80000 142.989
57.81000 145.186
57.82000 147.606
57.83000 151.817
57.84000 156.420
57.85000 160.334
57.86000 156.104
57.87000 151.612
57.88000 146.568
57.89000 139.715
57.90000 132.722
57.91000 127.915
57.92000 127.911
57.93000 128.078
57.94000 128.178
57.95000 134.893
57.96000 139.692
57.97000 144.542
57.98000 149.438
57.99000 154.247
58.00000 152.998
58.01000 148.054
58.02000 143.266
58.03000 141.603
58.04000 141.237
58.05000 140.838
58.06000 140.072
58.07000 139.206
58.08000 138.492
58.09000 138.745
58.10000 139.168
58.11000 139.515
58.12000 139.031
58.13000 138.561
58.14000 137.899
58.15000 136.718
58.16000 135.508
58.17000 133.958
58.18000 131.792
58.19000 129.612
58.20000 128.426
58.21000 133.737
58.22000 137.380
58.23000 139.006
58.24000 139.100
58.25000 139.292
58.26000 143.061
58.27000 148.630
58.28000 153.938
58.29000 150.679
58.30000 144.979
58.31000 139.849
58.32000 139.434
58.33000 140.070
58.34000 140.708
58.35000 141.354
58.36000 142.001
58.37000 142.507
58.38000 145.871
58.39000 148.741
58.40000 150.043
58.41000 147.832
58.42000 145.490
58.43000 142.691
58.44000 139.209
58.45000 135.721
58.46000 134.325
58.47000 134.934
58.48000 135.589
58.49000 139.702
58.50000 145.966
58.51000 151.906
58.52000 150.444
58.53000 145.906
58.54000 141.666
58.55000 138.342
58.56000 135.557
58.57000 133.558
58.58000 136.680
58.59000 140.726
58.60000 143.430
58.61000 140.560
58.62000 137.080
58.63000 134.489
58.64000 132.748
58.65000 131.432
58.66000 130.407
58.67000 129.921
58.68000 129.448
58.69000 132.147
58.70000 138.707
58.71000 145.262
58.72000 147.915
58.73000 147.546
58.74000 147.029
58.75000 140.826
58.76000 131.710
58.77000 123.329
58.78000 126.475
58.79000 133.583
58.80000 140.069
58.81000 135.142
58.82000 128.468
58.83000 123.232
58.84000 125.494
58.85000 128.835
58.86000 132.202
58.87000 135.659
58.88000 139.123
58.89000 141.558
58.90000 143.306
58.91000 144.609
58.92000 143.623
58.93000 139.151
58.94000 134.642
58.95000 130.405
58.96000 126.435
58.97000 122.494
58.98000 126.239
58.99000 134.714
59.00000 142.901
59.01000 144.267
59.02000 142.744
59.03000 141.197
59.04000 139.385
59.05000 137.498
59.06000 135.823
59.07000 134.480
59.08000 133.369
59.09000 132.710
59.10000 133.968
59.11000 135.442
59.12000 136.015
59.13000 134.060
59.14000 131.952
59.15000 130.564
59.16000 132.221
59.17000 133.493
59.18000 134.554
59.19000 135.350
59.20000 136.148
59.21000 137.626
59.22000 139.643
59.23000 141.627
59.24000 142.538
59.25000 142.878
59.26000 143.197
59.27000 143.188
59.28000 143.063
59.29000 142.421
59.30000 137.265
59.31000 131.062
59.32000 125.731
59.33000 128.907
59.34000 132.654
59.35000 135.882
59.36000 137.310
59.37000 138.585
59.38000 139.550
59.39000 139.794
59.40000 140.009
59.41000 140.141
59.42000 129.062
59.43000 121.046
59.44000 120.171
59.45000 126.449
59.46000 132.654
59.47000 132.477
59.48000 128.174
59.49000 123.990
59.50000 126.558
59.51000 131.774
59.52000 136.569
59.53000 136.418
59.54000 134.837
59.55000 133.774
59.56000 136.235
59.57000 139.359
59.58000 141.947
59.59000 140.997
59.60000 139.877
59.61000 138.404
59.62000 135.925
59.63000 133.383
59.64000 132.992
59.65000 136.731
59.66000 140.573
59.67000 142.724
59.68000 141.496
59.69000 140.634
59.70000 138.762
59.71000 136.074
59.72000 133.450
59.73000 133.586
59.74000 135.190
59.75000 136.727
59.76000 135.483
59.77000 133.397
59.78000 131.267
59.79000 128.735
59.80000 126.109
59.81000 124.673
59.82000 129.722
59.83000 135.748
59.84000 140.531
59.85000 138.941
59.86000 137.211
59.87000 135.690
59.88000 134.663
59.89000 133.657
59.90000 133.717
59.91000 135.462
59.92000 137.228
59.93000 138.121
59.94000 138.371
59.95000 138.527
59.96000 137.540
59.97000 135.800
59.98000 134.057
59.99000 132.233
60.00000 130.373
60.01000 128.625
60.02000 127.308
60.03000 126.222
60.04000 125.122
60.05000 123.923
60.06000 122.706
60.07000 121.878
60.08000 122.772
60.09000 123.869
60.10000 124.699
60.11000 126.636
60.12000 128.211
60.13000 130.205
60.14000 133.017
60.15000 135.850
60.16000 137.398
60.17000 137.283
60.18000 137.161
60.19000 138.134
60.20000 140.004
60.21000 141.844
60.22000 142.281
60.23000 141.958
60.24000 141.706
60.25000 142.676
60.26000 144.092
60.27000 145.393
60.28000 141.864
60.29000 137.671
60.30000 134.224
60.31000 134.924
60.32000 136.263
60.33000 137.342
60.34000 137.486
60.35000 137.545
60.36000 137.588
60.37000 136.838
60.38000 136.238
60.39000 135.249
60.40000 133.631
60.41000 132.006
60.42000 130.322
60.43000 128.579
60.44000 126.846
60.45000 128.381
60.46000 132.063
60.47000 135.625
60.48000 135.910
60.49000 134.727
60.50000 133.550
60.51000 132.431
60.52000 131.329
60.53000 130.343
60.54000 131.459
60.55000 132.793
60.56000 133.605
60.57000 132.069
60.58000 130.247
60.59000 128.549
60.60000 127.214
60.61000 125.904
60.62000 125.024
60.63000 125.828
60.64000 126.460
60.65000 129.001
60.66000 134.063
60.67000 139.126
60.68000 138.909
60.69000 134.248
60.70000 129.649
60.71000 133.256
60.72000 141.179
60.73000 148.609
60.74000 147.189
60.75000 142.489
60.76000 138.214
60.77000 137.935
60.78000 138.640
60.79000 139.253
60.80000 137.376
60.81000 135.443
60.82000 133.669
60.83000 132.486
60.84000 131.357
60.85000 130.669
60.86000 131.065
60.87000 131.510
60.88000 131.789
60.89000 133.075
60.90000 134.015
60.91000 135.571
60.92000 137.787
60.93000 139.983
60.94000 139.678
60.95000 137.661
60.96000 135.691
60.97000 135.941
60.98000 137.149
60.99000 138.162
61.00000 136.657
61.01000 134.382
61.02000 132.598
61.03000 134.397
61.04000 136.915
61.05000 139.023
61.06000 137.823
61.07000 136.484
61.08000 135.176
61.09000 133.962
61.10000 132.755
61.11000 132.990
61.12000 136.154
61.13000 139.404
61.14000 141.274
61.15000 133.368
61.16000 127.806
61.17000 126.963
61.18000 130.173
61.19000 133.381
61.20000 136.503
61.21000 139.578
61.22000 142.537
61.23000 141.960
61.24000 140.167
61.25000 138.576
61.26000 138.947
61.27000 139.811
61.28000 140.251
61.29000 138.225
61.30000 135.803
61.31000 133.855
61.32000 135.777
61.33000 137.635
61.34000 139.513
61.35000 141.440
61.36000 143.369
61.37000 143.367
61.38000 140.130
61.39000 136.842
61.40000 135.126
61.41000 136.205
61.42000 136.949
61.43000 139.526
61.44000 143.382
61.45000 147.221
61.46000 150.528
61.47000 153.587
61.48000 156.481
61.49000 160.260
61.50000 163.988
61.51000 169.489
61.52000 188.258
61.53000 209.742
61.54000 229.788
61.55000 243.089
61.56000 255.533
61.57000 265.086
61.58000 292.614
61.59000 315.379
61.60000 335.130
61.61000 348.643
61.62000 361.966
61.63000 374.596
61.64000 386.276
61.65000 397.943
61.66000 406.455
61.67000 412.191
61.68000 417.781
61.69000 415.328
61.70000 408.259
61.71000 401.594
61.72000 402.756
61.73000 406.928
61.74000 410.790
61.75000 400.627
61.76000 388.261
61.77000 374.245
61.78000 350.444
61.79000 325.031
61.80000 300.239
61.81000 277.827
61.82000 255.648
61.83000 239.501
61.84000 213.736
61.85000 193.533
61.86000 180.767
61.87000 180.704
61.88000 180.856
61.89000 178.227
61.90000 172.497
61.91000 166.788
61.92000 161.605
61.93000 156.845
61.94000 152.209
61.95000 151.456
61.96000 152.541
61.97000 153.399
61.98000 151.139
61.99000 147.888
62.00000 144.954
62.01000 145.407
62.02000 146.427
62.03000 147.448
62.04000 148.473
62.05000 149.500
62.06000 150.623
62.07000 152.052
62.08000 153.504
62.09000 154.498
62.10000 149.381
62.11000 145.401
62.12000 144.006
62.13000 146.234
62.14000 148.483
62.15000 145.834
62.16000 138.797
62.17000 131.835
62.18000 134.480
62.19000 142.561
62.20000 150.196
62.21000 148.856
62.22000 144.001
62.23000 139.366
62.24000 136.964
62.25000 135.147
62.26000 133.554
62.27000 139.221
62.28000 145.134
62.29000 149.514
62.30000 147.916
62.31000 145.715
62.32000 144.928
62.33000 147.811
62.34000 150.884
62.35000 152.849
62.36000 146.919
62.37000 142.498
62.38000 140.978
62.39000 142.762
62.40000 144.527
62.41000 142.532
62.42000 137.804
62.43000 133.171
62.44000 136.130
62.45000 142.498
62.46000 148.144
62.47000 143.589
62.48000 135.733
62.49000 129.462
62.50000 135.634
62.51000 144.459
62.52000 151.934
62.53000 154.267
62.54000 155.646
62.55000 156.658
62.56000 156.496
62.57000 156.246
62.58000 157.483
62.59000 161.918
62.60000 166.460
62.61000 169.141
62.62000 153.773
62.63000 142.826
62.64000 138.186
62.65000 139.318
62.66000 140.465
62.67000 142.641
62.68000 145.431
62.69000 148.128
62.70000 148.132
62.71000 147.120
62.72000 146.643
62.73000 151.769
62.74000 158.388
62.75000 162.973
62.76000 154.955
62.77000 144.767
62.78000 136.470
62.79000 144.782
62.80000 152.977
62.81000 158.379
62.82000 156.389
62.83000 154.004
62.84000 152.123
62.85000 151.139
62.86000 150.172
62.87000 149.652
62.88000 147.698
62.89000 146.358
62.90000 144.509
62.91000 142.283
62.92000 140.158
62.93000 141.502
62.94000 144.551
62.95000 147.451
62.96000 147.040
62.97000 145.650
62.98000 144.086
62.99000 141.120
63.00000 137.849
63.01000 136.288
63.02000 143.257
63.03000 151.392
63.04000 157.728
63.05000 154.375
63.06000 151.105
63.07000 148.759
63.08000 148.434
63.09000 148.180
63.10000 150.199
63.11000 155.530
63.12000 160.888
63.13000 160.063
63.14000 153.461
63.15000 146.947
63.16000 146.458
63.17000 149.629
63.18000 152.691
63.19000 153.369
63.20000 153.079
63.21000 152.808
63.22000 150.492
63.23000 147.893
63.24000 145.445
63.25000 143.954
63.26000 142.631
63.27000 141.540
63.28000 141.386
63.29000 141.333
63.30000 141.293
63.31000 144.422
63.32000 146.986
63.33000 148.272
63.34000 147.247
63.35000 146.174
63.36000 146.727
63.37000 149.211
63.38000 151.693
63.39000 153.175
63.40000 153.896
63.41000 154.613
63.42000 155.185
63.43000 155.684
63.44000 156.011
63.45000 153.739
63.46000 150.592
63.47000 147.730
63.48000 146.541
63.49000 145.817
63.50000 145.104
63.51000 144.443
63.52000 143.790
63.53000 143.627
63.54000 145.101
63.55000 146.705
63.56000 147.825
63.57000 147.771
63.58000 147.697
63.59000 147.810
63.60000 148.199
63.61000 148.591
63.62000 150.810
63.63000 154.773
63.64000 158.703
63.65000 160.034
63.66000 159.758
63.67000 159.413
63.68000 157.500
63.69000 154.937
63.70000 152.574
63.71000 152.424
63.72000 152.886
63.73000 153.294
63.74000 156.484
63.75000 159.672
63.76000 162.030
63.77000 160.955
63.78000 159.505
63.79000 158.809
63.80000 160.184
63.81000 161.678
63.82000 162.654
63.83000 161.524
63.84000 160.660
63.85000 159.151
63.86000 156.859
63.87000 154.576
63.88000 154.810
63.89000 156.988
63.90000 159.128
63.91000 158.834
63.92000 157.349
63.93000 155.834
63.94000 153.862
63.95000 151.732
63.96000 150.191
63.97000 153.635
63.98000 158.207
63.99000 162.121
64.00000 160.510
64.01000 158.483
64.02000 157.567
64.03000 160.422
64.04000 163.587
64.05000 166.361
64.06000 168.246
64.07000 170.097
64.08000 171.217
64.09000 164.740
64.10000 160.069
64.11000 159.354
64.12000 162.501
64.13000 165.612
64.14000 165.941
64.15000 164.514
64.16000 163.127
64.17000 163.086
64.18000 163.585
64.19000 163.965
64.20000 162.980
64.21000 161.611
64.22000 160.775
64.23000 163.478
64.24000 166.831
64.25000 169.595
64.26000 170.051
64.27000 170.214
64.28000 169.444
64.29000 166.063
64.30000 162.526
64.31000 161.307
64.32000 164.440
64.33000 167.673
64.34000 169.464
64.35000 171.115
64.36000 172.253
64.37000 172.919
64.38000 173.213
64.39000 173.510
64.40000 173.916
64.41000 174.378
64.42000 174.820
64.43000 171.506
64.44000 167.203
64.45000 163.530
64.46000 165.326
64.47000 168.386
64.48000 170.892
64.49000 170.463
64.50000 169.603
64.51000 168.924
64.52000 170.988
64.53000 172.831
64.54000 173.534
64.55000 171.599
64.56000 169.558
64.57000 169.864
64.58000 173.800
64.59000 177.777
64.60000 179.614
64.61000 179.316
64.62000 179.012
64.63000 178.156
64.64000 176.944
64.65000 175.885
64.66000 178.594
64.67000 182.924
64.68000 186.984
64.69000 184.877
64.70000 181.341
64.71000 178.327
64.72000 178.853
64.73000 180.043
64.74000 181.756
64.75000 185.722
64.76000 189.946
64.77000 193.122
64.78000 192.752
64.79000 192.292
64.80000 194.836
64.81000 203.130
64.82000 211.566
64.83000 213.038
64.84000 205.716
64.85000 198.377
64.86000 197.448
64.87000 201.655
64.88000 205.835
64.89000 208.793
64.90000 211.105
64.91000 213.442
64.92000 216.194
64.93000 219.094
64.94000 221.752
64.95000 225.625
64.96000 229.330
64.97000 232.746
64.98000 234.593
64.99000 236.205
65.00000 238.242
65.01000 241.783
65.02000 245.456
65.03000 248.066
65.04000 244.633
65.05000 241.825
65.06000 247.461
65.07000 266.404
65.08000 285.510
65.09000 293.799
65.10000 291.059
65.11000 288.336
65.12000 293.907
65.13000 304.765
65.14000 315.430
65.15000 321.158
65.16000 324.722
65.17000 328.063
65.18000 328.711
65.19000 328.568
65.20000 328.441
65.21000 333.973
65.22000 339.731
65.23000 347.283
65.24000 362.720
65.25000 379.084
65.26000 391.597
65.27000 392.915
65.28000 393.520
65.29000 393.924
65.30000 400.378
65.31000 405.273
65.32000 410.790
65.33000 417.109
65.34000 423.433
65.35000 430.523
65.36000 438.243
65.37000 445.854
65.38000 457.468
65.39000 470.849
65.40000 483.577
65.41000 485.026
65.42000 482.388
65.43000 480.805
65.44000 488.838
65.45000 499.184
65.46000 508.130
65.47000 504.775
65.48000 500.320
65.49000 495.496
65.50000 489.340
65.51000 483.066
65.52000 478.281
65.53000 477.077
65.54000 476.030
65.55000 475.382
65.56000 475.395
65.57000 475.411
65.58000 481.118
65.59000 492.754
65.60000 504.362
65.61000 513.067
65.62000 519.829
65.63000 526.420
65.64000 542.178
65.65000 561.125
65.66000 581.640
65.67000 621.637
65.68000 667.458
65.69000 715.657
65.70000 780.758
65.71000 849.165
65.72000 906.212
65.73000 1027.024
65.74000 1133.567
65.75000 1239.087
65.76000 1341.576
65.77000 1443.865
65.78000 1534.876
65.79000 1603.480
65.80000 1671.472
65.81000 1710.170
65.82000 1793.756
65.83000 1852.117
65.84000 1889.684
65.85000 1909.824
65.86000 1929.458
65.87000 1924.787
65.88000 1906.734
65.89000 1889.391
65.90000 1863.766
65.91000 1836.918
65.92000 1806.788
65.93000 1745.946
65.94000 1677.567
65.95000 1602.376
65.96000 1488.648
65.97000 1368.871
65.98000 1273.030
65.99000 1127.455
66.00000 1006.034
66.01000 895.662
66.02000 812.348
66.03000 730.267
66.04000 658.656
66.05000 604.196
66.06000 549.982
66.07000 522.024
66.08000 486.751
66.09000 462.993
66.10000 439.709
66.11000 416.747
66.12000 394.364
66.13000 388.179
66.14000 389.359
66.15000 390.473
66.16000 392.113
66.17000 393.764
66.18000 394.267
66.19000 386.424
66.20000 376.915
66.21000 369.729
66.22000 373.172
66.23000 377.929
66.24000 381.560
66.25000 418.664
66.26000 449.699
66.27000 474.420
66.28000 486.359
66.29000 497.930
66.30000 509.097
66.31000 519.724
66.32000 530.340
66.33000 548.749
66.34000 573.770
66.35000 598.557
66.36000 611.345
66.37000 617.401
66.38000 623.878
66.39000 638.150
66.40000 655.354
66.41000 671.236
66.42000 676.088
66.43000 677.963
66.44000 677.484
66.45000 663.398
66.46000 647.129
66.47000 633.313
66.48000 628.666
66.49000 624.890
66.50000 622.158
66.51000 590.828
66.52000 565.742
66.53000 542.070
66.54000 520.758
66.55000 499.483
66.56000 477.987
66.57000 456.250
66.58000 434.614
66.59000 420.730
66.60000 412.339
66.61000 404.005
66.62000 397.387
66.63000 391.562
66.64000 386.439
66.65000 390.578
66.66000 397.592
66.67000 403.902
66.68000 391.444
66.69000 377.175
66.70000 365.729
66.71000 367.454
66.72000 370.849
66.73000 373.520
66.74000 373.968
66.75000 374.260
66.76000 374.459
66.77000 382.659
66.78000 388.963
66.79000 391.749
66.80000 389.720
66.81000 387.662
66.82000 386.180
66.83000 385.201
66.84000 384.233
66.85000 388.131
66.86000 394.652
66.87000 400.817
66.88000 400.163
66.89000 396.896
66.90000 393.899
66.91000 393.562
66.92000 393.904
66.93000 394.202
66.94000 397.858
66.95000 401.457
66.96000 403.328
66.97000 398.612
66.98000 393.254
66.99000 393.745
67.00000 409.098
67.01000 425.184
67.02000 435.379
67.03000 438.609
67.04000 440.868
67.05000 440.543
67.06000 437.346
67.07000 434.156
67.08000 432.265
67.09000 431.297
67.10000 430.349
67.11000 428.240
67.12000 425.691
67.13000 423.278
67.14000 422.731
67.15000 422.775
67.16000 423.225
67.17000 426.772
67.18000 430.965
67.19000 434.500
67.20000 438.937
67.21000 442.740
67.22000 447.234
67.23000 453.895
67.24000 460.712
67.25000 465.713
67.26000 466.896
67.27000 467.958
67.28000 468.578
67.29000 464.585
67.30000 461.757
67.31000 463.743
67.32000 470.025
67.33000 476.191
67.34000 475.572
67.35000 470.999
67.36000 466.586
67.37000 472.954
67.38000 482.914
67.39000 492.153
67.40000 494.091
67.41000 494.127
67.42000 493.225
67.43000 486.650
67.44000 479.124
67.45000 473.025
67.46000 485.755
67.47000 497.663
67.48000 507.879
67.49000 513.712
67.50000 519.321
67.51000 523.117
67.52000 523.772
67.53000 524.370
67.54000 524.688
67.55000 528.171
67.56000 530.515
67.57000 528.116
67.58000 522.282
67.59000 516.627
67.60000 516.768
67.61000 519.697
67.62000 522.476
67.63000 529.317
67.64000 536.836
67.65000 543.548
67.66000 543.945
67.67000 543.000
67.68000 544.124
67.69000 555.302
67.70000 567.817
67.71000 577.509
67.72000 574.155
67.73000 570.716
67.74000 571.361
67.75000 580.752
67.76000 590.434
67.77000 594.205
67.78000 589.557
67.79000 584.848
67.80000 582.351
67.81000 581.873
67.82000 581.460
67.83000 585.167
67.84000 591.321
67.85000 597.136
67.86000 595.923
67.87000 591.915
67.88000 588.190
67.89000 599.700
67.90000 613.738
67.91000 625.934
67.92000 626.757
67.93000 625.631
67.94000 625.606
67.95000 629.943
67.96000 634.728
67.97000 638.247
67.98000 637.543
67.99000 636.824
68.00000 639.891
68.01000 649.651
68.02000 659.538
68.03000 662.706
68.04000 658.090
68.05000 653.479
68.06000 653.170
68.07000 656.019
68.08000 659.275
68.09000 676.352
68.10000 700.203
68.11000 722.295
68.12000 718.903
68.13000 707.136
68.14000 696.464
68.15000 693.244
68.16000 691.829
68.17000 693.151
68.18000 708.055
68.19000 724.808
68.20000 738.948
68.21000 744.585
68.22000 749.565
68.23000 753.016
68.24000 766.705
68.25000 777.280
68.26000 785.107
68.27000 788.945
68.28000 792.750
68.29000 796.232
68.30000 799.415
68.31000 802.568
68.32000 808.328
68.33000 815.521
68.34000 822.395
68.35000 822.402
68.36000 819.627
68.37000 817.870
68.38000 827.014
68.39000 839.108
68.40000 849.765
68.41000 880.563
68.42000 910.145
68.43000 932.962
68.44000 928.441
68.45000 921.031
68.46000 921.606
68.47000 943.643
68.48000 966.863
68.49000 981.903
68.50000 987.267
68.51000 991.049
68.52000 1011.515
68.53000 1051.719
68.54000 1091.892
68.55000 1118.725
68.56000 1135.501
68.57000 1151.970
68.58000 1189.391
68.59000 1235.582
68.60000 1282.819
68.61000 1345.710
68.62000 1413.844
68.63000 1483.437
68.64000 1565.002
68.65000 1649.216
68.66000 1720.999
68.67000 1810.824
68.68000 1888.502
68.69000 1970.243
68.70000 2065.468
68.71000 2161.764
68.72000 2250.684
68.73000 2323.206
68.74000 2395.128
68.75000 2438.223
68.76000 2587.250
68.77000 2693.770
68.78000 2787.243
68.79000 2868.307
68.80000 2949.798
68.81000 3062.217
68.82000 3193.730
68.83000 3321.221
68.84000 3515.731
68.85000 3726.161
68.86000 3949.745
68.87000 4318.105
68.88000 4726.406
68.89000 5221.001
68.90000 6272.635
68.91000 7423.977
68.92000 8368.578
68.93000 11655.519
68.94000 14561.526
68.95000 18189.893
68.96000 23796.320
68.97000 29515.730
68.98000 36041.043
68.99000 44046.207
69.00000 52083.336
69.01000 56484.184
69.02000 67571.203
69.03000 75197.703
69.04000 81248.438
69.05000 86086.953
69.06000 90871.555
69.07000 93623.977
69.08000 95342.469
69.09000 96981.961
69.10000 97921.672
69.11000 98572.227
69.12000 99253.609
69.13000 100194.250
69.14000 101193.406
69.15000 102150.453
69.16000 102889.602
69.17000 103597.664
69.18000 104153.742
69.19000 102258.430
69.20000 100581.297
69.21000 97980.594
69.22000 93288.375
69.23000 88516.070
69.24000 83644.945
69.25000 78624.555
69.26000 73602.781
69.27000 69034.016
69.28000 64905.844
69.29000 60791.145
69.30000 57735.434
69.31000 55346.184
69.32000 52988.414
69.33000 51366.508
69.34000 50054.117
69.35000 48826.363
69.36000 47173.809
69.37000 45563.996
69.38000 43785.777
69.39000 40895.656
69.40000 37802.207
69.41000 34550.445
69.42000 30633.051
69.43000 26641.566
69.44000 23659.285
69.45000 19372.188
69.46000 15969.906
69.47000 12958.594
69.48000 10678.888
69.49000 8415.950
69.50000 6680.865
69.51000 5596.462
69.52000 4515.949
69.53000 3804.030
69.54000 3383.613
69.55000 2966.603
69.56000 2685.191
69.57000 2474.078
69.58000 2267.349
69.59000 2130.764
69.60000 2018.573
69.61000 1916.046
69.62000 1816.287
69.63000 1728.242
69.64000 1645.861
69.65000 1593.411
69.66000 1545.331
69.67000 1498.816
69.68000 1457.694
69.69000 1417.027
69.70000 1388.323
69.71000 1330.672
69.72000 1286.042
69.73000 1248.246
69.74000 1220.978
69.75000 1193.827
69.76000 1167.696
69.77000 1142.578
69.78000 1117.637
69.79000 1098.959
69.80000 1084.531
69.81000 1069.902
69.82000 1050.386
69.83000 1028.775
69.84000 1007.555
69.85000 990.903
69.86000 975.560
69.87000 961.919
69.88000 939.648
69.89000 918.923
69.90000 900.407
69.91000 891.363
69.92000 883.401
69.93000 875.144
69.94000 866.049
69.95000 856.903
69.96000 850.855
69.97000 832.774
69.98000 819.216
69.99000 809.126
70.00000 803.400
