20.00000 557.131
20.01000 562.921
20.02000 569.538
20.03000 574.923
20.04000 575.550
20.05000 575.704
20.06000 575.817
20.07000 564.154
20.08000 554.703
20.09000 553.681
20.10000 567.200
20.11000 580.973
20.12000 583.699
20.13000 573.968
20.14000 564.262
20.15000 559.965
20.16000 559.569
20.17000 559.244
20.18000 561.184
20.19000 564.206
20.20000 566.819
20.21000 563.724
20.22000 558.798
20.23000 554.346
20.24000 551.224
20.25000 548.725
20.26000 547.729
20.27000 553.995
20.28000 561.219
20.29000 566.021
20.30000 563.121
20.31000 559.651
20.32000 557.266
20.33000 561.000
20.34000 563.953
20.35000 570.905
20.36000 583.520
20.37000 596.164
20.38000 589.699
20.39000 565.929
20.40000 542.399
20.41000 540.341
20.42000 550.738
20.43000 560.692
20.44000 561.583
20.45000 558.888
20.46000 556.476
20.47000 556.988
20.48000 558.272
20.49000 559.399
20.50000 555.115
20.51000 550.642
20.52000 548.211
20.53000 553.826
20.54000 560.262
20.55000 565.274
20.56000 566.547
20.57000 567.623
20.58000 568.314
20.59000 567.096
20.60000 566.183
20.61000 560.401
20.62000 549.012
20.63000 537.694
20.64000 539.888
20.65000 552.011
20.66000 563.896
20.67000 566.916
20.68000 565.665
20.69000 564.102
20.70000 558.053
20.71000 550.538
20.72000 544.756
20.73000 552.743
20.74000 563.699
20.75000 572.995
20.76000 567.676
20.77000 561.559
20.78000 555.279
20.79000 548.474
20.80000 541.628
20.81000 537.068
20.82000 537.470
20.83000 538.042
20.84000 538.381
20.85000 556.133
20.86000 568.786
20.87000 573.949
20.88000 572.184
20.89000 570.392
20.90000 566.821
20.91000 562.177
20.92000 557.683
20.93000 557.051
20.94000 557.923
20.95000 558.580
20.96000 556.957
20.97000 554.721
20.98000 552.645
20.99000 551.577
21.00000 550.686
21.01000 549.958
21.02000 545.012
21.03000 540.603
21.04000 537.982
21.05000 540.136
21.06000 542.551
21.07000 540.931
21.08000 532.080
21.09000 523.085
21.10000 518.221
21.11000 529.853
21.12000 537.831
21.13000 544.877
21.14000 551.225
21.15000 557.290
21.16000 553.403
21.17000 544.573
21.18000 536.168
21.19000 538.203
21.20000 543.307
21.21000 547.643
21.22000 545.727
21.23000 542.437
21.24000 539.244
21.25000 536.539
21.26000 533.902
21.27000 531.843
21.28000 546.350
21.29000 558.961
21.30000 567.124
21.31000 565.455
21.32000 563.430
21.33000 559.074
21.34000 551.284
21.35000 543.463
21.36000 540.711
21.37000 542.747
21.38000 544.751
21.39000 544.462
21.40000 542.766
21.41000 541.164
21.42000 541.654
21.43000 543.003
21.44000 544.262
21.45000 542.999
21.46000 541.228
21.47000 539.351
21.48000 536.798
21.49000 534.124
21.50000 533.593
21.51000 541.847
21.52000 551.048
21.53000 557.875
21.54000 547.548
21.55000 538.770
21.56000 533.422
21.57000 534.338
21.58000 535.387
21.59000 537.350
21.60000 540.412
21.61000 543.469
21.62000 541.379
21.63000 535.392
21.64000 529.540
21.65000 528.750
21.66000 530.519
21.67000 532.236
21.68000 533.135
21.69000 533.756
21.70000 534.321
21.71000 534.905
21.72000 535.425
21.73000 537.057
21.74000 544.403
21.75000 552.559
21.76000 559.830
21.77000 564.121
21.78000 568.171
21.79000 571.007
21.80000 572.281
21.81000 573.200
21.82000 571.689
21.83000 566.528
21.84000 561.331
21.85000 563.804
21.86000 573.685
21.87000 583.487
21.88000 588.124
21.89000 589.502
21.90000 590.396
21.91000 580.128
21.92000 565.189
21.93000 551.688
21.94000 554.333
21.95000 561.495
21.96000 567.838
21.97000 581.898
21.98000 595.275
21.99000 605.388
22.00000 601.852
22.01000 596.808
22.02000 593.623
22.03000 595.597
22.04000 597.873
22.05000 599.365
22.06000 608.830
22.07000 615.921
22.08000 619.090
22.09000 617.451
22.10000 615.812
22.11000 617.131
22.12000 620.760
22.13000 624.329
22.14000 622.465
22.15000 617.953
22.16000 613.554
22.17000 610.952
22.18000 608.972
22.19000 606.419
22.20000 598.966
22.21000 590.392
22.22000 583.039
22.23000 595.813
22.24000 609.069
22.25000 616.290
22.26000 602.824
22.27000 587.628
22.28000 576.236
22.29000 573.573
22.30000 571.255
22.31000 569.847
22.32000 571.340
22.33000 572.428
22.34000 574.652
22.35000 577.998
22.36000 581.294
22.37000 580.367
22.38000 576.747
22.39000 573.229
22.40000 571.774
22.41000 571.227
22.42000 570.688
22.43000 570.244
22.44000 569.828
22.45000 568.481
22.46000 560.895
22.47000 552.150
22.48000 544.927
22.49000 544.102
22.50000 544.020
22.51000 543.340
22.52000 540.973
22.53000 538.504
22.54000 539.159
22.55000 545.741
22.56000 552.464
22.57000 556.205
22.58000 546.575
22.59000 539.907
22.60000 539.349
22.61000 543.658
22.62000 547.690
22.63000 540.282
22.64000 526.863
22.65000 514.023
22.66000 521.047
22.67000 534.110
22.68000 545.329
22.69000 540.366
22.70000 531.621
22.71000 523.836
22.72000 521.192
22.73000 519.311
22.74000 517.822
22.75000 518.723
22.76000 519.613
22.77000 521.335
22.78000 525.005
22.79000 528.755
22.80000 528.945
22.81000 523.577
22.82000 518.142
22.83000 515.413
22.84000 527.835
22.85000 536.051
22.86000 537.208
22.87000 533.772
22.88000 530.157
22.89000 522.015
22.90000 511.908
22.91000 502.419
22.92000 506.015
22.93000 512.762
22.94000 518.192
22.95000 514.588
22.96000 509.271
22.97000 505.442
22.98000 508.089
22.99000 511.488
23.00000 514.050
23.01000 506.736
23.02000 500.524
23.03000 498.789
23.04000 505.705
23.05000 512.839
23.06000 515.409
23.07000 512.151
23.08000 508.878
23.09000 502.908
23.10000 494.777
23.11000 486.860
23.12000 488.315
23.13000 494.788
23.14000 500.639
23.15000 495.952
23.16000 487.482
23.17000 479.708
23.18000 492.661
23.19000 508.615
23.20000 520.724
23.21000 511.759
23.22000 499.594
23.23000 489.237
23.24000 485.316
23.25000 481.965
23.26000 479.575
23.27000 483.761
23.28000 487.167
23.29000 491.344
23.30000 496.746
23.31000 502.164
23.32000 507.325
23.33000 512.220
23.34000 517.086
23.35000 515.582
23.36000 509.931
23.37000 504.579
23.38000 507.053
23.39000 512.988
23.40000 518.344
23.41000 516.593
23.42000 512.738
23.43000 509.293
23.44000 504.666
23.45000 500.435
23.46000 497.844
23.47000 502.531
23.48000 508.086
23.49000 510.752
23.50000 504.939
23.51000 498.576
23.52000 494.319
23.53000 498.767
23.54000 502.236
23.55000 502.195
23.56000 497.581
23.57000 492.951
23.58000 489.853
23.59000 488.026
23.60000 486.225
23.61000 486.780
23.62000 488.568
23.63000 490.479
23.64000 494.562
23.65000 499.438
23.66000 503.176
23.67000 496.387
23.68000 487.040
23.69000 478.944
23.70000 485.435
23.71000 492.883
23.72000 500.575
23.73000 509.154
23.74000 517.813
23.75000 520.885
23.76000 510.400
23.77000 499.309
23.78000 492.410
23.79000 491.526
23.80000 490.949
23.81000 488.553
23.82000 484.238
23.83000 479.986
23.84000 482.592
23.85000 489.836
23.86000 496.902
23.87000 499.044
23.88000 498.970
23.89000 498.845
23.90000 498.094
23.91000 497.153
23.92000 496.098
23.93000 494.219
23.94000 492.178
23.95000 490.472
23.96000 478.726
23.97000 467.956
23.98000 462.847
23.99000 474.674
24.00000 487.636
24.01000 494.516
24.02000 489.195
24.03000 483.531
24.04000 480.292
24.05000 488.139
24.06000 493.646
24.07000 493.987
24.08000 489.954
24.09000 485.980
24.10000 484.990
24.11000 485.658
24.12000 486.301
24.13000 489.675
24.14000 493.791
24.15000 497.301
24.16000 495.057
24.17000 491.386
24.18000 487.666
24.19000 483.666
24.20000 479.621
24.21000 476.377
24.22000 485.989
24.23000 494.746
24.24000 499.089
24.25000 492.515
24.26000 485.434
24.27000 481.870
24.28000 484.126
24.29000 486.470
24.30000 487.685
24.31000 479.622
24.32000 474.228
24.33000 474.820
24.34000 479.539
24.35000 484.185
24.36000 486.705
24.37000 488.249
24.38000 489.708
24.39000 497.833
24.40000 507.172
24.41000 513.929
24.42000 501.675
24.43000 485.583
24.44000 472.063
24.45000 470.428
24.46000 470.282
24.47000 470.170
24.48000 474.109
24.49000 477.438
24.50000 480.784
24.51000 484.167
24.52000 487.552
24.53000 486.465
24.54000 479.315
24.55000 472.137
24.56000 471.214
24.57000 475.691
24.58000 480.127
24.59000 482.403
24.60000 483.456
24.61000 484.423
24.62000 483.778
24.63000 482.521
24.64000 481.359
24.65000 481.683
24.66000 482.311
24.67000 482.819
24.68000 482.630
24.69000 482.327
24.70000 480.716
24.71000 474.166
24.72000 467.141
24.73000 462.045
24.74000 475.547
24.75000 486.614
24.76000 491.972
24.77000 487.701
24.78000 483.275
24.79000 480.059
24.80000 478.174
24.81000 476.298
24.82000 478.265
24.83000 482.887
24.84000 487.416
24.85000 489.154
24.86000 489.585
24.87000 489.772
24.88000 486.668
24.89000 482.533
24.90000 478.808
24.91000 476.618
24.92000 474.974
24.93000 473.624
24.94000 473.659
24.95000 473.872
24.96000 473.727
24.97000 472.470
24.98000 471.134
24.99000 470.223
25.00000 471.702
25.01000 472.863
25.02000 474.834
25.03000 477.926
25.04000 481.024
25.05000 482.024
25.06000 481.173
25.07000 480.331
25.08000 477.638
25.09000 473.963
25.10000 470.470
25.11000 470.527
25.12000 471.957
25.13000 474.134
25.14000 483.779
25.15000 495.349
25.16000 505.467
25.17000 501.468
25.18000 496.033
25.19000 489.568
25.20000 479.136
25.21000 468.310
25.22000 461.780
25.23000 466.269
25.24000 471.313
25.25000 474.522
25.26000 471.261
25.27000 468.811
25.28000 470.754
25.29000 477.632
25.30000 484.459
25.31000 483.075
25.32000 475.799
25.33000 468.676
25.34000 467.637
25.35000 469.424
25.36000 471.270
25.37000 473.925
25.38000 476.838
25.39000 479.476
25.40000 479.993
25.41000 480.064
25.42000 480.124
25.43000 472.325
25.44000 464.939
25.45000 459.785
25.46000 461.699
25.47000 464.135
25.48000 464.915
25.49000 462.186
25.50000 459.342
25.51000 457.672
25.52000 456.845
25.53000 456.267
25.54000 456.696
25.55000 458.032
25.56000 459.456
25.57000 466.225
25.58000 476.139
25.59000 485.716
25.60000 480.567
25.61000 470.242
25.62000 461.010
25.63000 463.003
25.64000 467.948
25.65000 472.197
25.66000 472.191
25.67000 471.462
25.68000 470.871
25.69000 477.196
25.70000 482.929
25.71000 486.627
25.72000 485.006
25.73000 483.107
25.74000 482.860
25.75000 485.509
25.76000 488.211
25.77000 489.656
25.78000 465.324
25.79000 448.756
25.80000 439.682
25.81000 436.095
25.82000 432.800
25.83000 439.221
25.84000 450.362
25.85000 460.943
25.86000 469.193
25.87000 476.111
25.88000 481.617
25.89000 475.946
25.90000 467.875
25.91000 460.568
25.92000 457.010
25.93000 453.957
25.94000 451.587
25.95000 456.786
25.96000 461.379
25.97000 466.790
25.98000 473.973
25.99000 481.217
26.00000 480.792
26.01000 469.330
26.02000 457.784
26.03000 451.925
26.04000 451.309
26.05000 450.688
26.06000 449.805
26.07000 448.767
26.08000 447.544
26.09000 442.433
26.10000 435.761
26.11000 429.552
26.12000 442.458
26.13000 458.750
26.14000 472.117
26.15000 467.216
26.16000 459.148
26.17000 452.994
26.18000 454.501
26.19000 456.807
26.20000 458.507
26.21000 451.168
26.22000 445.105
26.23000 443.465
26.24000 449.725
26.25000 456.140
26.26000 460.931
26.27000 463.819
26.28000 466.696
26.29000 461.883
26.30000 451.405
26.31000 441.188
26.32000 440.106
26.33000 443.545
26.34000 446.672
26.35000 445.216
26.36000 442.240
26.37000 439.537
26.38000 444.690
26.39000 450.761
26.40000 456.020
26.41000 457.201
26.42000 457.821
26.43000 457.270
26.44000 452.872
26.45000 448.172
26.46000 444.904
26.47000 447.688
26.48000 449.949
26.49000 451.864
26.50000 453.269
26.51000 454.670
26.52000 456.213
26.53000 457.892
26.54000 459.556
26.55000 455.625
26.56000 448.412
26.57000 441.511
26.58000 441.481
26.59000 444.263
26.60000 446.659
26.61000 444.855
26.62000 441.904
26.63000 439.299
26.64000 433.951
26.65000 428.918
26.66000 426.674
26.67000 435.820
26.68000 446.187
26.69000 453.265
26.70000 451.419
26.71000 449.073
26.72000 447.547
26.73000 452.519
26.74000 456.263
26.75000 455.528
26.76000 449.438
26.77000 443.354
26.78000 441.095
26.79000 441.750
26.80000 442.394
26.81000 442.807
26.82000 443.093
26.83000 443.347
26.84000 443.115
26.85000 442.719
26.86000 441.915
26.87000 437.731
26.88000 432.791
26.89000 428.573
26.90000 433.738
26.91000 439.204
26.92000 441.929
26.93000 435.470
26.94000 428.270
26.95000 426.002
26.96000 434.803
26.97000 444.019
26.98000 449.565
26.99000 441.903
27.00000 436.362
27.01000 431.322
27.02000 426.763
27.03000 422.295
27.04000 424.727
27.05000 431.462
27.06000 437.996
27.07000 438.535
27.08000 436.678
27.09000 435.164
27.10000 437.488
27.11000 440.882
27.12000 443.394
27.13000 440.139
27.14000 435.841
27.15000 432.308
27.16000 434.639
27.17000 437.085
27.18000 439.624
27.19000 442.419
27.20000 445.230
27.21000 445.510
27.22000 441.095
27.23000 436.576
27.24000 434.090
27.25000 433.514
27.26000 433.113
27.27000 430.815
27.28000 427.041
27.29000 423.520
27.30000 429.774
27.31000 441.051
27.32000 451.820
27.33000 443.881
27.34000 430.513
27.35000 418.648
27.36000 419.588
27.37000 423.449
27.38000 428.287
27.39000 438.239
27.40000 448.930
27.41000 457.346
27.42000 442.690
27.43000 429.410
27.44000 421.354
27.45000 425.243
27.46000 429.599
27.47000 434.648
27.48000 440.753
27.49000 446.869
27.50000 450.343
27.51000 451.219
27.52000 452.088
27.53000 452.294
27.54000 452.079
27.55000 451.668
27.56000 446.582
27.57000 439.510
27.58000 432.888
27.59000 432.988
27.60000 434.817
27.61000 435.935
27.62000 432.304
27.63000 427.795
27.64000 423.442
27.65000 419.748
27.66000 416.129
27.67000 413.418
27.68000 423.516
27.69000 432.001
27.70000 438.222
27.71000 440.166
27.72000 442.008
27.73000 442.603
27.74000 441.643
27.75000 440.680
27.76000 439.090
27.77000 437.012
27.78000 435.017
27.79000 436.421
27.80000 439.606
27.81000 442.288
27.82000 436.775
27.83000 428.385
27.84000 420.708
27.85000 423.725
27.86000 428.621
27.87000 432.711
27.88000 432.493
27.89000 431.639
27.90000 431.573
27.91000 434.247
27.92000 437.155
27.93000 439.214
27.94000 433.380
27.95000 428.702
27.96000 426.989
27.97000 429.892
27.98000 432.848
27.99000 436.300
28.00000 440.251
28.01000 444.175
28.02000 438.800
28.03000 427.571
28.04000 416.569
28.05000 411.188
28.06000 408.240
28.07000 405.607
28.08000 406.710
28.09000 408.894
28.10000 410.838
28.11000 413.054
28.12000 415.024
28.13000 417.231
28.14000 420.467
28.15000 423.823
28.16000 426.201
28.17000 425.775
28.18000 425.173
28.19000 424.774
28.20000 420.535
28.21000 417.331
28.22000 419.509
28.23000 428.529
28.24000 437.554
28.25000 439.268
28.26000 435.062
28.27000 430.919
28.28000 432.603
28.29000 437.253
28.30000 441.463
28.31000 438.272
28.32000 432.431
28.33000 426.886
28.34000 423.986
28.35000 421.713
28.36000 419.753
28.37000 423.683
28.38000 427.773
28.39000 431.426
28.40000 433.530
28.41000 435.498
28.42000 435.016
28.43000 428.721
28.44000 422.178
28.45000 418.146
28.46000 422.937
28.47000 426.456
28.48000 424.740
28.49000 417.649
28.50000 410.652
28.51000 412.812
28.52000 421.023
28.53000 429.021
28.54000 429.299
28.55000 426.320
28.56000 423.495
28.57000 422.553
28.58000 422.168
28.59000 421.832
28.60000 421.849
28.61000 421.934
28.62000 422.005
28.63000 424.551
28.64000 426.903
28.65000 428.548
28.66000 428.128
28.67000 427.575
28.68000 426.849
28.69000 425.783
28.70000 424.708
28.71000 424.099
28.72000 429.684
28.73000 433.570
28.74000 430.429
28.75000 421.480
28.76000 412.664
28.77000 409.995
28.78000 410.668
28.79000 411.314
28.80000 408.523
28.81000 404.744
28.82000 401.563
28.83000 403.884
28.84000 407.537
28.85000 412.266
28.86000 422.989
28.87000 434.640
28.88000 443.935
28.89000 433.651
28.90000 423.918
28.91000 415.930
28.92000 412.163
28.93000 408.584
28.94000 410.169
28.95000 420.104
28.96000 430.154
28.97000 435.300
28.98000 420.233
28.99000 410.139
29.00000 403.650
29.01000 399.590
29.02000 395.921
29.03000 402.892
29.04000 414.642
29.05000 425.714
29.06000 423.020
29.07000 416.764
29.08000 412.187
29.09000 419.630
29.10000 429.440
29.11000 436.792
29.12000 433.054
29.13000 427.966
29.14000 424.096
29.15000 431.410
29.16000 437.750
29.17000 436.012
29.18000 418.125
29.19000 399.789
29.20000 390.015
29.21000 391.580
29.22000 393.197
29.23000 396.894
29.24000 402.333
29.25000 407.626
29.26000 405.745
29.27000 399.890
29.28000 394.426
29.29000 396.040
29.30000 400.283
29.31000 404.194
29.32000 408.329
29.33000 412.080
29.34000 415.936
29.35000 420.384
29.36000 424.926
29.37000 426.615
29.38000 417.783
29.39000 407.969
29.40000 400.899
29.41000 413.280
29.42000 423.453
29.43000 428.089
29.44000 423.597
29.45000 418.971
29.46000 413.955
29.47000 408.521
29.48000 403.114
29.49000 403.679
29.50000 408.294
29.51000 412.656
29.52000 409.802
29.53000 403.647
29.54000 398.242
29.55000 402.535
29.56000 409.803
29.57000 416.328
29.58000 415.750
29.59000 413.995
29.60000 412.602
29.61000 412.878
29.62000 413.362
29.63000 414.044
29.64000 415.325
29.65000 416.647
29.66000 417.542
29.67000 409.694
29.68000 403.654
29.69000 400.937
29.70000 402.709
29.71000 404.502
29.72000 404.063
29.73000 401.702
29.74000 399.369
29.75000 398.521
29.76000 398.511
29.77000 398.807
29.78000 404.828
29.79000 413.016
29.80000 420.576
29.81000 422.061
29.82000 422.014
29.83000 421.974
29.84000 422.839
29.85000 423.703
29.86000 423.536
29.87000 419.489
29.88000 415.070
29.89000 413.085
29.90000 417.208
29.91000 421.623
29.92000 424.408
29.93000 419.320
29.94000 415.545
29.95000 413.938
29.96000 414.705
29.97000 415.495
29.98000 419.124
29.99000 424.741
30.00000 430.233
30.01000 431.159
30.02000 430.005
30.03000 428.869
30.04000 427.958
30.05000 427.117
30.06000 425.768
30.07000 420.595
30.08000 414.637
30.09000 409.626
30.10000 418.228
30.11000 426.851
30.12000 432.492
30.13000 428.902
30.14000 424.656
30.15000 422.491
30.16000 424.642
30.17000 426.926
30.18000 428.253
30.19000 424.378
30.20000 421.639
30.21000 422.725
30.22000 427.175
30.23000 431.478
30.24000 427.531
30.25000 418.838
30.26000 410.456
30.27000 410.527
30.28000 413.659
30.29000 416.445
30.30000 415.793
30.31000 414.258
30.32000 413.404
30.33000 416.610
30.34000 420.487
30.35000 423.620
30.36000 424.880
30.37000 425.754
30.38000 425.435
30.39000 422.066
30.40000 418.545
30.41000 415.332
30.42000 412.647
30.43000 409.971
30.44000 408.558
30.45000 400.292
30.46000 394.748
30.47000 399.999
30.48000 412.968
30.49000 425.654
30.50000 429.488
30.51000 429.117
30.52000 428.766
30.53000 420.285
30.54000 410.088
30.55000 401.620
30.56000 406.444
30.57000 414.053
30.58000 420.049
30.59000 418.308
30.60000 415.554
30.61000 413.428
30.62000 413.436
30.63000 413.566
30.64000 413.468
30.65000 412.885
30.66000 412.286
30.67000 415.647
30.68000 424.573
30.69000 433.535
30.70000 433.816
30.71000 426.306
30.72000 418.922
30.73000 419.038
30.74000 423.553
30.75000 427.712
30.76000 424.689
30.77000 418.844
30.78000 413.420
30.79000 418.683
30.80000 425.949
30.81000 432.135
30.82000 431.754
30.83000 430.264
30.84000 430.861
30.85000 439.621
30.86000 449.205
30.87000 456.228
30.88000 458.245
30.89000 459.602
30.90000 458.381
30.91000 452.661
30.92000 446.859
30.93000 450.597
30.94000 465.234
30.95000 479.832
30.96000 487.375
30.97000 489.753
30.98000 492.274
30.99000 499.484
31.00000 508.963
31.01000 518.140
31.02000 523.024
31.03000 526.514
31.04000 529.674
31.05000 555.240
31.06000 581.981
31.07000 606.119
31.08000 617.512
31.09000 627.197
31.10000 642.836
31.11000 677.613
31.12000 713.835
31.13000 738.836
31.14000 787.484
31.15000 824.642
31.16000 864.400
31.17000 907.885
31.18000 951.400
31.19000 997.778
31.20000 1046.783
31.21000 1095.314
31.22000 1150.528
31.23000 1208.505
31.24000 1266.931
31.25000 1334.794
31.26000 1406.433
31.27000 1477.642
31.28000 1544.326
31.29000 1609.800
31.30000 1667.379
31.31000 1723.653
31.32000 1771.877
31.33000 1821.738
31.34000 1878.120
31.35000 1935.180
31.36000 1978.575
31.37000 1985.700
31.38000 1990.874
31.39000 1994.209
31.40000 2012.210
31.41000 2025.565
31.42000 2016.805
31.43000 1982.244
31.44000 1947.710
31.45000 1925.192
31.46000 1911.615
31.47000 1898.296
31.48000 1857.540
31.49000 1805.230
31.50000 1752.396
31.51000 1691.868
31.52000 1628.796
31.53000 1566.300
31.54000 1508.463
31.55000 1451.642
31.56000 1403.323
31.57000 1320.831
31.58000 1247.611
31.59000 1180.215
31.60000 1131.896
31.61000 1085.064
31.62000 1033.405
31.63000 971.150
31.64000 908.519
31.65000 871.197
31.66000 817.104
31.67000 778.668
31.68000 746.053
31.69000 718.896
31.70000 691.855
31.71000 672.768
31.72000 658.530
31.73000 644.740
31.74000 622.583
31.75000 598.399
31.76000 574.879
31.77000 558.533
31.78000 544.141
31.79000 531.019
31.80000 525.976
31.81000 522.358
31.82000 519.397
31.83000 505.065
31.84000 492.329
31.85000 480.161
31.86000 469.525
31.87000 458.975
31.88000 450.315
31.89000 445.082
31.90000 439.921
31.91000 437.113
31.92000 442.018
31.93000 445.370
31.94000 443.959
31.95000 438.931
31.96000 433.863
31.97000 427.335
31.98000 420.073
31.99000 413.153
32.00000 411.706
32.01000 412.073
32.02000 412.251
32.03000 410.858
32.04000 409.115
32.05000 407.708
32.06000 408.010
32.07000 408.553
32.08000 408.977
32.09000 413.606
32.10000 417.572
32.11000 416.575
32.12000 404.477
32.13000 391.967
32.14000 386.368
32.15000 391.073
32.16000 395.877
32.17000 401.283
32.18000 407.265
32.19000 413.143
32.20000 411.243
32.21000 404.510
32.22000 397.864
32.23000 393.198
32.24000 389.355
32.25000 385.765
32.26000 389.963
32.27000 395.734
32.28000 400.585
32.29000 399.460
32.30000 397.258
32.31000 395.367
32.32000 394.767
32.33000 394.308
32.34000 393.967
32.35000 393.298
32.36000 392.764
32.37000 391.754
32.38000 389.868
32.39000 387.962
32.40000 388.643
32.41000 392.471
32.42000 396.297
32.43000 394.088
32.44000 387.244
32.45000 380.502
32.46000 377.682
32.47000 376.870
32.48000 375.960
32.49000 373.515
32.50000 370.543
32.51000 367.831
32.52000 374.792
32.53000 382.915
32.54000 389.513
32.55000 388.161
32.56000 385.667
32.57000 385.715
32.58000 394.418
32.59000 403.836
32.60000 410.458
32.61000 401.256
32.62000 393.820
32.63000 388.464
32.64000 386.271
32.65000 384.112
32.66000 378.037
32.67000 368.129
32.68000 358.295
32.69000 361.404
32.70000 372.519
32.71000 383.077
32.72000 380.436
32.73000 372.208
32.74000 364.286
32.75000 359.860
32.76000 356.425
32.77000 353.376
32.78000 367.929
32.79000 383.346
32.80000 397.224
32.81000 404.584
32.82000 411.214
32.83000 416.970
32.84000 420.277
32.85000 423.438
32.86000 425.518
32.87000 427.918
32.88000 429.692
32.89000 435.863
32.90000 447.494
32.91000 459.113
32.92000 462.752
32.93000 460.084
32.94000 457.459
32.95000 452.485
32.96000 446.482
32.97000 440.766
32.98000 439.698
32.99000 440.258
33.00000 440.670
33.01000 439.795
33.02000 438.622
33.03000 437.615
33.04000 427.933
33.05000 418.663
33.06000 409.539
33.07000 400.915
33.08000 392.333
33.09000 384.153
33.10000 376.904
33.11000 369.692
33.12000 365.288
33.13000 356.176
33.14000 349.622
33.15000 347.211
33.16000 348.946
33.17000 350.644
33.18000 349.120
33.19000 345.515
33.20000 342.009
33.21000 343.116
33.22000 346.062
33.23000 349.239
33.24000 355.124
33.25000 361.792
33.26000 366.828
33.27000 360.763
33.28000 352.610
33.29000 345.859
33.30000 341.905
33.31000 338.907
33.32000 336.707
33.33000 336.787
33.34000 337.009
33.35000 337.889
33.36000 340.034
33.37000 342.210
33.38000 343.428
33.39000 351.599
33.40000 357.262
33.41000 357.812
33.42000 354.238
33.43000 350.650
33.44000 346.462
33.45000 341.956
33.46000 337.639
33.47000 336.332
33.48000 336.115
33.49000 335.648
33.50000 332.958
33.51000 329.741
33.52000 326.836
33.53000 325.626
33.54000 324.670
33.55000 323.912
33.56000 332.915
33.57000 340.849
33.58000 346.103
33.59000 345.017
33.60000 343.662
33.61000 344.613
33.62000 349.205
33.63000 353.842
33.64000 356.187
33.65000 345.085
33.66000 337.708
33.67000 335.318
33.68000 336.213
33.69000 337.118
33.70000 338.308
33.71000 339.623
33.72000 340.859
33.73000 342.558
33.74000 344.233
33.75000 345.240
33.76000 341.600
33.77000 337.066
33.78000 332.824
33.79000 329.867
33.80000 327.062
33.81000 324.940
33.82000 330.611
33.83000 335.451
33.84000 339.421
33.85000 341.692
33.86000 343.919
33.87000 343.903
33.88000 340.990
33.89000 338.068
33.90000 333.312
33.91000 327.068
33.92000 320.966
33.93000 321.340
33.94000 325.223
33.95000 328.980
33.96000 330.568
33.97000 331.367
33.98000 332.101
33.99000 329.221
34.00000 325.871
34.01000 323.234
34.02000 324.556
34.03000 326.487
34.04000 328.178
34.05000 329.003
34.06000 329.749
34.07000 330.284
34.08000 337.091
34.09000 342.500
34.10000 342.499
34.11000 333.779
34.12000 324.942
34.13000 322.857
34.14000 327.829
34.15000 332.774
34.16000 330.108
34.17000 322.434
34.18000 314.889
34.19000 310.819
34.20000 308.305
34.21000 306.163
34.22000 308.670
34.23000 312.571
34.24000 316.063
34.25000 326.839
34.26000 337.487
34.27000 345.263
34.28000 340.127
34.29000 333.429
34.30000 327.827
34.31000 325.478
34.32000 323.344
34.33000 321.911
34.34000 321.793
34.35000 321.732
34.36000 322.550
34.37000 324.528
34.38000 326.508
34.39000 326.223
34.40000 324.036
34.41000 321.877
34.42000 322.275
34.43000 324.036
34.44000 325.769
34.45000 327.007
34.46000 328.061
34.47000 329.268
34.48000 331.910
34.49000 334.906
34.50000 337.505
34.51000 337.687
34.52000 337.518
34.53000 335.811
34.54000 328.453
34.55000 320.570
34.56000 316.641
34.57000 322.418
34.58000 328.640
34.59000 332.528
34.60000 333.545
34.61000 334.249
34.62000 330.683
34.63000 322.559
34.64000 314.494
34.65000 313.528
34.66000 317.423
34.67000 321.224
34.68000 324.978
34.69000 328.548
34.70000 331.825
34.71000 331.337
34.72000 329.700
34.73000 328.609
34.74000 331.505
34.75000 335.199
34.76000 338.293
34.77000 330.756
34.78000 323.393
34.79000 319.498
34.80000 326.101
34.81000 333.422
34.82000 335.957
34.83000 328.777
34.84000 321.314
34.85000 317.024
34.86000 325.030
34.87000 330.665
34.88000 328.504
34.89000 319.653
34.90000 310.924
34.91000 308.495
34.92000 309.611
34.93000 310.685
34.94000 315.178
34.95000 320.604
34.96000 325.500
34.97000 325.285
34.98000 323.788
34.99000 322.893
35.00000 325.488
35.01000 328.646
35.02000 331.185
35.03000 325.954
35.04000 321.112
35.05000 317.203
35.06000 315.630
35.07000 314.169
35.08000 314.722
35.09000 318.648
35.10000 322.626
35.11000 324.703
35.12000 309.661
35.13000 299.587
35.14000 302.851
35.15000 315.429
35.16000 327.478
35.17000 323.891
35.18000 313.041
35.19000 302.782
35.20000 307.680
35.21000 316.518
35.22000 323.889
35.23000 320.306
35.24000 314.484
35.25000 310.384
35.26000 314.348
35.27000 319.337
35.28000 323.166
35.29000 317.340
35.30000 312.197
35.31000 308.807
35.32000 309.047
35.33000 309.397
35.34000 311.172
35.35000 314.904
35.36000 318.646
35.37000 319.117
35.38000 316.725
35.39000 314.314
35.40000 310.836
35.41000 306.745
35.42000 302.960
35.43000 305.062
35.44000 309.427
35.45000 313.467
35.46000 306.075
35.47000 296.802
35.48000 288.705
35.49000 287.586
35.50000 287.615
35.51000 289.241
35.52000 296.971
35.53000 305.299
35.54000 311.360
35.55000 306.136
35.56000 301.684
35.57000 301.614
35.58000 309.021
35.59000 316.554
35.60000 319.211
35.61000 316.433
35.62000 313.662
35.63000 311.232
35.64000 309.066
35.65000 307.046
35.66000 309.552
35.67000 314.199
35.68000 318.267
35.69000 314.414
35.70000 308.046
35.71000 302.299
35.72000 307.479
35.73000 314.033
35.74000 318.606
35.75000 313.712
35.76000 307.586
35.77000 302.537
35.78000 300.874
35.79000 299.458
35.80000 298.489
35.81000 303.245
35.82000 306.945
35.83000 308.659
35.84000 307.589
35.85000 306.503
35.86000 307.221
35.87000 309.554
35.88000 311.862
35.89000 314.471
35.90000 317.193
35.91000 319.668
35.92000 317.187
35.93000 312.767
35.94000 308.563
35.95000 306.551
35.96000 305.112
35.97000 303.850
35.98000 297.705
35.99000 291.728
36.00000 288.030
36.01000 293.218
36.02000 299.300
36.03000 302.441
36.04000 297.947
36.05000 293.060
36.06000 289.937
36.07000 293.830
36.08000 296.755
36.09000 300.282
36.10000 304.493
36.11000 308.668
36.12000 306.696
36.13000 300.260
36.14000 293.954
36.15000 293.992
36.16000 296.969
36.17000 299.868
36.18000 301.645
36.19000 303.059
36.20000 303.796
36.21000 299.227
36.22000 293.526
36.23000 288.699
36.24000 297.879
36.25000 307.131
36.26000 312.808
36.27000 307.036
36.28000 300.405
36.29000 297.474
36.30000 302.488
36.31000 307.770
36.32000 310.886
36.33000 303.177
36.34000 297.676
36.35000 292.404
36.36000 287.341
36.37000 282.328
36.38000 280.472
36.39000 280.498
36.40000 280.522
36.41000 287.843
36.42000 297.498
36.43000 306.266
36.44000 305.751
36.45000 302.766
36.46000 300.578
36.47000 303.327
36.48000 306.924
36.49000 309.853
36.50000 310.931
36.51000 311.656
36.52000 311.501
36.53000 309.020
36.54000 306.414
36.55000 306.317
36.56000 310.666
36.57000 315.100
36.58000 317.485
36.59000 311.772
36.60000 307.852
36.61000 302.287
36.62000 295.504
36.63000 288.978
36.64000 291.233
36.65000 297.802
36.66000 304.049
36.67000 301.450
36.68000 296.350
36.69000 292.760
36.70000 301.295
36.71000 312.466
36.72000 321.067
36.73000 316.878
36.74000 310.942
36.75000 306.320
36.76000 302.302
36.77000 299.139
36.78000 295.078
36.79000 289.050
36.80000 282.953
36.81000 283.594
36.82000 294.051
36.83000 304.590
36.84000 308.805
36.85000 307.116
36.86000 305.454
36.87000 305.629
36.88000 306.919
36.89000 308.229
36.90000 309.961
36.91000 311.864
36.92000 313.638
36.93000 314.170
36.94000 314.346
36.95000 314.862
36.96000 317.523
36.97000 320.561
36.98000 322.333
36.99000 318.978
37.00000 315.078
37.01000 312.193
37.02000 309.052
37.03000 306.603
37.04000 306.214
37.05000 309.545
37.06000 312.952
37.07000 313.047
37.08000 309.211
37.09000 305.379
37.10000 308.034
37.11000 315.544
37.12000 322.735
37.13000 318.485
37.14000 308.506
37.15000 299.024
37.16000 297.010
37.17000 297.503
37.18000 297.952
37.19000 304.659
37.20000 311.819
37.21000 317.165
37.22000 313.290
37.23000 308.126
37.24000 304.342
37.25000 305.150
37.26000 306.324
37.27000 307.143
37.28000 304.071
37.29000 301.642
37.30000 300.262
37.31000 300.439
37.32000 300.630
37.33000 299.256
37.34000 296.388
37.35000 293.544
37.36000 292.824
37.37000 293.407
37.38000 294.000
37.39000 294.834
37.40000 295.766
37.41000 296.569
37.42000 295.940
37.43000 294.915
37.44000 294.009
37.45000 298.199
37.46000 302.609
37.47000 305.861
37.48000 304.318
37.49000 302.254
37.50000 300.588
37.51000 300.013
37.52000 299.502
37.53000 299.168
37.54000 289.989
37.55000 283.110
37.56000 282.948
37.57000 290.923
37.58000 298.880
37.59000 298.235
37.60000 290.953
37.61000 283.797
37.62000 284.740
37.63000 289.645
37.64000 294.092
37.65000 291.410
37.66000 286.288
37.67000 281.513
37.68000 279.659
37.69000 278.466
37.70000 277.444
37.71000 285.619
37.72000 293.625
37.73000 298.566
37.74000 293.112
37.75000 286.803
37.76000 284.123
37.77000 289.682
37.78000 295.559
37.79000 299.113
37.80000 302.357
37.81000 304.665
37.82000 304.224
37.83000 301.101
37.84000 297.966
37.85000 293.847
37.86000 289.107
37.87000 284.504
37.88000 290.128
37.89000 299.560
37.90000 308.020
37.91000 305.421
37.92000 299.704
37.93000 294.565
37.94000 293.250
37.95000 292.638
37.96000 292.132
37.97000 287.681
37.98000 283.654
37.99000 282.826
38.00000 290.944
38.01000 299.593
38.02000 305.991
38.03000 308.164
38.04000 310.239
38.05000 311.388
38.06000 306.471
38.07000 303.073
38.08000 301.610
38.09000 301.671
38.10000 301.758
38.11000 302.878
38.12000 304.535
38.13000 306.118
38.14000 302.508
38.15000 297.463
38.16000 293.660
38.17000 300.608
38.18000 310.039
38.19000 317.309
38.20000 313.126
38.21000 307.266
38.22000 302.639
38.23000 314.186
38.24000 324.551
38.25000 331.553
38.26000 330.774
38.27000 329.683
38.28000 330.872
38.29000 335.585
38.30000 340.337
38.31000 339.984
38.32000 334.544
38.33000 329.224
38.34000 334.278
38.35000 346.006
38.36000 357.622
38.37000 366.505
38.38000 374.215
38.39000 381.444
38.40000 398.449
38.41000 416.495
38.42000 433.393
38.43000 442.506
38.44000 450.161
38.45000 461.138
38.46000 486.403
38.47000 513.304
38.48000 533.523
38.49000 554.948
38.50000 571.758
38.51000 600.845
38.52000 653.405
38.53000 706.539
38.54000 756.572
38.55000 802.690
38.56000 848.722
38.57000 895.972
38.58000 944.000
38.59000 992.114
38.60000 1043.856
38.61000 1097.519
38.62000 1151.910
38.63000 1218.392
38.64000 1289.169
38.65000 1354.033
38.66000 1396.170
38.67000 1428.926
38.68000 1461.446
38.69000 1492.696
38.70000 1523.755
38.71000 1549.545
38.72000 1556.772
38.73000 1562.380
38.74000 1566.366
38.75000 1579.562
38.76000 1589.902
38.77000 1583.226
38.78000 1549.756
38.79000 1515.959
38.80000 1484.874
38.81000 1456.552
38.82000 1428.411
38.83000 1382.648
38.84000 1326.157
38.85000 1269.393
38.86000 1205.632
38.87000 1138.809
38.88000 1072.560
38.89000 1013.221
38.90000 955.909
38.91000 904.784
38.92000 851.383
38.93000 804.541
38.94000 759.354
38.95000 721.432
38.96000 684.363
38.97000 645.817
38.98000 602.978
38.99000 559.866
39.00000 531.132
39.01000 491.733
39.02000 462.361
39.03000 437.710
39.04000 419.138
39.05000 400.612
39.06000 391.537
39.07000 390.212
39.08000 388.907
39.09000 377.940
39.10000 362.223
39.11000 346.821
39.12000 336.856
39.13000 328.859
39.14000 321.136
39.15000 315.911
39.16000 311.286
39.17000 307.288
39.18000 306.552
39.19000 306.352
39.20000 305.703
39.21000 303.443
39.22000 301.039
39.23000 297.902
39.24000 293.003
39.25000 288.027
39.26000 284.945
39.27000 287.033
39.28000 288.583
39.29000 290.117
39.30000 291.636
39.31000 293.139
39.32000 293.037
39.33000 291.863
39.34000 290.719
39.35000 286.810
39.36000 281.903
39.37000 277.229
39.38000 275.445
39.39000 274.524
39.40000 274.199
39.41000 278.104
39.42000 282.836
39.43000 286.781
39.44000 284.498
39.45000 281.982
39.46000 279.733
39.47000 278.270
39.48000 276.858
39.49000 277.371
39.50000 281.705
39.51000 286.143
39.52000 288.668
39.53000 275.328
39.54000 265.998
39.55000 264.782
39.56000 270.358
39.57000 275.780
39.58000 273.789
39.59000 267.720
39.60000 261.890
39.61000 263.827
39.62000 268.320
39.63000 272.200
39.64000 270.341
39.65000 267.076
39.66000 264.943
39.67000 269.215
39.68000 274.491
39.69000 278.712
39.70000 279.923
39.71000 280.678
39.72000 280.104
39.73000 276.280
39.74000 272.309
39.75000 270.525
39.76000 272.319
39.77000 274.165
39.78000 275.117
39.79000 262.661
39.80000 254.334
39.81000 253.386
39.82000 257.471
39.83000 261.493
39.84000 263.773
39.85000 265.260
39.86000 266.663
39.87000 267.642
39.88000 268.420
39.89000 268.996
39.90000 268.101
39.91000 266.912
39.92000 265.557
39.93000 263.443
39.94000 261.236
39.95000 259.552
39.96000 257.861
39.97000 256.528
39.98000 255.389
39.99000 254.644
40.00000 253.911
40.01000 255.919
40.02000 261.601
40.03000 267.298
40.04000 267.300
40.05000 262.446
40.06000 257.713
40.07000 259.171
40.08000 264.101
40.09000 268.946
40.10000 272.236
40.11000 274.942
40.12000 277.439
40.13000 275.291
40.14000 272.325
40.15000 269.183
40.16000 265.029
40.17000 260.712
40.18000 256.512
40.19000 252.744
40.20000 249.018
40.21000 246.324
40.22000 247.185
40.23000 247.975
40.24000 250.998
40.25000 257.744
40.26000 264.549
40.27000 266.831
40.28000 264.200
40.29000 261.579
40.30000 256.209
40.31000 249.006
40.32000 242.252
40.33000 248.648
40.34000 261.131
40.35000 272.618
40.36000 270.993
40.37000 265.299
40.38000 260.178
40.39000 260.918
40.40000 262.613
40.41000 264.123
40.42000 264.774
40.43000 265.316
40.44000 264.666
40.45000 260.354
40.46000 255.784
40.47000 252.678
40.48000 253.975
40.49000 255.043
40.50000 255.775
40.51000 256.047
40.52000 256.314
40.53000 253.865
40.54000 249.046
40.55000 244.283
40.56000 248.695
40.57000 258.115
40.58000 267.180
40.59000 269.442
40.60000 269.100
40.61000 267.866
40.62000 257.849
40.63000 245.593
40.64000 234.894
40.65000 240.438
40.66000 247.460
40.67000 253.007
40.68000 252.936
40.69000 252.317
40.70000 250.560
40.71000 245.912
40.72000 241.122
40.73000 238.087
40.74000 246.982
40.75000 253.577
40.76000 257.635
40.77000 258.876
40.78000 260.094
40.79000 258.276
40.80000 254.306
40.81000 250.421
40.82000 246.198
40.83000 241.991
40.84000 238.179
40.85000 239.721
40.86000 242.956
40.87000 245.948
40.88000 247.088
40.89000 247.843
40.90000 248.479
40.91000 247.675
40.92000 246.847
40.93000 246.373
40.94000 247.004
40.95000 247.715
40.96000 247.972
40.97000 247.272
40.98000 246.543
40.99000 246.117
41.00000 239.092
41.01000 234.126
41.02000 237.452
41.03000 248.169
41.04000 258.663
41.05000 256.230
41.06000 246.271
41.07000 236.659
41.08000 237.010
41.09000 240.999
41.10000 244.746
41.11000 246.028
41.12000 246.669
41.13000 246.939
41.14000 244.971
41.15000 242.627
41.16000 240.728
41.17000 240.443
41.18000 240.343
41.19000 241.124
41.20000 244.187
41.21000 247.367
41.22000 248.095
41.23000 244.574
41.24000 240.978
41.25000 239.066
41.26000 245.151
41.27000 249.271
41.28000 249.257
41.29000 246.252
41.30000 243.322
41.31000 242.837
41.32000 243.525
41.33000 244.178
41.34000 249.871
41.35000 256.619
41.36000 262.286
41.37000 259.509
41.38000 254.941
41.39000 250.500
41.40000 246.676
41.41000 242.934
41.42000 240.037
41.43000 240.002
41.44000 240.144
41.45000 241.663
41.46000 246.127
41.47000 250.689
41.48000 250.979
41.49000 245.192
41.50000 239.360
41.51000 238.591
41.52000 242.427
41.53000 246.259
41.54000 249.855
41.55000 253.311
41.56000 256.439
41.57000 252.780
41.58000 246.425
41.59000 240.518
41.60000 240.314
41.61000 241.494
41.62000 242.719
41.63000 244.226
41.64000 245.782
41.65000 246.726
41.66000 245.250
41.67000 243.526
41.68000 242.258
41.69000 239.947
41.70000 238.117
41.71000 236.814
41.72000 236.444
41.73000 236.090
41.74000 236.446
41.75000 237.623
41.76000 238.797
41.77000 239.409
41.78000 239.603
41.79000 239.792
41.80000 239.784
41.81000 239.680
41.82000 239.521
41.83000 238.558
41.84000 237.331
41.85000 236.218
41.86000 237.115
41.87000 238.290
41.88000 238.733
41.89000 235.547
41.90000 231.867
41.91000 230.834
41.92000 238.408
41.93000 246.645
41.94000 252.352
41.95000 243.661
41.96000 236.740
41.97000 233.417
41.98000 235.314
41.99000 237.254
42.00000 235.960
42.01000 231.659
42.02000 227.398
42.03000 226.776
42.04000 228.326
42.05000 229.742
42.06000 228.313
42.07000 225.731
42.08000 223.557
42.09000 225.751
42.10000 229.125
42.11000 232.097
42.12000 228.366
42.13000 224.141
42.14000 220.204
42.15000 217.431
42.16000 214.781
42.17000 215.362
42.18000 224.618
42.19000 234.350
42.20000 240.652
42.21000 224.460
42.22000 212.280
42.23000 207.574
42.24000 211.699
42.25000 215.836
42.26000 219.201
42.27000 221.983
42.28000 224.714
42.29000 222.288
42.30000 217.468
42.31000 213.161
42.32000 216.537
42.33000 222.484
42.34000 227.993
42.35000 229.923
42.36000 231.061
42.37000 232.031
42.38000 232.961
42.39000 233.739
42.40000 234.770
42.41000 236.639
42.42000 238.575
42.43000 238.141
42.44000 232.446
42.45000 226.559
42.46000 223.033
42.47000 224.642
42.48000 225.818
42.49000 227.262
42.50000 228.962
42.51000 230.637
42.52000 230.543
42.53000 229.358
42.54000 228.210
42.55000 225.850
42.56000 223.141
42.57000 220.746
42.58000 221.792
42.59000 223.786
42.60000 225.599
42.61000 226.240
42.62000 226.672
42.63000 227.027
42.64000 226.179
42.65000 225.377
42.66000 224.280
42.67000 222.380
42.68000 220.435
42.69000 219.651
42.70000 221.001
42.71000 222.397
42.72000 223.161
42.73000 231.092
42.74000 236.537
42.75000 237.995
42.76000 236.389
42.77000 234.813
42.78000 234.379
42.79000 234.526
42.80000 234.666
42.81000 237.542
42.82000 241.078
42.83000 243.980
42.84000 241.552
42.85000 237.922
42.86000 234.918
42.87000 235.154
42.88000 235.851
42.89000 236.398
42.90000 234.560
42.91000 232.933
42.92000 231.834
42.93000 231.931
42.94000 232.073
42.95000 232.340
42.96000 232.794
42.97000 233.251
42.98000 235.879
42.99000 240.615
43.00000 245.292
43.01000 245.338
43.02000 242.472
43.03000 239.562
43.04000 235.627
43.05000 231.261
43.06000 227.177
43.07000 230.918
43.08000 236.314
43.09000 240.184
43.10000 233.994
43.11000 225.966
43.12000 219.195
43.13000 217.697
43.14000 216.785
43.15000 216.104
43.16000 221.619
43.17000 226.202
43.18000 228.360
43.19000 225.983
43.20000 223.502
43.21000 222.560
43.22000 223.513
43.23000 224.469
43.24000 224.724
43.25000 224.430
43.26000 224.113
43.27000 222.883
43.28000 221.180
43.29000 219.696
43.30000 221.703
43.31000 224.922
43.32000 227.864
43.33000 232.937
43.34000 237.878
43.35000 241.283
43.36000 236.580
43.37000 230.694
43.38000 226.658
43.39000 228.990
43.40000 231.859
43.41000 233.883
43.42000 226.773
43.43000 221.101
43.44000 219.421
43.45000 223.883
43.46000 228.413
43.47000 228.811
43.48000 225.110
43.49000 221.434
43.50000 223.179
43.51000 228.315
43.52000 233.204
43.53000 232.079
43.54000 228.379
43.55000 225.314
43.56000 229.633
43.57000 236.067
43.58000 241.787
43.59000 230.548
43.60000 218.051
43.61000 207.353
43.62000 204.363
43.63000 202.252
43.64000 202.967
43.65000 211.708
43.66000 220.939
43.67000 227.043
43.68000 227.009
43.69000 226.874
43.70000 227.372
43.71000 228.665
43.72000 229.947
43.73000 226.776
43.74000 220.041
43.75000 213.409
43.76000 210.460
43.77000 209.487
43.78000 208.906
43.79000 214.791
43.80000 222.966
43.81000 230.189
43.82000 229.002
43.83000 225.841
43.84000 223.119
43.85000 226.161
43.86000 229.467
43.87000 231.425
43.88000 228.651
43.89000 225.466
43.90000 221.549
43.91000 215.910
43.92000 210.201
43.93000 206.698
43.94000 216.868
43.95000 224.272
43.96000 224.993
43.97000 218.934
43.98000 212.934
43.99000 212.259
44.00000 215.065
44.01000 217.795
44.02000 220.405
44.03000 222.840
44.04000 224.884
44.05000 222.240
44.06000 218.227
44.07000 215.127
44.08000 218.332
44.09000 222.738
44.10000 226.395
44.11000 224.184
44.12000 221.789
44.13000 218.976
44.14000 214.952
44.15000 210.852
44.16000 208.056
44.17000 207.792
44.18000 207.592
44.19000 207.480
44.20000 208.587
44.21000 209.361
44.22000 211.072
44.23000 213.549
44.24000 216.000
44.25000 217.330
44.26000 218.056
44.27000 218.752
44.28000 220.516
44.29000 222.524
44.30000 223.995
44.31000 220.598
44.32000 216.036
44.33000 212.310
44.34000 213.186
44.35000 214.764
44.36000 216.020
44.37000 215.007
44.38000 214.026
44.39000 213.629
44.40000 214.628
44.41000 215.687
44.42000 219.218
44.43000 226.704
44.44000 234.242
44.45000 238.079
44.46000 228.221
44.47000 221.673
44.48000 221.634
44.49000 225.933
44.50000 229.982
44.51000 227.418
44.52000 221.914
44.53000 216.734
44.54000 217.126
44.55000 219.000
44.56000 220.839
44.57000 222.435
44.58000 223.983
44.59000 224.350
44.60000 219.452
44.61000 213.921
44.62000 209.726
44.63000 207.890
44.64000 206.569
44.65000 207.728
44.66000 213.792
44.67000 219.988
44.68000 224.159
44.69000 225.678
44.70000 227.184
44.71000 229.184
44.72000 231.589
44.73000 233.925
44.74000 232.994
44.75000 230.273
44.76000 227.515
44.77000 224.105
44.78000 220.455
44.79000 217.095
44.80000 224.401
44.81000 233.262
44.82000 240.895
44.83000 241.614
44.84000 241.255
44.85000 241.754
44.86000 245.386
44.87000 249.306
44.88000 252.121
44.89000 241.274
44.90000 232.505
44.91000 229.535
44.92000 236.021
44.93000 242.641
44.94000 250.400
44.95000 259.367
44.96000 268.287
44.97000 271.539
44.98000 270.946
44.99000 270.137
45.00000 263.301
45.01000 253.738
45.02000 245.025
45.03000 247.131
45.04000 252.519
45.05000 257.349
45.06000 266.045
45.07000 274.313
45.08000 281.029
45.09000 280.683
45.10000 279.468
45.11000 277.385
45.12000 272.691
45.13000 267.820
45.14000 264.535
45.15000 270.866
45.16000 275.781
45.17000 277.535
45.18000 275.069
45.19000 272.583
45.20000 271.065
45.21000 270.372
45.22000 269.687
45.23000 267.484
45.24000 264.513
45.25000 261.784
45.26000 263.517
45.27000 266.920
45.28000 269.980
45.29000 269.767
45.30000 268.737
45.31000 267.842
45.32000 264.382
45.33000 261.081
45.34000 258.982
45.35000 261.357
45.36000 264.154
45.37000 265.179
45.38000 261.805
45.39000 258.225
45.40000 255.977
45.41000 254.126
45.42000 252.793
45.43000 251.450
45.44000 250.097
45.45000 248.763
45.46000 249.853
45.47000 252.622
45.48000 255.328
45.49000 251.449
45.50000 244.826
45.51000 238.810
45.52000 240.734
45.53000 245.112
45.54000 248.804
45.55000 247.412
45.56000 244.989
45.57000 242.955
45.58000 244.551
45.59000 246.260
45.60000 246.382
45.61000 241.642
45.62000 236.562
45.63000 235.176
45.64000 241.375
45.65000 247.802
45.66000 251.517
45.67000 251.419
45.68000 251.332
45.69000 248.595
45.70000 243.554
45.71000 238.575
45.72000 236.924
45.73000 237.168
45.74000 237.403
45.75000 235.344
45.76000 232.587
45.77000 230.090
45.78000 230.130
45.79000 230.814
45.80000 231.629
45.81000 233.211
45.82000 234.918
45.83000 236.295
45.84000 237.290
45.85000 238.068
45.86000 236.781
45.87000 230.270
45.88000 223.503
45.89000 220.004
45.90000 222.039
45.91000 224.165
45.92000 225.282
45.93000 223.909
45.94000 222.970
45.95000 221.127
45.96000 218.645
45.97000 216.127
45.98000 212.520
45.99000 208.402
46.00000 204.503
46.01000 210.772
46.02000 219.487
46.03000 226.606
46.04000 221.615
46.05000 214.117
46.06000 208.770
46.07000 213.624
46.08000 219.795
46.09000 224.546
46.10000 222.121
46.11000 219.793
46.12000 216.180
46.13000 209.878
46.14000 203.492
46.15000 202.604
46.16000 209.357
46.17000 216.158
46.18000 217.481
46.19000 213.948
46.20000 210.430
46.21000 207.816
46.22000 205.727
46.23000 203.811
46.24000 205.335
46.25000 208.195
46.26000 210.846
46.27000 207.779
46.28000 203.686
46.29000 200.753
46.30000 204.798
46.31000 210.006
46.32000 213.513
46.33000 210.442
46.34000 206.715
46.35000 203.993
46.36000 209.937
46.37000 214.858
46.38000 217.881
46.39000 217.626
46.40000 217.313
46.41000 215.561
46.42000 212.185
46.43000 208.821
46.44000 205.758
46.45000 202.939
46.46000 200.158
46.47000 198.589
46.48000 197.600
46.49000 196.757
46.50000 197.934
46.51000 199.759
46.52000 201.410
46.53000 203.118
46.54000 204.632
46.55000 205.638
46.56000 204.187
46.57000 202.411
46.58000 201.351
46.59000 202.566
46.60000 203.951
46.61000 204.903
46.62000 196.138
46.63000 189.321
46.64000 186.613
46.65000 189.730
46.66000 192.890
46.67000 195.301
46.68000 197.034
46.69000 198.749
46.70000 198.549
46.71000 197.245
46.72000 195.975
46.73000 195.408
46.74000 195.120
46.75000 194.707
46.76000 193.002
46.77000 190.956
46.78000 189.160
46.79000 191.471
46.80000 194.058
46.81000 196.165
46.82000 196.377
46.83000 196.396
46.84000 196.283
46.85000 195.826
46.86000 195.351
46.87000 195.046
46.88000 196.321
46.89000 197.271
46.90000 195.833
46.91000 191.641
46.92000 187.477
46.93000 189.082
46.94000 194.929
46.95000 200.661
46.96000 201.791
46.97000 200.718
46.98000 199.796
46.99000 201.059
47.00000 203.037
47.01000 204.283
47.02000 199.701
47.03000 193.862
47.04000 188.906
47.05000 190.165
47.06000 191.927
47.07000 192.750
47.08000 190.535
47.09000 188.087
47.10000 185.514
47.11000 182.670
47.12000 179.817
47.13000 178.124
47.14000 186.886
47.15000 193.143
47.16000 196.820
47.17000 198.106
47.18000 199.351
47.19000 197.825
47.20000 194.630
47.21000 191.538
47.22000 191.736
47.23000 193.177
47.24000 194.744
47.25000 197.652
47.26000 200.921
47.27000 203.391
47.28000 200.846
47.29000 197.426
47.30000 194.635
47.31000 195.471
47.32000 196.466
47.33000 195.559
47.34000 189.560
47.35000 183.283
47.36000 179.954
47.37000 181.913
47.38000 183.977
47.39000 185.094
47.40000 187.599
47.41000 189.307
47.42000 189.231
47.43000 187.818
47.44000 186.456
47.45000 186.934
47.46000 188.326
47.47000 189.651
47.48000 188.213
47.49000 186.028
47.50000 184.186
47.51000 185.148
47.52000 186.727
47.53000 188.309
47.54000 189.904
47.55000 191.500
47.56000 192.747
47.57000 188.045
47.58000 183.920
47.59000 180.913
47.60000 180.379
47.61000 179.934
47.62000 180.607
47.63000 182.926
47.64000 185.261
47.65000 187.222
47.66000 188.829
47.67000 190.423
47.68000 191.065
47.69000 191.123
47.70000 191.021
47.71000 187.363
47.72000 182.243
47.73000 177.465
47.74000 180.807
47.75000 185.855
47.76000 189.735
47.77000 186.117
47.78000 181.164
47.79000 178.390
47.80000 184.558
47.81000 191.691
47.82000 196.985
47.83000 187.754
47.84000 179.941
47.85000 176.084
47.86000 179.455
47.87000 182.981
47.88000 184.590
47.89000 183.896
47.90000 183.198
47.91000 183.616
47.92000 184.879
47.93000 186.123
47.94000 186.666
47.95000 186.854
47.96000 187.103
47.97000 188.300
47.98000 189.818
47.99000 191.201
48.00000 190.928
48.01000 190.356
48.02000 189.539
48.03000 187.453
48.04000 185.187
48.05000 183.152
48.06000 181.893
48.07000 180.698
48.08000 179.860
48.09000 187.720
48.10000 193.915
48.11000 196.725
48.12000 194.447
48.13000 192.118
48.14000 187.205
48.15000 179.795
48.16000 172.443
48.17000 179.262
48.18000 194.683
48.19000 209.344
48.20000 206.431
48.21000 196.157
48.22000 186.922
48.23000 189.360
48.24000 195.065
48.25000 200.119
48.26000 198.479
48.27000 196.006
48.28000 193.021
48.29000 187.891
48.30000 182.523
48.31000 177.846
48.32000 175.085
48.33000 172.436
48.34000 170.699
48.35000 178.362
48.36000 184.153
48.37000 186.079
48.38000 183.263
48.39000 180.443
48.40000 180.045
48.41000 181.537
48.42000 183.005
48.43000 181.609
48.44000 178.830
48.45000 176.259
48.46000 176.995
48.47000 178.876
48.48000 180.277
48.49000 177.566
48.50000 173.911
48.51000 170.777
48.52000 177.123
48.53000 183.648
48.54000 189.196
48.55000 191.395
48.56000 193.313
48.57000 192.746
48.58000 186.469
48.59000 179.966
48.60000 176.013
48.61000 180.391
48.62000 183.582
48.63000 182.911
48.64000 178.426
48.65000 173.990
48.66000 173.701
48.67000 176.061
48.68000 178.354
48.69000 179.615
48.70000 180.395
48.71000 181.326
48.72000 184.000
48.73000 187.172
48.74000 189.857
48.75000 189.280
48.76000 188.096
48.77000 187.118
48.78000 179.684
48.79000 172.952
48.80000 169.403
48.81000 174.865
48.82000 180.873
48.83000 184.767
48.84000 184.645
48.85000 184.428
48.86000 184.307
48.87000 175.976
48.88000 170.214
48.89000 169.632
48.90000 173.182
48.91000 176.662
48.92000 177.288
48.93000 176.412
48.94000 175.574
48.95000 177.204
48.96000 179.533
48.97000 181.791
48.98000 183.421
48.99000 184.904
49.00000 185.956
49.01000 184.695
49.02000 183.090
49.03000 181.820
49.04000 178.081
49.05000 174.906
49.06000 172.867
49.07000 173.486
49.08000 174.214
49.09000 174.349
49.10000 173.554
49.11000 172.748
49.12000 172.343
49.13000 174.124
49.14000 175.323
49.15000 177.473
49.16000 180.242
49.17000 182.935
49.18000 183.714
49.19000 183.660
49.20000 183.610
49.21000 182.335
49.22000 180.848
49.23000 179.644
49.24000 180.382
49.25000 181.489
49.26000 182.128
49.27000 180.729
49.28000 179.092
49.29000 177.858
49.30000 174.846
49.31000 172.400
49.32000 172.266
49.33000 176.605
49.34000 181.057
49.35000 183.635
49.36000 183.817
49.37000 183.990
49.38000 181.331
49.39000 176.386
49.40000 171.571
49.41000 172.524
49.42000 176.567
49.43000 180.337
49.44000 179.450
49.45000 176.891
49.46000 174.542
49.47000 173.797
49.48000 173.474
49.49000 172.740
49.50000 169.753
49.51000 166.425
49.52000 164.590
49.53000 168.085
49.54000 172.052
49.55000 174.881
49.56000 176.861
49.57000 178.342
49.58000 177.829
49.59000 174.138
49.60000 170.407
49.61000 167.862
49.62000 166.543
49.63000 165.232
49.64000 167.096
49.65000 171.014
49.66000 174.900
49.67000 177.923
49.68000 180.566
49.69000 183.095
49.70000 184.235
49.71000 184.962
49.72000 185.613
49.73000 184.939
49.74000 184.128
49.75000 183.025
49.76000 180.628
49.77000 178.075
49.78000 176.323
49.79000 176.919
49.80000 177.668
49.81000 178.169
49.82000 177.539
49.83000 177.050
49.84000 175.924
49.85000 173.969
49.86000 172.015
49.87000 172.572
49.88000 175.214
49.89000 177.820
49.90000 176.113
49.91000 172.162
49.92000 168.521
49.93000 170.318
49.94000 174.107
49.95000 178.068
49.96000 183.623
49.97000 189.566
49.98000 194.713
49.99000 185.373
50.00000 175.509
50.01000 168.409
50.02000 171.351
50.03000 175.209
50.04000 178.085
50.05000 178.574
50.06000 178.956
50.07000 179.194
50.08000 172.621
50.09000 167.819
50.10000 165.050
50.11000 164.428
50.12000 163.821
50.13000 164.869
50.14000 167.038
50.15000 169.155
50.16000 171.110
50.17000 172.909
50.18000 174.717
50.19000 176.642
50.20000 178.602
50.21000 179.981
50.22000 177.178
50.23000 173.547
50.24000 170.512
50.25000 172.110
50.26000 173.907
50.27000 174.678
50.28000 172.374
50.29000 169.865
50.30000 170.990
50.31000 179.416
50.32000 188.047
50.33000 192.985
50.34000 183.165
50.35000 176.261
50.36000 171.515
50.37000 168.599
50.38000 165.739
50.39000 165.716
50.40000 167.272
50.41000 168.768
50.42000 170.674
50.43000 172.602
50.44000 174.706
50.45000 178.474
50.46000 182.655
50.47000 186.671
50.48000 189.743
50.49000 192.666
50.50000 195.011
50.51000 195.709
50.52000 196.150
50.53000 196.564
50.54000 196.912
50.55000 197.256
50.56000 197.372
50.57000 197.109
50.58000 196.841
50.59000 196.702
50.60000 197.751
50.61000 198.451
50.62000 198.208
50.63000 197.315
50.64000 196.406
50.65000 195.061
50.66000 193.515
50.67000 192.055
50.68000 190.948
50.69000 190.033
50.70000 189.565
50.71000 192.399
50.72000 195.901
50.73000 199.011
50.74000 200.310
50.75000 201.381
50.76000 202.201
50.77000 202.481
50.78000 202.673
50.79000 204.190
50.80000 208.419
50.81000 212.729
50.82000 212.210
50.83000 205.138
50.84000 198.034
50.85000 193.734
50.86000 191.867
50.87000 190.023
50.88000 189.401
50.89000 189.471
50.90000 189.653
50.91000 191.926
50.92000 194.995
50.93000 197.831
50.94000 197.120
50.95000 195.675
50.96000 194.047
50.97000 191.343
50.98000 188.466
50.99000 186.546
51.00000 188.249
51.01000 190.302
51.02000 191.791
51.03000 187.278
51.04000 183.585
51.05000 180.989
51.06000 180.241
51.07000 179.524
51.08000 178.937
51.09000 178.495
51.10000 178.054
51.11000 177.302
51.12000 176.341
51.13000 175.493
51.14000 178.047
51.15000 182.194
51.16000 185.864
51.17000 183.134
51.18000 178.395
51.19000 174.125
51.20000 166.005
51.21000 158.184
51.22000 152.968
51.23000 160.047
51.24000 168.706
51.25000 175.120
51.26000 174.550
51.27000 173.481
51.28000 172.752
51.29000 180.591
51.30000 186.652
51.31000 186.236
51.32000 176.851
51.33000 167.413
51.34000 163.027
51.35000 163.106
51.36000 163.184
51.37000 160.436
51.38000 156.158
51.39000 152.232
51.40000 155.222
51.41000 160.892
51.42000 166.154
51.43000 167.331
51.44000 167.453
51.45000 167.561
51.46000 168.437
51.47000 169.297
51.48000 169.714
51.49000 168.428
51.50000 166.973
51.51000 165.343
51.52000 163.261
51.53000 161.156
51.54000 159.816
51.55000 156.341
51.56000 153.789
51.57000 154.164
51.58000 157.830
51.59000 161.496
51.60000 164.720
51.61000 167.627
51.62000 170.473
51.63000 167.322
51.64000 161.545
51.65000 156.143
51.66000 155.927
51.67000 157.371
51.68000 158.861
51.69000 160.706
51.70000 162.625
51.71000 164.248
51.72000 166.825
51.73000 169.086
51.74000 169.264
51.75000 162.842
51.76000 155.933
51.77000 153.531
51.78000 160.703
51.79000 168.188
51.80000 172.583
51.81000 173.597
51.82000 174.291
51.83000 170.292
51.84000 162.054
51.85000 153.917
51.86000 151.920
51.87000 153.540
51.88000 155.105
51.89000 156.742
51.90000 158.310
51.91000 159.693
51.92000 159.163
51.93000 158.130
51.94000 157.145
51.95000 156.454
51.96000 155.812
51.97000 155.291
51.98000 158.347
51.99000 161.137
52.00000 162.328
52.01000 159.334
52.02000 156.121
52.03000 154.854
52.04000 157.000
52.05000 159.210
52.06000 160.391
52.07000 160.691
52.08000 160.901
52.09000 162.092
52.10000 164.001
52.11000 165.930
52.12000 168.509
52.13000 171.404
52.14000 174.154
52.15000 170.915
52.16000 166.119
52.17000 161.908
52.18000 162.320
52.19000 163.727
52.20000 164.107
52.21000 159.442
52.22000 154.096
52.23000 149.946
52.24000 152.851
52.25000 155.588
52.26000 159.242
52.27000 164.880
52.28000 170.586
52.29000 173.770
52.30000 173.322
52.31000 172.844
52.32000 168.385
52.33000 160.258
52.34000 152.255
52.35000 152.395
52.36000 157.424
52.37000 162.326
52.38000 164.527
52.39000 165.641
52.40000 166.678
52.41000 163.662
52.42000 159.953
52.43000 156.686
52.44000 156.176
52.45000 156.146
52.46000 157.050
52.47000 161.701
52.48000 166.744
52.49000 170.463
52.50000 166.469
52.51000 163.050
52.52000 159.001
52.53000 153.822
52.54000 148.622
52.55000 149.233
52.56000 156.659
52.57000 164.073
52.58000 164.281
52.59000 159.139
52.60000 154.246
52.61000 158.073
52.62000 166.218
52.63000 173.642
52.64000 170.408
52.65000 163.634
52.66000 157.481
52.67000 160.631
52.68000 165.216
52.69000 168.249
52.70000 163.490
52.71000 157.655
52.72000 153.710
52.73000 155.987
52.74000 158.752
52.75000 160.675
52.76000 155.295
52.77000 151.041
52.78000 149.940
52.79000 153.470
52.80000 157.042
52.81000 161.383
52.82000 166.449
52.83000 171.471
52.84000 167.933
52.85000 159.321
52.86000 151.131
52.87000 152.234
52.88000 157.143
52.89000 161.645
52.90000 161.721
52.91000 160.585
52.92000 159.582
52.93000 157.941
52.94000 156.428
52.95000 155.469
52.96000 156.773
52.97000 158.321
52.98000 159.289
52.99000 158.684
53.00000 157.990
53.01000 157.539
53.02000 156.410
53.03000 155.573
53.04000 154.668
53.05000 153.681
53.06000 152.707
53.07000 154.779
53.08000 159.175
53.09000 163.492
53.10000 163.834
53.11000 162.227
53.12000 160.526
53.13000 157.402
53.14000 153.797
53.15000 150.878
53.16000 153.675
53.17000 157.751
53.18000 161.232
53.19000 160.933
53.20000 160.231
53.21000 160.161
53.22000 162.208
53.23000 164.427
53.24000 165.648
53.25000 164.628
53.26000 163.523
53.27000 162.858
53.28000 164.219
53.29000 165.201
53.30000 165.089
53.31000 163.921
53.32000 162.742
53.33000 160.714
53.34000 158.155
53.35000 155.672
53.36000 156.849
53.37000 159.411
53.38000 161.984
53.39000 164.660
53.40000 167.365
53.41000 169.673
53.42000 169.387
53.43000 168.631
53.44000 168.010
53.45000 168.194
53.46000 168.417
53.47000 168.469
53.48000 168.044
53.49000 167.591
53.50000 167.311
53.51000 167.350
53.52000 167.396
53.53000 167.422
53.54000 172.312
53.55000 175.673
53.56000 174.811
53.57000 170.664
53.58000 166.481
53.59000 160.965
53.60000 154.763
53.61000 148.840
53.62000 149.803
53.63000 152.906
53.64000 156.218
53.65000 161.307
53.66000 166.802
53.67000 170.639
53.68000 165.798
53.69000 159.701
53.70000 154.901
53.71000 154.085
53.72000 153.697
53.73000 156.577
53.74000 166.935
53.75000 177.587
53.76000 179.572
53.77000 168.320
53.78000 156.927
53.79000 149.369
53.80000 145.585
53.81000 141.918
53.82000 147.866
53.83000 159.934
53.84000 171.440
53.85000 169.523
53.86000 161.900
53.87000 154.760
53.88000 151.889
53.89000 150.382
53.90000 149.284
53.91000 150.919
53.92000 153.060
53.93000 154.447
53.94000 152.626
53.95000 150.443
53.96000 148.807
53.97000 148.724
53.98000 148.733
53.99000 151.501
54.00000 159.491
54.01000 167.604
54.02000 168.776
54.03000 161.291
54.04000 153.794
54.05000 151.824
54.06000 154.232
54.07000 156.602
54.08000 157.437
54.09000 157.468
54.10000 157.671
54.11000 160.694
54.12000 164.709
54.13000 168.383
54.14000 167.095
54.15000 164.922
54.16000 162.718
54.17000 160.346
54.18000 157.950
54.19000 155.905
54.20000 155.086
54.21000 154.373
54.22000 153.867
54.23000 153.621
54.24000 153.442
54.25000 152.985
54.26000 152.094
54.27000 151.199
54.28000 152.973
54.29000 157.434
54.30000 161.864
54.31000 163.211
54.32000 162.566
54.33000 161.828
54.34000 158.772
54.35000 154.711
54.36000 150.743
54.37000 147.869
54.38000 145.312
54.39000 143.035
54.40000 149.208
54.41000 155.959
54.42000 161.458
54.43000 161.521
54.44000 160.954
54.45000 160.023
54.46000 158.047
54.47000 156.006
54.48000 154.651
54.49000 158.491
54.50000 161.425
54.51000 161.392
54.52000 157.581
54.53000 153.766
54.54000 153.163
54.55000 155.163
54.56000 157.133
54.57000 157.564
54.58000 157.185
54.59000 157.038
54.60000 160.808
54.61000 165.981
54.62000 170.492
54.63000 169.054
54.64000 166.203
54.65000 163.743
54.66000 160.063
54.67000 156.785
54.68000 155.068
54.69000 158.897
54.70000 163.216
54.71000 164.682
54.72000 159.372
54.73000 153.772
54.74000 150.320
54.75000 152.092
54.76000 153.411
54.77000 155.531
54.78000 158.474
54.79000 161.397
54.80000 162.397
54.81000 162.123
54.82000 161.856
54.83000 160.838
54.84000 159.551
54.85000 158.399
54.86000 158.884
54.87000 159.854
54.88000 161.018
54.89000 163.543
54.90000 166.330
54.91000 168.650
54.92000 165.275
54.93000 161.922
54.94000 158.795
54.95000 156.332
54.96000 153.911
54.97000 153.132
54.98000 155.574
54.99000 158.101
55.00000 159.532
55.01000 165.490
55.02000 169.636
55.03000 168.382
55.04000 162.661
55.05000 157.046
55.06000 156.303
55.07000 158.211
55.08000 160.043
55.09000 161.971
55.10000 163.806
55.11000 165.572
55.12000 166.702
55.13000 167.678
55.14000 168.045
55.15000 165.014
55.16000 161.456
55.17000 158.618
55.18000 162.051
55.19000 165.283
55.20000 167.151
55.21000 165.720
55.22000 164.142
55.23000 165.769
55.24000 172.583
55.25000 179.468
55.26000 182.996
55.27000 179.775
55.28000 177.626
55.29000 177.148
55.30000 177.798
55.31000 178.343
55.32000 176.030
55.33000 172.432
55.34000 169.041
55.35000 169.673
55.36000 171.360
55.37000 173.376
55.38000 177.748
55.39000 182.585
55.40000 186.486
55.41000 186.157
55.42000 185.312
55.43000 184.670
55.44000 190.646
55.45000 195.695
55.46000 199.643
55.47000 201.389
55.48000 203.074
55.49000 204.003
55.50000 203.929
55.51000 203.850
55.52000 204.718
55.53000 206.383
55.54000 208.128
55.55000 213.865
55.56000 221.815
55.57000 229.934
55.58000 241.092
55.59000 253.382
55.60000 264.710
55.61000 272.168
55.62000 277.989
55.63000 284.906
55.64000 298.077
55.65000 312.238
55.66000 326.331
55.67000 340.168
55.68000 353.983
55.69000 363.938
55.70000 379.982
55.71000 392.491
55.72000 410.184
55.73000 436.433
55.74000 462.807
55.75000 486.984
55.76000 508.800
55.77000 530.508
55.78000 552.435
55.79000 574.258
55.80000 596.338
55.81000 625.738
55.82000 658.491
55.83000 690.363
55.84000 710.838
55.85000 727.814
55.86000 743.061
55.87000 758.835
55.88000 772.730
55.89000 787.496
55.90000 806.275
55.91000 825.555
55.92000 844.590
55.93000 862.884
55.94000 881.126
55.95000 893.481
55.96000 894.081
55.97000 894.270
55.98000 897.081
55.99000 903.437
56.00000 909.807
56.01000 911.617
56.02000 909.495
56.03000 907.400
56.04000 901.560
56.05000 893.803
56.06000 885.795
56.07000 873.073
56.08000 858.565
56.09000 842.879
56.10000 815.762
56.11000 785.764
56.12000 759.625
56.13000 736.013
56.14000 716.186
56.15000 694.105
56.16000 663.535
56.17000 632.151
56.18000 604.599
56.19000 586.673
56.20000 569.210
56.21000 558.194
56.22000 533.915
56.23000 516.180
56.24000 493.824
56.25000 466.402
56.26000 439.038
56.27000 419.773
56.28000 406.191
56.29000 392.911
56.30000 379.640
56.31000 366.923
56.32000 354.416
56.33000 344.725
56.34000 335.915
56.35000 326.377
56.36000 311.362
56.37000 295.223
56.38000 281.643
56.39000 268.804
56.40000 258.176
56.41000 249.380
56.42000 246.258
56.43000 243.541
56.44000 237.680
56.45000 225.290
56.46000 212.698
56.47000 205.379
56.48000 199.893
56.49000 196.053
56.50000 196.066
56.51000 199.472
56.52000 202.764
56.53000 199.630
56.54000 192.796
56.55000 186.205
56.56000 184.330
56.57000 184.279
56.58000 184.137
56.59000 183.090
56.60000 181.812
56.61000 180.371
56.62000 177.969
56.63000 175.408
56.64000 173.337
56.65000 175.811
56.66000 178.187
56.67000 179.281
56.68000 177.093
56.69000 174.741
56.70000 174.040
56.71000 176.167
56.72000 178.343
56.73000 179.493
56.74000 173.472
56.75000 169.390
56.76000 167.130
56.77000 166.173
56.78000 165.198
56.79000 163.689
56.80000 161.926
56.81000 160.255
56.82000 160.354
56.83000 160.966
56.84000 161.591
56.85000 162.327
56.86000 163.086
56.87000 163.513
56.88000 162.341
56.89000 160.960
56.90000 159.894
56.91000 158.626
56.92000 157.610
56.93000 155.266
56.94000 150.113
56.95000 144.869
56.96000 143.408
56.97000 147.271
56.98000 151.170
56.99000 151.999
57.00000 150.069
57.01000 148.186
57.02000 149.181
57.03000 151.865
57.04000 154.341
57.05000 152.609
57.06000 149.222
57.07000 146.079
57.08000 148.694
57.09000 152.411
57.10000 155.515
57.11000 154.884
57.12000 153.621
57.13000 152.703
57.14000 153.136
57.15000 153.705
57.16000 154.122
57.17000 157.965
57.18000 161.070
57.19000 160.574
57.20000 153.786
57.21000 146.884
57.22000 144.165
57.23000 146.231
57.24000 148.295
57.25000 149.490
57.26000 150.044
57.27000 150.581
57.28000 150.539
57.29000 150.217
57.30000 149.686
57.31000 146.179
57.32000 141.704
57.33000 137.653
57.34000 139.835
57.35000 142.932
57.36000 145.391
57.37000 144.723
57.38000 143.636
57.39000 143.223
57.40000 144.981
57.41000 146.904
57.42000 148.231
57.43000 147.513
57.44000 146.921
57.45000 145.187
57.46000 141.814
57.47000 138.431
57.48000 138.479
57.49000 141.679
57.50000 144.849
57.51000 145.457
57.52000 144.550
57.53000 143.627
57.54000 142.359
57.55000 140.953
57.56000 139.587
57.57000 138.650
57.58000 137.827
57.59000 137.103
57.60000 138.450
57.61000 139.918
57.62000 141.357
57.63000 142.680
57.64000 143.992
57.65000 145.493
57.66000 147.497
57.67000 149.529
57.68000 150.840
57.69000 151.043
57.70000 151.176
57.71000 150.354
57.72000 148.416
57.73000 146.482
57.74000 145.834
57.75000 146.143
57.76000 146.446
57.77000 149.109
57.78000 152.799
57.79000 156.128
57.80000 154.177
57.81000 150.478
57.82000 146.760
57.83000 142.898
57.84000 139.004
57.85000 135.693
57.86000 141.216
57.87000 146.875
57.88000 150.026
57.89000 144.952
57.90000 139.236
57.91000 136.237
57.92000 139.207
57.93000 142.389
57.94000 144.286
57.95000 144.901
57.96000 145.329
57.97000 145.575
57.98000 145.651
57.99000 145.714
58.00000 144.954
58.01000 143.691
58.02000 142.467
58.03000 144.103
58.04000 146.754
58.05000 149.000
58.06000 146.875
58.07000 143.558
58.08000 140.452
58.09000 138.690
58.10000 137.165
58.11000 135.918
58.12000 134.866
58.13000 134.021
58.14000 134.026
58.15000 136.334
58.16000 138.771
58.17000 139.090
58.18000 135.566
58.19000 131.962
58.20000 130.001
58.21000 136.028
58.22000 140.166
58.23000 142.345
58.24000 143.038
58.25000 143.642
58.26000 141.051
58.27000 136.853
58.28000 132.851
58.29000 131.379
58.30000 130.804
58.31000 130.583
58.32000 133.294
58.33000 136.658
58.34000 139.364
58.35000 138.711
58.36000 137.586
58.37000 136.705
58.38000 138.821
58.39000 140.704
58.40000 140.750
58.41000 136.680
58.42000 132.458
58.43000 130.828
58.44000 133.067
58.45000 135.343
58.46000 137.608
58.47000 139.863
58.48000 142.090
58.49000 142.240
58.50000 141.099
58.51000 139.953
58.52000 138.712
58.53000 137.431
58.54000 136.234
58.55000 136.156
58.56000 136.367
58.57000 136.540
58.58000 136.456
58.59000 136.326
58.60000 135.895
58.61000 134.218
58.62000 132.403
58.63000 131.052
58.64000 133.174
58.65000 134.982
58.66000 134.682
58.67000 130.482
58.68000 126.197
58.69000 126.680
58.70000 132.968
58.71000 139.255
58.72000 140.785
58.73000 138.639
58.74000 136.488
58.75000 134.175
58.76000 131.780
58.77000 129.588
58.78000 130.584
58.79000 132.675
58.80000 134.583
58.81000 134.045
58.82000 133.074
58.83000 133.028
58.84000 137.807
58.85000 143.281
58.86000 146.405
58.87000 141.525
58.88000 135.982
58.89000 132.084
58.90000 132.312
58.91000 132.606
58.92000 133.159
58.93000 134.105
58.94000 135.055
58.95000 134.578
58.96000 132.704
58.97000 130.843
58.98000 129.520
58.99000 128.554
59.00000 127.656
59.01000 128.396
59.02000 129.828
59.03000 131.142
59.04000 131.087
59.05000 130.644
59.06000 130.251
59.07000 130.585
59.08000 130.991
59.09000 131.890
59.10000 134.876
59.11000 138.097
59.12000 140.105
59.13000 138.702
59.14000 137.095
59.15000 136.037
59.16000 135.887
59.17000 135.792
59.18000 136.874
59.19000 139.420
59.20000 141.957
59.21000 140.420
59.22000 135.660
59.23000 130.977
59.24000 131.023
59.25000 133.460
59.26000 135.902
59.27000 138.441
59.28000 141.014
59.29000 143.438
59.30000 144.568
59.31000 145.398
59.32000 146.112
59.33000 142.247
59.34000 138.406
59.35000 136.175
59.36000 139.530
59.37000 143.362
59.38000 144.804
59.39000 140.694
59.40000 136.359
59.41000 133.711
59.42000 137.398
59.43000 140.087
59.44000 139.983
59.45000 137.081
59.46000 134.211
59.47000 134.228
59.48000 136.112
59.49000 137.944
59.50000 137.141
59.51000 135.296
59.52000 133.452
59.53000 131.628
59.54000 129.810
59.55000 128.516
59.56000 130.790
59.57000 133.737
59.58000 136.177
59.59000 132.115
59.60000 128.143
59.61000 126.238
59.62000 130.252
59.63000 134.632
59.64000 137.370
59.65000 136.951
59.66000 136.454
59.67000 136.176
59.68000 134.088
59.69000 132.640
59.70000 132.630
59.71000 133.781
59.72000 134.940
59.73000 136.450
59.74000 138.147
59.75000 139.773
59.76000 137.913
59.77000 135.018
59.78000 132.371
59.79000 131.932
59.80000 132.017
59.81000 131.724
59.82000 129.372
59.83000 126.711
59.84000 124.598
59.85000 127.344
59.86000 129.897
59.87000 131.195
59.88000 129.519
59.89000 127.717
59.90000 127.338
59.91000 129.210
59.92000 131.110
59.93000 132.071
59.94000 127.983
59.95000 125.257
59.96000 123.445
59.97000 122.235
59.98000 121.138
59.99000 122.969
60.00000 126.086
60.01000 129.016
60.02000 131.883
60.03000 134.484
60.04000 136.937
60.05000 138.361
60.06000 139.586
60.07000 139.542
60.08000 133.901
60.09000 127.598
60.10000 122.830
60.11000 125.788
60.12000 128.497
60.13000 130.379
60.14000 130.644
60.15000 130.866
60.16000 129.934
60.17000 127.509
60.18000 125.082
60.19000 129.041
60.20000 138.234
60.21000 147.229
60.22000 147.210
60.23000 142.305
60.24000 137.381
60.25000 132.137
60.26000 126.776
60.27000 121.848
60.28000 126.787
60.29000 133.325
60.30000 138.804
60.31000 138.394
60.32000 137.076
60.33000 135.955
60.34000 135.544
60.35000 135.197
60.36000 134.948
60.37000 136.587
60.38000 137.903
60.39000 138.593
60.40000 138.275
60.41000 137.943
60.42000 136.889
60.43000 135.080
60.44000 133.280
60.45000 134.067
60.46000 136.560
60.47000 139.011
60.48000 140.335
60.49000 141.155
60.50000 141.941
60.51000 142.294
60.52000 142.517
60.53000 142.718
60.54000 141.904
60.55000 141.020
60.56000 139.760
60.57000 136.812
60.58000 133.659
60.59000 130.955
60.60000 129.583
60.61000 128.299
60.62000 127.436
60.63000 123.346
60.64000 120.241
60.65000 119.627
60.66000 122.300
60.67000 124.987
60.68000 126.509
60.69000 127.052
60.70000 127.587
60.71000 126.007
60.72000 123.331
60.73000 120.889
60.74000 122.643
60.75000 125.951
60.76000 129.058
60.77000 130.278
60.78000 131.033
60.79000 131.688
60.80000 129.136
60.81000 126.530
60.82000 125.098
60.83000 127.981
60.84000 131.265
60.85000 134.086
60.86000 135.768
60.87000 137.397
60.88000 138.415
60.89000 135.235
60.90000 132.896
60.91000 133.991
60.92000 138.757
60.93000 143.478
60.94000 142.764
60.95000 138.325
60.96000 133.991
60.97000 130.640
60.98000 127.864
60.99000 125.625
61.00000 130.311
61.01000 137.115
61.02000 142.946
61.03000 141.675
61.04000 138.979
61.05000 136.721
61.06000 133.966
61.07000 131.623
61.08000 130.638
61.09000 133.769
61.10000 137.182
61.11000 138.043
61.12000 133.719
61.13000 129.244
61.14000 126.670
61.15000 127.348
61.16000 127.834
61.17000 128.599
61.18000 129.603
61.19000 130.663
61.20000 134.580
61.21000 140.105
61.22000 145.424
61.23000 139.894
61.24000 130.861
61.25000 123.233
61.26000 129.160
61.27000 138.492
61.28000 146.470
61.29000 146.587
61.30000 145.437
61.31000 144.512
61.32000 142.245
61.33000 140.302
61.34000 137.827
61.35000 134.019
61.36000 130.148
61.37000 128.922
61.38000 132.131
61.39000 135.410
61.40000 137.122
61.41000 135.758
61.42000 134.863
61.43000 137.782
61.44000 143.366
61.45000 148.724
61.46000 147.379
61.47000 142.919
61.48000 138.701
61.49000 142.594
61.50000 148.494
61.51000 154.180
61.52000 158.255
61.53000 162.002
61.54000 167.528
61.55000 181.398
61.56000 196.329
61.57000 207.792
61.58000 212.317
61.59000 215.506
61.60000 218.875
61.61000 222.617
61.62000 226.371
61.63000 233.984
61.64000 246.901
61.65000 259.842
61.66000 267.800
61.67000 271.382
61.68000 274.862
61.69000 272.715
61.70000 267.338
61.71000 262.086
61.72000 259.222
61.73000 257.278
61.74000 255.477
61.75000 254.603
61.76000 254.029
61.77000 251.732
61.78000 239.203
61.79000 224.989
61.80000 211.099
61.81000 198.449
61.82000 185.921
61.83000 176.801
61.84000 170.964
61.85000 166.596
61.86000 161.578
61.87000 155.449
61.88000 149.302
61.89000 145.577
61.90000 144.554
61.91000 143.537
61.92000 144.681
61.93000 147.338
61.94000 149.931
61.95000 150.514
61.96000 150.145
61.97000 149.620
61.98000 146.966
61.99000 143.635
62.00000 140.629
62.01000 139.887
62.02000 139.652
62.03000 139.742
62.04000 141.394
62.05000 143.249
62.06000 143.839
62.07000 140.450
62.08000 136.771
62.09000 134.251
62.10000 142.981
62.11000 149.792
62.12000 151.332
62.13000 145.484
62.14000 139.589
62.15000 138.829
62.16000 142.670
62.17000 146.470
62.18000 145.231
62.19000 141.140
62.20000 137.179
62.21000 135.835
62.22000 135.517
62.23000 135.513
62.24000 138.700
62.25000 142.721
62.26000 146.245
62.27000 141.358
62.28000 135.949
62.29000 132.203
62.30000 134.938
62.31000 138.326
62.32000 140.363
62.33000 138.889
62.34000 137.234
62.35000 136.176
62.36000 135.211
62.37000 134.510
62.38000 137.928
62.39000 146.038
62.40000 154.092
62.41000 152.062
62.42000 142.700
62.43000 133.528
62.44000 132.218
62.45000 134.607
62.46000 136.856
62.47000 137.137
62.48000 136.781
62.49000 136.907
62.50000 140.814
62.51000 145.528
62.52000 149.521
62.53000 149.442
62.54000 148.920
62.55000 148.420
62.56000 147.991
62.57000 147.568
62.58000 147.195
62.59000 146.933
62.60000 146.675
62.61000 146.522
62.62000 144.312
62.63000 142.740
62.64000 141.932
62.65000 141.822
62.66000 141.685
62.67000 139.791
62.68000 136.849
62.69000 134.004
62.70000 136.534
62.71000 140.948
62.72000 144.990
62.73000 145.155
62.74000 144.286
62.75000 143.654
62.76000 144.494
62.77000 145.587
62.78000 146.477
62.79000 138.977
62.80000 132.140
62.81000 127.647
62.82000 129.362
62.83000 131.408
62.84000 133.775
62.85000 136.711
62.86000 139.658
62.87000 141.244
62.88000 146.851
62.89000 150.655
62.90000 148.417
62.91000 141.698
62.92000 135.203
62.93000 136.381
62.94000 141.334
62.95000 146.043
62.96000 143.401
62.97000 138.716
62.98000 134.690
62.99000 135.968
63.00000 138.402
63.01000 140.351
63.02000 139.886
63.03000 139.091
63.04000 138.472
63.05000 135.490
63.06000 132.969
63.07000 132.385
63.08000 136.043
63.09000 139.851
63.10000 141.608
63.11000 140.375
63.12000 139.117
63.13000 139.485
63.14000 141.373
63.15000 143.214
63.16000 141.878
63.17000 138.612
63.18000 135.564
63.19000 137.249
63.20000 140.860
63.21000 144.224
63.22000 144.549
63.23000 144.095
63.24000 143.990
63.25000 146.095
63.26000 148.589
63.27000 150.502
63.28000 150.058
63.29000 149.362
63.30000 148.848
63.31000 148.209
63.32000 147.708
63.33000 147.730
63.34000 148.698
63.35000 149.685
63.36000 150.597
63.37000 151.418
63.38000 152.237
63.39000 150.645
63.40000 147.253
63.41000 143.924
63.42000 142.867
63.43000 142.950
63.44000 143.056
63.45000 143.518
63.46000 144.099
63.47000 144.628
63.48000 143.873
63.49000 142.953
63.50000 142.604
63.51000 145.158
63.52000 148.119
63.53000 149.425
63.54000 145.220
63.55000 140.574
63.56000 137.330
63.57000 141.738
63.58000 145.280
63.59000 146.539
63.60000 144.403
63.61000 142.236
63.62000 139.852
63.63000 137.262
63.64000 134.694
63.65000 137.613
63.66000 143.816
63.67000 149.862
63.68000 152.341
63.69000 153.342
63.70000 154.224
63.71000 153.798
63.72000 153.008
63.73000 152.311
63.74000 152.886
63.75000 153.582
63.76000 152.799
63.77000 145.901
63.78000 138.336
63.79000 134.498
63.80000 140.905
63.81000 147.900
63.82000 152.469
63.83000 151.281
63.84000 150.316
63.85000 150.617
63.86000 152.451
63.87000 154.286
63.88000 155.317
63.89000 155.728
63.90000 156.131
63.91000 156.324
63.92000 156.408
63.93000 156.371
63.94000 154.466
63.95000 151.921
63.96000 150.097
63.97000 154.359
63.98000 160.000
63.99000 164.829
64.00000 159.346
64.01000 153.474
64.02000 149.404
64.03000 151.448
64.04000 153.995
64.05000 156.017
64.06000 156.844
64.07000 157.624
64.08000 158.096
64.09000 158.729
64.10000 159.181
64.11000 157.091
64.12000 152.518
64.13000 148.008
64.14000 148.491
64.15000 152.126
64.16000 155.656
64.17000 159.798
64.18000 163.974
64.19000 167.477
64.20000 163.311
64.21000 156.981
64.22000 151.219
64.23000 149.233
64.24000 147.940
64.25000 146.874
64.26000 151.960
64.27000 156.713
64.28000 159.527
64.29000 156.914
64.30000 153.977
64.31000 152.648
64.32000 154.338
64.33000 156.098
64.34000 157.073
64.35000 160.768
64.36000 163.312
64.37000 162.436
64.38000 158.866
64.39000 155.379
64.40000 155.227
64.41000 156.810
64.42000 158.323
64.43000 158.098
64.44000 157.324
64.45000 156.304
64.46000 153.155
64.47000 149.513
64.48000 147.685
64.49000 155.475
64.50000 164.676
64.51000 171.941
64.52000 164.409
64.53000 157.357
64.54000 152.202
64.55000 151.438
64.56000 150.850
64.57000 153.641
64.58000 161.657
64.59000 169.732
64.60000 171.836
64.61000 167.985
64.62000 164.162
64.63000 162.776
64.64000 162.958
64.65000 163.272
64.66000 166.799
64.67000 171.708
64.68000 176.312
64.69000 175.453
64.70000 173.238
64.71000 171.284
64.72000 171.099
64.73000 171.246
64.74000 171.491
64.75000 172.156
64.76000 172.870
64.77000 173.406
64.78000 176.568
64.79000 179.167
64.80000 180.155
64.81000 178.062
64.82000 175.894
64.83000 173.132
64.84000 169.620
64.85000 166.111
64.86000 164.828
64.87000 165.334
64.88000 165.938
64.89000 170.736
64.90000 177.758
64.91000 184.412
64.92000 184.933
64.93000 183.272
64.94000 181.749
64.95000 180.754
64.96000 179.979
64.97000 179.814
64.98000 182.960
64.99000 186.602
65.00000 190.122
65.01000 193.212
65.02000 196.264
65.03000 198.434
65.04000 194.388
65.05000 191.108
65.06000 190.767
65.07000 195.056
65.08000 199.403
65.09000 202.871
65.10000 205.443
65.11000 208.000
65.12000 203.935
65.13000 195.644
65.14000 187.627
65.15000 186.617
65.16000 188.677
65.17000 190.724
65.18000 192.616
65.19000 194.462
65.20000 196.109
65.21000 202.464
65.22000 208.778
65.23000 214.700
65.24000 218.895
65.25000 222.888
65.26000 225.323
65.27000 223.231
65.28000 220.850
65.29000 219.263
65.30000 228.461
65.31000 235.478
65.32000 241.084
65.33000 244.873
65.34000 248.648
65.35000 250.197
65.36000 249.919
65.37000 249.644
65.38000 250.402
65.39000 251.682
65.40000 253.151
65.41000 257.908
65.42000 263.856
65.43000 269.813
65.44000 275.842
65.45000 281.889
65.46000 287.117
65.47000 289.134
65.48000 290.429
65.49000 291.909
65.50000 294.055
65.51000 296.260
65.52000 298.731
65.53000 301.841
65.54000 304.978
65.55000 306.922
65.56000 311.416
65.57000 314.671
65.58000 320.661
65.59000 329.499
65.60000 338.348
65.61000 348.278
65.62000 358.932
65.63000 369.319
65.64000 374.047
65.65000 376.149
65.66000 379.961
65.67000 405.017
65.68000 436.423
65.69000 467.522
65.70000 496.431
65.71000 524.912
65.72000 548.663
65.73000 608.645
65.74000 662.001
65.75000 715.966
65.76000 771.735
65.77000 827.623
65.78000 873.234
65.79000 898.425
65.80000 923.056
65.81000 937.076
65.82000 971.099
65.83000 994.852
65.84000 1005.596
65.85000 1005.438
65.86000 1005.361
65.87000 1009.144
65.88000 1015.053
65.89000 1020.729
65.90000 1006.238
65.91000 985.704
65.92000 965.553
65.93000 948.987
65.94000 933.302
65.95000 911.893
65.96000 858.107
65.97000 799.240
65.98000 752.137
65.99000 686.559
66.00000 632.155
66.01000 579.393
66.02000 530.652
66.03000 482.095
66.04000 441.586
66.05000 414.261
66.06000 387.125
66.07000 373.131
66.08000 350.010
66.09000 334.468
66.10000 322.905
66.11000 314.058
66.12000 305.305
66.13000 299.187
66.14000 294.268
66.15000 289.626
66.16000 291.349
66.17000 294.706
66.18000 298.126
66.19000 302.004
66.20000 305.972
66.21000 308.664
66.22000 305.513
66.23000 301.640
66.24000 298.684
66.25000 303.712
66.26000 308.102
66.27000 315.189
66.28000 327.735
66.29000 340.437
66.30000 351.813
66.31000 361.408
66.32000 370.987
66.33000 380.824
66.34000 390.860
66.35000 400.823
66.36000 407.031
66.37000 411.131
66.38000 414.961
66.39000 413.792
66.40000 410.743
66.41000 407.929
66.42000 411.856
66.43000 416.891
66.44000 420.051
66.45000 412.380
66.46000 402.970
66.47000 397.308
66.48000 405.655
66.49000 415.332
66.50000 422.330
66.51000 411.470
66.52000 402.485
66.53000 389.251
66.54000 368.922
66.55000 348.484
66.56000 336.759
66.57000 334.513
66.58000 332.280
66.59000 327.616
66.60000 321.327
66.61000 315.183
66.62000 313.328
66.63000 313.459
66.64000 313.487
66.65000 312.162
66.66000 310.416
66.67000 308.846
66.68000 306.417
66.69000 304.135
66.70000 302.277
66.71000 302.395
66.72000 302.764
66.73000 302.424
66.74000 299.908
66.75000 297.239
66.76000 295.423
66.77000 301.416
66.78000 306.066
66.79000 308.674
66.80000 308.484
66.81000 308.279
66.82000 308.768
66.83000 309.864
66.84000 310.947
66.85000 306.556
66.86000 299.216
66.87000 292.431
66.88000 296.320
66.89000 304.301
66.90000 311.336
66.91000 309.052
66.92000 304.389
66.93000 300.318
66.94000 304.119
66.95000 308.477
66.96000 311.403
66.97000 308.877
66.98000 305.818
66.99000 306.872
67.00000 318.377
67.01000 330.398
67.02000 338.015
67.03000 334.890
67.04000 332.493
67.05000 334.542
67.06000 341.529
67.07000 348.483
67.08000 350.126
67.09000 347.997
67.10000 345.914
67.11000 346.772
67.12000 348.927
67.13000 351.056
67.14000 352.839
67.15000 354.512
67.16000 355.938
67.17000 355.477
67.18000 354.623
67.19000 353.903
67.20000 349.697
67.21000 345.806
67.22000 342.527
67.23000 341.168
67.24000 339.948
67.25000 343.738
67.26000 358.060
67.27000 372.717
67.28000 381.282
67.29000 370.221
67.30000 362.350
67.31000 358.122
67.32000 357.145
67.33000 356.258
67.34000 360.560
67.35000 367.887
67.36000 374.960
67.37000 379.150
67.38000 382.035
67.39000 384.424
67.40000 381.791
67.41000 377.851
67.42000 375.170
67.43000 380.087
67.44000 386.278
67.45000 391.296
67.46000 393.548
67.47000 395.156
67.48000 397.058
67.49000 399.717
67.50000 402.415
67.51000 402.860
67.52000 399.396
67.53000 395.861
67.54000 393.982
67.55000 393.326
67.56000 392.902
67.57000 395.829
67.58000 401.185
67.59000 406.483
67.60000 409.910
67.61000 412.437
67.62000 414.835
67.63000 416.794
67.64000 418.471
67.65000 420.433
67.66000 424.621
67.67000 429.283
67.68000 434.095
67.69000 439.637
67.70000 445.276
67.71000 449.643
67.72000 443.016
67.73000 437.101
67.74000 432.633
67.75000 431.264
67.76000 429.999
67.77000 433.441
67.78000 443.586
67.79000 453.779
67.80000 460.968
67.81000 465.417
67.82000 469.787
67.83000 469.140
67.84000 465.513
67.85000 462.121
67.86000 463.588
67.87000 466.988
67.88000 470.148
67.89000 473.480
67.90000 476.528
67.91000 478.467
67.92000 473.557
67.93000 467.473
67.94000 464.497
67.95000 473.838
67.96000 484.447
67.97000 492.248
67.98000 498.557
67.99000 503.376
68.00000 506.552
68.01000 506.822
68.02000 507.038
68.03000 509.260
68.04000 513.807
68.05000 518.344
68.06000 522.253
68.07000 525.674
68.08000 528.918
68.09000 526.177
68.10000 520.504
68.11000 515.656
68.12000 522.763
68.13000 533.798
68.14000 543.807
68.15000 530.849
68.16000 515.025
68.17000 503.238
68.18000 511.494
68.19000 522.479
68.20000 532.803
68.21000 540.976
68.22000 548.982
68.23000 554.532
68.24000 555.312
68.25000 555.774
68.26000 561.369
68.27000 574.422
68.28000 587.535
68.29000 593.924
68.30000 594.053
68.31000 594.182
68.32000 597.867
68.33000 603.591
68.34000 609.292
68.35000 614.526
68.36000 619.569
68.37000 624.529
68.38000 628.595
68.39000 632.419
68.40000 635.788
68.41000 655.690
68.42000 675.337
68.43000 690.393
68.44000 686.897
68.45000 681.440
68.46000 677.316
68.47000 676.774
68.48000 676.430
68.49000 676.207
68.50000 689.292
68.51000 699.065
68.52000 716.396
68.53000 742.669
68.54000 768.900
68.55000 783.066
68.56000 788.136
68.57000 793.114
68.58000 820.128
68.59000 856.803
68.60000 893.092
68.61000 923.594
68.62000 952.159
68.63000 981.858
68.64000 1020.867
68.65000 1061.935
68.66000 1096.941
68.67000 1161.747
68.68000 1219.756
68.69000 1273.058
68.70000 1310.741
68.71000 1347.183
68.72000 1388.713
68.73000 1441.552
68.74000 1494.806
68.75000 1526.715
68.76000 1609.854
68.77000 1669.226
68.78000 1708.586
68.79000 1728.914
68.80000 1749.823
68.81000 1812.929
68.82000 1902.083
68.83000 1988.511
68.84000 2076.461
68.85000 2160.355
68.86000 2250.759
68.87000 2412.809
68.88000 2594.624
68.89000 2809.882
68.90000 3241.013
68.91000 3710.784
68.92000 4096.202
68.93000 5623.076
68.94000 6977.748
68.95000 8709.707
68.96000 11474.804
68.97000 14298.910
68.98000 17557.631
68.99000 21614.418
69.00000 25688.443
69.01000 27919.238
69.02000 33861.230
69.03000 37948.824
69.04000 41202.855
69.05000 43815.629
69.06000 46398.070
69.07000 47837.145
69.08000 48694.504
69.09000 49512.449
69.10000 49790.316
69.11000 49877.148
69.12000 50010.273
69.13000 50532.762
69.14000 51143.148
69.15000 51748.871
69.16000 52330.469
69.17000 52908.629
69.18000 53362.691
69.19000 52887.570
69.20000 52446.527
69.21000 51439.488
69.22000 49150.695
69.23000 46812.820
69.24000 44159.102
69.25000 41028.289
69.26000 37892.719
69.27000 35317.297
69.28000 33286.438
69.29000 31262.100
69.30000 29750.080
69.31000 28560.480
69.32000 27387.467
69.33000 26602.092
69.34000 25979.766
69.35000 25397.574
69.36000 24675.797
69.37000 23984.428
69.38000 23213.891
69.39000 21920.637
69.40000 20531.797
69.41000 19001.941
69.42000 16879.186
69.43000 14690.435
69.44000 13055.085
69.45000 10560.609
69.46000 8576.362
69.47000 6883.118
69.48000 5734.418
69.49000 4598.199
69.50000 3732.995
69.51000 3201.871
69.52000 2672.693
69.53000 2310.956
69.54000 2081.834
69.55000 1854.688
69.56000 1706.166
69.57000 1598.404
69.58000 1492.844
69.59000 1422.493
69.60000 1364.387
69.61000 1311.286
69.62000 1251.779
69.63000 1197.612
69.64000 1144.854
69.65000 1099.547
69.66000 1055.327
69.67000 1015.223
69.68000 989.310
69.69000 964.594
69.70000 947.148
69.71000 922.806
69.72000 904.123
69.73000 884.070
69.74000 861.907
69.75000 839.720
69.76000 826.651
69.77000 822.638
69.78000 818.654
69.79000 810.844
69.80000 800.743
69.81000 790.303
69.82000 771.590
69.83000 749.333
69.84000 728.291
69.85000 721.401
69.86000 718.567
69.87000 716.048
69.88000 706.793
69.89000 697.670
69.90000 688.469
69.91000 678.934
69.92000 669.361
69.93000 660.507
69.94000 653.696
69.95000 647.010
69.96000 642.588
69.97000 647.546
69.98000 651.373
69.99000 650.796
70.00000 644.679
