20.00000 574.315
20.01000 571.104
20.02000 567.435
20.03000 564.671
20.04000 565.405
20.05000 566.487
20.06000 567.278
20.07000 563.128
20.08000 559.736
20.09000 557.674
20.10000 557.906
20.11000 558.178
20.12000 558.984
20.13000 560.392
20.14000 561.795
20.15000 560.968
20.16000 558.556
20.17000 556.196
20.18000 555.491
20.19000 555.578
20.20000 555.705
20.21000 556.384
20.22000 557.239
20.23000 558.013
20.24000 560.242
20.25000 562.473
20.26000 563.229
20.27000 556.850
20.28000 549.530
20.29000 544.855
20.30000 548.587
20.31000 552.943
20.32000 555.937
20.33000 548.966
20.34000 543.491
20.35000 541.304
20.36000 543.773
20.37000 546.277
20.38000 550.114
20.39000 555.158
20.40000 560.151
20.41000 566.279
20.42000 572.931
20.43000 579.222
20.44000 578.124
20.45000 574.103
20.46000 570.261
20.47000 568.266
20.48000 566.758
20.49000 565.435
20.50000 563.859
20.51000 562.468
20.52000 559.539
20.53000 550.551
20.54000 540.944
20.55000 534.945
20.56000 538.413
20.57000 542.378
20.58000 544.923
20.59000 561.492
20.60000 573.762
20.61000 577.807
20.62000 572.380
20.63000 566.916
20.64000 557.274
20.65000 544.561
20.66000 532.098
20.67000 536.452
20.68000 548.532
20.69000 559.815
20.70000 559.649
20.71000 555.742
20.72000 552.104
20.73000 550.607
20.74000 549.572
20.75000 548.693
20.76000 550.303
20.77000 551.936
20.78000 552.656
20.79000 550.424
20.80000 547.966
20.81000 545.304
20.82000 542.200
20.83000 539.081
20.84000 537.232
20.85000 551.498
20.86000 561.678
20.87000 563.424
20.88000 557.366
20.89000 551.323
20.90000 546.301
20.91000 541.893
20.92000 537.628
20.93000 543.938
20.94000 553.926
20.95000 562.443
20.96000 555.331
20.97000 544.014
20.98000 534.960
20.99000 540.095
21.00000 547.700
21.01000 553.907
21.02000 558.460
21.03000 562.043
21.04000 562.023
21.05000 552.375
21.06000 542.201
21.07000 538.859
21.08000 547.758
21.09000 556.901
21.10000 561.846
21.11000 569.331
21.12000 574.427
21.13000 573.362
21.14000 567.677
21.15000 562.128
21.16000 561.388
21.17000 563.036
21.18000 564.605
21.19000 561.737
21.20000 557.714
21.21000 553.680
21.22000 549.557
21.23000 545.414
21.24000 542.130
21.25000 543.168
21.26000 544.804
21.27000 546.082
21.28000 547.710
21.29000 549.030
21.30000 547.744
21.31000 540.695
21.32000 533.438
21.33000 533.344
21.34000 543.800
21.35000 554.349
21.36000 554.297
21.37000 544.226
21.38000 534.322
21.39000 536.224
21.40000 545.374
21.41000 554.350
21.42000 559.483
21.43000 563.037
21.44000 566.352
21.45000 554.081
21.46000 539.089
21.47000 527.492
21.48000 537.656
21.49000 551.691
21.50000 560.839
21.51000 549.955
21.52000 536.914
21.53000 527.237
21.54000 533.953
21.55000 539.891
21.56000 544.106
21.57000 545.175
21.58000 546.178
21.59000 546.724
21.60000 546.722
21.61000 546.719
21.62000 550.849
21.63000 558.097
21.64000 565.171
21.65000 565.822
21.66000 563.224
21.67000 561.050
21.68000 565.388
21.69000 571.937
21.70000 577.902
21.71000 574.085
21.72000 568.760
21.73000 565.424
21.74000 572.317
21.75000 580.661
21.76000 588.298
21.77000 593.559
21.78000 598.628
21.79000 602.178
21.80000 613.007
21.81000 621.404
21.82000 627.963
21.83000 631.761
21.84000 635.532
21.85000 639.384
21.86000 643.313
21.87000 647.212
21.88000 660.616
21.89000 679.630
21.90000 698.028
21.91000 702.220
21.92000 700.468
21.93000 699.920
21.94000 712.893
21.95000 729.647
21.96000 744.487
21.97000 756.463
21.98000 766.374
21.99000 776.942
22.00000 790.252
22.01000 803.866
22.02000 813.747
22.03000 813.269
22.04000 812.185
22.05000 811.474
22.06000 810.559
22.07000 809.882
22.08000 807.138
22.09000 801.859
22.10000 796.578
22.11000 792.078
22.12000 788.188
22.13000 784.362
22.14000 778.768
22.15000 772.473
22.16000 766.221
22.17000 760.633
22.18000 755.276
22.19000 749.041
22.20000 735.295
22.21000 719.828
22.22000 706.567
22.23000 686.845
22.24000 669.395
22.25000 656.326
22.26000 658.275
22.27000 661.480
22.28000 660.660
22.29000 650.600
22.30000 640.177
22.31000 633.843
22.32000 617.821
22.33000 606.309
22.34000 606.657
22.35000 618.712
22.36000 630.557
22.37000 624.821
22.38000 607.868
22.39000 591.395
22.40000 585.614
22.41000 584.452
22.42000 582.759
22.43000 574.927
22.44000 565.345
22.45000 556.282
22.46000 550.697
22.47000 545.757
22.48000 541.677
22.49000 550.462
22.50000 558.904
22.51000 562.388
22.52000 551.850
22.53000 540.463
22.54000 533.142
22.55000 533.532
22.56000 534.106
22.57000 534.426
22.58000 524.998
22.59000 518.480
22.60000 518.961
22.61000 525.015
22.62000 531.018
22.63000 534.917
22.64000 537.710
22.65000 540.382
22.66000 536.229
22.67000 530.120
22.68000 524.638
22.69000 524.665
22.70000 525.978
22.71000 526.651
22.72000 523.888
22.73000 520.616
22.74000 518.026
22.75000 521.283
22.76000 524.305
22.77000 525.853
22.78000 523.955
22.79000 521.916
22.80000 518.429
22.81000 512.684
22.82000 506.911
22.83000 504.013
22.84000 517.087
22.85000 525.760
22.86000 529.306
22.87000 529.518
22.88000 529.625
22.89000 527.072
22.90000 523.363
22.91000 519.882
22.92000 523.853
22.93000 529.448
22.94000 533.738
22.95000 529.060
22.96000 522.681
22.97000 516.850
22.98000 513.402
22.99000 510.231
23.00000 507.841
23.01000 516.290
23.02000 523.438
23.03000 527.997
23.04000 527.552
23.05000 526.982
23.06000 527.777
23.07000 530.315
23.08000 532.857
23.09000 528.662
23.10000 519.027
23.11000 509.504
23.12000 504.861
23.13000 502.832
23.14000 501.223
23.15000 506.751
23.16000 514.842
23.17000 522.268
23.18000 519.440
23.19000 514.740
23.20000 511.341
23.21000 515.069
23.22000 519.880
23.23000 524.433
23.24000 528.067
23.25000 531.620
23.26000 534.153
23.27000 525.016
23.28000 517.667
23.29000 513.153
23.30000 513.153
23.31000 513.212
23.32000 509.423
23.33000 501.668
23.34000 493.960
23.35000 497.823
23.36000 509.202
23.37000 519.884
23.38000 512.273
23.39000 496.569
23.40000 482.497
23.41000 488.408
23.42000 500.238
23.43000 510.808
23.44000 508.656
23.45000 504.634
23.46000 502.718
23.47000 510.146
23.48000 518.689
23.49000 522.740
23.50000 513.605
23.51000 503.615
23.52000 496.932
23.53000 495.875
23.54000 495.203
23.55000 493.847
23.56000 491.600
23.57000 489.347
23.58000 486.493
23.59000 483.139
23.60000 479.830
23.61000 483.165
23.62000 489.930
23.63000 496.397
23.64000 497.639
23.65000 496.968
23.66000 496.364
23.67000 496.370
23.68000 496.524
23.69000 496.657
23.70000 508.969
23.71000 521.051
23.72000 528.899
23.73000 521.369
23.74000 512.438
23.75000 507.672
23.76000 513.017
23.77000 518.814
23.78000 522.420
23.79000 515.438
23.80000 510.302
23.81000 505.567
23.82000 501.253
23.83000 496.968
23.84000 495.855
23.85000 496.889
23.86000 497.898
23.87000 497.171
23.88000 495.730
23.89000 494.582
23.90000 497.137
23.91000 500.809
23.92000 504.601
23.93000 509.247
23.94000 514.062
23.95000 518.086
23.96000 506.510
23.97000 495.319
23.98000 486.951
23.99000 487.029
24.00000 487.673
24.01000 490.337
24.02000 497.055
24.03000 503.886
24.04000 507.793
24.05000 494.648
24.06000 485.424
24.07000 482.971
24.08000 486.253
24.09000 489.519
24.10000 491.977
24.11000 493.985
24.12000 495.916
24.13000 490.388
24.14000 482.604
24.15000 476.062
24.16000 481.308
24.17000 489.478
24.18000 496.741
24.19000 498.817
24.20000 500.069
24.21000 501.073
24.22000 498.116
24.23000 495.421
24.24000 493.755
24.25000 494.632
24.26000 495.627
24.27000 494.804
24.28000 490.971
24.29000 487.093
24.30000 485.082
24.31000 481.813
24.32000 479.613
24.33000 478.195
24.34000 477.315
24.35000 476.529
24.36000 478.413
24.37000 481.523
24.38000 484.461
24.39000 485.091
24.40000 485.018
24.41000 485.735
24.42000 492.262
24.43000 499.962
24.44000 504.421
24.45000 493.898
24.46000 481.499
24.47000 472.011
24.48000 465.831
24.49000 461.135
24.50000 462.588
24.51000 476.610
24.52000 491.004
24.53000 498.339
24.54000 496.103
24.55000 493.815
24.56000 491.741
24.57000 489.857
24.58000 487.976
24.59000 486.297
24.60000 484.731
24.61000 483.392
24.62000 486.330
24.63000 490.892
24.64000 495.109
24.65000 489.953
24.66000 483.197
24.67000 477.575
24.68000 478.577
24.69000 480.655
24.70000 481.897
24.71000 479.981
24.72000 477.761
24.73000 476.150
24.74000 470.615
24.75000 466.215
24.76000 466.210
24.77000 473.615
24.78000 481.140
24.79000 481.681
24.80000 474.541
24.81000 467.428
24.82000 469.252
24.83000 477.279
24.84000 485.084
24.85000 486.196
24.86000 484.176
24.87000 482.431
24.88000 484.362
24.89000 487.445
24.90000 490.223
24.91000 492.429
24.92000 494.260
24.93000 495.186
24.94000 491.842
24.95000 487.949
24.96000 483.811
24.97000 478.908
24.98000 473.951
24.99000 470.568
25.00000 476.777
25.01000 481.642
25.02000 481.396
25.03000 474.080
25.04000 466.727
25.05000 467.461
25.06000 475.337
25.07000 483.125
25.08000 486.020
25.09000 486.088
25.10000 486.113
25.11000 485.294
25.12000 484.149
25.13000 483.305
25.14000 485.478
25.15000 488.428
25.16000 491.008
25.17000 488.561
25.18000 485.751
25.19000 482.679
25.20000 478.601
25.21000 474.423
25.22000 472.778
25.23000 477.631
25.24000 482.810
25.25000 486.105
25.26000 483.377
25.27000 481.319
25.28000 478.469
25.29000 474.731
25.30000 470.987
25.31000 466.529
25.32000 461.559
25.33000 456.694
25.34000 461.429
25.35000 470.374
25.36000 478.829
25.37000 480.517
25.38000 480.043
25.39000 479.301
25.40000 476.498
25.41000 473.260
25.42000 470.525
25.43000 475.482
25.44000 480.471
25.45000 482.989
25.46000 477.679
25.47000 471.793
25.48000 467.453
25.49000 466.394
25.50000 465.444
25.51000 464.885
25.52000 457.668
25.53000 452.550
25.54000 451.858
25.55000 455.158
25.56000 458.393
25.57000 457.706
25.58000 454.710
25.59000 451.816
25.60000 459.366
25.61000 470.364
25.62000 480.064
25.63000 476.426
25.64000 469.280
25.65000 463.396
25.66000 465.219
25.67000 468.350
25.68000 470.892
25.69000 465.684
25.70000 460.792
25.71000 458.142
25.72000 461.352
25.73000 464.868
25.74000 468.155
25.75000 471.039
25.76000 473.916
25.77000 475.453
25.78000 467.732
25.79000 462.480
25.80000 460.682
25.81000 461.414
25.82000 461.973
25.83000 456.847
25.84000 448.960
25.85000 441.469
25.86000 445.173
25.87000 451.961
25.88000 458.233
25.89000 460.425
25.90000 461.741
25.91000 463.593
25.92000 468.079
25.93000 472.919
25.94000 476.677
25.95000 471.173
25.96000 466.237
25.97000 463.081
25.98000 463.772
25.99000 464.595
26.00000 464.589
26.01000 463.388
26.02000 462.178
26.03000 464.629
26.04000 470.449
26.05000 476.197
26.06000 477.258
26.07000 475.507
26.08000 473.616
26.09000 468.757
26.10000 462.707
26.11000 457.077
26.12000 454.832
26.13000 453.622
26.14000 453.122
26.15000 457.050
26.16000 461.746
26.17000 464.935
26.18000 462.093
26.19000 458.621
26.20000 456.061
26.21000 459.393
26.22000 462.221
26.23000 461.468
26.24000 454.322
26.25000 447.050
26.26000 446.422
26.27000 453.574
26.28000 460.716
26.29000 462.016
26.30000 458.974
26.31000 455.917
26.32000 452.329
26.33000 448.479
26.34000 444.777
26.35000 443.245
26.36000 442.435
26.37000 441.699
26.38000 444.140
26.39000 446.911
26.40000 448.654
26.41000 445.237
26.42000 441.109
26.43000 438.570
26.44000 441.257
26.45000 444.353
26.46000 446.506
26.47000 454.102
26.48000 459.976
26.49000 463.987
26.50000 465.267
26.51000 466.522
26.52000 464.877
26.53000 460.504
26.54000 456.169
26.55000 449.262
26.56000 440.946
26.57000 432.886
26.58000 430.487
26.59000 430.405
26.60000 430.902
26.61000 437.697
26.62000 446.214
26.63000 453.730
26.64000 448.276
26.65000 441.586
26.66000 435.792
26.67000 433.650
26.68000 431.900
26.69000 431.532
26.70000 434.915
26.71000 438.510
26.72000 440.847
26.73000 441.863
26.74000 442.587
26.75000 449.645
26.76000 464.278
26.77000 478.864
26.78000 479.805
26.79000 470.351
26.80000 461.065
26.81000 449.716
26.82000 437.755
26.83000 426.579
26.84000 427.364
26.85000 432.195
26.86000 436.643
26.87000 437.911
26.88000 438.467
26.89000 438.942
26.90000 440.165
26.91000 441.284
26.92000 443.997
26.93000 452.053
26.94000 460.541
26.95000 465.225
26.96000 461.373
26.97000 457.200
26.98000 454.689
26.99000 460.814
27.00000 465.229
27.01000 466.235
27.02000 463.963
27.03000 461.689
27.04000 459.302
27.05000 456.845
27.06000 454.460
27.07000 453.519
27.08000 453.197
27.09000 452.325
27.10000 445.311
27.11000 436.586
27.12000 429.339
27.13000 431.746
27.14000 435.902
27.15000 439.318
27.16000 443.630
27.17000 447.254
27.18000 450.642
27.19000 453.378
27.20000 456.076
27.21000 455.420
27.22000 448.545
27.23000 441.532
27.24000 437.672
27.25000 453.318
27.26000 464.088
27.27000 464.909
27.28000 457.994
27.29000 451.162
27.30000 447.562
27.31000 445.622
27.32000 443.769
27.33000 439.792
27.34000 435.415
27.35000 431.954
27.36000 436.291
27.37000 442.407
27.38000 446.342
27.39000 438.865
27.40000 429.741
27.41000 422.558
27.42000 429.463
27.43000 435.934
27.44000 440.019
27.45000 438.649
27.46000 437.066
27.47000 438.418
27.48000 444.249
27.49000 450.128
27.50000 448.835
27.51000 440.493
27.52000 432.195
27.53000 427.559
27.54000 425.250
27.55000 423.137
27.56000 425.672
27.57000 430.182
27.58000 434.406
27.59000 433.869
27.60000 432.152
27.61000 430.180
27.62000 426.510
27.63000 422.526
27.64000 420.369
27.65000 425.974
27.66000 432.455
27.67000 437.311
27.68000 437.924
27.69000 438.203
27.70000 435.266
27.71000 426.252
27.72000 417.095
27.73000 415.969
27.74000 424.849
27.75000 433.743
27.76000 435.998
27.77000 433.002
27.78000 429.981
27.79000 425.963
27.80000 421.424
27.81000 417.367
27.82000 421.164
27.83000 427.718
27.84000 433.716
27.85000 435.481
27.86000 436.175
27.87000 436.374
27.88000 433.928
27.89000 431.091
27.90000 429.008
27.91000 429.552
27.92000 430.320
27.93000 430.864
27.94000 432.392
27.95000 433.584
27.96000 430.913
27.97000 422.234
27.98000 413.485
27.99000 413.097
28.00000 421.108
28.01000 429.066
28.02000 429.451
28.03000 424.998
28.04000 420.723
28.05000 420.877
28.06000 422.949
28.07000 425.172
28.08000 429.193
28.09000 433.735
28.10000 437.779
28.11000 438.885
28.12000 439.365
28.13000 440.282
28.14000 443.095
28.15000 446.127
28.16000 445.326
28.17000 433.522
28.18000 421.031
28.19000 412.742
28.20000 423.066
28.21000 431.040
28.22000 436.438
28.23000 438.558
28.24000 440.670
28.25000 444.046
28.26000 448.445
28.27000 452.778
28.28000 450.520
28.29000 444.917
28.30000 439.727
28.31000 441.501
28.32000 445.767
28.33000 449.107
28.34000 444.144
28.35000 437.210
28.36000 431.228
28.37000 426.742
28.38000 423.128
28.39000 421.556
28.40000 427.228
28.41000 433.539
28.42000 435.311
28.43000 426.309
28.44000 416.847
28.45000 411.016
28.46000 405.676
28.47000 401.847
28.48000 402.282
28.49000 407.095
28.50000 411.917
28.51000 417.584
28.52000 423.810
28.53000 429.874
28.54000 434.311
28.55000 437.857
28.56000 440.056
28.57000 425.863
28.58000 406.830
28.59000 391.269
28.60000 399.992
28.61000 413.398
28.62000 424.549
28.63000 427.181
28.64000 428.523
28.65000 429.268
28.66000 428.264
28.67000 427.148
28.68000 425.770
28.69000 423.878
28.70000 421.973
28.71000 420.895
28.72000 417.846
28.73000 415.721
28.74000 414.150
28.75000 413.037
28.76000 412.028
28.77000 415.829
28.78000 422.245
28.79000 428.403
28.80000 421.057
28.81000 409.587
28.82000 399.523
28.83000 402.376
28.84000 408.358
28.85000 414.314
28.86000 420.124
28.87000 425.912
28.88000 430.529
28.89000 426.570
28.90000 422.746
28.91000 419.493
28.92000 417.620
28.93000 415.808
28.94000 414.765
28.95000 414.967
28.96000 415.186
28.97000 415.298
28.98000 416.405
28.99000 417.130
29.00000 415.831
29.01000 413.168
29.02000 410.739
29.03000 414.677
29.04000 421.476
29.05000 427.881
29.06000 419.488
29.07000 407.730
29.08000 397.374
29.09000 397.059
29.10000 398.720
29.11000 401.333
29.12000 408.237
29.13000 415.662
29.14000 421.311
29.15000 422.738
29.16000 423.640
29.17000 423.953
29.18000 423.088
29.19000 422.191
29.20000 421.001
29.21000 419.421
29.22000 417.842
29.23000 418.340
29.24000 420.587
29.25000 422.871
29.26000 426.961
29.27000 432.052
29.28000 436.687
29.29000 433.077
29.30000 426.405
29.31000 420.255
29.32000 423.208
29.33000 427.865
29.34000 431.291
29.35000 427.706
29.36000 423.013
29.37000 418.512
29.38000 414.724
29.39000 411.001
29.40000 408.319
29.41000 419.114
29.42000 427.861
29.43000 429.726
29.44000 420.248
29.45000 410.603
29.46000 408.760
29.47000 415.283
29.48000 421.776
29.49000 426.383
29.50000 429.656
29.51000 432.833
29.52000 433.299
29.53000 432.525
29.54000 431.501
29.55000 427.244
29.56000 421.995
29.57000 417.282
29.58000 417.442
29.59000 418.439
29.60000 418.905
29.61000 416.920
29.62000 414.630
29.63000 414.078
29.64000 418.803
29.65000 423.891
29.66000 427.336
29.67000 416.354
29.68000 407.854
29.69000 404.665
29.70000 408.648
29.71000 412.674
29.72000 419.282
29.73000 428.112
29.74000 436.836
29.75000 434.845
29.76000 427.007
29.77000 419.663
29.78000 421.588
29.79000 427.021
29.80000 431.435
29.81000 425.976
29.82000 418.030
29.83000 411.107
29.84000 424.050
29.85000 437.853
29.86000 446.937
29.87000 438.279
29.88000 427.921
29.89000 422.273
29.90000 428.448
29.91000 435.191
29.92000 439.443
29.93000 439.178
29.94000 438.935
29.95000 440.050
29.96000 442.652
29.97000 445.248
29.98000 446.791
29.99000 447.597
30.00000 448.385
30.01000 454.865
30.02000 463.620
30.03000 472.040
30.04000 476.001
30.05000 478.569
30.06000 480.169
30.07000 474.509
30.08000 467.358
30.09000 461.343
30.10000 451.309
30.11000 442.515
30.12000 435.115
30.13000 432.031
30.14000 429.253
30.15000 429.920
30.16000 437.737
30.17000 445.775
30.18000 450.444
30.19000 446.584
30.20000 443.839
30.21000 443.616
30.22000 445.612
30.23000 447.547
30.24000 446.116
30.25000 442.748
30.26000 439.500
30.27000 434.602
30.28000 429.397
30.29000 424.899
30.30000 427.434
30.31000 431.775
30.32000 435.366
30.33000 434.487
30.34000 432.870
30.35000 431.563
30.36000 438.411
30.37000 444.634
30.38000 447.630
30.39000 442.377
30.40000 436.711
30.41000 432.435
30.42000 430.539
30.43000 428.683
30.44000 427.703
30.45000 430.137
30.46000 431.774
30.47000 430.949
30.48000 428.364
30.49000 426.012
30.50000 430.951
30.51000 439.352
30.52000 447.315
30.53000 447.796
30.54000 446.044
30.55000 444.279
30.56000 442.411
30.57000 440.521
30.58000 439.327
30.59000 441.472
30.60000 444.054
30.61000 446.047
30.62000 435.067
30.63000 425.610
30.64000 422.052
30.65000 430.971
30.66000 440.293
30.67000 445.027
30.68000 443.312
30.69000 441.552
30.70000 442.235
30.71000 445.110
30.72000 447.987
30.73000 450.973
30.74000 454.024
30.75000 457.108
30.76000 460.871
30.77000 464.902
30.78000 468.642
30.79000 473.683
30.80000 478.533
30.81000 482.636
30.82000 482.198
30.83000 480.992
30.84000 480.645
30.85000 483.654
30.86000 487.004
30.87000 489.457
30.88000 490.787
30.89000 491.769
30.90000 491.735
30.91000 489.926
30.92000 488.085
30.93000 493.053
30.94000 505.800
30.95000 518.511
30.96000 535.130
30.97000 554.433
30.98000 573.707
30.99000 592.019
31.00000 609.865
31.01000 627.929
31.02000 649.090
31.03000 671.257
31.04000 691.325
31.05000 716.675
31.06000 740.000
31.07000 765.989
31.08000 805.020
31.09000 845.799
31.10000 890.321
31.11000 946.876
31.12000 1004.340
31.13000 1044.001
31.14000 1143.457
31.15000 1219.713
31.16000 1305.564
31.17000 1405.170
31.18000 1504.883
31.19000 1606.535
31.20000 1709.966
31.21000 1812.396
31.22000 1932.309
31.23000 2059.961
31.24000 2187.434
31.25000 2311.135
31.26000 2433.325
31.27000 2557.784
31.28000 2706.089
31.29000 2860.762
31.30000 2996.782
31.31000 3106.985
31.32000 3197.968
31.33000 3290.529
31.34000 3389.381
31.35000 3488.886
31.36000 3564.777
31.37000 3577.989
31.38000 3587.828
31.39000 3594.170
31.40000 3602.351
31.41000 3608.352
31.42000 3585.297
31.43000 3528.347
31.44000 3471.258
31.45000 3397.363
31.46000 3310.966
31.47000 3226.213
31.48000 3123.557
31.49000 3016.133
31.50000 2906.802
31.51000 2769.521
31.52000 2622.996
31.53000 2477.794
31.54000 2343.270
31.55000 2211.076
31.56000 2098.661
31.57000 1964.526
31.58000 1849.370
31.59000 1734.416
31.60000 1620.129
31.61000 1505.894
31.62000 1399.390
31.63000 1309.858
31.64000 1220.930
31.65000 1167.937
31.66000 1068.327
31.67000 997.454
31.68000 944.119
31.69000 907.224
31.70000 870.302
31.71000 831.483
31.72000 791.508
31.73000 752.792
31.74000 723.696
31.75000 699.885
31.76000 676.338
31.77000 655.648
31.78000 635.736
31.79000 615.921
31.80000 596.725
31.81000 577.638
31.82000 562.020
31.83000 547.643
31.84000 535.972
31.85000 524.265
31.86000 512.462
31.87000 500.653
31.88000 493.870
31.89000 496.198
31.90000 498.714
31.91000 500.084
31.92000 489.806
31.93000 482.757
31.94000 479.381
31.95000 478.793
31.96000 477.990
31.97000 469.398
31.98000 456.892
31.99000 444.975
32.00000 445.664
32.01000 450.240
32.02000 453.823
32.03000 449.196
32.04000 442.739
32.05000 437.465
32.06000 438.219
32.07000 439.820
32.08000 441.074
32.09000 433.127
32.10000 426.189
32.11000 419.771
32.12000 414.518
32.13000 409.309
32.14000 405.016
32.15000 402.089
32.16000 399.176
32.17000 396.050
32.18000 392.722
32.19000 389.448
32.20000 390.176
32.21000 393.392
32.22000 396.562
32.23000 398.678
32.24000 400.357
32.25000 401.926
32.26000 403.190
32.27000 404.260
32.28000 405.530
32.29000 408.102
32.30000 410.909
32.31000 412.059
32.32000 406.333
32.33000 399.855
32.34000 395.031
32.35000 394.141
32.36000 393.625
32.37000 391.532
32.38000 386.524
32.39000 381.453
32.40000 381.089
32.41000 386.448
32.42000 391.810
32.43000 393.905
32.44000 393.474
32.45000 393.040
32.46000 392.501
32.47000 391.909
32.48000 391.593
32.49000 395.611
32.50000 401.115
32.51000 406.138
32.52000 398.927
32.53000 390.065
32.54000 381.723
32.55000 376.087
32.56000 370.839
32.57000 368.601
32.58000 376.605
32.59000 385.456
32.60000 391.678
32.61000 387.625
32.62000 384.252
32.63000 381.205
32.64000 378.652
32.65000 376.105
32.66000 374.315
32.67000 373.265
32.68000 372.224
32.69000 375.231
32.70000 380.710
32.71000 385.893
32.72000 384.079
32.73000 379.304
32.74000 374.670
32.75000 371.652
32.76000 369.092
32.77000 366.821
32.78000 381.540
32.79000 397.006
32.80000 412.347
32.81000 427.167
32.82000 441.929
32.83000 458.667
32.84000 480.956
32.85000 503.577
32.86000 518.469
32.87000 527.571
32.88000 534.176
32.89000 539.333
32.90000 542.695
32.91000 546.042
32.92000 546.845
32.93000 545.636
32.94000 544.447
32.95000 546.577
32.96000 550.318
32.97000 553.824
32.98000 553.540
32.99000 551.931
33.00000 550.463
33.01000 550.218
33.02000 550.257
33.03000 550.291
33.04000 528.763
33.05000 507.870
33.06000 488.451
33.07000 474.149
33.08000 460.282
33.09000 446.290
33.10000 432.007
33.11000 417.712
33.12000 408.984
33.13000 391.950
33.14000 379.700
33.15000 372.030
33.16000 368.942
33.17000 365.850
33.18000 362.387
33.19000 358.685
33.20000 355.085
33.21000 359.776
33.22000 367.640
33.23000 374.695
33.24000 372.231
33.25000 367.021
33.26000 361.970
33.27000 358.000
33.28000 354.233
33.29000 351.114
33.30000 353.576
33.31000 356.139
33.32000 357.850
33.33000 357.123
33.34000 356.246
33.35000 352.931
33.36000 344.940
33.37000 336.833
33.38000 332.296
33.39000 337.018
33.40000 340.304
33.41000 341.014
33.42000 339.648
33.43000 338.300
33.44000 337.777
33.45000 337.691
33.46000 337.608
33.47000 338.910
33.48000 340.585
33.49000 341.422
33.50000 334.792
33.51000 326.395
33.52000 321.181
33.53000 333.262
33.54000 347.947
33.55000 359.602
33.56000 356.110
33.57000 352.232
33.58000 348.202
33.59000 343.812
33.60000 339.407
33.61000 340.132
33.62000 348.964
33.63000 357.898
33.64000 362.415
33.65000 355.122
33.66000 350.271
33.67000 348.264
33.68000 348.128
33.69000 347.845
33.70000 343.757
33.71000 337.997
33.72000 332.582
33.73000 332.271
33.74000 333.358
33.75000 334.295
33.76000 334.194
33.77000 333.893
33.78000 333.357
33.79000 331.783
33.80000 330.086
33.81000 328.804
33.82000 337.046
33.83000 343.989
33.84000 347.642
33.85000 344.864
33.86000 341.918
33.87000 339.405
33.88000 337.454
33.89000 335.508
33.90000 338.704
33.91000 346.110
33.92000 353.305
33.93000 350.933
33.94000 343.379
33.95000 336.384
33.96000 339.072
33.97000 345.278
33.98000 350.981
33.99000 347.403
34.00000 342.209
34.01000 337.449
34.02000 335.100
34.03000 333.121
34.04000 332.178
34.05000 334.966
34.06000 338.091
34.07000 340.327
34.08000 332.054
34.09000 325.383
34.10000 322.090
34.11000 324.239
34.12000 326.461
34.13000 328.773
34.14000 331.179
34.15000 333.571
34.16000 334.501
34.17000 334.449
34.18000 334.439
34.19000 335.580
34.20000 337.237
34.21000 338.542
34.22000 335.466
34.23000 331.078
34.24000 327.150
34.25000 330.378
34.26000 334.419
34.27000 337.122
34.28000 333.813
34.29000 329.775
34.30000 326.810
34.31000 327.031
34.32000 327.462
34.33000 327.752
34.34000 320.393
34.35000 314.770
34.36000 314.013
34.37000 319.675
34.38000 325.361
34.39000 328.283
34.40000 328.880
34.41000 329.470
34.42000 331.500
34.43000 334.250
34.44000 336.709
34.45000 333.939
34.46000 329.234
34.47000 324.919
34.48000 324.259
34.49000 324.499
34.50000 324.707
34.51000 323.967
34.52000 323.209
34.53000 323.300
34.54000 326.510
34.55000 330.009
34.56000 331.694
34.57000 328.926
34.58000 325.954
34.59000 324.097
34.60000 321.096
34.61000 318.918
34.62000 318.279
34.63000 319.284
34.64000 320.319
34.65000 324.900
34.66000 331.909
34.67000 338.750
34.68000 340.207
34.69000 339.251
34.70000 337.740
34.71000 329.098
34.72000 318.276
34.73000 308.499
34.74000 306.347
34.75000 305.723
34.76000 305.201
34.77000 317.107
34.78000 328.288
34.79000 336.833
34.80000 337.403
34.81000 337.428
34.82000 335.376
34.83000 329.111
34.84000 322.723
34.85000 319.051
34.86000 322.618
34.87000 325.138
34.88000 326.456
34.89000 326.741
34.90000 327.042
34.91000 328.117
34.92000 329.628
34.93000 331.082
34.94000 327.174
34.95000 321.610
34.96000 317.360
34.97000 325.791
34.98000 337.404
34.99000 345.479
35.00000 333.036
35.01000 317.291
35.02000 304.630
35.03000 311.490
35.04000 318.560
35.05000 322.926
35.06000 320.528
35.07000 317.808
35.08000 316.824
35.09000 318.749
35.10000 320.719
35.11000 321.747
35.12000 318.712
35.13000 316.714
35.14000 321.914
35.15000 332.141
35.16000 341.955
35.17000 339.602
35.18000 331.595
35.19000 324.025
35.20000 320.555
35.21000 318.540
35.22000 316.718
35.23000 316.330
35.24000 316.236
35.25000 315.904
35.26000 314.462
35.27000 312.878
35.28000 311.662
35.29000 305.723
35.30000 300.766
35.31000 300.110
35.32000 308.347
35.33000 316.856
35.34000 322.983
35.35000 325.839
35.36000 328.674
35.37000 325.761
35.38000 317.825
35.39000 310.017
35.40000 309.271
35.41000 312.574
35.42000 315.872
35.43000 319.064
35.44000 322.214
35.45000 325.130
35.46000 320.631
35.47000 314.880
35.48000 310.510
35.49000 314.317
35.50000 319.470
35.51000 323.732
35.52000 324.588
35.53000 325.111
35.54000 325.492
35.55000 318.825
35.56000 313.425
35.57000 308.166
35.58000 303.149
35.59000 298.136
35.60000 295.958
35.61000 296.937
35.62000 297.914
35.63000 301.662
35.64000 307.327
35.65000 312.890
35.66000 315.266
35.67000 316.135
35.68000 316.820
35.69000 314.988
35.70000 312.357
35.71000 309.983
35.72000 306.023
35.73000 302.254
35.74000 299.143
35.75000 299.173
35.76000 299.612
35.77000 300.850
35.78000 304.600
35.79000 308.533
35.80000 311.228
35.81000 309.304
35.82000 307.752
35.83000 306.903
35.84000 307.037
35.85000 307.177
35.86000 306.940
35.87000 306.366
35.88000 305.797
35.89000 302.550
35.90000 297.846
35.91000 293.417
35.92000 294.528
35.93000 297.808
35.94000 300.820
35.95000 301.112
35.96000 300.693
35.97000 300.326
35.98000 302.824
35.99000 305.381
36.00000 306.719
36.01000 303.313
36.02000 299.429
36.03000 298.738
36.04000 306.334
36.05000 314.358
36.06000 319.485
36.07000 322.502
36.08000 324.669
36.09000 318.523
36.10000 302.916
36.11000 287.369
36.12000 283.253
36.13000 287.440
36.14000 291.543
36.15000 292.707
36.16000 292.463
36.17000 292.287
36.18000 293.064
36.19000 294.149
36.20000 295.254
36.21000 296.517
36.22000 297.815
36.23000 298.914
36.24000 298.881
36.25000 298.727
36.26000 298.699
36.27000 299.074
36.28000 299.480
36.29000 299.506
36.30000 298.715
36.31000 297.897
36.32000 297.414
36.33000 308.086
36.34000 315.676
36.35000 313.105
36.36000 301.249
36.37000 289.571
36.38000 289.214
36.39000 295.600
36.40000 301.774
36.41000 306.988
36.42000 311.548
36.43000 315.328
36.44000 310.964
36.45000 304.432
36.46000 298.318
36.47000 294.794
36.48000 291.714
36.49000 289.206
36.50000 284.415
36.51000 280.308
36.52000 278.401
36.53000 282.309
36.54000 286.527
36.55000 290.193
36.56000 292.878
36.57000 295.545
36.58000 296.979
36.59000 295.449
36.60000 294.413
36.61000 295.524
36.62000 298.227
36.63000 300.933
36.64000 303.716
36.65000 306.537
36.66000 309.219
36.67000 302.791
36.68000 294.072
36.69000 286.579
36.70000 288.947
36.71000 293.458
36.72000 297.628
36.73000 300.102
36.74000 302.343
36.75000 304.088
36.76000 307.546
36.77000 310.405
36.78000 310.133
36.79000 303.013
36.80000 295.651
36.81000 294.343
36.82000 301.854
36.83000 309.438
36.84000 315.040
36.85000 318.792
36.86000 322.468
36.87000 321.047
36.88000 316.532
36.89000 312.068
36.90000 308.722
36.91000 305.832
36.92000 303.139
36.93000 306.842
36.94000 311.763
36.95000 315.365
36.96000 310.618
36.97000 304.405
36.98000 300.988
36.99000 308.904
37.00000 318.022
37.01000 324.768
37.02000 319.677
37.03000 315.218
37.04000 311.679
37.05000 309.799
37.06000 307.953
37.07000 308.197
37.08000 310.921
37.09000 313.642
37.10000 311.979
37.11000 307.034
37.12000 302.211
37.13000 301.792
37.14000 303.578
37.15000 305.351
37.16000 306.936
37.17000 308.459
37.18000 309.844
37.19000 311.270
37.20000 312.539
37.21000 312.906
37.22000 308.686
37.23000 303.825
37.24000 298.828
37.25000 293.379
37.26000 287.893
37.27000 284.065
37.28000 289.309
37.29000 293.521
37.30000 294.867
37.31000 291.958
37.32000 289.009
37.33000 289.617
37.34000 293.617
37.35000 297.584
37.36000 299.437
37.37000 299.970
37.38000 300.222
37.39000 294.118
37.40000 285.383
37.41000 277.945
37.42000 284.841
37.43000 295.702
37.44000 305.305
37.45000 303.769
37.46000 300.713
37.47000 298.115
37.48000 297.412
37.49000 296.914
37.50000 296.163
37.51000 294.716
37.52000 293.228
37.53000 292.257
37.54000 297.977
37.55000 302.284
37.56000 302.924
37.57000 299.124
37.58000 295.321
37.59000 293.147
37.60000 292.232
37.61000 291.332
37.62000 288.549
37.63000 284.932
37.64000 281.796
37.65000 286.154
37.66000 293.076
37.67000 299.435
37.68000 301.042
37.69000 301.574
37.70000 302.029
37.71000 302.437
37.72000 302.775
37.73000 301.555
37.74000 295.056
37.75000 288.122
37.76000 286.501
37.77000 296.945
37.78000 307.853
37.79000 314.450
37.80000 304.225
37.81000 296.815
37.82000 291.684
37.83000 288.774
37.84000 285.909
37.85000 286.724
37.86000 289.861
37.87000 292.907
37.88000 293.542
37.89000 293.180
37.90000 293.140
37.91000 296.773
37.92000 301.443
37.93000 305.445
37.94000 305.030
37.95000 303.806
37.96000 302.796
37.97000 304.779
37.98000 306.685
37.99000 307.866
38.00000 307.017
38.01000 306.048
38.02000 305.068
38.03000 304.071
38.04000 303.074
38.05000 302.522
38.06000 301.360
38.07000 300.571
38.08000 303.498
38.09000 309.350
38.10000 315.175
38.11000 319.881
38.12000 324.004
38.13000 327.946
38.14000 320.281
38.15000 309.384
38.16000 299.823
38.17000 301.828
38.18000 306.504
38.19000 311.102
38.20000 315.279
38.21000 319.394
38.22000 322.643
38.23000 318.875
38.24000 315.374
38.25000 315.247
38.26000 322.924
38.27000 330.915
38.28000 333.616
38.29000 328.147
38.30000 322.587
38.31000 323.907
38.32000 332.083
38.33000 340.319
38.34000 353.689
38.35000 370.364
38.36000 386.725
38.37000 395.412
38.38000 400.803
38.39000 405.858
38.40000 418.875
38.41000 432.814
38.42000 447.351
38.43000 465.946
38.44000 485.301
38.45000 506.180
38.46000 533.617
38.47000 561.805
38.48000 582.991
38.49000 621.825
38.50000 653.037
38.51000 683.729
38.52000 713.429
38.53000 743.104
38.54000 779.571
38.55000 824.608
38.56000 869.600
38.57000 918.512
38.58000 970.354
38.59000 1021.871
38.60000 1059.560
38.61000 1089.926
38.62000 1120.892
38.63000 1161.858
38.64000 1206.377
38.65000 1247.175
38.66000 1272.407
38.67000 1291.610
38.68000 1308.116
38.69000 1310.026
38.70000 1309.747
38.71000 1312.227
38.72000 1324.422
38.73000 1337.463
38.74000 1346.731
38.75000 1316.622
38.76000 1292.445
38.77000 1265.328
38.78000 1233.584
38.79000 1201.783
38.80000 1164.084
38.81000 1120.378
38.82000 1076.949
38.83000 1026.070
38.84000 971.110
38.85000 916.489
38.86000 870.518
38.87000 828.334
38.88000 786.502
38.89000 748.921
38.90000 712.586
38.91000 680.174
38.92000 641.561
38.93000 606.931
38.94000 573.675
38.95000 546.446
38.96000 519.926
38.97000 496.185
38.98000 480.515
38.99000 465.359
39.00000 455.257
39.01000 421.973
39.02000 396.889
39.03000 376.680
39.04000 362.749
39.05000 348.856
39.06000 340.396
39.07000 336.392
39.08000 332.445
39.09000 326.349
39.10000 319.302
39.11000 312.462
39.12000 309.187
39.13000 307.203
39.14000 305.384
39.15000 305.078
39.16000 305.135
39.17000 305.184
39.18000 300.514
39.19000 295.931
39.20000 291.656
39.21000 288.487
39.22000 285.418
39.23000 282.511
39.24000 279.992
39.25000 277.491
39.26000 275.941
39.27000 282.963
39.28000 288.093
39.29000 288.430
39.30000 283.778
39.31000 279.170
39.32000 279.107
39.33000 282.086
39.34000 284.989
39.35000 282.577
39.36000 278.011
39.37000 273.932
39.38000 275.892
39.39000 279.655
39.40000 283.006
39.41000 283.425
39.42000 283.272
39.43000 283.144
39.44000 280.606
39.45000 278.262
39.46000 275.610
39.47000 272.050
39.48000 268.430
39.49000 265.725
39.50000 264.838
39.51000 264.000
39.52000 263.523
39.53000 271.060
39.54000 276.326
39.55000 276.088
39.56000 271.242
39.57000 266.503
39.58000 266.908
39.59000 270.144
39.60000 273.251
39.61000 271.841
39.62000 268.960
39.63000 265.987
39.64000 262.144
39.65000 258.089
39.66000 255.511
39.67000 261.279
39.68000 268.355
39.69000 274.016
39.70000 274.801
39.71000 275.072
39.72000 274.033
39.73000 269.791
39.74000 265.403
39.75000 261.174
39.76000 257.205
39.77000 253.240
39.78000 251.196
39.79000 259.984
39.80000 265.878
39.81000 268.788
39.82000 269.663
39.83000 270.367
39.84000 266.290
39.85000 260.041
39.86000 254.146
39.87000 254.657
39.88000 256.913
39.89000 258.983
39.90000 259.704
39.91000 260.155
39.92000 261.190
39.93000 264.889
39.94000 268.917
39.95000 271.991
39.96000 268.672
39.97000 265.715
39.98000 263.743
39.99000 263.765
40.00000 263.844
40.01000 264.097
40.02000 264.583
40.03000 265.071
40.04000 265.390
40.05000 265.566
40.06000 265.706
40.07000 264.033
40.08000 261.342
40.09000 258.885
40.10000 260.732
40.11000 264.197
40.12000 267.396
40.13000 270.749
40.14000 273.790
40.15000 276.305
40.16000 275.781
40.17000 274.770
40.18000 274.446
40.19000 276.688
40.20000 279.173
40.21000 280.969
40.22000 274.471
40.23000 269.184
40.24000 264.755
40.25000 261.761
40.26000 258.788
40.27000 255.304
40.28000 251.263
40.29000 247.241
40.30000 246.680
40.31000 248.505
40.32000 250.515
40.33000 257.950
40.34000 267.896
40.35000 276.832
40.36000 272.473
40.37000 263.988
40.38000 256.355
40.39000 252.952
40.40000 250.726
40.41000 249.152
40.42000 250.623
40.43000 252.480
40.44000 253.984
40.45000 254.405
40.46000 254.751
40.47000 254.986
40.48000 252.764
40.49000 251.050
40.50000 246.904
40.51000 239.432
40.52000 231.949
40.53000 232.086
40.54000 238.874
40.55000 245.584
40.56000 247.711
40.57000 247.232
40.58000 246.875
40.59000 248.858
40.60000 251.737
40.61000 254.274
40.62000 253.436
40.63000 251.738
40.64000 250.255
40.65000 247.934
40.66000 245.831
40.67000 245.155
40.68000 249.913
40.69000 255.200
40.70000 257.706
40.71000 253.150
40.72000 248.246
40.73000 245.140
40.74000 248.496
40.75000 251.007
40.76000 252.505
40.77000 252.878
40.78000 253.259
40.79000 254.918
40.80000 257.484
40.81000 259.994
40.82000 255.171
40.83000 247.224
40.84000 239.671
40.85000 237.476
40.86000 236.974
40.87000 236.500
40.88000 236.237
40.89000 236.018
40.90000 235.833
40.91000 249.670
40.92000 262.743
40.93000 271.817
40.94000 268.367
40.95000 264.009
40.96000 259.213
40.97000 253.495
40.98000 247.748
40.99000 244.392
41.00000 249.487
41.01000 253.109
41.02000 253.422
41.03000 250.787
41.04000 248.237
41.05000 250.634
41.06000 255.911
41.07000 261.004
41.08000 259.706
41.09000 256.136
41.10000 252.645
41.11000 249.938
41.12000 247.436
41.13000 245.541
41.14000 247.302
41.15000 249.677
41.16000 251.601
41.17000 247.051
41.18000 242.817
41.19000 238.428
41.20000 233.635
41.21000 228.822
41.22000 228.140
41.23000 234.619
41.24000 241.225
41.25000 244.736
41.26000 236.227
41.27000 230.456
41.28000 228.963
41.29000 230.567
41.30000 232.201
41.31000 234.826
41.32000 237.926
41.33000 240.868
41.34000 237.210
41.35000 231.873
41.36000 227.767
41.37000 233.263
41.38000 240.796
41.39000 246.953
41.40000 246.430
41.41000 245.020
41.42000 243.928
41.43000 242.091
41.44000 240.587
41.45000 239.739
41.46000 240.290
41.47000 240.889
41.48000 240.035
41.49000 237.115
41.50000 234.181
41.51000 232.434
41.52000 231.768
41.53000 231.170
41.54000 234.711
41.55000 240.710
41.56000 246.424
41.57000 246.239
41.58000 243.710
41.59000 241.359
41.60000 246.849
41.61000 253.679
41.62000 259.058
41.63000 255.496
41.64000 250.403
41.65000 246.269
41.66000 245.936
41.67000 245.994
41.68000 246.036
41.69000 240.348
41.70000 235.714
41.71000 233.406
41.72000 235.210
41.73000 237.091
41.74000 238.242
41.75000 238.549
41.76000 238.853
41.77000 241.078
41.78000 244.693
41.79000 248.102
41.80000 244.540
41.81000 237.567
41.82000 231.051
41.83000 231.156
41.84000 233.435
41.85000 235.502
41.86000 238.665
41.87000 241.666
41.88000 243.751
41.89000 241.300
41.90000 238.232
41.91000 238.573
41.92000 250.005
41.93000 262.291
41.94000 270.803
41.95000 249.472
41.96000 232.632
41.97000 225.985
41.98000 234.129
41.99000 242.394
42.00000 245.757
42.01000 244.562
42.02000 243.377
42.03000 242.936
42.04000 242.943
42.05000 242.926
42.06000 242.368
42.07000 241.592
42.08000 240.726
42.09000 238.904
42.10000 236.824
42.11000 234.990
42.12000 232.617
42.13000 230.489
42.14000 229.606
42.15000 233.743
42.16000 238.411
42.17000 242.626
42.18000 245.628
42.19000 248.563
42.20000 250.463
42.21000 242.646
42.22000 236.783
42.23000 234.569
42.24000 236.665
42.25000 238.768
42.26000 240.659
42.27000 242.391
42.28000 244.091
42.29000 244.912
42.30000 245.282
42.31000 245.729
42.32000 247.338
42.33000 249.336
42.34000 250.565
42.35000 245.500
42.36000 239.043
42.37000 233.540
42.38000 237.802
42.39000 242.531
42.40000 246.286
42.41000 246.813
42.42000 247.085
42.43000 245.718
42.44000 240.715
42.45000 235.578
42.46000 232.501
42.47000 225.822
42.48000 221.057
42.49000 222.067
42.50000 228.565
42.51000 234.989
42.52000 236.108
42.53000 233.955
42.54000 231.867
42.55000 231.955
42.56000 232.888
42.57000 233.737
42.58000 233.659
42.59000 233.324
42.60000 232.878
42.61000 231.711
42.62000 230.416
42.63000 229.353
42.64000 237.153
42.65000 244.341
42.66000 248.372
42.67000 243.767
42.68000 238.670
42.69000 234.511
42.70000 232.073
42.71000 229.672
42.72000 228.357
42.73000 228.501
42.74000 228.604
42.75000 229.241
42.76000 230.288
42.77000 231.350
42.78000 232.970
42.79000 234.875
42.80000 236.692
42.81000 237.051
42.82000 236.923
42.83000 236.499
42.84000 233.590
42.85000 230.119
42.86000 227.700
42.87000 230.714
42.88000 234.502
42.89000 237.477
42.90000 234.959
42.91000 232.585
42.92000 231.994
42.93000 235.434
42.94000 239.029
42.95000 241.727
42.96000 243.072
42.97000 244.403
42.98000 240.712
42.99000 232.145
43.00000 223.607
43.01000 217.423
43.02000 212.717
43.03000 208.315
43.04000 211.002
43.05000 216.668
43.06000 221.968
43.07000 226.022
43.08000 229.386
43.09000 231.986
43.10000 229.540
43.11000 226.173
43.12000 223.780
43.13000 225.478
43.14000 227.631
43.15000 229.239
43.16000 234.458
43.17000 238.692
43.18000 238.964
43.19000 231.830
43.20000 224.526
43.21000 223.839
43.22000 231.300
43.23000 238.767
43.24000 240.522
43.25000 237.811
43.26000 235.076
43.27000 231.353
43.28000 227.119
43.29000 223.158
43.30000 223.555
43.31000 225.467
43.32000 227.214
43.33000 222.320
43.34000 216.617
43.35000 211.676
43.36000 210.757
43.37000 210.425
43.38000 210.897
43.39000 214.137
43.40000 217.610
43.41000 220.060
43.42000 221.920
43.43000 223.313
43.44000 223.168
43.45000 220.654
43.46000 218.115
43.47000 218.679
43.48000 222.322
43.49000 225.940
43.50000 227.866
43.51000 228.695
43.52000 229.532
43.53000 230.557
43.54000 231.661
43.55000 232.472
43.56000 229.857
43.57000 226.261
43.58000 223.065
43.59000 225.107
43.60000 227.727
43.61000 228.845
43.62000 223.525
43.63000 217.471
43.64000 213.378
43.65000 214.856
43.66000 216.674
43.67000 217.876
43.68000 228.132
43.69000 235.861
43.70000 236.256
43.71000 227.433
43.72000 218.595
43.73000 214.207
43.74000 213.383
43.75000 212.571
43.76000 215.524
43.77000 220.313
43.78000 224.811
43.79000 224.496
43.80000 222.479
43.81000 220.551
43.82000 219.418
43.83000 218.472
43.84000 217.657
43.85000 217.845
43.86000 218.132
43.87000 218.140
43.88000 217.175
43.89000 216.125
43.90000 215.259
43.91000 214.827
43.92000 214.413
43.93000 214.158
43.94000 218.061
43.95000 220.892
43.96000 219.195
43.97000 212.905
43.98000 206.676
43.99000 206.198
44.00000 209.477
44.01000 212.669
44.02000 212.467
44.03000 210.865
44.04000 209.832
44.05000 215.610
44.06000 223.376
44.07000 229.945
44.08000 228.248
44.09000 224.975
44.10000 222.259
44.11000 222.755
44.12000 223.476
44.13000 225.028
44.14000 228.985
44.15000 233.094
44.16000 234.349
44.17000 230.064
44.18000 225.638
44.19000 223.147
44.20000 220.548
44.21000 218.749
44.22000 218.902
44.23000 220.651
44.24000 222.342
44.25000 221.481
44.26000 219.247
44.27000 217.105
44.28000 218.508
44.29000 221.011
44.30000 222.772
44.31000 217.798
44.32000 211.211
44.33000 206.617
44.34000 212.994
44.35000 221.047
44.36000 227.455
44.37000 225.316
44.38000 222.977
44.39000 221.030
44.40000 220.019
44.41000 219.049
44.42000 220.105
44.43000 224.400
44.44000 228.737
44.45000 230.945
44.46000 237.408
44.47000 241.661
44.48000 237.578
44.49000 227.940
44.50000 218.484
44.51000 213.863
44.52000 211.391
44.53000 209.065
44.54000 218.210
44.55000 229.693
44.56000 239.681
44.57000 239.101
44.58000 236.465
44.59000 234.863
44.60000 237.871
44.61000 241.431
44.62000 244.132
44.63000 241.333
44.64000 238.852
44.65000 237.910
44.66000 240.014
44.67000 242.200
44.68000 244.442
44.69000 246.756
44.70000 249.068
44.71000 254.085
44.72000 261.337
44.73000 268.541
44.74000 273.432
44.75000 277.056
44.76000 280.773
44.77000 286.130
44.78000 292.090
44.79000 297.576
44.80000 300.762
44.81000 303.109
44.82000 305.801
44.83000 310.430
44.84000 315.361
44.85000 319.237
44.86000 319.259
44.87000 318.928
44.88000 318.690
44.89000 348.727
44.90000 372.749
44.91000 387.906
44.92000 388.607
44.93000 389.104
44.94000 387.912
44.95000 384.931
44.96000 381.966
44.97000 388.467
44.98000 401.242
44.99000 413.886
45.00000 422.906
45.01000 430.283
45.02000 437.816
45.03000 447.306
45.04000 457.391
45.05000 466.433
45.06000 449.171
45.07000 429.521
45.08000 414.878
45.09000 423.026
45.10000 433.975
45.11000 440.709
45.12000 434.777
45.13000 427.989
45.14000 423.411
45.15000 417.280
45.16000 412.685
45.17000 408.279
45.18000 404.124
45.19000 399.966
45.20000 393.690
45.21000 385.611
45.22000 377.633
45.23000 370.105
45.24000 363.018
45.25000 356.225
45.26000 354.841
45.27000 355.482
45.28000 355.977
45.29000 355.088
45.30000 353.853
45.31000 352.779
45.32000 342.320
45.33000 332.118
45.34000 324.520
45.35000 326.609
45.36000 329.610
45.37000 328.361
45.38000 316.558
45.39000 304.258
45.40000 296.535
45.41000 291.145
45.42000 287.275
45.43000 289.343
45.44000 297.838
45.45000 306.249
45.46000 304.092
45.47000 294.609
45.48000 285.346
45.49000 280.972
45.50000 278.943
45.51000 277.094
45.52000 277.587
45.53000 278.804
45.54000 279.605
45.55000 277.327
45.56000 274.423
45.57000 271.986
45.58000 268.563
45.59000 265.610
45.60000 262.885
45.61000 260.859
45.62000 258.881
45.63000 257.426
45.64000 257.041
45.65000 256.689
45.66000 256.485
45.67000 251.609
45.68000 248.176
45.69000 247.877
45.70000 250.304
45.71000 252.607
45.72000 248.357
45.73000 240.377
45.74000 232.688
45.75000 230.634
45.76000 230.725
45.77000 230.861
45.78000 231.433
45.79000 232.115
45.80000 233.271
45.81000 237.211
45.82000 241.605
45.83000 245.148
45.84000 239.753
45.85000 234.668
45.86000 231.953
45.87000 235.234
45.88000 238.808
45.89000 240.781
45.90000 240.042
45.91000 239.259
45.92000 238.848
45.93000 225.197
45.94000 215.984
45.95000 212.838
45.96000 213.982
45.97000 215.044
45.98000 213.611
45.99000 211.006
46.00000 208.540
46.01000 209.700
46.02000 211.817
46.03000 213.653
46.04000 213.356
46.05000 212.618
46.06000 212.208
46.07000 213.356
46.08000 214.705
46.09000 215.744
46.10000 212.081
46.11000 208.912
46.12000 207.799
46.13000 210.986
46.14000 214.308
46.15000 214.025
46.16000 208.733
46.17000 203.411
46.18000 203.445
46.19000 208.227
46.20000 212.913
46.21000 212.052
46.22000 207.973
46.23000 203.904
46.24000 200.029
46.25000 196.230
46.26000 192.709
46.27000 197.070
46.28000 202.833
46.29000 207.491
46.30000 205.518
46.31000 202.437
46.32000 201.321
46.33000 207.800
46.34000 215.036
46.35000 220.321
46.36000 212.235
46.37000 205.477
46.38000 201.724
46.39000 203.160
46.40000 204.688
46.41000 203.118
46.42000 198.054
46.43000 193.004
46.44000 190.697
46.45000 190.370
46.46000 190.107
46.47000 191.906
46.48000 194.693
46.49000 197.284
46.50000 197.158
46.51000 196.160
46.52000 195.257
46.53000 195.373
46.54000 195.664
46.55000 197.130
46.56000 204.280
46.57000 212.182
46.58000 217.449
46.59000 214.334
46.60000 210.597
46.61000 208.026
46.62000 198.251
46.63000 190.739
46.64000 187.160
46.65000 189.156
46.66000 191.191
46.67000 190.340
46.68000 186.873
46.69000 183.442
46.70000 184.830
46.71000 188.977
46.72000 193.183
46.73000 198.580
46.74000 204.450
46.75000 209.719
46.76000 208.771
46.77000 206.180
46.78000 203.906
46.79000 200.551
46.80000 197.511
46.81000 194.509
46.82000 191.661
46.83000 188.829
46.84000 188.191
46.85000 193.319
46.86000 198.750
46.87000 202.237
46.88000 199.516
46.89000 197.447
46.90000 197.702
46.91000 200.634
46.92000 203.544
46.93000 201.872
46.94000 196.830
46.95000 191.887
46.96000 190.055
46.97000 189.752
46.98000 189.574
46.99000 191.187
47.00000 193.385
47.01000 195.400
47.02000 195.963
47.03000 196.213
47.04000 196.425
47.05000 194.344
47.06000 192.339
47.07000 191.376
47.08000 193.792
47.09000 196.468
47.10000 197.855
47.11000 196.442
47.12000 194.932
47.13000 194.036
47.14000 192.719
47.15000 191.785
47.16000 193.369
47.17000 197.285
47.18000 201.134
47.19000 200.550
47.20000 197.295
47.21000 194.146
47.22000 193.684
47.23000 194.271
47.24000 194.749
47.25000 194.056
47.26000 193.047
47.27000 192.415
47.28000 194.146
47.29000 196.288
47.30000 198.037
47.31000 188.755
47.32000 180.213
47.33000 175.630
47.34000 181.643
47.35000 188.234
47.36000 192.525
47.37000 192.690
47.38000 192.772
47.39000 192.816
47.40000 196.779
47.41000 199.473
47.42000 197.540
47.43000 192.134
47.44000 186.840
47.45000 185.512
47.46000 186.155
47.47000 186.768
47.48000 190.203
47.49000 194.255
47.50000 197.583
47.51000 195.014
47.52000 191.145
47.53000 188.046
47.54000 188.824
47.55000 190.139
47.56000 191.166
47.57000 191.189
47.58000 191.144
47.59000 190.167
47.60000 187.128
47.61000 184.014
47.62000 185.336
47.63000 193.198
47.64000 201.118
47.65000 200.726
47.66000 192.470
47.67000 184.331
47.68000 184.578
47.69000 189.977
47.70000 195.168
47.71000 195.715
47.72000 194.353
47.73000 193.082
47.74000 192.062
47.75000 191.199
47.76000 189.874
47.77000 185.581
47.78000 180.759
47.79000 176.460
47.80000 174.306
47.81000 172.384
47.82000 170.957
47.83000 182.913
47.84000 192.792
47.85000 197.708
47.86000 193.551
47.87000 189.200
47.88000 187.087
47.89000 187.662
47.90000 188.241
47.91000 188.532
47.92000 188.601
47.93000 188.629
47.94000 187.106
47.95000 184.797
47.96000 182.495
47.97000 180.311
47.98000 178.166
47.99000 176.212
48.00000 180.045
48.01000 184.591
48.02000 187.684
48.03000 183.299
48.04000 177.852
48.05000 175.135
48.06000 181.603
48.07000 188.818
48.08000 193.873
48.09000 194.456
48.10000 194.769
48.11000 195.407
48.12000 196.534
48.13000 197.665
48.14000 196.105
48.15000 191.942
48.16000 187.813
48.17000 185.659
48.18000 184.760
48.19000 183.960
48.20000 185.456
48.21000 187.915
48.22000 190.246
48.23000 191.135
48.24000 191.622
48.25000 192.053
48.26000 189.167
48.27000 186.147
48.28000 183.610
48.29000 183.092
48.30000 182.798
48.31000 183.450
48.32000 186.730
48.33000 190.164
48.34000 192.416
48.35000 189.422
48.36000 187.134
48.37000 183.439
48.38000 178.017
48.39000 172.613
48.40000 172.826
48.41000 177.429
48.42000 181.956
48.43000 182.455
48.44000 180.927
48.45000 179.530
48.46000 180.200
48.47000 181.586
48.48000 182.492
48.49000 179.278
48.50000 175.120
48.51000 171.553
48.52000 177.451
48.53000 183.594
48.54000 187.671
48.55000 184.655
48.56000 181.046
48.57000 179.122
48.58000 181.072
48.59000 183.175
48.60000 184.452
48.61000 181.540
48.62000 179.428
48.63000 180.909
48.64000 185.938
48.65000 190.887
48.66000 189.062
48.67000 182.912
48.68000 176.935
48.69000 175.074
48.70000 174.975
48.71000 175.022
48.72000 176.757
48.73000 178.974
48.74000 180.328
48.75000 175.893
48.76000 170.383
48.77000 165.830
48.78000 177.193
48.79000 188.047
48.80000 194.561
48.81000 188.792
48.82000 182.277
48.83000 179.360
48.84000 183.271
48.85000 187.346
48.86000 189.615
48.87000 184.779
48.88000 181.422
48.89000 178.734
48.90000 176.578
48.91000 174.521
48.92000 176.529
48.93000 180.676
48.94000 184.644
48.95000 183.350
48.96000 180.416
48.97000 177.916
48.98000 179.242
48.99000 181.462
49.00000 183.346
49.01000 183.424
49.02000 183.234
49.03000 183.083
49.04000 175.417
49.05000 168.736
49.06000 164.905
49.07000 167.745
49.08000 170.861
49.09000 174.568
49.10000 179.200
49.11000 183.842
49.12000 186.175
49.13000 179.396
49.14000 174.884
49.15000 171.804
49.16000 169.654
49.17000 167.669
49.18000 169.807
49.19000 173.739
49.20000 177.430
49.21000 178.197
49.22000 178.121
49.23000 177.933
49.24000 176.975
49.25000 175.871
49.26000 174.500
49.27000 171.960
49.28000 169.284
49.29000 167.267
49.30000 171.460
49.31000 175.049
49.32000 178.366
49.33000 181.158
49.34000 183.937
49.35000 184.631
49.36000 182.664
49.37000 180.689
49.38000 179.693
49.39000 179.492
49.40000 179.276
49.41000 178.377
49.42000 177.114
49.43000 175.840
49.44000 174.388
49.45000 172.873
49.46000 171.482
49.47000 175.442
49.48000 180.110
49.49000 183.399
49.50000 179.117
49.51000 173.683
49.52000 169.649
49.53000 170.601
49.54000 171.995
49.55000 172.990
49.56000 178.359
49.57000 182.596
49.58000 184.617
49.59000 183.105
49.60000 181.549
49.61000 181.957
49.62000 184.396
49.63000 186.819
49.64000 185.626
49.65000 182.081
49.66000 178.505
49.67000 174.118
49.68000 169.371
49.69000 165.351
49.70000 170.228
49.71000 177.744
49.72000 184.460
49.73000 185.166
49.74000 184.767
49.75000 184.089
49.76000 182.175
49.77000 180.114
49.78000 177.800
49.79000 174.745
49.80000 171.642
49.81000 169.565
49.82000 172.942
49.83000 175.555
49.84000 177.022
49.85000 176.996
49.86000 176.964
49.87000 177.224
49.88000 177.728
49.89000 178.225
49.90000 180.776
49.91000 184.347
49.92000 187.636
49.93000 185.976
49.94000 182.504
49.95000 179.257
49.96000 178.098
49.97000 177.448
49.98000 176.884
49.99000 179.144
50.00000 181.440
50.01000 183.113
50.02000 182.519
50.03000 181.719
50.04000 179.539
50.05000 174.010
50.06000 168.330
50.07000 164.796
50.08000 173.271
50.09000 179.495
50.10000 181.883
50.11000 180.224
50.12000 178.596
50.13000 180.518
50.14000 184.842
50.15000 189.060
50.16000 186.621
50.17000 181.421
50.18000 176.432
50.19000 174.126
50.20000 172.630
50.21000 171.906
50.22000 176.733
50.23000 182.659
50.24000 187.612
50.25000 183.231
50.26000 178.646
50.27000 175.671
50.28000 177.517
50.29000 179.686
50.30000 181.945
50.31000 184.385
50.32000 186.830
50.33000 188.228
50.34000 191.702
50.35000 194.129
50.36000 193.269
50.37000 189.620
50.38000 186.104
50.39000 189.200
50.40000 195.975
50.41000 202.490
50.42000 209.787
50.43000 216.899
50.44000 222.938
50.45000 218.783
50.46000 212.098
50.47000 208.291
50.48000 220.967
50.49000 236.265
50.50000 248.535
50.51000 243.043
50.52000 237.247
50.53000 235.315
50.54000 242.946
50.55000 251.023
50.56000 255.857
50.57000 255.319
50.58000 254.701
50.59000 254.380
50.60000 260.271
50.61000 264.256
50.62000 269.163
50.63000 274.707
50.64000 280.191
50.65000 283.936
50.66000 286.882
50.67000 289.665
50.68000 291.362
50.69000 292.613
50.70000 292.818
50.71000 285.318
50.72000 276.261
50.73000 269.323
50.74000 272.187
50.75000 276.280
50.76000 279.413
50.77000 275.697
50.78000 272.389
50.79000 267.323
50.80000 258.659
50.81000 249.887
50.82000 246.344
50.83000 249.897
50.84000 253.486
50.85000 251.966
50.86000 246.032
50.87000 240.121
50.88000 235.427
50.89000 231.422
50.90000 227.473
50.91000 224.559
50.92000 222.039
50.93000 219.710
50.94000 216.625
50.95000 213.683
50.96000 210.491
50.97000 205.840
50.98000 200.953
50.99000 197.704
51.00000 200.652
51.01000 204.198
51.02000 206.770
51.03000 198.594
51.04000 191.909
51.05000 188.916
51.06000 192.157
51.07000 195.499
51.08000 196.896
51.09000 196.154
51.10000 195.413
51.11000 196.248
51.12000 198.174
51.13000 199.903
51.14000 195.706
51.15000 188.733
51.16000 182.173
51.17000 181.145
51.18000 181.854
51.19000 182.492
51.20000 185.967
51.21000 189.528
51.22000 191.366
51.23000 185.067
51.24000 177.723
51.25000 171.702
51.26000 169.794
51.27000 168.181
51.28000 167.080
51.29000 170.212
51.30000 172.653
51.31000 175.305
51.32000 178.248
51.33000 181.189
51.34000 179.197
51.35000 172.843
51.36000 166.559
51.37000 165.609
51.38000 167.693
51.39000 169.748
51.40000 171.237
51.41000 172.508
51.42000 173.827
51.43000 175.639
51.44000 177.578
51.45000 179.274
51.46000 175.614
51.47000 171.716
51.48000 168.770
51.49000 169.498
51.50000 170.590
51.51000 172.106
51.52000 174.714
51.53000 177.377
51.54000 179.071
51.55000 174.646
51.56000 171.354
51.57000 171.482
51.58000 175.455
51.59000 179.405
51.60000 179.540
51.61000 176.933
51.62000 174.380
51.63000 172.656
51.64000 171.378
51.65000 170.320
51.66000 172.291
51.67000 175.233
51.68000 177.419
51.69000 173.761
51.70000 168.874
51.71000 164.744
51.72000 160.978
51.73000 157.869
51.74000 155.870
51.75000 157.389
51.76000 159.168
51.77000 160.671
51.78000 161.585
51.79000 162.481
51.80000 163.007
51.81000 165.301
51.82000 166.926
51.83000 167.032
51.84000 165.765
51.85000 164.487
51.86000 162.519
51.87000 160.145
51.88000 157.852
51.89000 157.121
51.90000 157.014
51.91000 156.601
51.92000 153.031
51.93000 148.632
51.94000 145.721
51.95000 151.917
51.96000 159.660
51.97000 165.950
51.98000 167.798
51.99000 168.937
52.00000 169.566
52.01000 168.858
52.02000 168.081
52.03000 165.792
52.04000 160.853
52.05000 155.864
52.06000 153.196
52.07000 160.783
52.08000 165.949
52.09000 168.371
52.10000 168.782
52.11000 169.122
52.12000 167.133
52.13000 164.012
52.14000 161.047
52.15000 159.605
52.16000 158.731
52.17000 157.656
52.18000 154.979
52.19000 151.959
52.20000 150.214
52.21000 154.744
52.22000 160.119
52.23000 164.293
52.24000 166.487
52.25000 168.111
52.26000 167.724
52.27000 162.980
52.28000 158.087
52.29000 155.449
52.30000 156.061
52.31000 156.698
52.32000 159.017
52.33000 162.886
52.34000 166.704
52.35000 167.288
52.36000 165.929
52.37000 164.590
52.38000 163.686
52.39000 162.956
52.40000 162.277
52.41000 159.738
52.42000 156.993
52.43000 154.384
52.44000 152.630
52.45000 151.024
52.46000 150.911
52.47000 156.779
52.48000 163.273
52.49000 168.062
52.50000 164.856
52.51000 162.035
52.52000 159.440
52.53000 157.246
52.54000 155.060
52.55000 154.392
52.56000 155.501
52.57000 156.611
52.58000 159.004
52.59000 162.332
52.60000 165.531
52.61000 164.220
52.62000 160.674
52.63000 157.270
52.64000 155.951
52.65000 155.325
52.66000 154.757
52.67000 155.519
52.68000 156.449
52.69000 157.278
52.70000 157.598
52.71000 157.848
52.72000 158.317
52.73000 159.510
52.74000 160.760
52.75000 161.629
52.76000 162.776
52.77000 163.648
52.78000 163.506
52.79000 161.875
52.80000 160.230
52.81000 157.113
52.82000 152.608
52.83000 148.143
52.84000 151.163
52.85000 158.620
52.86000 165.809
52.87000 167.100
52.88000 165.975
52.89000 164.757
52.90000 162.534
52.91000 160.036
52.92000 157.831
52.93000 159.557
52.94000 161.647
52.95000 163.719
52.96000 165.714
52.97000 167.700
52.98000 167.193
52.99000 159.913
53.00000 152.252
53.01000 147.270
53.02000 153.028
53.03000 157.414
53.04000 159.266
53.05000 158.083
53.06000 156.907
53.07000 158.532
53.08000 162.292
53.09000 165.986
53.10000 169.608
53.11000 173.071
53.12000 176.102
53.13000 172.541
53.14000 166.750
53.15000 161.485
53.16000 160.605
53.17000 160.706
53.18000 160.793
53.19000 159.660
53.20000 158.560
53.21000 158.242
53.22000 160.542
53.23000 163.054
53.24000 164.853
53.25000 165.048
53.26000 165.183
53.27000 165.264
53.28000 166.370
53.29000 167.165
53.30000 167.964
53.31000 168.768
53.32000 169.578
53.33000 170.804
53.34000 172.290
53.35000 173.732
53.36000 170.367
53.37000 165.275
53.38000 160.580
53.39000 160.331
53.40000 161.321
53.41000 162.817
53.42000 167.624
53.43000 173.030
53.44000 177.476
53.45000 171.066
53.46000 164.816
53.47000 160.740
53.48000 162.678
53.49000 164.967
53.50000 167.050
53.51000 168.751
53.52000 170.444
53.53000 171.376
53.54000 171.202
53.55000 171.072
53.56000 169.109
53.57000 165.719
53.58000 162.299
53.59000 157.759
53.60000 152.643
53.61000 147.757
53.62000 153.221
53.63000 161.617
53.64000 169.073
53.65000 168.513
53.66000 166.122
53.67000 163.849
53.68000 162.188
53.69000 160.616
53.70000 159.378
53.71000 149.240
53.72000 140.523
53.73000 135.438
53.74000 138.667
53.75000 142.223
53.76000 146.139
53.77000 150.604
53.78000 155.076
53.79000 154.684
53.80000 149.506
53.81000 144.409
53.82000 146.025
53.83000 151.913
53.84000 157.626
53.85000 159.181
53.86000 158.967
53.87000 158.766
53.88000 160.560
53.89000 162.707
53.90000 163.846
53.91000 158.237
53.92000 151.379
53.93000 145.801
53.94000 145.661
53.95000 146.136
53.96000 146.492
53.97000 157.345
53.98000 166.312
53.99000 171.764
54.00000 170.565
54.01000 169.208
54.02000 165.965
54.03000 160.370
54.04000 154.779
54.05000 153.178
54.06000 154.739
54.07000 156.297
54.08000 157.693
54.09000 159.005
54.10000 160.166
54.11000 158.870
54.12000 156.710
54.13000 154.733
54.14000 159.384
54.15000 164.894
54.16000 169.145
54.17000 166.666
54.18000 163.192
54.19000 161.449
54.20000 165.744
54.21000 170.556
54.22000 173.964
54.23000 164.102
54.24000 156.193
54.25000 151.915
54.26000 153.290
54.27000 154.732
54.28000 154.646
54.29000 153.024
54.30000 151.413
54.31000 151.269
54.32000 152.065
54.33000 152.917
54.34000 155.162
54.35000 158.011
54.36000 160.527
54.37000 159.094
54.38000 156.517
54.39000 154.221
54.40000 157.800
54.41000 161.875
54.42000 164.264
54.43000 159.339
54.44000 153.567
54.45000 150.002
54.46000 152.778
54.47000 155.950
54.48000 158.056
54.49000 154.134
54.50000 151.123
54.51000 150.771
54.52000 153.803
54.53000 156.841
54.54000 157.797
54.55000 157.064
54.56000 156.343
54.57000 156.053
54.58000 155.996
54.59000 156.065
54.60000 158.269
54.61000 161.237
54.62000 163.814
54.63000 162.882
54.64000 161.114
54.65000 159.590
54.66000 155.362
54.67000 151.427
54.68000 148.964
54.69000 151.725
54.70000 154.947
54.71000 159.023
54.72000 165.127
54.73000 171.317
54.74000 175.133
54.75000 165.756
54.76000 158.906
54.77000 154.420
54.78000 152.367
54.79000 150.337
54.80000 150.714
54.81000 152.682
54.82000 154.598
54.83000 153.573
54.84000 151.357
54.85000 149.434
54.86000 151.077
54.87000 153.773
54.88000 156.403
54.89000 158.572
54.90000 160.652
54.91000 162.382
54.92000 158.341
54.93000 154.427
54.94000 152.258
54.95000 155.193
54.96000 158.459
54.97000 159.863
54.98000 157.612
54.99000 155.265
55.00000 153.936
55.01000 159.921
55.02000 164.097
55.03000 164.319
55.04000 161.269
55.05000 158.312
55.06000 159.656
55.07000 163.339
55.08000 166.875
55.09000 166.219
55.10000 164.175
55.11000 162.400
55.12000 163.092
55.13000 164.382
55.14000 166.017
55.15000 169.584
55.16000 173.449
55.17000 176.533
55.18000 179.051
55.19000 181.042
55.20000 181.670
55.21000 178.996
55.22000 176.175
55.23000 173.746
55.24000 171.952
55.25000 170.166
55.26000 169.251
55.27000 174.290
55.28000 177.635
55.29000 176.409
55.30000 172.100
55.31000 168.077
55.32000 171.867
55.33000 179.171
55.34000 186.054
55.35000 183.400
55.36000 178.342
55.37000 173.978
55.38000 174.581
55.39000 176.164
55.40000 178.018
55.41000 181.095
55.42000 184.322
55.43000 186.776
55.44000 191.823
55.45000 195.929
55.46000 199.623
55.47000 202.490
55.48000 205.334
55.49000 206.773
55.50000 206.352
55.51000 205.921
55.52000 207.206
55.53000 209.930
55.54000 212.731
55.55000 219.245
55.56000 227.819
55.57000 236.686
55.58000 250.855
55.59000 266.997
55.60000 281.876
55.61000 288.314
55.62000 292.210
55.63000 297.763
55.64000 312.772
55.65000 329.278
55.66000 344.129
55.67000 352.871
55.68000 361.042
55.69000 366.931
55.70000 389.147
55.71000 406.747
55.72000 426.952
55.73000 451.453
55.74000 476.019
55.75000 497.315
55.76000 515.102
55.77000 532.800
55.78000 555.012
55.79000 580.034
55.80000 604.936
55.81000 626.403
55.82000 646.297
55.83000 666.610
55.84000 692.345
55.85000 719.744
55.86000 744.352
55.87000 757.611
55.88000 767.214
55.89000 775.699
55.90000 779.036
55.91000 781.730
55.92000 784.345
55.93000 786.717
55.94000 789.073
55.95000 790.669
55.96000 798.723
55.97000 804.867
55.98000 803.481
55.99000 791.913
56.00000 780.291
56.01000 770.941
56.02000 763.549
56.03000 756.245
56.04000 743.013
56.05000 726.845
56.06000 710.165
56.07000 683.873
56.08000 653.940
56.09000 625.203
56.10000 608.076
56.11000 593.875
56.12000 581.502
56.13000 558.229
56.14000 536.836
56.15000 515.928
56.16000 496.848
56.17000 477.945
56.18000 458.107
56.19000 435.924
56.20000 413.628
56.21000 399.563
56.22000 383.987
56.23000 372.691
56.24000 361.420
56.25000 350.178
56.26000 338.922
56.27000 325.681
56.28000 311.049
56.29000 296.743
56.30000 289.654
56.31000 286.087
56.32000 282.182
56.33000 273.770
56.34000 263.948
56.35000 254.244
56.36000 245.430
56.37000 236.799
56.38000 229.536
56.39000 229.610
56.40000 230.455
56.41000 228.245
56.42000 216.576
56.43000 204.233
56.44000 197.614
56.45000 202.886
56.46000 208.525
56.47000 211.803
56.48000 193.850
56.49000 181.158
56.50000 176.762
56.51000 179.671
56.52000 182.522
56.53000 182.113
56.54000 179.825
56.55000 177.618
56.56000 174.644
56.57000 171.567
56.58000 168.891
56.59000 170.203
56.60000 172.541
56.61000 174.422
56.62000 173.588
56.63000 172.304
56.64000 171.266
56.65000 169.001
56.66000 167.061
56.67000 165.075
56.68000 162.970
56.69000 160.860
56.70000 160.980
56.71000 164.923
56.72000 168.932
56.73000 171.050
56.74000 164.593
56.75000 160.218
56.76000 158.069
56.77000 157.514
56.78000 157.049
56.79000 159.417
56.80000 163.131
56.81000 166.652
56.82000 161.864
56.83000 155.013
56.84000 148.946
56.85000 148.911
56.86000 150.140
56.87000 151.753
56.88000 155.205
56.89000 158.898
56.90000 161.749
56.91000 155.508
56.92000 150.030
56.93000 146.767
56.94000 148.190
56.95000 149.766
56.96000 151.068
56.97000 151.985
56.98000 152.900
56.99000 155.178
57.00000 158.680
57.01000 162.004
57.02000 154.695
57.03000 141.142
57.04000 128.468
57.05000 133.586
57.06000 145.700
57.07000 156.944
57.08000 163.503
57.09000 168.307
57.10000 171.537
57.11000 165.183
57.12000 157.210
57.13000 150.767
57.14000 150.317
57.15000 150.475
57.16000 150.590
57.17000 154.448
57.18000 157.578
57.19000 158.476
57.20000 155.477
57.21000 152.407
57.22000 152.310
57.23000 155.612
57.24000 158.906
57.25000 157.636
57.26000 153.073
57.27000 148.605
57.28000 147.302
57.29000 147.531
57.30000 147.690
57.31000 146.849
57.32000 145.682
57.33000 144.627
57.34000 146.668
57.35000 149.051
57.36000 150.849
57.37000 149.778
57.38000 148.321
57.39000 146.483
57.40000 143.414
57.41000 140.253
57.42000 138.070
57.43000 137.509
57.44000 137.129
57.45000 137.439
57.46000 138.739
57.47000 140.047
57.48000 142.353
57.49000 145.574
57.50000 148.765
57.51000 148.951
57.52000 147.373
57.53000 145.830
57.54000 145.007
57.55000 144.473
57.56000 144.040
57.57000 144.662
57.58000 145.567
57.59000 146.363
57.60000 147.969
57.61000 149.471
57.62000 150.350
57.63000 148.739
57.64000 146.869
57.65000 146.711
57.66000 151.104
57.67000 155.741
57.68000 158.731
57.69000 148.139
57.70000 140.208
57.71000 138.841
57.72000 145.139
57.73000 151.414
57.74000 151.154
57.75000 146.027
57.76000 140.998
57.77000 140.832
57.78000 142.985
57.79000 145.300
57.80000 149.994
57.81000 155.475
57.82000 160.149
57.83000 158.294
57.84000 155.013
57.85000 152.223
57.86000 149.253
57.87000 146.739
57.88000 145.240
57.89000 147.071
57.90000 149.161
57.91000 149.780
57.92000 147.164
57.93000 144.432
57.94000 142.804
57.95000 143.704
57.96000 144.357
57.97000 146.296
57.98000 149.440
57.99000 152.527
58.00000 151.640
58.01000 148.329
58.02000 145.122
58.03000 143.811
58.04000 143.303
58.05000 142.782
58.06000 142.135
58.07000 141.453
58.08000 140.540
58.09000 138.156
58.10000 135.512
58.11000 133.348
58.12000 137.732
58.13000 141.896
58.14000 145.104
58.15000 145.723
58.16000 146.198
58.17000 146.266
58.18000 145.596
58.19000 144.910
58.20000 144.537
58.21000 138.809
58.22000 134.885
58.23000 133.910
58.24000 135.176
58.25000 136.429
58.26000 137.215
58.27000 137.767
58.28000 138.294
58.29000 138.952
58.30000 139.604
58.31000 140.167
58.32000 139.985
58.33000 139.638
58.34000 139.382
58.35000 139.590
58.36000 139.865
58.37000 140.079
58.38000 140.806
58.39000 141.420
58.40000 141.239
58.41000 139.280
58.42000 137.254
58.43000 134.661
58.44000 131.220
58.45000 127.771
58.46000 129.529
58.47000 136.281
58.48000 142.955
58.49000 143.818
58.50000 141.067
58.51000 138.357
58.52000 136.592
58.53000 135.220
58.54000 133.938
58.55000 134.598
58.56000 135.687
58.57000 137.077
58.58000 140.425
58.59000 144.127
58.60000 146.780
58.61000 145.079
58.62000 142.900
58.63000 141.278
58.64000 135.250
58.65000 130.360
58.66000 129.614
58.67000 136.532
58.68000 143.621
58.69000 146.811
58.70000 145.258
58.71000 143.697
58.72000 142.979
58.73000 142.914
58.74000 142.831
58.75000 142.015
58.76000 140.823
58.77000 139.542
58.78000 136.851
58.79000 133.675
58.80000 130.777
58.81000 131.888
58.82000 133.682
58.83000 134.780
58.84000 132.246
58.85000 129.190
58.86000 128.093
58.87000 133.671
58.88000 139.802
58.89000 144.113
58.90000 143.491
58.91000 142.873
58.92000 141.481
58.93000 138.911
58.94000 136.328
58.95000 134.896
58.96000 134.593
58.97000 134.291
58.98000 134.770
58.99000 135.727
59.00000 136.544
59.01000 134.040
59.02000 130.130
59.03000 126.576
59.04000 127.104
59.05000 128.790
59.06000 130.285
59.07000 130.158
59.08000 129.789
59.09000 130.061
59.10000 133.048
59.11000 136.341
59.12000 138.168
59.13000 135.874
59.14000 133.333
59.15000 131.660
59.16000 134.016
59.17000 135.821
59.18000 136.802
59.19000 136.759
59.20000 136.704
59.21000 133.893
59.22000 128.902
59.23000 123.990
59.24000 126.145
59.25000 131.807
59.26000 137.140
59.27000 137.135
59.28000 135.261
59.29000 133.605
59.30000 133.854
59.31000 134.544
59.32000 135.138
59.33000 136.484
59.34000 137.716
59.35000 137.499
59.36000 132.249
59.37000 126.570
59.38000 124.566
59.39000 131.102
59.40000 137.984
59.41000 142.188
59.42000 135.080
59.43000 129.902
59.44000 126.199
59.45000 123.971
59.46000 121.801
59.47000 124.700
59.48000 130.876
59.49000 136.883
59.50000 137.609
59.51000 136.133
59.52000 134.766
59.53000 134.681
59.54000 134.967
59.55000 135.496
59.56000 137.687
59.57000 140.190
59.58000 142.263
59.59000 143.094
59.60000 143.662
59.61000 142.948
59.62000 138.565
59.63000 133.955
59.64000 131.860
59.65000 134.595
59.66000 137.451
59.67000 139.049
59.68000 139.301
59.69000 139.467
59.70000 137.847
59.71000 134.787
59.72000 131.743
59.73000 129.387
59.74000 127.398
59.75000 125.492
59.76000 132.566
59.77000 142.152
59.78000 150.310
59.79000 145.711
59.80000 138.093
59.81000 131.282
59.82000 128.874
59.83000 127.128
59.84000 125.743
59.85000 130.680
59.86000 135.100
59.87000 138.085
59.88000 137.669
59.89000 137.110
59.90000 134.628
59.91000 129.105
59.92000 123.545
59.93000 120.732
59.94000 123.582
59.95000 125.503
59.96000 128.643
59.97000 132.587
59.98000 136.409
59.99000 137.095
60.00000 136.402
60.01000 135.750
60.02000 135.277
60.03000 134.894
60.04000 134.502
60.05000 134.052
60.06000 133.591
60.07000 132.984
60.08000 131.737
60.09000 130.413
60.10000 129.412
60.11000 128.502
60.12000 127.792
60.13000 127.622
60.14000 128.507
60.15000 129.420
60.16000 130.859
60.17000 132.979
60.18000 135.098
60.19000 138.555
60.20000 143.099
60.21000 147.502
60.22000 145.481
60.23000 139.975
60.24000 134.533
60.25000 130.191
60.26000 126.250
60.27000 122.626
60.28000 123.156
60.29000 124.525
60.30000 125.565
60.31000 124.777
60.32000 123.707
60.33000 124.288
60.34000 130.822
60.35000 137.893
60.36000 142.955
60.37000 143.090
60.38000 143.027
60.39000 141.813
60.40000 138.741
60.41000 135.645
60.42000 133.949
60.43000 133.719
60.44000 133.490
60.45000 131.947
60.46000 129.553
60.47000 127.286
60.48000 128.474
60.49000 131.209
60.50000 133.667
60.51000 132.660
60.52000 130.613
60.53000 128.781
60.54000 128.318
60.55000 128.149
60.56000 128.273
60.57000 129.711
60.58000 131.310
60.59000 131.946
60.60000 129.721
60.61000 127.307
60.62000 125.684
60.63000 132.729
60.64000 138.142
60.65000 140.344
60.66000 138.310
60.67000 136.254
60.68000 132.914
60.69000 128.494
60.70000 124.132
60.71000 124.416
60.72000 127.192
60.73000 129.747
60.74000 128.353
60.75000 125.494
60.76000 122.793
60.77000 121.567
60.78000 120.704
60.79000 119.955
60.80000 123.103
60.81000 126.309
60.82000 128.686
60.83000 128.012
60.84000 127.054
60.85000 127.706
60.86000 132.313
60.87000 137.102
60.88000 140.096
60.89000 136.061
60.90000 133.075
60.91000 131.777
60.92000 132.283
60.93000 132.777
60.94000 131.698
60.95000 129.541
60.96000 127.436
60.97000 128.646
60.98000 131.251
60.99000 133.507
61.00000 131.264
61.01000 127.644
61.02000 125.099
61.03000 130.404
61.04000 137.283
61.05000 143.045
61.06000 144.256
61.07000 144.794
61.08000 143.442
61.09000 136.369
61.10000 128.905
61.11000 124.447
61.12000 126.100
61.13000 127.930
61.14000 128.983
61.15000 135.889
61.16000 140.739
61.17000 143.057
61.18000 143.199
61.19000 143.278
61.20000 140.145
61.21000 135.202
61.22000 130.445
61.23000 128.968
61.24000 128.744
61.25000 128.796
61.26000 131.510
61.27000 134.891
61.28000 137.880
61.29000 138.586
61.30000 138.924
61.31000 139.195
61.32000 137.180
61.33000 135.369
61.34000 134.799
61.35000 137.336
61.36000 140.020
61.37000 141.726
61.38000 141.792
61.39000 141.831
61.40000 141.852
61.41000 136.813
61.42000 133.451
61.43000 136.385
61.44000 143.721
61.45000 151.020
61.46000 157.230
61.47000 162.934
61.48000 168.328
61.49000 167.841
61.50000 165.707
61.51000 164.805
61.52000 173.113
61.53000 183.305
61.54000 193.063
61.55000 200.786
61.56000 208.251
61.57000 213.981
61.58000 238.162
61.59000 258.306
61.60000 274.661
61.61000 283.172
61.62000 291.444
61.63000 296.370
61.64000 296.700
61.65000 297.001
61.66000 298.563
61.67000 301.227
61.68000 303.879
61.69000 305.899
61.70000 307.558
61.71000 309.239
61.72000 311.373
61.73000 313.680
61.74000 315.816
61.75000 301.439
61.76000 284.712
61.77000 269.246
61.78000 261.261
61.79000 254.509
61.80000 244.783
61.81000 223.685
61.82000 201.471
61.83000 185.298
61.84000 183.220
61.85000 182.159
61.86000 176.897
61.87000 164.457
61.88000 151.897
61.89000 148.232
61.90000 154.489
61.91000 160.729
61.92000 161.773
61.93000 159.139
61.94000 156.572
61.95000 156.097
61.96000 156.613
61.97000 156.940
61.98000 154.670
61.99000 151.575
62.00000 148.781
62.01000 155.112
62.02000 162.350
62.03000 167.163
62.04000 160.387
62.05000 152.100
62.06000 145.278
62.07000 143.062
62.08000 141.183
62.09000 139.895
62.10000 138.688
62.11000 137.786
62.12000 137.849
62.13000 139.263
62.14000 140.687
62.15000 143.675
62.16000 148.063
62.17000 152.405
62.18000 149.879
62.19000 143.483
62.20000 137.491
62.21000 139.634
62.22000 144.964
62.23000 149.883
62.24000 150.607
62.25000 150.236
62.26000 149.911
62.27000 146.995
62.28000 144.117
62.29000 141.605
62.30000 140.517
62.31000 139.573
62.32000 138.985
62.33000 139.327
62.34000 139.717
62.35000 139.966
62.36000 142.511
62.37000 144.394
62.38000 145.066
62.39000 144.358
62.40000 143.652
62.41000 143.638
62.42000 144.127
62.43000 144.606
62.44000 141.341
62.45000 136.463
62.46000 132.149
62.47000 135.801
62.48000 142.033
62.49000 147.254
62.50000 144.546
62.51000 140.148
62.52000 136.423
62.53000 139.550
62.54000 142.934
62.55000 146.460
62.56000 150.436
62.57000 154.446
62.58000 155.914
62.59000 151.920
62.60000 147.741
62.61000 145.275
62.62000 145.274
62.63000 145.287
62.64000 145.387
62.65000 145.565
62.66000 145.765
62.67000 147.275
62.68000 149.567
62.69000 151.783
62.70000 151.606
62.71000 150.538
62.72000 149.404
62.73000 147.588
62.74000 145.590
62.75000 144.001
62.76000 144.951
62.77000 146.337
62.78000 147.467
62.79000 144.676
62.80000 142.065
62.81000 141.223
62.82000 145.066
62.83000 149.160
62.84000 151.576
62.85000 151.015
62.86000 150.395
62.87000 150.062
62.88000 141.317
62.89000 135.355
62.90000 133.601
62.91000 134.968
62.92000 136.399
62.93000 140.015
62.94000 144.705
62.95000 149.165
62.96000 150.805
62.97000 151.462
62.98000 151.591
62.99000 147.475
63.00000 142.434
63.01000 138.716
63.02000 141.589
63.03000 145.362
63.04000 148.301
63.05000 143.415
63.06000 139.040
63.07000 137.193
63.08000 140.881
63.09000 144.764
63.10000 146.256
63.11000 144.259
63.12000 142.234
63.13000 139.442
63.14000 135.936
63.15000 132.501
63.16000 133.958
63.17000 138.387
63.18000 142.721
63.19000 144.956
63.20000 146.338
63.21000 147.626
63.22000 147.010
63.23000 145.984
63.24000 145.611
63.25000 149.372
63.26000 153.861
63.27000 156.367
63.28000 150.827
63.29000 144.433
63.30000 139.702
63.31000 140.408
63.32000 141.190
63.33000 142.262
63.34000 143.859
63.35000 145.466
63.36000 146.743
63.37000 147.627
63.38000 148.509
63.39000 148.887
63.40000 148.885
63.41000 148.943
63.42000 151.185
63.43000 154.522
63.44000 157.543
63.45000 155.810
63.46000 152.479
63.47000 149.450
63.48000 151.705
63.49000 154.738
63.50000 156.607
63.51000 152.557
63.52000 147.679
63.53000 144.017
63.54000 144.408
63.55000 145.123
63.56000 145.622
63.57000 147.765
63.58000 149.428
63.59000 150.466
63.60000 150.574
63.61000 150.673
63.62000 152.053
63.63000 154.657
63.64000 157.239
63.65000 157.773
63.66000 157.050
63.67000 156.215
63.68000 152.832
63.69000 148.392
63.70000 144.616
63.71000 148.188
63.72000 153.794
63.73000 158.752
63.74000 160.117
63.75000 160.737
63.76000 161.050
63.77000 160.091
63.78000 158.993
63.79000 156.839
63.80000 151.784
63.81000 146.561
63.82000 143.150
63.83000 145.167
63.84000 146.734
63.85000 150.320
63.86000 156.354
63.87000 162.370
63.88000 162.516
63.89000 158.129
63.90000 153.817
63.91000 152.518
63.92000 152.750
63.93000 153.058
63.94000 154.542
63.95000 156.429
63.96000 157.851
63.97000 155.339
63.98000 151.936
63.99000 149.023
64.00000 154.172
64.01000 159.489
64.02000 164.234
64.03000 167.035
64.04000 169.676
64.05000 169.599
64.06000 163.345
64.07000 156.853
64.08000 152.926
64.09000 160.840
64.10000 166.568
64.11000 167.174
64.12000 162.782
64.13000 158.444
64.14000 158.410
64.15000 161.095
64.16000 163.702
64.17000 163.980
64.18000 163.312
64.19000 162.694
64.20000 162.655
64.21000 162.781
64.22000 162.693
64.23000 161.189
64.24000 159.425
64.25000 157.971
64.26000 159.218
64.27000 160.494
64.28000 161.275
64.29000 160.671
64.30000 159.984
64.31000 159.584
64.32000 159.720
64.33000 159.869
64.34000 159.951
64.35000 162.196
64.36000 163.750
64.37000 165.325
64.38000 166.917
64.39000 168.447
64.40000 167.478
64.41000 165.210
64.42000 163.041
64.43000 164.126
64.44000 166.192
64.45000 168.059
64.46000 168.204
64.47000 167.951
64.48000 167.940
64.49000 169.207
64.50000 170.661
64.51000 171.810
64.52000 174.262
64.53000 176.320
64.54000 177.105
64.55000 174.945
64.56000 172.666
64.57000 169.771
64.58000 165.926
64.59000 162.069
64.60000 162.459
64.61000 167.083
64.62000 171.671
64.63000 173.131
64.64000 172.576
64.65000 172.099
64.66000 173.551
64.67000 175.833
64.68000 177.972
64.69000 179.689
64.70000 181.142
64.71000 182.027
64.72000 179.052
64.73000 175.353
64.74000 172.853
64.75000 175.513
64.76000 178.765
64.77000 181.210
64.78000 184.548
64.79000 187.201
64.80000 187.867
64.81000 184.729
64.82000 181.498
64.83000 179.256
64.84000 178.264
64.85000 177.278
64.86000 178.899
64.87000 182.601
64.88000 186.259
64.89000 188.047
64.90000 188.844
64.91000 189.715
64.92000 191.820
64.93000 194.363
64.94000 196.695
64.95000 196.010
64.96000 194.767
64.97000 193.879
64.98000 194.923
64.99000 196.257
65.00000 197.657
65.01000 199.292
65.02000 200.948
65.03000 202.125
65.04000 205.746
65.05000 208.582
65.06000 211.869
65.07000 215.870
65.08000 219.880
65.09000 220.781
65.10000 218.513
65.11000 216.258
65.12000 218.804
65.13000 224.420
65.14000 229.891
65.15000 231.643
65.16000 231.767
65.17000 231.784
65.18000 230.516
65.19000 228.871
65.20000 227.403
65.21000 234.059
65.22000 241.205
65.23000 248.391
65.24000 255.753
65.25000 263.136
65.26000 269.908
65.27000 274.905
65.28000 279.789
65.29000 283.045
65.30000 290.313
65.31000 295.771
65.32000 300.448
65.33000 304.119
65.34000 307.777
65.35000 307.139
65.36000 302.977
65.37000 298.874
65.38000 307.167
65.39000 321.728
65.40000 335.792
65.41000 341.279
65.42000 343.659
65.43000 346.411
65.44000 352.545
65.45000 359.493
65.46000 365.501
65.47000 380.281
65.48000 393.984
65.49000 405.415
65.50000 408.684
65.51000 411.219
65.52000 414.329
65.53000 418.819
65.54000 423.370
65.55000 426.189
65.56000 431.186
65.57000 434.800
65.58000 444.372
65.59000 460.152
65.60000 475.885
65.61000 486.758
65.62000 494.377
65.63000 501.804
65.64000 516.636
65.65000 533.949
65.66000 551.426
65.67000 570.945
65.68000 591.075
65.69000 616.421
65.70000 678.831
65.71000 748.490
65.72000 806.583
65.73000 859.402
65.74000 902.668
65.75000 952.226
65.76000 1020.423
65.77000 1089.847
65.78000 1156.137
65.79000 1216.203
65.80000 1276.098
65.81000 1310.188
65.82000 1345.907
65.83000 1370.795
65.84000 1389.002
65.85000 1401.608
65.86000 1413.872
65.87000 1409.661
65.88000 1396.379
65.89000 1383.619
65.90000 1369.538
65.91000 1355.900
65.92000 1339.685
65.93000 1299.345
65.94000 1253.086
65.95000 1201.706
65.96000 1121.358
65.97000 1036.463
65.98000 968.533
65.99000 866.116
66.00000 780.730
66.01000 700.540
66.02000 633.073
66.03000 566.186
66.04000 513.422
66.05000 483.791
66.06000 454.493
66.07000 439.384
66.08000 414.648
66.09000 397.997
66.10000 382.817
66.11000 368.642
66.12000 354.684
66.13000 346.807
66.14000 341.696
66.15000 336.874
66.16000 335.830
66.17000 335.928
66.18000 336.106
66.19000 336.859
66.20000 337.726
66.21000 338.125
66.22000 336.380
66.23000 334.370
66.24000 332.836
66.25000 344.292
66.26000 354.017
66.27000 366.107
66.28000 382.985
66.29000 400.001
66.30000 414.613
66.31000 425.998
66.32000 437.357
66.33000 445.509
66.34000 450.904
66.35000 456.344
66.36000 464.048
66.37000 473.024
66.38000 481.904
66.39000 489.023
66.40000 495.478
66.41000 501.437
66.42000 508.542
66.43000 515.169
66.44000 520.003
66.45000 514.473
66.46000 507.279
66.47000 499.370
66.48000 488.789
66.49000 477.955
66.50000 470.119
66.51000 457.221
66.52000 447.138
66.53000 437.337
66.54000 428.006
66.55000 418.683
66.56000 407.559
66.57000 394.479
66.58000 381.458
66.59000 367.048
66.60000 351.839
66.61000 337.032
66.62000 334.049
66.63000 336.545
66.64000 339.093
66.65000 342.327
66.66000 345.773
66.67000 348.874
66.68000 344.934
66.69000 340.224
66.70000 335.581
66.71000 331.247
66.72000 326.953
66.73000 324.257
66.74000 326.473
66.75000 329.035
66.76000 330.777
66.77000 330.190
66.78000 329.700
66.79000 327.980
66.80000 324.580
66.81000 321.177
66.82000 325.055
66.83000 335.293
66.84000 345.413
66.85000 342.896
66.86000 333.389
66.87000 324.798
66.88000 333.832
66.89000 349.620
66.90000 363.982
66.91000 364.268
66.92000 360.962
66.93000 358.076
66.94000 349.136
66.95000 340.636
66.96000 334.627
66.97000 338.105
66.98000 342.509
66.99000 347.475
67.00000 353.870
67.01000 360.336
67.02000 364.433
67.03000 357.418
67.04000 352.194
67.05000 354.576
67.06000 365.406
67.07000 376.191
67.08000 379.635
67.09000 377.867
67.10000 376.136
67.11000 378.279
67.12000 382.091
67.13000 385.672
67.14000 386.130
67.15000 385.600
67.16000 384.730
67.17000 381.273
67.18000 377.277
67.19000 373.908
67.20000 385.175
67.21000 396.171
67.22000 404.521
67.23000 404.577
67.24000 404.031
67.25000 403.084
67.26000 401.294
67.27000 399.478
67.28000 398.416
67.29000 402.263
67.30000 404.995
67.31000 409.355
67.32000 415.169
67.33000 420.865
67.34000 419.624
67.35000 414.340
67.36000 409.240
67.37000 415.049
67.38000 424.530
67.39000 432.803
67.40000 428.842
67.41000 421.696
67.42000 415.347
67.43000 413.813
67.44000 413.086
67.45000 412.497
67.46000 421.578
67.47000 429.764
67.48000 435.351
67.49000 434.207
67.50000 432.718
67.51000 433.704
67.52000 438.983
67.53000 444.339
67.54000 447.187
67.55000 441.271
67.56000 437.283
67.57000 440.509
67.58000 448.962
67.59000 457.332
67.60000 463.040
67.61000 467.467
67.62000 471.669
67.63000 471.303
67.64000 469.606
67.65000 467.788
67.66000 465.019
67.67000 462.049
67.68000 459.796
67.69000 461.031
67.70000 462.729
67.71000 464.045
67.72000 468.812
67.73000 472.803
67.74000 478.554
67.75000 488.077
67.76000 497.725
67.77000 502.305
67.78000 499.667
67.79000 496.974
67.80000 495.435
67.81000 494.947
67.82000 494.520
67.83000 497.920
67.84000 503.594
67.85000 509.559
67.86000 521.542
67.87000 535.919
67.88000 549.282
67.89000 541.596
67.90000 529.618
67.91000 519.147
67.92000 517.972
67.93000 518.391
67.94000 520.591
67.95000 529.851
67.96000 539.838
67.97000 547.182
67.98000 538.660
67.99000 531.415
68.00000 532.462
68.01000 548.168
68.02000 564.154
68.03000 569.162
68.04000 561.452
68.05000 553.750
68.06000 554.950
68.07000 562.670
68.08000 570.352
68.09000 576.729
68.10000 582.467
68.11000 587.798
68.12000 587.219
68.13000 584.697
68.14000 582.409
68.15000 593.413
68.16000 605.663
68.17000 617.274
68.18000 625.713
68.19000 633.720
68.20000 637.124
68.21000 625.541
68.22000 612.803
68.23000 603.975
68.24000 607.858
68.25000 611.116
68.26000 619.559
68.27000 635.533
68.28000 651.570
68.29000 666.739
68.30000 681.099
68.31000 695.328
68.32000 696.666
68.33000 690.327
68.34000 684.665
68.35000 693.586
68.36000 708.416
68.37000 721.687
68.38000 718.272
68.39000 710.341
68.40000 703.352
68.41000 713.703
68.42000 725.241
68.43000 736.429
68.44000 746.203
68.45000 755.827
68.46000 767.357
68.47000 784.007
68.48000 800.939
68.49000 811.906
68.50000 810.673
68.51000 809.589
68.52000 823.069
68.53000 853.777
68.54000 884.481
68.55000 908.391
68.56000 927.177
68.57000 945.619
68.58000 973.190
68.59000 1004.185
68.60000 1035.801
68.61000 1076.717
68.62000 1120.747
68.63000 1164.822
68.64000 1209.260
68.65000 1253.778
68.66000 1291.725
68.67000 1380.107
68.68000 1460.368
68.69000 1533.034
68.70000 1580.499
68.71000 1625.960
68.72000 1679.472
68.73000 1750.876
68.74000 1822.937
68.75000 1866.115
68.76000 1966.648
68.77000 2038.416
68.78000 2116.083
68.79000 2199.360
68.80000 2282.722
68.81000 2372.269
68.82000 2465.635
68.83000 2556.145
68.84000 2729.446
68.85000 2925.956
68.86000 3131.699
68.87000 3439.060
68.88000 3774.454
68.89000 4149.232
68.90000 4778.231
68.91000 5452.735
68.92000 6006.123
68.93000 8112.978
68.94000 9980.301
68.95000 12321.089
68.96000 15958.384
68.97000 19669.732
68.98000 23940.725
68.99000 29239.375
69.00000 34560.223
69.01000 37473.734
69.02000 45122.363
69.03000 50383.836
69.04000 54552.535
69.05000 57880.574
69.06000 61174.703
69.07000 63190.684
69.08000 64556.375
69.09000 65859.281
69.10000 66572.563
69.11000 67047.836
69.12000 67527.289
69.13000 68041.844
69.14000 68564.328
69.15000 69108.250
69.16000 69763.148
69.17000 70433.867
69.18000 70960.625
69.19000 70124.023
69.20000 69365.289
69.21000 67912.563
69.22000 64888.211
69.23000 61803.680
69.24000 58418.523
69.25000 54579.270
69.26000 50735.504
69.27000 47425.520
69.28000 44634.527
69.29000 41852.926
69.30000 39809.254
69.31000 38229.980
69.32000 36669.520
69.33000 35548.664
69.34000 34612.715
69.35000 33737.125
69.36000 32643.656
69.37000 31594.617
69.38000 30454.057
69.39000 28709.236
69.40000 26853.920
69.41000 24828.705
69.42000 22089.172
69.43000 19270.129
69.44000 17163.848
69.45000 14056.701
69.46000 11588.295
69.47000 9434.244
69.48000 7868.438
69.49000 6316.115
69.50000 5109.553
69.51000 4329.209
69.52000 3551.554
69.53000 3017.563
69.54000 2676.595
69.55000 2338.492
69.56000 2114.425
69.57000 1949.476
69.58000 1787.953
69.59000 1681.244
69.60000 1593.595
69.61000 1513.497
69.62000 1449.154
69.63000 1395.224
69.64000 1340.795
69.65000 1283.726
69.66000 1226.271
69.67000 1174.392
69.68000 1141.731
69.69000 1110.690
69.70000 1088.781
69.71000 1061.903
69.72000 1041.355
69.73000 1017.925
69.74000 990.055
69.75000 962.136
69.76000 935.454
69.77000 910.001
69.78000 884.729
69.79000 878.333
69.80000 883.957
69.81000 888.628
69.82000 870.097
69.83000 841.622
69.84000 814.458
69.85000 802.567
69.86000 795.055
69.87000 788.375
69.88000 778.470
69.89000 769.352
69.90000 763.302
69.91000 770.412
69.92000 779.024
69.93000 780.400
69.94000 761.203
69.95000 740.746
69.96000 727.217
69.97000 712.852
69.98000 702.236
69.99000 695.966
70.00000 695.162
