20.00000 582.406
20.01000 570.177
20.02000 556.200
20.03000 545.897
20.04000 549.950
20.05000 555.453
20.06000 559.496
20.07000 561.359
20.08000 562.711
20.09000 563.796
20.10000 564.407
20.11000 565.009
20.12000 562.055
20.13000 554.894
20.14000 547.744
20.15000 551.108
20.16000 562.424
20.17000 573.402
20.18000 571.554
20.19000 563.158
20.20000 555.176
20.21000 553.764
20.22000 554.626
20.23000 555.414
20.24000 557.479
20.25000 559.578
20.26000 560.367
20.27000 554.099
20.28000 546.779
20.29000 543.196
20.30000 552.867
20.31000 563.705
20.32000 571.447
20.33000 566.709
20.34000 562.679
20.35000 559.059
20.36000 556.102
20.37000 553.155
20.38000 555.607
20.39000 563.808
20.40000 571.972
20.41000 568.617
20.42000 557.435
20.43000 546.755
20.44000 550.948
20.45000 562.054
20.46000 572.338
20.47000 571.535
20.48000 567.238
20.49000 563.359
20.50000 554.885
20.51000 546.591
20.52000 541.061
20.53000 548.942
20.54000 558.601
20.55000 563.258
20.56000 551.788
20.57000 539.094
20.58000 530.293
20.59000 536.972
20.60000 542.409
20.61000 545.271
20.62000 544.345
20.63000 543.386
20.64000 547.086
20.65000 555.238
20.66000 563.326
20.67000 565.442
20.68000 563.846
20.69000 562.001
20.70000 554.283
20.71000 544.076
20.72000 534.703
20.73000 535.011
20.74000 538.091
20.75000 540.834
20.76000 539.747
20.77000 538.174
20.78000 537.281
20.79000 539.368
20.80000 541.804
20.81000 542.518
20.82000 538.180
20.83000 533.514
20.84000 530.382
20.85000 535.566
20.86000 539.586
20.87000 544.177
20.88000 549.530
20.89000 554.882
20.90000 556.562
20.91000 555.087
20.92000 553.629
20.93000 551.742
20.94000 549.662
20.95000 547.685
20.96000 547.705
20.97000 548.495
20.98000 549.489
20.99000 552.552
21.00000 556.154
21.01000 559.313
21.02000 563.416
21.03000 567.077
21.04000 567.495
21.05000 555.040
21.06000 541.256
21.07000 532.458
21.08000 536.977
21.09000 542.221
21.10000 545.624
21.11000 539.801
21.12000 535.398
21.13000 532.688
21.14000 532.018
21.15000 531.332
21.16000 525.760
21.17000 516.398
21.18000 507.189
21.19000 508.498
21.20000 515.039
21.21000 521.202
21.22000 521.184
21.23000 518.995
21.24000 517.851
21.25000 525.989
21.26000 536.313
21.27000 545.226
21.28000 544.482
21.29000 542.607
21.30000 542.767
21.31000 550.260
21.32000 558.414
21.33000 562.304
21.34000 555.818
21.35000 548.866
21.36000 544.517
21.37000 542.350
21.38000 540.809
21.39000 542.183
21.40000 546.715
21.41000 551.234
21.42000 553.911
21.43000 555.294
21.44000 556.647
21.45000 546.492
21.46000 531.534
21.47000 517.334
21.48000 513.623
21.49000 513.266
21.50000 514.318
21.51000 526.414
21.52000 540.862
21.53000 553.122
21.54000 546.653
21.55000 539.104
21.56000 533.073
21.57000 532.010
21.58000 531.333
21.59000 533.108
21.60000 540.320
21.61000 547.730
21.62000 552.186
21.63000 542.982
21.64000 536.345
21.65000 537.709
21.66000 546.853
21.67000 555.922
21.68000 558.851
21.69000 557.869
21.70000 556.915
21.71000 555.070
21.72000 552.953
21.73000 550.698
21.74000 546.804
21.75000 542.432
21.76000 538.861
21.77000 540.855
21.78000 543.919
21.79000 546.471
21.80000 556.287
21.81000 565.140
21.82000 571.943
21.83000 572.638
21.84000 572.927
21.85000 572.022
21.86000 568.706
21.87000 565.320
21.88000 563.368
21.89000 577.689
21.90000 587.770
21.91000 589.190
21.92000 583.042
21.93000 576.987
21.94000 576.264
21.95000 578.626
21.96000 580.906
21.97000 588.988
21.98000 598.743
21.99000 608.178
22.00000 614.310
22.01000 619.571
22.02000 622.407
22.03000 610.175
22.04000 595.340
22.05000 583.223
22.06000 610.647
22.07000 636.504
22.08000 652.145
22.09000 640.084
22.10000 626.469
22.11000 618.856
22.12000 622.277
22.13000 625.936
22.14000 627.952
22.15000 638.265
22.16000 645.361
22.17000 645.533
22.18000 640.247
22.19000 634.899
22.20000 626.953
22.21000 617.642
22.22000 608.722
22.23000 614.344
22.24000 624.426
22.25000 633.446
22.26000 632.845
22.27000 629.941
22.28000 626.653
22.29000 621.224
22.30000 615.464
22.31000 610.857
22.32000 597.131
22.33000 585.356
22.34000 579.516
22.35000 588.336
22.36000 597.838
22.37000 599.935
22.38000 589.654
22.39000 579.181
22.40000 573.688
22.41000 576.203
22.42000 577.894
22.43000 577.370
22.44000 575.266
22.45000 573.293
22.46000 575.488
22.47000 579.681
22.48000 583.662
22.49000 574.757
22.50000 562.672
22.51000 551.994
22.52000 552.562
22.53000 555.565
22.54000 557.004
22.55000 550.595
22.56000 543.104
22.57000 537.245
22.58000 538.259
22.59000 539.506
22.60000 538.872
22.61000 534.002
22.62000 528.973
22.63000 527.490
22.64000 531.389
22.65000 535.343
22.66000 537.375
22.67000 537.502
22.68000 537.588
22.69000 533.949
22.70000 527.903
22.71000 522.070
22.72000 521.666
22.73000 523.630
22.74000 525.478
22.75000 522.347
22.76000 518.144
22.77000 513.973
22.78000 510.029
22.79000 506.129
22.80000 503.653
22.81000 507.625
22.82000 512.385
22.83000 516.019
22.84000 520.583
22.85000 524.231
22.86000 525.948
22.87000 523.706
22.88000 521.346
22.89000 521.344
22.90000 524.586
22.91000 527.846
22.92000 526.439
22.93000 520.889
22.94000 515.432
22.95000 515.469
22.96000 518.735
22.97000 521.573
22.98000 515.544
22.99000 505.988
23.00000 497.096
23.01000 501.987
23.02000 509.747
23.03000 515.259
23.04000 506.537
23.05000 495.315
23.06000 486.935
23.07000 490.206
23.08000 494.731
23.09000 498.100
23.10000 499.998
23.11000 501.409
23.12000 501.891
23.13000 500.638
23.14000 499.346
23.15000 499.688
23.16000 502.063
23.17000 504.440
23.18000 501.790
23.19000 495.141
23.20000 488.639
23.21000 488.575
23.22000 491.951
23.23000 495.269
23.24000 497.608
23.25000 499.593
23.26000 501.419
23.27000 506.371
23.28000 511.476
23.29000 515.322
23.30000 512.022
23.31000 507.598
23.32000 503.857
23.33000 502.657
23.34000 501.696
23.35000 501.000
23.36000 501.584
23.37000 502.081
23.38000 501.957
23.39000 500.780
23.40000 499.585
23.41000 497.433
23.42000 494.206
23.43000 490.990
23.44000 491.628
23.45000 495.029
23.46000 498.426
23.47000 501.710
23.48000 504.938
23.49000 507.810
23.50000 505.488
23.51000 501.453
23.52000 497.787
23.53000 502.543
23.54000 508.385
23.55000 512.486
23.56000 507.699
23.57000 501.665
23.58000 496.883
23.59000 496.332
23.60000 496.127
23.61000 495.982
23.62000 493.768
23.63000 492.030
23.64000 493.923
23.65000 501.417
23.66000 508.973
23.67000 513.805
23.68000 515.893
23.69000 517.968
23.70000 516.288
23.71000 512.201
23.72000 508.193
23.73000 506.255
23.74000 505.233
23.75000 503.667
23.76000 495.295
23.77000 484.882
23.78000 475.546
23.79000 479.673
23.80000 485.615
23.81000 490.437
23.82000 490.097
23.83000 489.115
23.84000 487.014
23.85000 481.478
23.86000 475.701
23.87000 471.761
23.88000 474.907
23.89000 477.424
23.90000 479.074
23.91000 479.513
23.92000 479.943
23.93000 480.346
23.94000 480.724
23.95000 481.098
23.96000 484.033
23.97000 488.401
23.98000 492.862
23.99000 499.319
24.00000 506.580
24.01000 512.771
24.02000 507.375
24.03000 498.821
24.04000 491.263
24.05000 493.341
24.06000 496.624
24.07000 498.488
24.08000 494.441
24.09000 489.744
24.10000 486.507
24.11000 487.349
24.12000 488.434
24.13000 489.150
24.14000 491.580
24.15000 493.402
24.16000 492.738
24.17000 488.929
24.18000 485.118
24.19000 484.390
24.20000 486.175
24.21000 487.936
24.22000 489.934
24.23000 492.001
24.24000 493.885
24.25000 492.512
24.26000 489.942
24.27000 487.868
24.28000 490.485
24.29000 494.261
24.30000 497.547
24.31000 492.302
24.32000 486.658
24.33000 481.127
24.34000 476.022
24.35000 470.958
24.36000 468.583
24.37000 473.058
24.38000 477.871
24.39000 480.937
24.40000 476.618
24.41000 473.386
24.42000 472.638
24.43000 474.723
24.44000 476.807
24.45000 478.069
24.46000 478.725
24.47000 479.369
24.48000 483.025
24.49000 487.981
24.50000 492.634
24.51000 492.747
24.52000 491.341
24.53000 489.660
24.54000 485.697
24.55000 481.223
24.56000 477.394
24.57000 473.995
24.58000 471.180
24.59000 470.553
24.60000 477.428
24.61000 484.930
24.62000 488.776
24.63000 484.144
24.64000 479.169
24.65000 476.118
24.66000 480.827
24.67000 484.267
24.68000 482.074
24.69000 474.106
24.70000 466.244
24.71000 469.144
24.72000 479.228
24.73000 489.062
24.74000 482.705
24.75000 469.677
24.76000 457.357
24.77000 454.103
24.78000 453.611
24.79000 454.175
24.80000 462.523
24.81000 472.444
24.82000 480.784
24.83000 473.674
24.84000 466.113
24.85000 461.347
24.86000 465.298
24.87000 469.876
24.88000 470.731
24.89000 463.717
24.90000 456.449
24.91000 452.170
24.92000 460.146
24.93000 465.833
24.94000 464.367
24.95000 456.320
24.96000 448.397
24.97000 448.824
24.98000 454.310
24.99000 459.624
25.00000 463.995
25.01000 467.766
25.02000 471.712
25.03000 477.598
25.04000 484.021
25.05000 488.955
25.06000 484.113
25.07000 477.492
25.08000 472.032
25.09000 470.491
25.10000 469.585
25.11000 468.818
25.12000 468.444
25.13000 468.095
25.14000 463.900
25.15000 452.306
25.16000 440.527
25.17000 433.891
25.18000 439.475
25.19000 443.389
25.20000 449.241
25.21000 456.699
25.22000 464.084
25.23000 467.995
25.24000 469.992
25.25000 471.912
25.26000 474.373
25.27000 476.869
25.28000 479.200
25.29000 479.933
25.30000 480.265
25.31000 479.968
25.32000 475.973
25.33000 471.375
25.34000 467.659
25.35000 465.427
25.36000 463.730
25.37000 465.718
25.38000 477.228
25.39000 489.224
25.40000 491.377
25.41000 476.296
25.42000 460.898
25.43000 452.624
25.44000 463.172
25.45000 470.372
25.46000 472.774
25.47000 471.586
25.48000 470.436
25.49000 470.621
25.50000 471.476
25.51000 472.291
25.52000 473.349
25.53000 474.407
25.54000 475.324
25.55000 475.052
25.56000 474.510
25.57000 473.617
25.58000 470.873
25.59000 467.860
25.60000 465.476
25.61000 456.887
25.62000 449.560
25.63000 444.923
25.64000 446.618
25.65000 448.578
25.66000 452.236
25.67000 458.595
25.68000 464.988
25.69000 468.252
25.70000 461.713
25.71000 457.332
25.72000 454.031
25.73000 451.463
25.74000 449.241
25.75000 456.801
25.76000 468.828
25.77000 480.193
25.78000 476.637
25.79000 469.133
25.80000 462.207
25.81000 459.628
25.82000 457.941
25.83000 455.486
25.84000 449.375
25.85000 442.790
25.86000 437.703
25.87000 440.267
25.88000 442.748
25.89000 447.757
25.90000 458.189
25.91000 468.802
25.92000 475.189
25.93000 475.477
25.94000 475.716
25.95000 470.094
25.96000 458.993
25.97000 447.995
25.98000 444.413
25.99000 445.393
26.00000 446.522
26.01000 451.041
26.02000 456.970
26.03000 462.517
26.04000 461.273
26.05000 458.408
26.06000 456.065
26.07000 457.216
26.08000 459.012
26.09000 459.867
26.10000 456.672
26.11000 453.014
26.12000 450.256
26.13000 451.813
26.14000 453.243
26.15000 451.732
26.16000 444.474
26.17000 437.065
26.18000 432.749
26.19000 432.474
26.20000 432.217
26.21000 433.274
26.22000 435.431
26.23000 437.612
26.24000 441.001
26.25000 445.065
26.26000 448.796
26.27000 446.272
26.28000 441.378
26.29000 436.850
26.30000 439.643
26.31000 443.832
26.32000 447.819
26.33000 450.599
26.34000 453.178
26.35000 454.657
26.36000 451.849
26.37000 448.609
26.38000 446.231
26.39000 448.557
26.40000 450.546
26.41000 451.260
26.42000 449.708
26.43000 448.112
26.44000 447.828
26.45000 449.091
26.46000 450.353
26.47000 446.811
26.48000 439.662
26.49000 432.695
26.50000 432.625
26.51000 436.065
26.52000 439.059
26.53000 435.005
26.54000 428.519
26.55000 422.588
26.56000 426.654
26.57000 432.319
26.58000 437.056
26.59000 436.813
26.60000 435.831
26.61000 434.869
26.62000 433.983
26.63000 433.102
26.64000 432.474
26.65000 437.200
26.66000 440.982
26.67000 441.316
26.68000 436.078
26.69000 430.765
26.70000 430.028
26.71000 434.149
26.72000 438.250
26.73000 435.961
26.74000 429.346
26.75000 423.087
26.76000 427.275
26.77000 436.305
26.78000 444.737
26.79000 445.131
26.80000 443.000
26.81000 441.077
26.82000 441.406
26.83000 442.108
26.84000 442.594
26.85000 442.037
26.86000 441.341
26.87000 440.883
26.88000 441.185
26.89000 441.544
26.90000 441.794
26.91000 436.744
26.92000 432.805
26.93000 430.219
26.94000 429.617
26.95000 429.033
26.96000 430.653
26.97000 434.373
26.98000 438.062
26.99000 443.611
27.00000 450.203
27.01000 456.614
27.02000 458.763
27.03000 459.113
27.04000 458.748
27.05000 450.107
27.06000 439.104
27.07000 429.310
27.08000 430.000
27.09000 432.313
27.10000 434.642
27.11000 437.035
27.12000 439.435
27.13000 439.653
27.14000 433.487
27.15000 426.909
27.16000 422.496
27.17000 422.403
27.18000 422.422
27.19000 423.251
27.20000 425.156
27.21000 427.063
27.22000 427.108
27.23000 425.558
27.24000 424.026
27.25000 424.916
27.26000 427.125
27.27000 429.022
27.28000 424.862
27.29000 418.372
27.30000 413.114
27.31000 420.271
27.32000 430.646
27.33000 439.742
27.34000 441.797
27.35000 442.538
27.36000 441.730
27.37000 434.789
27.38000 427.218
27.39000 423.787
27.40000 431.382
27.41000 439.574
27.42000 444.884
27.43000 441.389
27.44000 438.699
27.45000 432.316
27.46000 421.503
27.47000 410.712
27.48000 407.581
27.49000 410.373
27.50000 413.119
27.51000 416.782
27.52000 420.784
27.53000 424.135
27.54000 416.928
27.55000 406.022
27.56000 396.749
27.57000 401.910
27.58000 410.460
27.59000 417.837
27.60000 428.965
27.61000 438.887
27.62000 446.106
27.63000 443.621
27.64000 440.265
27.65000 436.439
27.66000 431.472
27.67000 426.453
27.68000 423.318
27.69000 422.918
27.70000 422.657
27.71000 422.531
27.72000 422.548
27.73000 422.576
27.74000 423.983
27.75000 426.353
27.76000 428.673
27.77000 427.048
27.78000 423.708
27.79000 420.932
27.80000 425.933
27.81000 433.413
27.82000 439.221
27.83000 431.972
27.84000 421.951
27.85000 413.452
27.86000 408.789
27.87000 405.313
27.88000 403.799
27.89000 408.688
27.90000 414.073
27.91000 416.883
27.92000 414.003
27.93000 410.916
27.94000 409.063
27.95000 413.149
27.96000 416.093
27.97000 420.866
27.98000 427.409
27.99000 433.869
28.00000 433.632
28.01000 429.143
28.02000 424.779
28.03000 424.646
28.04000 426.243
28.05000 427.894
28.06000 430.170
28.07000 432.628
28.08000 434.461
28.09000 431.958
28.10000 428.625
28.11000 425.850
28.12000 419.250
28.13000 413.406
28.14000 410.798
28.15000 417.800
28.16000 425.438
28.17000 430.693
28.18000 431.151
28.19000 431.472
28.20000 431.657
28.21000 426.035
28.22000 422.079
28.23000 419.493
28.24000 418.098
28.25000 416.653
28.26000 412.382
28.27000 406.480
28.28000 400.783
28.29000 405.041
28.30000 412.712
28.31000 419.540
28.32000 417.691
28.33000 413.558
28.34000 410.696
28.35000 415.721
28.36000 422.102
28.37000 427.311
28.38000 427.672
28.39000 427.550
28.40000 427.104
28.41000 425.781
28.42000 424.409
28.43000 418.760
28.44000 405.273
28.45000 391.617
28.46000 384.105
28.47000 416.034
28.48000 438.017
28.49000 439.764
28.50000 425.608
28.51000 411.578
28.52000 402.723
28.53000 396.585
28.54000 390.706
28.55000 390.724
28.56000 392.698
28.57000 395.372
28.58000 404.376
28.59000 414.889
28.60000 423.445
28.61000 421.115
28.62000 417.108
28.63000 413.906
28.64000 416.410
28.65000 418.857
28.66000 419.185
28.67000 414.294
28.68000 409.162
28.69000 408.585
28.70000 415.600
28.71000 422.732
28.72000 426.467
28.73000 420.616
28.74000 416.663
28.75000 414.590
28.76000 413.853
28.77000 413.206
28.78000 415.397
28.79000 418.944
28.80000 422.311
28.81000 420.385
28.82000 417.027
28.83000 414.020
28.84000 413.820
28.85000 414.226
28.86000 414.521
28.87000 414.264
28.88000 413.931
28.89000 413.671
28.90000 409.634
28.91000 406.174
28.92000 406.180
28.93000 413.966
28.94000 422.044
28.95000 424.435
28.96000 418.220
28.97000 411.917
28.98000 409.845
28.99000 411.945
29.00000 414.048
29.01000 416.417
29.02000 418.956
29.03000 421.338
29.04000 419.746
29.05000 416.425
29.06000 413.303
29.07000 413.212
29.08000 413.943
29.09000 414.107
29.10000 410.259
29.11000 405.630
29.12000 403.646
29.13000 413.606
29.14000 425.019
29.15000 433.728
29.16000 414.089
29.17000 397.098
29.18000 388.786
29.19000 398.221
29.20000 408.182
29.21000 412.077
29.22000 407.654
29.23000 403.183
29.24000 402.453
29.25000 405.035
29.26000 407.497
29.27000 402.835
29.28000 394.000
29.29000 385.643
29.30000 387.149
29.31000 392.566
29.32000 397.605
29.33000 397.688
29.34000 396.565
29.35000 396.533
29.36000 403.380
29.37000 411.433
29.38000 417.151
29.39000 413.334
29.40000 408.494
29.41000 404.894
29.42000 404.397
29.43000 404.149
29.44000 405.772
29.45000 410.880
29.46000 416.065
29.47000 416.236
29.48000 410.187
29.49000 404.131
29.50000 400.550
29.51000 398.954
29.52000 397.523
29.53000 403.237
29.54000 412.757
29.55000 421.433
29.56000 415.645
29.57000 404.632
29.58000 394.503
29.59000 391.419
29.60000 390.190
29.61000 389.658
29.62000 393.064
29.63000 397.088
29.64000 400.577
29.65000 402.082
29.66000 403.400
29.67000 404.354
29.68000 397.216
29.69000 391.439
29.70000 388.341
29.71000 389.777
29.72000 391.287
29.73000 393.859
29.74000 397.617
29.75000 401.362
29.76000 406.237
29.77000 411.876
29.78000 417.383
29.79000 418.543
29.80000 417.593
29.81000 416.543
29.82000 414.043
29.83000 411.066
29.84000 408.362
29.85000 406.993
29.86000 406.044
29.87000 404.178
29.88000 397.655
29.89000 390.479
29.90000 386.120
29.91000 391.240
29.92000 397.130
29.93000 401.271
29.94000 406.005
29.95000 409.608
29.96000 411.994
29.97000 412.508
29.98000 413.002
29.99000 413.713
30.00000 414.642
30.01000 415.565
30.02000 411.527
30.03000 404.346
30.04000 397.556
30.05000 400.999
30.06000 408.963
30.07000 416.131
30.08000 413.400
30.09000 407.707
30.10000 402.606
30.11000 404.345
30.12000 407.047
30.13000 408.877
30.14000 406.704
30.15000 404.035
30.16000 402.017
30.17000 401.995
30.18000 402.111
30.19000 402.190
30.20000 394.651
30.21000 388.841
30.22000 386.659
30.23000 389.533
30.24000 392.441
30.25000 395.973
30.26000 400.067
30.27000 404.121
30.28000 403.158
30.29000 399.295
30.30000 395.571
30.31000 394.814
30.32000 395.252
30.33000 396.008
30.34000 400.197
30.35000 405.318
30.36000 409.841
30.37000 411.531
30.38000 412.554
30.39000 412.913
30.40000 410.514
30.41000 407.814
30.42000 405.579
30.43000 404.646
30.44000 403.788
30.45000 403.223
30.46000 405.792
30.47000 407.740
30.48000 408.477
30.49000 407.688
30.50000 406.896
30.51000 406.662
30.52000 406.881
30.53000 407.098
30.54000 403.110
30.55000 397.028
30.56000 391.541
30.57000 396.546
30.58000 405.398
30.59000 413.340
30.60000 412.719
30.61000 409.988
30.62000 407.613
30.63000 413.007
30.64000 418.669
30.65000 421.817
30.66000 415.505
30.67000 408.285
30.68000 405.195
30.69000 412.590
30.70000 420.501
30.71000 425.534
30.72000 420.435
30.73000 416.604
30.74000 413.692
30.75000 411.826
30.76000 409.963
30.77000 408.533
30.78000 407.420
30.79000 406.328
30.80000 403.292
30.81000 399.444
30.82000 396.192
30.83000 401.807
30.84000 410.382
30.85000 418.384
30.86000 421.634
30.87000 423.825
30.88000 425.699
30.89000 431.856
30.90000 437.563
30.91000 442.238
30.92000 443.386
30.93000 444.240
30.94000 445.756
30.95000 448.804
30.96000 451.913
30.97000 453.817
30.98000 467.019
30.99000 476.566
31.00000 484.309
31.01000 490.206
31.02000 496.115
31.03000 503.173
31.04000 510.996
31.05000 518.625
31.06000 527.670
31.07000 536.914
31.08000 546.696
31.09000 563.336
31.10000 582.060
31.11000 600.858
31.12000 620.210
31.13000 639.673
31.14000 656.026
31.15000 689.536
31.16000 719.263
31.17000 749.656
31.18000 782.115
31.19000 814.722
31.20000 846.076
31.21000 874.789
31.22000 903.418
31.23000 920.249
31.24000 965.380
31.25000 997.351
31.26000 1032.449
31.27000 1070.412
31.28000 1108.315
31.29000 1142.223
31.30000 1173.716
31.31000 1204.223
31.32000 1240.501
31.33000 1277.055
31.34000 1312.728
31.35000 1338.689
31.36000 1361.971
31.37000 1383.656
31.38000 1394.898
31.39000 1404.247
31.40000 1411.953
31.41000 1409.089
31.42000 1405.760
31.43000 1399.021
31.44000 1382.636
31.45000 1365.666
31.46000 1347.831
31.47000 1328.336
31.48000 1308.800
31.49000 1297.808
31.50000 1215.411
31.51000 1158.064
31.52000 1115.315
31.53000 1084.623
31.54000 1053.994
31.55000 1026.419
31.56000 1000.520
31.57000 975.621
31.58000 941.041
31.59000 905.265
31.60000 869.303
31.61000 831.552
31.62000 793.353
31.63000 756.922
31.64000 730.843
31.65000 706.448
31.66000 686.745
31.67000 666.481
31.68000 649.962
31.69000 631.622
31.70000 608.591
31.71000 585.322
31.72000 567.295
31.73000 558.420
31.74000 549.712
31.75000 545.039
31.76000 533.959
31.77000 526.399
31.78000 521.103
31.79000 517.494
31.80000 513.589
31.81000 499.060
31.82000 479.220
31.83000 460.304
31.84000 458.048
31.85000 461.193
31.86000 463.406
31.87000 457.743
31.88000 450.294
31.89000 443.893
31.90000 443.014
31.91000 442.937
31.92000 442.876
31.93000 440.320
31.94000 438.097
31.95000 435.506
31.96000 432.053
31.97000 428.564
31.98000 429.248
31.99000 436.551
32.00000 443.937
32.01000 447.702
32.02000 434.331
32.03000 425.363
32.04000 416.932
32.05000 408.866
32.06000 401.038
32.07000 399.931
32.08000 401.884
32.09000 403.730
32.10000 401.867
32.11000 399.108
32.12000 397.608
32.13000 405.537
32.14000 415.397
32.15000 421.201
32.16000 407.770
32.17000 391.855
32.18000 379.567
32.19000 385.979
32.20000 392.150
32.21000 395.370
32.22000 392.279
32.23000 388.977
32.24000 387.896
32.25000 390.010
32.26000 392.150
32.27000 390.484
32.28000 385.271
32.29000 380.103
32.30000 378.049
32.31000 377.906
32.32000 377.703
32.33000 376.133
32.34000 373.998
32.35000 372.000
32.36000 372.103
32.37000 372.732
32.38000 373.025
32.39000 371.091
32.40000 368.746
32.41000 367.860
32.42000 373.227
32.43000 379.309
32.44000 383.889
32.45000 386.777
32.46000 388.955
32.47000 389.195
32.48000 385.660
32.49000 382.028
32.50000 377.679
32.51000 372.396
32.52000 367.114
32.53000 365.403
32.54000 366.687
32.55000 368.040
32.56000 372.879
32.57000 379.661
32.58000 385.846
32.59000 380.866
32.60000 371.668
32.61000 363.160
32.62000 359.879
32.63000 358.126
32.64000 357.903
32.65000 366.797
32.66000 377.201
32.67000 384.714
32.68000 381.001
32.69000 376.162
32.70000 372.613
32.71000 368.715
32.72000 365.690
32.73000 362.345
32.74000 358.432
32.75000 354.508
32.76000 353.979
32.77000 357.442
32.78000 360.902
32.79000 363.780
32.80000 366.202
32.81000 368.577
32.82000 369.177
32.83000 368.876
32.84000 368.715
32.85000 370.731
32.86000 373.497
32.87000 376.024
32.88000 378.556
32.89000 380.805
32.90000 382.312
32.91000 379.842
32.92000 376.783
32.93000 374.727
32.94000 376.209
32.95000 378.000
32.96000 379.277
32.97000 373.044
32.98000 368.045
32.99000 364.861
33.00000 364.599
33.01000 364.376
33.02000 363.749
33.03000 362.695
33.04000 361.646
33.05000 358.471
33.06000 353.891
33.07000 349.455
33.08000 349.227
33.09000 350.943
33.10000 352.652
33.11000 354.252
33.12000 355.819
33.13000 357.232
33.14000 350.999
33.15000 344.126
33.16000 338.514
33.17000 338.978
33.18000 340.242
33.19000 340.234
33.20000 336.143
33.21000 331.746
33.22000 328.703
33.23000 330.973
33.24000 332.820
33.25000 336.505
33.26000 342.878
33.27000 349.273
33.28000 349.611
33.29000 344.200
33.30000 338.833
33.31000 331.229
33.32000 322.393
33.33000 314.114
33.34000 318.873
33.35000 329.123
33.36000 338.635
33.37000 339.645
33.38000 338.234
33.39000 336.978
33.40000 329.226
33.41000 321.438
33.42000 317.023
33.43000 327.308
33.44000 339.305
33.45000 348.278
33.46000 348.430
33.47000 348.017
33.48000 347.740
33.49000 340.771
33.50000 335.466
33.51000 333.581
33.52000 336.222
33.53000 338.886
33.54000 341.549
33.55000 344.211
33.56000 346.841
33.57000 343.249
33.58000 336.310
33.59000 329.837
33.60000 332.330
33.61000 338.262
33.62000 343.116
33.63000 337.139
33.64000 328.363
33.65000 320.672
33.66000 329.384
33.67000 339.232
33.68000 345.696
33.69000 338.804
33.70000 330.545
33.71000 325.907
33.72000 330.887
33.73000 336.386
33.74000 339.946
33.75000 341.393
33.76000 342.420
33.77000 343.800
33.78000 345.603
33.79000 347.378
33.80000 342.311
33.81000 331.968
33.82000 321.797
33.83000 316.720
33.84000 314.347
33.85000 312.726
33.86000 323.243
33.87000 338.002
33.88000 350.491
33.89000 343.001
33.90000 330.833
33.91000 320.340
33.92000 322.894
33.93000 326.728
33.94000 328.789
33.95000 324.496
33.96000 319.637
33.97000 318.963
33.98000 328.420
33.99000 338.326
34.00000 344.509
34.01000 339.459
34.02000 335.701
34.03000 331.504
34.04000 326.833
34.05000 322.207
34.06000 323.396
34.07000 328.642
34.08000 333.773
34.09000 332.847
34.10000 329.233
34.11000 325.737
34.12000 323.860
34.13000 322.498
34.14000 321.309
34.15000 321.470
34.16000 321.917
34.17000 322.295
34.18000 328.872
34.19000 335.080
34.20000 337.699
34.21000 328.639
34.22000 318.678
34.23000 312.154
34.24000 313.207
34.25000 314.533
34.26000 315.328
34.27000 318.803
34.28000 321.289
34.29000 321.843
34.30000 320.530
34.31000 319.225
34.32000 318.645
34.33000 318.523
34.34000 318.405
34.35000 322.099
34.36000 327.158
34.37000 331.255
34.38000 323.987
34.39000 313.431
34.40000 304.669
34.41000 308.301
34.42000 314.298
34.43000 319.289
34.44000 310.519
34.45000 301.905
34.46000 297.036
34.47000 303.258
34.48000 310.211
34.49000 315.105
34.50000 315.865
34.51000 316.509
34.52000 316.879
34.53000 311.617
34.54000 307.921
34.55000 308.817
34.56000 313.700
34.57000 318.581
34.58000 323.373
34.59000 328.115
34.60000 332.690
34.61000 328.948
34.62000 322.375
34.63000 315.914
34.64000 310.607
34.65000 305.602
34.66000 301.904
34.67000 306.279
34.68000 312.039
34.69000 316.737
34.70000 318.284
34.71000 319.279
34.72000 320.776
34.73000 323.630
34.74000 326.559
34.75000 325.363
34.76000 316.628
34.77000 307.733
34.78000 302.847
34.79000 312.978
34.80000 319.969
34.81000 325.212
34.82000 329.086
34.83000 332.829
34.84000 331.175
34.85000 326.699
34.86000 322.414
34.87000 317.982
34.88000 313.802
34.89000 310.259
34.90000 312.435
34.91000 315.972
34.92000 318.376
34.93000 314.508
34.94000 309.676
34.95000 305.817
34.96000 308.663
34.97000 311.457
34.98000 313.790
34.99000 314.994
35.00000 316.147
35.01000 317.781
35.02000 320.217
35.03000 322.665
35.04000 323.945
35.05000 321.308
35.06000 319.505
35.07000 315.257
35.08000 309.275
35.09000 303.639
35.10000 308.869
35.11000 319.277
35.12000 329.153
35.13000 326.126
35.14000 319.488
35.15000 313.824
35.16000 315.882
35.17000 319.601
35.18000 322.122
35.19000 318.671
35.20000 314.402
35.21000 311.068
35.22000 308.115
35.23000 305.784
35.24000 302.883
35.25000 298.707
35.26000 294.484
35.27000 294.350
35.28000 300.385
35.29000 306.483
35.30000 308.416
35.31000 306.257
35.32000 304.095
35.33000 301.805
35.34000 299.431
35.35000 297.199
35.36000 298.517
35.37000 301.376
35.38000 304.063
35.39000 303.414
35.40000 301.928
35.41000 300.679
35.42000 301.105
35.43000 301.857
35.44000 303.374
35.45000 308.340
35.46000 313.725
35.47000 317.830
35.48000 307.761
35.49000 299.075
35.50000 294.754
35.51000 299.328
35.52000 304.163
35.53000 308.477
35.54000 312.078
35.55000 315.673
35.56000 312.918
35.57000 304.567
35.58000 296.360
35.59000 296.690
35.60000 302.005
35.61000 307.100
35.62000 307.686
35.63000 306.491
35.64000 305.379
35.65000 304.915
35.66000 304.652
35.67000 304.620
35.68000 306.043
35.69000 307.720
35.70000 308.553
35.71000 305.944
35.72000 302.968
35.73000 300.756
35.74000 305.627
35.75000 309.728
35.76000 310.202
35.77000 303.942
35.78000 297.533
35.79000 295.680
35.80000 299.460
35.81000 303.249
35.82000 303.331
35.83000 300.473
35.84000 297.667
35.85000 297.087
35.86000 297.689
35.87000 297.916
35.88000 291.752
35.89000 283.286
35.90000 275.503
35.91000 281.212
35.92000 289.223
35.93000 296.166
35.94000 297.084
35.95000 297.060
35.96000 297.061
35.97000 297.155
35.98000 297.259
35.99000 297.333
36.00000 301.375
36.01000 304.620
36.02000 306.050
36.03000 304.415
36.04000 302.731
36.05000 299.023
36.06000 293.060
36.07000 287.118
36.08000 290.398
36.09000 300.232
36.10000 309.720
36.11000 307.897
36.12000 300.605
36.13000 293.379
36.14000 287.114
36.15000 281.163
36.16000 275.761
36.17000 285.145
36.18000 296.290
36.19000 305.275
36.20000 303.312
36.21000 299.822
36.22000 297.345
36.23000 298.268
36.24000 299.467
36.25000 300.308
36.26000 296.634
36.27000 293.719
36.28000 291.678
36.29000 290.974
36.30000 290.284
36.31000 288.228
36.32000 284.805
36.33000 281.405
36.34000 281.660
36.35000 284.264
36.36000 287.022
36.37000 293.811
36.38000 302.374
36.39000 310.320
36.40000 310.627
36.41000 308.655
36.42000 306.888
36.43000 302.891
36.44000 299.016
36.45000 295.207
36.46000 291.702
36.47000 288.234
36.48000 285.709
36.49000 286.062
36.50000 286.615
36.51000 286.992
36.52000 278.101
36.53000 271.248
36.54000 267.104
36.55000 266.725
36.56000 266.371
36.57000 268.471
36.58000 272.776
36.59000 277.038
36.60000 279.465
36.61000 280.775
36.62000 282.090
36.63000 283.491
36.64000 284.928
36.65000 286.313
36.66000 287.149
36.67000 287.837
36.68000 288.443
36.69000 281.886
36.70000 275.129
36.71000 271.397
36.72000 280.191
36.73000 290.351
36.74000 296.193
36.75000 290.032
36.76000 283.166
36.77000 278.644
36.78000 287.378
36.79000 294.039
36.80000 296.396
36.81000 293.340
36.82000 290.277
36.83000 290.602
36.84000 293.670
36.85000 296.695
36.86000 294.575
36.87000 289.821
36.88000 285.163
36.89000 282.185
36.90000 279.820
36.91000 278.247
36.92000 284.096
36.93000 291.769
36.94000 298.439
36.95000 298.419
36.96000 297.493
36.97000 296.508
36.98000 295.303
36.99000 294.077
37.00000 293.344
37.01000 293.859
37.02000 294.434
37.03000 294.800
37.04000 302.289
37.05000 307.816
37.06000 307.007
37.07000 299.016
37.08000 291.070
37.09000 291.814
37.10000 298.919
37.11000 305.887
37.12000 308.942
37.13000 310.034
37.14000 310.836
37.15000 307.354
37.16000 302.444
37.17000 297.886
37.18000 296.230
37.19000 295.218
37.20000 294.353
37.21000 299.090
37.22000 303.754
37.23000 305.770
37.24000 298.764
37.25000 291.009
37.26000 286.208
37.27000 288.222
37.28000 290.508
37.29000 291.906
37.30000 288.606
37.31000 286.206
37.32000 285.192
37.33000 285.592
37.34000 285.985
37.35000 285.734
37.36000 285.055
37.37000 284.394
37.38000 287.813
37.39000 292.819
37.40000 297.311
37.41000 295.282
37.42000 291.278
37.43000 287.741
37.44000 287.615
37.45000 288.175
37.46000 288.645
37.47000 295.049
37.48000 301.006
37.49000 304.406
37.50000 299.883
37.51000 294.796
37.52000 289.671
37.53000 284.465
37.54000 279.258
37.55000 276.200
37.56000 276.031
37.57000 275.928
37.58000 278.215
37.59000 282.688
37.60000 287.075
37.61000 285.824
37.62000 281.177
37.63000 276.677
37.64000 281.080
37.65000 288.676
37.66000 295.367
37.67000 292.140
37.68000 286.184
37.69000 281.014
37.70000 280.969
37.71000 281.850
37.72000 282.576
37.73000 279.786
37.74000 277.169
37.75000 276.063
37.76000 279.221
37.77000 282.637
37.78000 283.958
37.79000 281.270
37.80000 278.484
37.81000 276.919
37.82000 278.906
37.83000 280.294
37.84000 281.545
37.85000 282.683
37.86000 283.747
37.87000 281.296
37.88000 276.919
37.89000 272.712
37.90000 276.161
37.91000 282.054
37.92000 287.612
37.93000 289.977
37.94000 291.543
37.95000 292.466
37.96000 289.629
37.97000 286.183
37.98000 283.401
37.99000 289.430
38.00000 295.028
38.01000 296.862
38.02000 289.022
38.03000 280.695
38.04000 274.496
38.05000 272.004
38.06000 269.579
38.07000 268.280
38.08000 280.732
38.09000 289.212
38.10000 292.083
38.11000 290.781
38.12000 289.478
38.13000 288.124
38.14000 286.746
38.15000 285.432
38.16000 284.062
38.17000 282.775
38.18000 282.205
38.19000 287.683
38.20000 294.527
38.21000 300.014
38.22000 298.386
38.23000 295.727
38.24000 293.628
38.25000 294.945
38.26000 296.235
38.27000 297.713
38.28000 299.628
38.29000 301.561
38.30000 303.336
38.31000 304.861
38.32000 306.382
38.33000 307.156
38.34000 312.839
38.35000 316.641
38.36000 319.527
38.37000 321.796
38.38000 324.344
38.39000 334.716
38.40000 348.640
38.41000 361.789
38.42000 362.480
38.43000 359.597
38.44000 357.847
38.45000 364.540
38.46000 372.957
38.47000 381.214
38.48000 388.715
38.49000 396.119
38.50000 401.831
38.51000 426.677
38.52000 447.475
38.53000 466.440
38.54000 481.493
38.55000 496.416
38.56000 518.709
38.57000 551.575
38.58000 584.517
38.59000 606.763
38.60000 619.058
38.61000 631.400
38.62000 647.012
38.63000 664.625
38.64000 682.200
38.65000 698.945
38.66000 715.345
38.67000 730.678
38.68000 751.208
38.69000 771.164
38.70000 789.085
38.71000 793.489
38.72000 795.408
38.73000 797.022
38.74000 797.335
38.75000 797.499
38.76000 797.623
38.77000 809.165
38.78000 818.750
38.79000 813.311
38.80000 778.690
38.81000 743.320
38.82000 723.184
38.83000 722.831
38.84000 722.559
38.85000 713.890
38.86000 698.235
38.87000 682.443
38.88000 659.827
38.89000 633.419
38.90000 607.059
38.91000 581.620
38.92000 556.527
38.93000 533.326
38.94000 509.555
38.95000 488.079
38.96000 466.377
38.97000 443.327
38.98000 420.054
38.99000 400.826
39.00000 397.263
39.01000 395.263
39.02000 393.796
39.03000 372.976
39.04000 356.120
39.05000 342.608
39.06000 335.009
39.07000 327.522
39.08000 322.352
39.09000 319.899
39.10000 317.456
39.11000 315.549
39.12000 314.057
39.13000 312.472
39.14000 307.398
39.15000 300.559
39.16000 293.885
39.17000 289.787
39.18000 286.575
39.19000 283.640
39.20000 281.635
39.21000 280.044
39.22000 279.641
39.23000 285.574
39.24000 292.441
39.25000 294.980
39.26000 282.302
39.27000 268.303
39.28000 258.328
39.29000 260.555
39.30000 262.650
39.31000 265.480
39.32000 269.492
39.33000 273.520
39.34000 275.981
39.35000 276.790
39.36000 277.595
39.37000 275.318
39.38000 270.984
39.39000 266.777
39.40000 266.286
39.41000 267.506
39.42000 268.559
39.43000 267.384
39.44000 265.513
39.45000 263.825
39.46000 269.225
39.47000 275.258
39.48000 279.102
39.49000 272.425
39.50000 264.368
39.51000 259.738
39.52000 266.061
39.53000 273.204
39.54000 278.143
39.55000 274.493
39.56000 271.526
39.57000 267.560
39.58000 262.139
39.59000 256.705
39.60000 254.934
39.61000 256.628
39.62000 258.307
39.63000 258.974
39.64000 259.010
39.65000 258.924
39.66000 256.008
39.67000 251.903
39.68000 248.209
39.69000 249.226
39.70000 251.581
39.71000 253.675
39.72000 253.416
39.73000 252.809
39.74000 253.109
39.75000 257.351
39.76000 262.050
39.77000 264.166
39.78000 258.770
39.79000 252.896
39.80000 248.963
39.81000 249.934
39.82000 250.752
39.83000 251.939
39.84000 253.616
39.85000 255.293
39.86000 256.126
39.87000 256.239
39.88000 256.351
39.89000 256.964
39.90000 257.838
39.91000 258.507
39.92000 255.276
39.93000 250.554
39.94000 246.692
39.95000 251.433
39.96000 258.392
39.97000 264.487
39.98000 264.615
39.99000 263.864
40.00000 261.961
40.01000 255.527
40.02000 248.631
40.03000 244.575
40.04000 248.042
40.05000 251.911
40.06000 254.414
40.07000 257.804
40.08000 260.295
40.09000 261.123
40.10000 259.967
40.11000 258.801
40.12000 255.958
40.13000 251.828
40.14000 247.767
40.15000 249.277
40.16000 253.508
40.17000 257.469
40.18000 257.108
40.19000 255.242
40.20000 253.794
40.21000 256.012
40.22000 259.086
40.23000 261.735
40.24000 265.206
40.25000 268.253
40.26000 268.226
40.27000 257.223
40.28000 245.245
40.29000 237.460
40.30000 239.791
40.31000 242.569
40.32000 244.301
40.33000 245.603
40.34000 246.536
40.35000 247.922
40.36000 249.792
40.37000 251.676
40.38000 255.284
40.39000 260.092
40.40000 264.794
40.41000 262.322
40.42000 256.734
40.43000 251.752
40.44000 255.049
40.45000 260.971
40.46000 265.430
40.47000 258.552
40.48000 249.281
40.49000 241.427
40.50000 244.223
40.51000 247.758
40.52000 249.702
40.53000 246.485
40.54000 242.871
40.55000 240.806
40.56000 242.149
40.57000 243.612
40.58000 244.489
40.59000 245.333
40.60000 245.932
40.61000 246.621
40.62000 247.398
40.63000 248.176
40.64000 249.107
40.65000 250.135
40.66000 251.133
40.67000 245.061
40.68000 236.427
40.69000 228.870
40.70000 233.957
40.71000 242.691
40.72000 250.726
40.73000 253.949
40.74000 256.257
40.75000 258.176
40.76000 249.129
40.77000 240.566
40.78000 234.719
40.79000 236.893
40.80000 239.592
40.81000 242.042
40.82000 243.992
40.83000 245.927
40.84000 247.039
40.85000 248.976
40.86000 250.331
40.87000 249.998
40.88000 248.203
40.89000 246.396
40.90000 243.990
40.91000 241.240
40.92000 238.587
40.93000 238.851
40.94000 240.166
40.95000 241.698
40.96000 245.444
40.97000 249.770
40.98000 253.368
40.99000 252.480
41.00000 250.826
41.01000 249.477
41.02000 247.285
41.03000 245.420
41.04000 245.012
41.05000 248.519
41.06000 252.242
41.07000 252.870
41.08000 247.854
41.09000 242.720
41.10000 239.904
41.11000 240.213
41.12000 240.430
41.13000 240.545
41.14000 240.581
41.15000 240.646
41.16000 241.916
41.17000 243.814
41.18000 245.631
41.19000 243.786
41.20000 240.860
41.21000 238.380
41.22000 239.890
41.23000 242.347
41.24000 243.427
41.25000 236.911
41.26000 229.233
41.27000 223.103
41.28000 224.619
41.29000 226.405
41.30000 228.216
41.31000 230.087
41.32000 231.961
41.33000 235.396
41.34000 241.419
41.35000 247.480
41.36000 250.645
41.37000 241.161
41.38000 234.782
41.39000 233.820
41.40000 236.687
41.41000 239.339
41.42000 235.269
41.43000 228.005
41.44000 221.114
41.45000 224.533
41.46000 230.749
41.47000 236.332
41.48000 236.922
41.49000 236.441
41.50000 235.494
41.51000 232.234
41.52000 228.659
41.53000 225.869
41.54000 224.982
41.55000 224.394
41.56000 225.166
41.57000 228.974
41.58000 232.895
41.59000 235.161
41.60000 234.938
41.61000 234.690
41.62000 234.093
41.63000 233.155
41.64000 232.240
41.65000 233.423
41.66000 235.951
41.67000 238.388
41.68000 238.602
41.69000 237.853
41.70000 237.149
41.71000 240.251
41.72000 244.099
41.73000 246.967
41.74000 242.944
41.75000 237.588
41.76000 232.613
41.77000 229.349
41.78000 226.292
41.79000 223.963
41.80000 224.140
41.81000 224.412
41.82000 225.601
41.83000 228.655
41.84000 231.763
41.85000 233.528
41.86000 233.460
41.87000 233.382
41.88000 232.986
41.89000 232.309
41.90000 231.641
41.91000 231.532
41.92000 231.748
41.93000 231.920
41.94000 231.204
41.95000 230.139
41.96000 229.148
41.97000 228.080
41.98000 227.098
41.99000 226.694
42.00000 229.915
42.01000 233.766
42.02000 236.392
42.03000 234.042
42.04000 231.163
42.05000 229.025
42.06000 233.202
42.07000 236.727
42.08000 239.613
42.09000 241.315
42.10000 242.991
42.11000 240.974
42.12000 234.406
42.13000 227.838
42.14000 224.891
42.15000 224.820
42.16000 224.741
42.17000 224.308
42.18000 223.686
42.19000 222.969
42.20000 220.631
42.21000 217.710
42.22000 215.027
42.23000 220.954
42.24000 228.099
42.25000 233.728
42.26000 230.834
42.27000 226.612
42.28000 222.693
42.29000 219.894
42.30000 217.199
42.31000 215.251
42.32000 222.348
42.33000 228.119
42.34000 229.294
42.35000 222.734
42.36000 216.051
42.37000 215.176
42.38000 220.752
42.39000 226.310
42.40000 229.954
42.41000 232.203
42.42000 234.352
42.43000 233.288
42.44000 230.673
42.45000 228.335
42.46000 229.952
42.47000 232.862
42.48000 235.503
42.49000 229.793
42.50000 223.144
42.51000 217.662
42.52000 218.076
42.53000 219.309
42.54000 220.934
42.55000 223.872
42.56000 226.916
42.57000 229.051
42.58000 233.796
42.59000 237.463
42.60000 238.307
42.61000 234.834
42.62000 231.315
42.63000 229.442
42.64000 229.211
42.65000 228.981
42.66000 228.324
42.67000 227.404
42.68000 226.561
42.69000 227.715
42.70000 229.746
42.71000 231.286
42.72000 226.780
42.73000 220.476
42.74000 214.831
42.75000 213.759
42.76000 213.609
42.77000 213.461
42.78000 213.322
42.79000 213.184
42.80000 214.954
42.81000 222.531
42.82000 230.510
42.83000 235.936
42.84000 235.569
42.85000 235.164
42.86000 232.826
42.87000 227.810
42.88000 222.780
42.89000 221.912
42.90000 224.771
42.91000 227.602
42.92000 226.104
42.93000 222.134
42.94000 218.227
42.95000 215.648
42.96000 213.601
42.97000 211.815
42.98000 212.825
42.99000 214.591
43.00000 216.150
43.01000 215.188
43.02000 213.973
43.03000 213.395
43.04000 215.449
43.05000 217.789
43.06000 220.224
43.07000 222.922
43.08000 225.636
43.09000 227.421
43.10000 231.574
43.11000 234.673
43.12000 235.833
43.13000 234.565
43.14000 233.286
43.15000 230.940
43.16000 227.733
43.17000 224.572
43.18000 221.098
43.19000 217.562
43.20000 214.280
43.21000 215.427
43.22000 218.189
43.23000 220.696
43.24000 220.832
43.25000 220.388
43.26000 220.002
43.27000 222.803
43.28000 225.623
43.29000 227.392
43.30000 225.226
43.31000 222.686
43.32000 220.752
43.33000 220.346
43.34000 220.015
43.35000 219.805
43.36000 220.324
43.37000 220.709
43.38000 222.864
43.39000 227.019
43.40000 231.166
43.41000 233.762
43.42000 235.225
43.43000 236.660
43.44000 236.823
43.45000 236.380
43.46000 235.481
43.47000 227.877
43.48000 218.045
43.49000 209.673
43.50000 213.295
43.51000 219.577
43.52000 224.944
43.53000 225.745
43.54000 225.874
43.55000 226.048
43.56000 226.374
43.57000 226.712
43.58000 227.116
43.59000 227.672
43.60000 228.234
43.61000 228.577
43.62000 228.843
43.63000 229.032
43.64000 230.538
43.65000 233.381
43.66000 236.164
43.67000 233.003
43.68000 225.912
43.69000 218.999
43.70000 219.723
43.71000 223.666
43.72000 227.530
43.73000 230.404
43.74000 232.979
43.75000 234.381
43.76000 227.233
43.77000 218.372
43.78000 210.937
43.79000 215.161
43.80000 219.898
43.81000 223.156
43.82000 221.845
43.83000 220.210
43.84000 218.908
43.85000 218.302
43.86000 217.718
43.87000 217.375
43.88000 225.812
43.89000 231.798
43.90000 233.703
43.91000 231.890
43.92000 230.038
43.93000 225.536
43.94000 219.444
43.95000 213.546
43.96000 211.578
43.97000 211.227
43.98000 210.727
43.99000 208.586
44.00000 205.995
44.01000 204.532
44.02000 210.389
44.03000 217.566
44.04000 223.474
44.05000 220.551
44.06000 217.340
44.07000 215.618
44.08000 218.085
44.09000 220.803
44.10000 223.812
44.11000 227.377
44.12000 230.955
44.13000 232.963
44.14000 225.027
44.15000 219.503
44.16000 215.725
44.17000 213.379
44.18000 211.150
44.19000 214.396
44.20000 220.632
44.21000 226.624
44.22000 229.372
44.23000 230.820
44.24000 231.254
44.25000 222.017
44.26000 210.374
44.27000 201.619
44.28000 209.666
44.29000 220.427
44.30000 229.107
44.31000 222.502
44.32000 215.928
44.33000 212.884
44.34000 218.882
44.35000 225.333
44.36000 227.867
44.37000 223.600
44.38000 219.211
44.39000 216.863
44.40000 209.384
44.41000 204.315
44.42000 206.081
44.43000 212.917
44.44000 219.500
44.45000 217.185
44.46000 210.448
44.47000 204.028
44.48000 208.161
44.49000 215.288
44.50000 221.951
44.51000 224.723
44.52000 226.618
44.53000 227.871
44.54000 225.763
44.55000 223.170
44.56000 221.124
44.57000 221.796
44.58000 222.519
44.59000 224.227
44.60000 228.233
44.61000 232.333
44.62000 233.712
44.63000 230.802
44.64000 227.839
44.65000 226.333
44.66000 220.378
44.67000 216.403
44.68000 214.219
44.69000 213.239
44.70000 212.501
44.71000 218.494
44.72000 227.535
44.73000 236.071
44.74000 232.780
44.75000 226.434
44.76000 221.654
44.77000 228.503
44.78000 237.719
44.79000 245.138
44.80000 244.084
44.81000 241.944
44.82000 240.295
44.83000 235.859
44.84000 232.185
44.85000 231.987
44.86000 239.183
44.87000 246.622
44.88000 249.758
44.89000 246.738
44.90000 243.672
44.91000 244.573
44.92000 249.148
44.93000 253.644
44.94000 252.703
44.95000 248.445
44.96000 244.413
44.97000 245.418
44.98000 248.502
44.99000 251.384
45.00000 254.248
45.01000 256.843
45.02000 259.300
45.03000 260.842
45.04000 262.216
45.05000 263.884
45.06000 266.806
45.07000 269.869
45.08000 272.173
45.09000 273.376
45.10000 274.263
45.11000 274.399
45.12000 273.078
45.13000 271.720
45.14000 269.594
45.15000 266.476
45.16000 263.357
45.17000 266.345
45.18000 274.406
45.19000 282.291
45.20000 281.502
45.21000 275.902
45.22000 270.539
45.23000 269.529
45.24000 270.156
45.25000 270.736
45.26000 268.722
45.27000 266.327
45.28000 263.910
45.29000 261.371
45.30000 258.812
45.31000 256.934
45.32000 257.686
45.33000 258.698
45.34000 259.440
45.35000 251.184
45.36000 244.451
45.37000 242.248
45.38000 248.027
45.39000 253.956
45.40000 256.480
45.41000 255.027
45.42000 253.572
45.43000 256.522
45.44000 262.750
45.45000 268.722
45.46000 265.262
45.47000 257.041
45.48000 249.492
45.49000 252.388
45.50000 258.859
45.51000 264.768
45.52000 259.000
45.53000 251.507
45.54000 245.247
45.55000 245.551
45.56000 246.819
45.57000 247.629
45.58000 246.838
45.59000 245.907
45.60000 245.245
45.61000 243.871
45.62000 242.801
45.63000 241.212
45.64000 238.791
45.65000 236.360
45.66000 235.717
45.67000 236.955
45.68000 238.187
45.69000 237.023
45.70000 234.257
45.71000 231.645
45.72000 233.436
45.73000 237.252
45.74000 240.472
45.75000 235.805
45.76000 228.681
45.77000 222.259
45.78000 224.779
45.79000 228.614
45.80000 232.610
45.81000 237.381
45.82000 242.253
45.83000 244.625
45.84000 239.030
45.85000 232.841
45.86000 228.566
45.87000 231.178
45.88000 233.318
45.89000 234.654
45.90000 234.820
45.91000 234.976
45.92000 231.132
45.93000 223.518
45.94000 215.967
45.95000 215.055
45.96000 218.198
45.97000 221.315
45.98000 223.860
45.99000 226.165
46.00000 228.276
46.01000 228.169
46.02000 227.435
46.03000 226.782
46.04000 220.030
46.05000 213.186
46.06000 209.491
46.07000 219.438
46.08000 230.961
46.09000 238.795
46.10000 235.927
46.11000 232.381
46.12000 230.009
46.13000 222.120
46.14000 216.162
46.15000 211.024
46.16000 206.963
46.17000 202.916
46.18000 203.790
46.19000 208.841
46.20000 213.830
46.21000 215.681
46.22000 215.762
46.23000 215.661
46.24000 212.087
46.25000 207.189
46.26000 203.023
46.27000 206.156
46.28000 211.164
46.29000 215.548
46.30000 215.419
46.31000 214.661
46.32000 213.171
46.33000 208.808
46.34000 204.153
46.35000 203.068
46.36000 211.411
46.37000 220.257
46.38000 225.971
46.39000 223.737
46.40000 221.989
46.41000 215.726
46.42000 204.099
46.43000 192.505
46.44000 190.666
46.45000 196.302
46.46000 201.843
46.47000 202.496
46.48000 200.707
46.49000 199.064
46.50000 199.750
46.51000 201.245
46.52000 202.540
46.53000 202.088
46.54000 201.230
46.55000 200.491
46.56000 201.041
46.57000 201.672
46.58000 202.089
46.59000 201.747
46.60000 201.338
46.61000 201.221
46.62000 201.804
46.63000 202.419
46.64000 202.801
46.65000 203.754
46.66000 204.446
46.67000 204.300
46.68000 203.256
46.69000 202.232
46.70000 203.665
46.71000 206.802
46.72000 209.868
46.73000 210.201
46.74000 209.297
46.75000 208.022
46.76000 201.702
46.77000 193.787
46.78000 186.729
46.79000 186.286
46.80000 187.235
46.81000 188.039
46.82000 196.390
46.83000 204.226
46.84000 209.190
46.85000 204.862
46.86000 199.825
46.87000 196.023
46.88000 194.932
46.89000 193.937
46.90000 193.342
46.91000 194.647
46.92000 195.586
46.93000 195.877
46.94000 195.548
46.95000 195.224
46.96000 195.365
46.97000 195.798
46.98000 196.219
46.99000 195.868
47.00000 195.223
47.01000 194.592
47.02000 194.128
47.03000 193.712
47.04000 193.458
47.05000 194.319
47.06000 195.392
47.07000 196.284
47.08000 194.149
47.09000 192.087
47.10000 190.561
47.11000 190.611
47.12000 190.764
47.13000 192.197
47.14000 196.188
47.15000 200.249
47.16000 202.578
47.17000 196.270
47.18000 191.837
47.19000 191.161
47.20000 193.729
47.21000 196.235
47.22000 195.398
47.23000 192.649
47.24000 189.997
47.25000 190.224
47.26000 191.487
47.27000 192.686
47.28000 193.238
47.29000 193.620
47.30000 193.661
47.31000 191.605
47.32000 189.192
47.33000 187.226
47.34000 188.208
47.35000 189.261
47.36000 189.847
47.37000 189.184
47.38000 188.452
47.39000 186.924
47.40000 183.947
47.41000 180.940
47.42000 179.293
47.43000 178.609
47.44000 178.154
47.45000 181.318
47.46000 187.300
47.47000 193.155
47.48000 193.936
47.49000 192.078
47.50000 190.299
47.51000 190.281
47.52000 190.843
47.53000 191.019
47.54000 187.748
47.55000 183.661
47.56000 179.952
47.57000 178.325
47.58000 177.015
47.59000 175.971
47.60000 178.784
47.61000 181.338
47.62000 182.833
47.63000 181.745
47.64000 180.540
47.65000 181.571
47.66000 186.295
47.67000 191.075
47.68000 193.566
47.69000 186.841
47.70000 182.310
47.71000 180.203
47.72000 179.804
47.73000 179.378
47.74000 178.096
47.75000 176.409
47.76000 174.808
47.77000 179.155
47.78000 184.924
47.79000 189.677
47.80000 186.426
47.81000 181.463
47.82000 177.341
47.83000 177.382
47.84000 177.989
47.85000 178.462
47.86000 180.183
47.87000 181.633
47.88000 182.654
47.89000 182.718
47.90000 182.747
47.91000 182.397
47.92000 181.480
47.93000 180.558
47.94000 181.212
47.95000 183.406
47.96000 185.592
47.97000 187.087
47.98000 188.141
47.99000 188.986
48.00000 184.647
48.01000 178.072
48.02000 171.896
48.03000 174.828
48.04000 179.930
48.05000 184.119
48.06000 181.923
48.07000 178.497
48.08000 175.874
48.09000 176.851
48.10000 178.261
48.11000 179.335
48.12000 174.603
48.13000 170.574
48.14000 168.166
48.15000 169.047
48.16000 170.022
48.17000 170.342
48.18000 169.772
48.19000 169.196
48.20000 169.788
48.21000 171.403
48.22000 172.987
48.23000 172.812
48.24000 171.617
48.25000 170.673
48.26000 174.793
48.27000 180.905
48.28000 186.585
48.29000 183.810
48.30000 179.283
48.31000 175.282
48.32000 174.562
48.33000 174.412
48.34000 174.848
48.35000 177.657
48.36000 180.718
48.37000 182.989
48.38000 180.514
48.39000 178.383
48.40000 176.671
48.41000 175.730
48.42000 174.806
48.43000 174.584
48.44000 175.224
48.45000 175.865
48.46000 176.331
48.47000 176.657
48.48000 177.016
48.49000 178.753
48.50000 181.218
48.51000 183.495
48.52000 182.580
48.53000 180.523
48.54000 178.633
48.55000 175.694
48.56000 172.846
48.57000 171.380
48.58000 177.659
48.59000 185.140
48.60000 190.252
48.61000 186.663
48.62000 182.269
48.63000 179.097
48.64000 179.988
48.65000 180.817
48.66000 180.466
48.67000 178.134
48.68000 175.771
48.69000 175.356
48.70000 177.099
48.71000 178.836
48.72000 180.156
48.73000 181.167
48.74000 182.186
48.75000 183.471
48.76000 184.884
48.77000 186.202
48.78000 186.155
48.79000 185.665
48.80000 185.219
48.81000 183.225
48.82000 181.167
48.83000 178.266
48.84000 171.119
48.85000 163.383
48.86000 158.827
48.87000 164.883
48.88000 171.789
48.89000 176.631
48.90000 177.338
48.91000 177.754
48.92000 178.059
48.93000 178.195
48.94000 178.329
48.95000 177.751
48.96000 176.465
48.97000 175.187
48.98000 174.710
48.99000 174.752
49.00000 174.823
49.01000 175.618
49.02000 176.731
49.03000 177.653
49.04000 176.233
49.05000 174.119
49.06000 172.227
49.07000 173.750
49.08000 175.664
49.09000 177.296
49.10000 177.650
49.11000 177.846
49.12000 177.132
49.13000 173.656
49.14000 169.989
49.15000 167.498
49.16000 169.254
49.17000 170.660
49.18000 171.731
49.19000 172.340
49.20000 172.947
49.21000 175.541
49.22000 179.909
49.23000 184.233
49.24000 181.342
49.25000 174.353
49.26000 167.670
49.27000 167.361
49.28000 169.595
49.29000 171.699
49.30000 172.421
49.31000 172.770
49.32000 173.078
49.33000 170.356
49.34000 167.546
49.35000 166.635
49.36000 173.536
49.37000 181.281
49.38000 184.960
49.39000 177.399
49.40000 169.185
49.41000 163.787
49.42000 168.780
49.43000 172.631
49.44000 174.730
49.45000 174.639
49.46000 174.538
49.47000 172.708
49.48000 169.487
49.49000 166.313
49.50000 170.202
49.51000 177.655
49.52000 184.559
49.53000 181.951
49.54000 175.884
49.55000 170.568
49.56000 172.227
49.57000 175.589
49.58000 178.509
49.59000 173.168
49.60000 167.502
49.61000 163.292
49.62000 164.513
49.63000 166.248
49.64000 169.066
49.65000 174.609
49.66000 180.283
49.67000 183.881
49.68000 184.212
49.69000 184.412
49.70000 185.431
49.71000 187.370
49.72000 189.280
49.73000 186.322
49.74000 179.823
49.75000 173.450
49.76000 171.281
49.77000 171.169
49.78000 170.939
49.79000 168.980
49.80000 166.449
49.81000 164.503
49.82000 167.353
49.83000 171.262
49.84000 174.601
49.85000 176.047
49.86000 177.041
49.87000 176.468
49.88000 170.589
49.89000 164.274
49.90000 162.222
49.91000 169.948
49.92000 178.059
49.93000 183.009
49.94000 185.908
49.95000 187.964
49.96000 185.396
49.97000 178.148
49.98000 170.960
49.99000 169.547
50.00000 171.942
50.01000 174.276
50.02000 173.352
50.03000 171.088
50.04000 169.162
50.05000 171.480
50.06000 175.077
50.07000 178.560
50.08000 181.222
50.09000 183.721
50.10000 185.816
50.11000 179.493
50.12000 173.353
50.13000 168.620
50.14000 168.220
50.15000 168.127
50.16000 167.447
50.17000 165.541
50.18000 163.598
50.19000 162.459
50.20000 168.964
50.21000 173.580
50.22000 177.388
50.23000 180.460
50.24000 183.449
50.25000 181.076
50.26000 175.492
50.27000 170.086
50.28000 171.774
50.29000 176.085
50.30000 180.046
50.31000 180.198
50.32000 179.308
50.33000 178.262
50.34000 176.200
50.35000 173.956
50.36000 172.110
50.37000 177.148
50.38000 181.914
50.39000 185.746
50.40000 186.952
50.41000 188.002
50.42000 189.409
50.43000 191.497
50.44000 193.600
50.45000 194.779
50.46000 197.163
50.47000 198.808
50.48000 196.081
50.49000 189.777
50.50000 183.615
50.51000 184.031
50.52000 188.029
50.53000 191.870
50.54000 193.429
50.55000 194.099
50.56000 194.881
50.57000 196.718
50.58000 198.816
50.59000 200.224
50.60000 197.627
50.61000 194.385
50.62000 191.771
50.63000 190.610
50.64000 189.781
50.65000 190.603
50.66000 195.643
50.67000 200.894
50.68000 202.708
50.69000 198.574
50.70000 194.335
50.71000 192.071
50.72000 201.438
50.73000 207.788
50.74000 206.001
50.75000 198.196
50.76000 190.601
50.77000 190.334
50.78000 193.699
50.79000 196.904
50.80000 196.472
50.81000 194.939
50.82000 193.817
50.83000 196.138
50.84000 199.233
50.85000 202.162
50.86000 204.227
50.87000 206.168
50.88000 207.699
50.89000 203.208
50.90000 199.201
50.91000 196.486
50.92000 196.778
50.93000 197.194
50.94000 196.255
50.95000 193.186
50.96000 190.092
50.97000 188.522
50.98000 186.988
50.99000 185.965
51.00000 185.451
51.01000 185.277
51.02000 185.212
51.03000 188.135
51.04000 192.407
51.05000 196.439
51.06000 193.740
51.07000 189.378
51.08000 185.356
51.09000 183.849
51.10000 182.853
51.11000 181.075
51.12000 175.628
51.13000 169.712
51.14000 165.155
51.15000 170.308
51.16000 174.944
51.17000 175.992
51.18000 169.429
51.19000 162.617
51.20000 161.562
51.21000 168.717
51.22000 175.933
51.23000 179.282
51.24000 179.060
51.25000 178.805
51.26000 176.317
51.27000 172.470
51.28000 168.832
51.29000 169.819
51.30000 172.709
51.31000 175.409
51.32000 171.399
51.33000 166.069
51.34000 161.398
51.35000 161.064
51.36000 161.523
51.37000 162.676
51.38000 166.776
51.39000 171.208
51.40000 174.538
51.41000 167.571
51.42000 161.630
51.43000 158.599
51.44000 161.191
51.45000 163.925
51.46000 163.529
51.47000 159.093
51.48000 154.646
51.49000 153.628
51.50000 155.457
51.51000 157.246
51.52000 157.073
51.53000 155.816
51.54000 154.713
51.55000 156.443
51.56000 159.235
51.57000 161.814
51.58000 159.545
51.59000 156.412
51.60000 153.192
51.61000 149.460
51.62000 145.643
51.63000 145.481
51.64000 159.386
51.65000 174.683
51.66000 185.876
51.67000 175.293
51.68000 166.263
51.69000 160.105
51.70000 158.996
51.71000 157.981
51.72000 157.385
51.73000 157.277
51.74000 157.169
51.75000 157.733
51.76000 158.795
51.77000 159.843
51.78000 160.414
51.79000 160.745
51.80000 160.940
51.81000 159.040
51.82000 156.425
51.83000 154.038
51.84000 156.555
51.85000 159.782
51.86000 161.998
51.87000 158.850
51.88000 154.917
51.89000 152.560
51.90000 155.711
51.91000 159.337
51.92000 161.915
51.93000 159.155
51.94000 156.881
51.95000 157.194
51.96000 161.639
51.97000 166.137
51.98000 166.444
51.99000 162.360
52.00000 158.296
52.01000 157.488
52.02000 158.878
52.03000 160.178
52.04000 158.916
52.05000 156.480
52.06000 154.254
52.07000 154.804
52.08000 156.214
52.09000 157.486
52.10000 162.212
52.11000 166.983
52.12000 170.363
52.13000 167.094
52.14000 162.959
52.15000 159.858
52.16000 160.043
52.17000 160.472
52.18000 160.768
52.19000 152.082
52.20000 145.327
52.21000 141.905
52.22000 143.310
52.23000 144.755
52.24000 148.314
52.25000 153.860
52.26000 159.359
52.27000 159.403
52.28000 156.139
52.29000 153.012
52.30000 153.016
52.31000 154.328
52.32000 155.675
52.33000 157.425
52.34000 159.287
52.35000 160.942
52.36000 158.125
52.37000 154.961
52.38000 153.155
52.39000 157.214
52.40000 161.949
52.41000 165.014
52.42000 163.248
52.43000 161.177
52.44000 159.793
52.45000 156.490
52.46000 154.004
52.47000 153.884
52.48000 156.867
52.49000 159.863
52.50000 162.173
52.51000 163.904
52.52000 165.614
52.53000 165.063
52.54000 163.289
52.55000 161.585
52.56000 161.203
52.57000 161.323
52.58000 161.490
52.59000 162.131
52.60000 162.892
52.61000 163.558
52.62000 160.941
52.63000 158.227
52.64000 154.761
52.65000 148.350
52.66000 141.642
52.67000 138.560
52.68000 145.029
52.69000 152.003
52.70000 156.505
52.71000 156.674
52.72000 156.735
52.73000 155.853
52.74000 153.854
52.75000 151.871
52.76000 153.810
52.77000 158.746
52.78000 163.598
52.79000 165.393
52.80000 165.618
52.81000 165.776
52.82000 164.861
52.83000 163.575
52.84000 162.134
52.85000 159.337
52.86000 156.226
52.87000 153.548
52.88000 154.378
52.89000 155.524
52.90000 155.694
52.91000 152.393
52.92000 148.787
52.93000 146.621
52.94000 147.910
52.95000 149.349
52.96000 150.244
52.97000 155.418
52.98000 159.186
52.99000 160.708
53.00000 159.835
53.01000 158.946
53.02000 156.087
53.03000 151.866
53.04000 147.740
53.05000 148.649
53.06000 151.765
53.07000 154.920
53.08000 158.603
53.09000 162.453
53.10000 165.413
53.11000 161.534
53.12000 156.219
53.13000 151.722
53.14000 154.561
53.15000 157.752
53.16000 160.277
53.17000 160.649
53.18000 160.857
53.19000 161.189
53.20000 161.792
53.21000 162.406
53.22000 162.772
53.23000 159.632
53.24000 157.382
53.25000 155.174
53.26000 153.007
53.27000 150.874
53.28000 151.433
53.29000 153.680
53.30000 155.862
53.31000 155.291
53.32000 153.640
53.33000 152.057
53.34000 151.276
53.35000 150.724
53.36000 150.451
53.37000 152.086
53.38000 154.082
53.39000 155.740
53.40000 154.704
53.41000 153.586
53.42000 152.687
53.43000 152.434
53.44000 152.223
53.45000 152.473
53.46000 153.641
53.47000 154.835
53.48000 155.519
53.49000 153.684
53.50000 152.395
53.51000 151.936
53.52000 152.191
53.53000 152.461
53.54000 153.500
53.55000 154.978
53.56000 156.403
53.57000 153.429
53.58000 149.033
53.59000 144.976
53.60000 144.343
53.61000 144.601
53.62000 145.195
53.63000 147.839
53.64000 150.831
53.65000 153.268
53.66000 160.176
53.67000 166.196
53.68000 168.244
53.69000 159.669
53.70000 150.514
53.71000 145.975
53.72000 149.799
53.73000 153.797
53.74000 155.983
53.75000 157.251
53.76000 158.111
53.77000 156.395
53.78000 152.680
53.79000 149.092
53.80000 150.561
53.81000 154.654
53.82000 158.569
53.83000 157.522
53.84000 154.923
53.85000 152.757
53.86000 154.450
53.87000 157.051
53.88000 159.475
53.89000 160.917
53.90000 162.210
53.91000 163.240
53.92000 154.149
53.93000 146.078
53.94000 141.612
53.95000 145.930
53.96000 150.644
53.97000 152.730
53.98000 150.487
53.99000 148.181
54.00000 146.981
54.01000 146.698
54.02000 146.511
54.03000 146.871
54.04000 147.615
54.05000 148.373
54.06000 149.569
54.07000 150.971
54.08000 152.300
54.09000 152.378
54.10000 152.080
54.11000 151.459
54.12000 148.307
54.13000 144.616
54.14000 142.250
54.15000 146.430
54.16000 151.496
54.17000 155.445
54.18000 158.073
54.19000 160.085
54.20000 160.691
54.21000 158.177
54.22000 155.550
54.23000 154.859
54.24000 157.066
54.25000 159.301
54.26000 158.733
54.27000 155.436
54.28000 152.126
54.29000 147.804
54.30000 142.836
54.31000 138.209
54.32000 141.962
54.33000 149.321
54.34000 156.231
54.35000 156.488
54.36000 154.956
54.37000 153.645
54.38000 153.876
54.39000 154.403
54.40000 154.306
54.41000 151.420
54.42000 148.200
54.43000 145.751
54.44000 143.725
54.45000 142.155
54.46000 141.534
54.47000 142.835
54.48000 144.190
54.49000 146.843
54.50000 151.253
54.51000 155.670
54.52000 156.314
54.53000 153.661
54.54000 151.005
54.55000 148.150
54.56000 145.180
54.57000 142.645
54.58000 148.872
54.59000 158.534
54.60000 167.511
54.61000 165.470
54.62000 161.000
54.63000 156.987
54.64000 155.812
54.65000 155.128
54.66000 153.502
54.67000 148.074
54.68000 142.246
54.69000 137.924
54.70000 145.311
54.71000 151.558
54.72000 154.143
54.73000 149.989
54.74000 145.690
54.75000 144.740
54.76000 147.892
54.77000 151.049
54.78000 151.443
54.79000 149.667
54.80000 147.961
54.81000 149.199
54.82000 151.986
54.83000 154.640
54.84000 155.047
54.85000 154.652
54.86000 154.290
54.87000 155.822
54.88000 157.595
54.89000 158.760
54.90000 156.538
54.91000 153.792
54.92000 151.447
54.93000 150.571
54.94000 149.831
54.95000 149.297
54.96000 149.494
54.97000 149.670
54.98000 149.005
54.99000 146.933
55.00000 144.839
55.01000 145.957
55.02000 150.618
55.03000 155.262
55.04000 154.990
55.05000 151.244
55.06000 147.561
55.07000 145.895
55.08000 145.195
55.09000 144.471
55.10000 143.395
55.11000 142.205
55.12000 141.126
55.13000 148.618
55.14000 156.868
55.15000 163.996
55.16000 165.491
55.17000 166.210
55.18000 165.928
55.19000 162.319
55.20000 158.445
55.21000 155.731
55.22000 154.613
55.23000 153.812
55.24000 153.282
55.25000 153.161
55.26000 153.045
55.27000 152.824
55.28000 152.501
55.29000 152.180
55.30000 153.805
55.31000 156.645
55.32000 159.325
55.33000 157.911
55.34000 154.709
55.35000 151.797
55.36000 152.429
55.37000 154.109
55.38000 155.612
55.39000 160.639
55.40000 165.625
55.41000 169.834
55.42000 170.519
55.43000 170.774
55.44000 172.396
55.45000 178.159
55.46000 184.205
55.47000 188.309
55.48000 179.148
55.49000 172.018
55.50000 169.663
55.51000 173.886
55.52000 178.150
55.53000 183.560
55.54000 189.991
55.55000 196.355
55.56000 198.619
55.57000 198.476
55.58000 198.599
55.59000 204.231
55.60000 212.056
55.61000 219.710
55.62000 225.555
55.63000 230.916
55.64000 235.642
55.65000 237.447
55.66000 238.559
55.67000 241.331
55.68000 250.912
55.69000 261.226
55.70000 272.020
55.71000 284.139
55.72000 296.333
55.73000 304.339
55.74000 312.669
55.75000 318.803
55.76000 325.598
55.77000 333.216
55.78000 340.834
55.79000 347.880
55.80000 354.466
55.81000 360.955
55.82000 370.908
55.83000 382.365
55.84000 393.761
55.85000 404.114
55.86000 414.088
55.87000 423.481
55.88000 427.479
55.89000 430.164
55.90000 432.494
55.91000 442.628
55.92000 452.310
55.93000 460.144
55.94000 461.106
55.95000 461.419
55.96000 460.593
55.97000 456.906
55.98000 453.082
55.99000 450.660
56.00000 458.646
56.01000 464.563
56.02000 459.226
56.03000 441.257
56.04000 423.351
56.05000 417.265
56.06000 419.753
56.07000 422.193
56.08000 419.586
56.09000 414.712
56.10000 409.748
56.11000 403.458
56.12000 396.730
56.13000 389.931
56.14000 382.553
56.15000 375.047
56.16000 368.641
56.17000 356.093
56.18000 344.800
56.19000 334.257
56.20000 326.250
56.21000 318.451
56.22000 311.073
56.23000 304.659
56.24000 298.283
56.25000 294.397
56.26000 288.434
56.27000 284.155
56.28000 278.321
56.29000 270.920
56.30000 263.525
56.31000 256.802
56.32000 250.521
56.33000 244.400
56.34000 238.452
56.35000 232.851
56.36000 227.458
56.37000 224.675
56.38000 222.675
56.39000 220.421
56.40000 216.337
56.41000 211.888
56.42000 208.159
56.43000 205.888
56.44000 204.150
56.45000 200.743
56.46000 192.207
56.47000 183.310
56.48000 176.791
56.49000 175.223
56.50000 173.810
56.51000 172.983
56.52000 171.894
56.53000 171.127
56.54000 171.048
56.55000 171.590
56.56000 172.113
56.57000 171.368
56.58000 169.866
56.59000 168.413
56.60000 164.279
56.61000 159.350
56.62000 154.539
56.63000 151.016
56.64000 147.846
56.65000 145.572
56.66000 149.085
56.67000 153.634
56.68000 157.375
56.69000 158.037
56.70000 158.303
56.71000 158.511
56.72000 158.557
56.73000 158.594
56.74000 157.616
56.75000 154.714
56.76000 151.766
56.77000 150.117
56.78000 151.744
56.79000 152.886
56.80000 156.588
56.81000 162.378
56.82000 167.962
56.83000 164.055
56.84000 154.995
56.85000 146.292
56.86000 145.943
56.87000 148.493
56.88000 150.734
56.89000 150.052
56.90000 148.648
56.91000 147.147
56.92000 145.084
56.93000 142.931
56.94000 141.196
56.95000 142.676
56.96000 144.129
56.97000 145.849
56.98000 148.249
56.99000 150.682
57.00000 148.908
57.01000 139.873
57.02000 130.712
57.03000 125.826
57.04000 135.444
57.05000 141.990
57.06000 145.337
57.07000 146.325
57.08000 147.345
57.09000 149.473
57.10000 152.149
57.11000 154.696
57.12000 150.000
57.13000 143.400
57.14000 137.527
57.15000 137.712
57.16000 139.254
57.17000 141.429
57.18000 146.896
57.19000 152.835
57.20000 157.515
57.21000 150.694
57.22000 144.455
57.23000 139.070
57.24000 135.669
57.25000 132.349
57.26000 132.181
57.27000 136.956
57.28000 141.791
57.29000 144.239
57.30000 145.234
57.31000 145.885
57.32000 145.005
57.33000 143.103
57.34000 141.322
57.35000 142.824
57.36000 145.805
57.37000 148.618
57.38000 147.733
57.39000 145.888
57.40000 143.765
57.41000 139.591
57.42000 135.003
57.43000 132.047
57.44000 136.737
57.45000 142.399
57.46000 146.759
57.47000 145.258
57.48000 143.735
57.49000 142.424
57.50000 141.559
57.51000 140.710
57.52000 139.738
57.53000 138.593
57.54000 137.447
57.55000 138.485
57.56000 141.534
57.57000 144.527
57.58000 143.755
57.59000 140.701
57.60000 137.690
57.61000 135.639
57.62000 133.982
57.63000 132.435
57.64000 133.983
57.65000 136.165
57.66000 138.554
57.67000 142.306
57.68000 146.307
57.69000 148.548
57.70000 143.340
57.71000 137.294
57.72000 132.754
57.73000 138.509
57.74000 143.499
57.75000 146.398
57.76000 145.267
57.77000 144.036
57.78000 141.704
57.79000 137.954
57.80000 134.203
57.81000 134.643
57.82000 138.546
57.83000 142.320
57.84000 139.894
57.85000 134.049
57.86000 128.555
57.87000 129.463
57.88000 132.762
57.89000 135.810
57.90000 136.421
57.91000 136.419
57.92000 136.416
57.93000 136.405
57.94000 136.394
57.95000 136.415
57.96000 136.562
57.97000 136.722
57.98000 136.839
57.99000 143.836
58.00000 149.506
58.01000 151.486
58.02000 147.003
58.03000 142.400
58.04000 139.810
58.05000 139.558
58.06000 139.310
58.07000 138.249
58.08000 136.590
58.09000 135.060
58.10000 138.193
58.11000 143.665
58.12000 148.613
58.13000 145.489
58.14000 139.620
58.15000 134.265
58.16000 134.735
58.17000 136.329
58.18000 137.578
58.19000 137.004
58.20000 136.164
58.21000 135.566
58.22000 135.815
58.23000 136.137
58.24000 136.366
58.25000 136.024
58.26000 135.745
58.27000 135.969
58.28000 136.996
58.29000 138.033
58.30000 140.179
58.31000 143.482
58.32000 146.768
58.33000 146.201
58.34000 143.059
58.35000 139.988
58.36000 138.945
58.37000 138.829
58.38000 138.926
58.39000 141.825
58.40000 145.591
58.41000 148.983
58.42000 144.317
58.43000 138.771
58.44000 134.341
58.45000 135.228
58.46000 136.805
58.47000 138.427
58.48000 140.191
58.49000 141.965
58.50000 143.188
58.51000 143.677
58.52000 144.026
58.53000 143.170
58.54000 140.572
58.55000 137.960
58.56000 137.670
58.57000 139.554
58.58000 141.422
58.59000 139.190
58.60000 134.522
58.61000 130.040
58.62000 129.821
58.63000 131.375
58.64000 132.865
58.65000 133.625
58.66000 134.180
58.67000 134.673
58.68000 134.024
58.69000 133.278
58.70000 133.093
58.71000 135.323
58.72000 137.830
58.73000 140.510
58.74000 143.688
58.75000 146.896
58.76000 149.038
58.77000 142.963
58.78000 138.303
58.79000 137.217
58.80000 140.804
58.81000 144.402
58.82000 142.566
58.83000 136.150
58.84000 129.814
58.85000 131.899
58.86000 138.523
58.87000 144.643
58.88000 141.254
58.89000 134.259
58.90000 127.920
58.91000 128.056
58.92000 129.845
58.93000 131.410
58.94000 128.330
58.95000 125.028
58.96000 122.843
58.97000 125.009
58.98000 127.613
58.99000 129.441
59.00000 129.228
59.01000 128.907
59.02000 128.701
59.03000 128.477
59.04000 128.313
59.05000 129.446
59.06000 132.110
59.07000 134.773
59.08000 136.585
59.09000 137.748
59.10000 138.891
59.11000 138.151
59.12000 136.507
59.13000 134.969
59.14000 135.089
59.15000 135.782
59.16000 136.255
59.17000 134.821
59.18000 132.946
59.19000 131.332
59.20000 132.275
59.21000 133.396
59.22000 134.776
59.23000 137.074
59.24000 139.453
59.25000 140.372
59.26000 137.801
59.27000 135.079
59.28000 133.388
59.29000 131.600
59.30000 130.312
59.31000 131.694
59.32000 135.911
59.33000 140.108
59.34000 141.725
59.35000 141.563
59.36000 141.405
59.37000 136.759
59.38000 130.314
59.39000 124.364
59.40000 125.075
59.41000 127.881
59.42000 130.347
59.43000 130.205
59.44000 129.519
59.45000 128.939
59.46000 136.240
59.47000 143.222
59.48000 148.219
59.49000 146.826
59.50000 144.949
59.51000 143.544
59.52000 143.165
59.53000 142.821
59.54000 142.616
59.55000 132.938
59.56000 126.017
59.57000 125.514
59.58000 131.129
59.59000 136.682
59.60000 137.545
59.61000 135.473
59.62000 133.461
59.63000 131.025
59.64000 128.542
59.65000 126.161
59.66000 124.957
59.67000 124.090
59.68000 123.704
59.69000 126.607
59.70000 130.130
59.71000 133.054
59.72000 140.029
59.73000 146.187
59.74000 149.745
59.75000 145.687
59.76000 141.138
59.77000 137.587
59.78000 136.018
59.79000 134.503
59.80000 133.636
59.81000 136.294
59.82000 138.160
59.83000 138.915
59.84000 138.717
59.85000 138.489
59.86000 136.691
59.87000 134.001
59.88000 131.407
59.89000 128.702
59.90000 126.118
59.91000 124.196
59.92000 128.950
59.93000 135.436
59.94000 140.759
59.95000 139.000
59.96000 136.042
59.97000 133.634
59.98000 131.076
59.99000 128.975
60.00000 128.168
60.01000 130.813
60.02000 133.645
60.03000 136.018
60.04000 137.562
60.05000 139.088
60.06000 139.921
60.07000 136.615
60.08000 134.356
60.09000 136.715
60.10000 142.649
60.11000 148.411
60.12000 147.402
60.13000 142.891
60.14000 138.576
60.15000 133.676
60.16000 128.922
60.17000 124.922
60.18000 127.593
60.19000 131.832
60.20000 135.615
60.21000 136.903
60.22000 137.814
60.23000 138.540
60.24000 134.915
60.25000 131.677
60.26000 128.601
60.27000 125.920
60.28000 123.256
60.29000 121.482
60.30000 121.170
60.31000 120.879
60.32000 120.728
60.33000 120.952
60.34000 121.114
60.35000 122.615
60.36000 125.054
60.37000 127.476
60.38000 129.372
60.39000 131.020
60.40000 132.583
60.41000 132.126
60.42000 131.110
60.43000 130.152
60.44000 129.638
60.45000 129.220
60.46000 128.905
60.47000 129.103
60.48000 129.371
60.49000 129.579
60.50000 128.904
60.51000 128.312
60.52000 128.125
60.53000 128.835
60.54000 129.577
60.55000 130.414
60.56000 131.394
60.57000 132.374
60.58000 132.009
60.59000 130.338
60.60000 128.697
60.61000 129.475
60.62000 131.790
60.63000 133.947
60.64000 132.223
60.65000 128.836
60.66000 125.655
60.67000 125.937
60.68000 127.110
60.69000 128.271
60.70000 129.348
60.71000 130.410
60.72000 131.773
60.73000 134.474
60.74000 137.335
60.75000 139.510
60.76000 137.783
60.77000 136.222
60.78000 135.640
60.79000 137.033
60.80000 138.481
60.81000 138.282
60.82000 135.856
60.83000 133.420
60.84000 133.944
60.85000 137.045
60.86000 140.121
60.87000 141.802
60.88000 142.677
60.89000 143.333
60.90000 139.622
60.91000 134.203
60.92000 129.170
60.93000 132.423
60.94000 137.325
60.95000 141.129
60.96000 138.118
60.97000 133.934
60.98000 130.280
60.99000 128.760
61.00000 127.464
61.01000 126.504
61.02000 131.510
61.03000 135.655
61.04000 136.625
61.05000 131.767
61.06000 126.784
61.07000 127.046
61.08000 133.710
61.09000 140.377
61.10000 142.833
61.11000 141.982
61.12000 141.133
61.13000 140.378
61.14000 139.673
61.15000 139.061
61.16000 140.019
61.17000 141.537
61.18000 142.930
61.19000 142.489
61.20000 141.704
61.21000 141.065
61.22000 141.230
61.23000 141.519
61.24000 141.490
61.25000 140.299
61.26000 139.001
61.27000 138.066
61.28000 138.501
61.29000 138.883
61.30000 139.264
61.31000 139.646
61.32000 140.027
61.33000 139.907
61.34000 139.234
61.35000 138.564
61.36000 140.156
61.37000 143.328
61.38000 146.306
61.39000 143.117
61.40000 136.980
61.41000 131.267
61.42000 131.563
61.43000 133.808
61.44000 135.843
61.45000 134.760
61.46000 133.209
61.47000 132.069
61.48000 132.979
61.49000 134.172
61.50000 136.604
61.51000 143.150
61.52000 150.023
61.53000 154.833
61.54000 168.520
61.55000 179.119
61.56000 190.359
61.57000 202.570
61.58000 214.790
61.59000 221.838
61.60000 223.779
61.61000 225.707
61.62000 232.604
61.63000 242.551
61.64000 252.139
61.65000 252.661
61.66000 249.233
61.67000 246.259
61.68000 248.799
61.69000 252.963
61.70000 256.687
61.71000 263.367
61.72000 269.693
61.73000 273.424
61.74000 265.427
61.75000 256.001
61.76000 247.847
61.77000 243.535
61.78000 239.484
61.79000 236.737
61.80000 220.058
61.81000 207.311
61.82000 197.393
61.83000 191.359
61.84000 185.347
61.85000 178.408
61.86000 170.645
61.87000 162.963
61.88000 158.186
61.89000 155.180
61.90000 152.234
61.91000 150.516
61.92000 149.285
61.93000 147.944
61.94000 145.450
61.95000 142.647
61.96000 140.177
61.97000 136.271
61.98000 132.688
61.99000 130.834
62.00000 136.055
62.01000 142.036
62.02000 144.857
62.03000 138.996
62.04000 132.637
62.05000 128.467
62.06000 131.574
62.07000 133.980
62.08000 134.919
62.09000 134.038
62.10000 133.154
62.11000 133.339
62.12000 134.379
62.13000 135.403
62.14000 137.592
62.15000 140.318
62.16000 142.879
62.17000 142.621
62.18000 141.343
62.19000 140.076
62.20000 138.909
62.21000 137.767
62.22000 136.777
62.23000 138.457
62.24000 140.245
62.25000 140.797
62.26000 136.760
62.27000 132.293
62.28000 129.838
62.29000 132.422
62.30000 135.246
62.31000 137.033
62.32000 134.017
62.33000 131.773
62.34000 133.091
62.35000 138.392
62.36000 143.656
62.37000 142.443
62.38000 136.547
62.39000 130.768
62.40000 131.192
62.41000 134.499
62.42000 137.633
62.43000 138.264
62.44000 138.073
62.45000 137.585
62.46000 134.689
62.47000 131.265
62.48000 128.343
62.49000 131.909
62.50000 135.674
62.51000 138.956
62.52000 140.608
62.53000 142.128
62.54000 142.115
62.55000 138.609
62.56000 134.966
62.57000 132.749
62.58000 133.444
62.59000 133.963
62.60000 136.669
62.61000 141.573
62.62000 146.427
62.63000 146.636
62.64000 143.801
62.65000 141.038
62.66000 142.339
62.67000 145.292
62.68000 147.747
62.69000 143.999
62.70000 138.395
62.71000 133.565
62.72000 134.330
62.73000 136.204
62.74000 137.773
62.75000 138.011
62.76000 138.071
62.77000 138.388
62.78000 139.494
62.79000 140.654
62.80000 141.827
62.81000 143.027
62.82000 144.228
62.83000 144.929
62.84000 145.807
62.85000 146.425
62.86000 146.153
62.87000 145.079
62.88000 144.030
62.89000 144.536
62.90000 145.969
62.91000 147.356
62.92000 147.233
62.93000 146.543
62.94000 146.146
62.95000 148.923
62.96000 152.562
62.97000 155.328
62.98000 152.481
62.99000 148.633
63.00000 145.470
63.01000 142.881
63.02000 140.805
63.03000 139.184
63.04000 138.829
63.05000 138.549
63.06000 138.007
63.07000 136.971
63.08000 135.923
63.09000 135.337
63.10000 136.219
63.11000 136.830
63.12000 136.434
63.13000 135.219
63.14000 134.070
63.15000 135.897
63.16000 139.335
63.17000 142.636
63.18000 144.214
63.19000 145.099
63.20000 145.799
63.21000 144.758
63.22000 143.287
63.23000 142.183
63.24000 143.187
63.25000 144.527
63.26000 145.607
63.27000 146.974
63.28000 148.106
63.29000 147.535
63.30000 142.634
63.31000 137.519
63.32000 135.510
63.33000 138.844
63.34000 142.270
63.35000 144.095
63.36000 137.698
63.37000 133.366
63.38000 134.320
63.39000 139.161
63.40000 143.889
63.41000 144.765
63.42000 143.742
63.43000 142.769
63.44000 148.221
63.45000 155.258
63.46000 161.010
63.47000 156.097
63.48000 148.802
63.49000 142.912
63.50000 144.302
63.51000 146.730
63.52000 148.642
63.53000 151.288
63.54000 153.457
63.55000 154.349
63.56000 152.283
63.57000 150.099
63.58000 149.961
63.59000 153.023
63.60000 156.123
63.61000 157.690
63.62000 154.337
63.63000 152.093
63.64000 149.871
63.65000 147.663
63.66000 145.465
63.67000 143.509
63.68000 141.661
63.69000 139.919
63.70000 141.753
63.71000 144.431
63.72000 147.132
63.73000 150.003
63.74000 152.909
63.75000 154.450
63.76000 149.616
63.77000 143.973
63.78000 139.633
63.79000 150.068
63.80000 159.164
63.81000 165.661
63.82000 166.680
63.83000 167.523
63.84000 165.014
63.85000 157.755
63.86000 150.463
63.87000 147.654
63.88000 148.958
63.89000 150.273
63.90000 152.267
63.91000 154.673
63.92000 157.001
63.93000 157.628
63.94000 157.559
63.95000 157.495
63.96000 159.229
63.97000 161.251
63.98000 163.516
63.99000 167.369
64.00000 171.509
64.01000 174.171
64.02000 170.586
64.03000 166.302
64.04000 163.088
64.05000 160.920
64.06000 159.277
64.07000 157.802
64.08000 156.650
64.09000 155.506
64.10000 155.807
64.11000 157.962
64.12000 160.120
64.13000 160.679
64.14000 159.918
64.15000 159.150
64.16000 158.001
64.17000 156.645
64.18000 155.505
64.19000 158.316
64.20000 162.600
64.21000 166.555
64.22000 161.494
64.23000 154.928
64.24000 150.346
64.25000 157.387
64.26000 166.321
64.27000 171.714
64.28000 163.553
64.29000 154.062
64.30000 147.129
64.31000 147.960
64.32000 148.905
64.33000 150.178
64.34000 152.026
64.35000 153.884
64.36000 154.652
64.37000 154.158
64.38000 153.664
64.39000 156.321
64.40000 161.296
64.41000 166.108
64.42000 165.044
64.43000 161.041
64.44000 157.441
64.45000 160.023
64.46000 164.703
64.47000 168.971
64.48000 170.146
64.49000 170.565
64.50000 170.878
64.51000 170.636
64.52000 170.314
64.53000 168.929
64.54000 163.853
64.55000 158.462
64.56000 154.634
64.57000 164.977
64.58000 173.297
64.59000 177.019
64.60000 173.441
64.61000 169.771
64.62000 167.600
64.63000 166.990
64.64000 166.382
64.65000 169.006
64.66000 173.756
64.67000 178.296
64.68000 176.959
64.69000 172.944
64.70000 169.348
64.71000 171.229
64.72000 174.802
64.73000 178.018
64.74000 180.328
64.75000 182.190
64.76000 183.233
64.77000 180.387
64.78000 177.037
64.79000 174.340
64.80000 173.702
64.81000 173.215
64.82000 172.879
64.83000 182.127
64.84000 189.309
64.85000 192.247
64.86000 189.070
64.87000 185.844
64.88000 182.440
64.89000 178.868
64.90000 175.327
64.91000 172.483
64.92000 170.113
64.93000 168.077
64.94000 173.624
64.95000 182.320
64.96000 190.284
64.97000 189.998
64.98000 187.396
64.99000 185.087
65.00000 186.532
65.01000 188.385
65.02000 190.299
65.03000 192.474
65.04000 194.678
65.05000 195.978
65.06000 194.675
65.07000 193.210
65.08000 192.233
65.09000 190.864
65.10000 189.842
65.11000 191.045
65.12000 195.148
65.13000 199.261
65.14000 201.890
65.15000 203.273
65.16000 204.638
65.17000 205.787
65.18000 206.790
65.19000 207.824
65.20000 209.442
65.21000 211.281
65.22000 213.289
65.23000 216.947
65.24000 221.026
65.25000 224.592
65.26000 221.119
65.27000 217.145
65.28000 214.967
65.29000 219.774
65.30000 225.282
65.31000 228.451
65.32000 225.491
65.33000 222.210
65.34000 220.097
65.35000 222.723
65.36000 224.707
65.37000 227.771
65.38000 232.107
65.39000 236.457
65.40000 243.596
65.41000 252.851
65.42000 261.945
65.43000 261.759
65.44000 257.024
65.45000 252.535
65.46000 251.908
65.47000 252.612
65.48000 253.940
65.49000 260.662
65.50000 268.628
65.51000 275.480
65.52000 276.155
65.53000 275.952
65.54000 276.588
65.55000 280.187
65.56000 284.045
65.57000 290.313
65.58000 302.331
65.59000 314.597
65.60000 322.207
65.61000 315.112
65.62000 309.864
65.63000 312.753
65.64000 324.260
65.65000 335.738
65.66000 343.528
65.67000 348.784
65.68000 353.919
65.69000 381.823
65.70000 418.641
65.71000 456.003
65.72000 500.646
65.73000 547.572
65.74000 596.319
65.75000 658.975
65.76000 724.531
65.77000 779.944
65.78000 830.815
65.79000 872.866
65.80000 916.615
65.81000 965.811
65.82000 1015.417
65.83000 1048.235
65.84000 1044.559
65.85000 1039.618
65.86000 1036.672
65.87000 1043.812
65.88000 1048.936
65.89000 1058.198
65.90000 1071.394
65.91000 1084.212
65.92000 1068.458
65.93000 1034.884
65.94000 1002.287
65.95000 956.588
65.96000 907.972
65.97000 858.271
65.98000 796.034
65.99000 730.224
66.00000 666.126
66.01000 613.661
66.02000 563.382
66.03000 521.667
66.04000 473.173
66.05000 432.444
66.06000 398.831
66.07000 385.991
66.08000 374.485
66.09000 363.718
66.10000 354.417
66.11000 345.155
66.12000 339.865
66.13000 327.746
66.14000 319.269
66.15000 313.371
66.16000 309.676
66.17000 306.052
66.18000 306.112
66.19000 308.262
66.20000 310.334
66.21000 313.986
66.22000 317.991
66.23000 321.971
66.24000 325.712
66.25000 329.390
66.26000 333.050
66.27000 336.598
66.28000 340.126
66.29000 342.996
66.30000 354.705
66.31000 365.002
66.32000 375.443
66.33000 386.262
66.34000 397.102
66.35000 407.694
66.36000 417.839
66.37000 427.974
66.38000 433.501
66.39000 434.534
66.40000 435.229
66.41000 433.811
66.42000 430.763
66.43000 427.895
66.44000 432.087
66.45000 439.921
66.46000 447.411
66.47000 453.501
66.48000 458.712
66.49000 462.521
66.50000 453.962
66.51000 442.504
66.52000 430.455
66.53000 415.181
66.54000 399.421
66.55000 386.874
66.56000 369.526
66.57000 355.194
66.58000 344.227
66.59000 341.413
66.60000 338.962
66.61000 335.382
66.62000 329.952
66.63000 324.494
66.64000 321.663
66.65000 335.616
66.66000 344.921
66.67000 339.008
66.68000 322.469
66.69000 306.433
66.70000 305.678
66.71000 312.100
66.72000 318.186
66.73000 322.327
66.74000 325.571
66.75000 327.807
66.76000 322.188
66.77000 314.904
66.78000 309.547
66.79000 313.642
66.80000 319.008
66.81000 323.183
66.82000 322.226
66.83000 321.148
66.84000 320.519
66.85000 320.880
66.86000 321.276
66.87000 322.018
66.88000 323.273
66.89000 324.533
66.90000 326.897
66.91000 330.328
66.92000 333.768
66.93000 337.920
66.94000 342.524
66.95000 346.994
66.96000 348.230
66.97000 348.081
66.98000 347.942
66.99000 344.406
67.00000 340.286
67.01000 335.980
67.02000 330.380
67.03000 324.534
67.04000 322.184
67.05000 335.338
67.06000 350.336
67.07000 361.729
67.08000 358.967
67.09000 356.062
67.10000 355.959
67.11000 361.488
67.12000 367.176
67.13000 372.192
67.14000 376.303
67.15000 380.405
67.16000 381.595
67.17000 380.254
67.18000 378.911
67.19000 377.461
67.20000 375.949
67.21000 374.451
67.22000 373.230
67.23000 372.116
67.24000 371.083
67.25000 380.411
67.26000 391.275
67.27000 399.362
67.28000 390.278
67.29000 378.245
67.30000 369.887
67.31000 376.279
67.32000 384.215
67.33000 390.089
67.34000 391.313
67.35000 392.062
67.36000 391.415
67.37000 388.216
67.38000 384.962
67.39000 388.384
67.40000 399.932
67.41000 411.475
67.42000 416.533
67.43000 416.503
67.44000 416.411
67.45000 413.715
67.46000 409.657
67.47000 406.177
67.48000 412.308
67.49000 421.852
67.50000 430.610
67.51000 434.836
67.52000 437.641
67.53000 438.246
67.54000 426.650
67.55000 413.180
67.56000 406.567
67.57000 424.920
67.58000 445.555
67.59000 460.414
67.60000 453.213
67.61000 446.920
67.62000 442.779
67.63000 442.215
67.64000 441.706
67.65000 443.984
67.66000 449.316
67.67000 454.628
67.68000 454.218
67.69000 449.793
67.70000 445.581
67.71000 448.124
67.72000 453.888
67.73000 459.544
67.74000 463.678
67.75000 467.321
67.76000 470.621
67.77000 466.375
67.78000 461.198
67.79000 458.991
67.80000 471.607
67.81000 486.253
67.82000 495.761
67.83000 488.270
67.84000 479.434
67.85000 473.256
67.86000 483.159
67.87000 491.096
67.88000 497.337
67.89000 501.017
67.90000 504.671
67.91000 506.797
67.92000 507.419
67.93000 508.036
67.94000 509.426
67.95000 511.282
67.96000 513.172
67.97000 515.919
67.98000 519.037
67.99000 522.303
68.00000 527.348
68.01000 532.917
68.02000 537.896
68.03000 537.618
68.04000 536.485
68.05000 536.396
68.06000 541.003
68.07000 546.181
68.08000 552.547
68.09000 562.491
68.10000 572.678
68.11000 579.578
68.12000 580.635
68.13000 581.294
68.14000 582.808
68.15000 585.491
68.16000 588.175
68.17000 583.821
68.18000 573.245
68.19000 562.781
68.20000 569.208
68.21000 585.141
68.22000 600.602
68.23000 606.379
68.24000 608.323
68.25000 610.701
68.26000 617.628
68.27000 625.770
68.28000 632.942
68.29000 631.776
68.30000 629.515
68.31000 628.961
68.32000 635.364
68.33000 642.511
68.34000 648.537
68.35000 651.490
68.36000 654.267
68.37000 656.086
68.38000 667.851
68.39000 676.663
68.40000 681.440
68.41000 681.224
68.42000 681.023
68.43000 689.626
68.44000 705.250
68.45000 720.640
68.46000 732.300
68.47000 741.686
68.48000 751.430
68.49000 767.280
68.50000 785.331
68.51000 802.425
68.52000 810.718
68.53000 816.882
68.54000 822.226
68.55000 847.849
68.56000 872.368
68.57000 893.809
68.58000 903.873
68.59000 912.872
68.60000 927.483
68.61000 956.101
68.62000 985.383
68.63000 1003.888
68.64000 1059.985
68.65000 1101.076
68.66000 1152.756
68.67000 1216.247
68.68000 1279.665
68.69000 1330.651
68.70000 1372.670
68.71000 1413.846
68.72000 1464.207
68.73000 1516.930
68.74000 1570.132
68.75000 1630.256
68.76000 1692.651
68.77000 1755.263
68.78000 1819.629
68.79000 1884.378
68.80000 1939.584
68.81000 2007.033
68.82000 2065.219
68.83000 2126.841
68.84000 2200.000
68.85000 2274.095
68.86000 2370.092
68.87000 2515.898
68.88000 2663.631
68.89000 2753.451
68.90000 3213.330
68.91000 3544.568
68.92000 4201.031
68.93000 5183.241
68.94000 6174.482
68.95000 8004.253
68.96000 10382.109
68.97000 12698.205
68.98000 16407.406
68.99000 20529.389
69.00000 24673.279
69.01000 29088.658
69.02000 33585.074
69.03000 37976.340
69.04000 41611.793
69.05000 45097.879
69.06000 48016.859
69.07000 50044.336
69.08000 51637.930
69.09000 52925.801
69.10000 53279.508
69.11000 53568.301
69.12000 53892.836
69.13000 54291.422
69.14000 54692.277
69.15000 54926.109
69.16000 56035.090
69.17000 56818.641
69.18000 57196.105
69.19000 57208.352
69.20000 57200.594
69.21000 55946.223
69.22000 53951.859
69.23000 52022.520
69.24000 48998.215
69.25000 45726.402
69.26000 42503.434
69.27000 39804.871
69.28000 37248.516
69.29000 34791.383
69.30000 32970.266
69.31000 31262.229
69.32000 29859.416
69.33000 28947.344
69.34000 28242.369
69.35000 27563.031
69.36000 26955.010
69.37000 26351.184
69.38000 25519.602
69.39000 24258.459
69.40000 22987.230
69.41000 22277.994
69.42000 19202.344
69.43000 17068.279
69.44000 14852.557
69.45000 12570.646
69.46000 10300.281
69.47000 8549.738
69.48000 7079.813
69.49000 5668.659
69.50000 4683.805
69.51000 3908.637
69.52000 3168.391
69.53000 2755.900
69.54000 2424.016
69.55000 2116.650
69.56000 1950.048
69.57000 1805.880
69.58000 1689.893
69.59000 1592.249
69.60000 1514.471
69.61000 1435.769
69.62000 1354.727
69.63000 1273.570
69.64000 1217.561
69.65000 1204.694
69.66000 1192.567
69.67000 1186.118
69.68000 1118.570
69.69000 1072.621
69.70000 1038.342
69.71000 1012.616
69.72000 987.163
69.73000 971.078
69.74000 959.598
69.75000 948.670
69.76000 934.147
69.77000 919.594
69.78000 903.485
69.79000 874.520
69.80000 842.694
69.81000 814.552
69.82000 805.428
69.83000 799.010
69.84000 793.959
69.85000 778.479
69.86000 765.386
69.87000 750.413
69.88000 731.102
69.89000 711.618
69.90000 701.534
69.91000 706.104
69.92000 710.844
69.93000 713.237
69.94000 704.015
69.95000 697.847
69.96000 691.698
69.97000 685.563
69.98000 679.416
69.99000 672.977
70.00000 666.407
