20.00000 570.247
20.01000 563.774
20.02000 556.375
20.03000 552.068
20.04000 559.839
20.05000 568.830
20.06000 575.436
20.07000 562.777
20.08000 552.201
20.09000 549.321
20.10000 560.163
20.11000 571.274
20.12000 571.949
20.13000 560.275
20.14000 548.610
20.15000 545.153
20.16000 547.944
20.17000 550.706
20.18000 552.438
20.19000 553.642
20.20000 554.814
20.21000 555.468
20.22000 555.943
20.23000 556.377
20.24000 549.661
20.25000 542.218
20.26000 537.778
20.27000 549.519
20.28000 563.672
20.29000 573.078
20.30000 565.647
20.31000 556.734
20.32000 550.367
20.33000 553.232
20.34000 555.725
20.35000 556.501
20.36000 554.496
20.37000 552.452
20.38000 553.529
20.39000 557.930
20.40000 562.311
20.41000 562.896
20.42000 560.881
20.43000 558.697
20.44000 551.460
20.45000 541.876
20.46000 533.155
20.47000 536.098
20.48000 542.713
20.49000 548.687
20.50000 554.013
20.51000 558.574
20.52000 563.282
20.53000 568.695
20.54000 574.201
20.55000 575.632
20.56000 563.923
20.57000 551.217
20.58000 542.408
20.59000 544.964
20.60000 547.189
20.61000 548.801
20.62000 549.512
20.63000 550.215
20.64000 547.995
20.65000 542.983
20.66000 538.011
20.67000 532.952
20.68000 527.928
20.69000 523.401
20.70000 530.655
20.71000 542.897
20.72000 553.692
20.73000 547.660
20.74000 536.808
20.75000 527.145
20.76000 532.430
20.77000 539.474
20.78000 545.259
20.79000 545.530
20.80000 545.153
20.81000 544.156
20.82000 541.339
20.83000 538.405
20.84000 536.435
20.85000 528.278
20.86000 522.094
20.87000 520.829
20.88000 526.116
20.89000 531.434
20.90000 534.984
20.91000 537.016
20.92000 539.024
20.93000 537.701
20.94000 534.559
20.95000 531.700
20.96000 534.341
20.97000 539.106
20.98000 542.982
20.99000 537.880
21.00000 530.443
21.01000 523.920
21.02000 527.738
21.03000 532.524
21.04000 537.610
21.05000 543.891
21.06000 550.296
21.07000 554.557
21.08000 553.094
21.09000 551.320
21.10000 550.168
21.11000 548.781
21.12000 547.761
21.13000 549.036
21.14000 553.072
21.15000 557.105
21.16000 558.962
21.17000 559.131
21.18000 559.297
21.19000 556.729
21.20000 552.873
21.21000 549.004
21.22000 544.941
21.23000 540.810
21.24000 536.946
21.25000 535.455
21.26000 534.522
21.27000 533.717
21.28000 541.797
21.29000 549.800
21.30000 556.101
21.31000 556.274
21.32000 555.896
21.33000 553.102
21.34000 544.431
21.35000 535.495
21.36000 529.905
21.37000 538.571
21.38000 544.977
21.39000 549.277
21.40000 551.295
21.41000 553.297
21.42000 553.361
21.43000 552.066
21.44000 550.798
21.45000 549.108
21.46000 547.294
21.47000 545.546
21.48000 544.717
21.49000 544.181
21.50000 543.192
21.51000 538.645
21.52000 533.340
21.53000 528.838
21.54000 539.163
21.55000 549.502
21.56000 555.832
21.57000 549.039
21.58000 541.224
21.59000 537.722
21.60000 543.783
21.61000 550.192
21.62000 554.047
21.63000 544.571
21.64000 537.742
21.65000 534.760
21.66000 535.520
21.67000 536.313
21.68000 539.766
21.69000 544.914
21.70000 549.919
21.71000 549.082
21.72000 545.897
21.73000 542.643
21.74000 538.554
21.75000 534.222
21.76000 530.834
21.77000 534.014
21.78000 538.455
21.79000 542.155
21.80000 543.466
21.81000 544.315
21.82000 545.675
21.83000 548.558
21.84000 551.543
21.85000 555.153
21.86000 560.028
21.87000 564.938
21.88000 567.769
21.89000 570.162
21.90000 571.832
21.91000 571.006
21.92000 567.998
21.93000 565.056
21.94000 565.864
21.95000 568.840
21.96000 571.714
21.97000 572.433
21.98000 572.316
21.99000 572.187
22.00000 571.941
22.01000 571.664
22.02000 573.266
22.03000 586.554
22.04000 601.860
22.05000 614.362
22.06000 615.219
22.07000 614.915
22.08000 614.029
22.09000 611.562
22.10000 609.006
22.11000 608.289
22.12000 610.954
22.13000 613.692
22.14000 615.200
22.15000 605.256
22.16000 598.408
22.17000 598.055
22.18000 602.825
22.19000 607.413
22.20000 604.435
22.21000 597.477
22.22000 590.813
22.23000 591.890
22.24000 595.471
22.25000 598.494
22.26000 596.465
22.27000 593.226
22.28000 591.223
22.29000 596.113
22.30000 602.068
22.31000 606.832
22.32000 597.439
22.33000 588.792
22.34000 584.106
22.35000 589.205
22.36000 594.758
22.37000 597.592
22.38000 595.880
22.39000 594.098
22.40000 593.163
22.41000 575.505
22.42000 563.603
22.43000 561.579
22.44000 566.600
22.45000 571.607
22.46000 576.178
22.47000 580.539
22.48000 584.680
22.49000 578.118
22.50000 568.852
22.51000 559.415
22.52000 548.615
22.53000 537.520
22.54000 529.934
22.55000 539.947
22.56000 552.385
22.57000 562.114
22.58000 556.114
22.59000 550.324
22.60000 546.041
22.61000 545.152
22.62000 544.390
22.63000 543.287
22.64000 541.666
22.65000 540.038
22.66000 538.219
22.67000 536.209
22.68000 534.228
22.69000 534.760
22.70000 536.917
22.71000 538.991
22.72000 538.927
22.73000 537.932
22.74000 536.996
22.75000 535.692
22.76000 534.403
22.77000 532.391
22.78000 525.258
22.79000 517.125
22.80000 509.806
22.81000 506.172
22.82000 502.989
22.83000 500.558
22.84000 507.928
22.85000 514.265
22.86000 515.119
22.87000 504.731
22.88000 494.009
22.89000 485.289
22.90000 479.324
22.91000 473.378
22.92000 481.678
22.93000 502.616
22.94000 523.288
22.95000 528.065
22.96000 523.506
22.97000 518.766
22.98000 510.264
22.99000 500.266
23.00000 490.962
23.01000 493.756
23.02000 499.214
23.03000 504.591
23.04000 509.462
23.05000 514.243
23.06000 518.541
23.07000 520.860
23.08000 522.967
23.09000 524.534
23.10000 512.812
23.11000 503.094
23.12000 496.612
23.13000 496.171
23.14000 495.868
23.15000 495.548
23.16000 495.208
23.17000 494.868
23.18000 498.029
23.19000 503.972
23.20000 509.757
23.21000 508.667
23.22000 503.905
23.23000 499.319
23.24000 497.769
23.25000 497.319
23.26000 496.905
23.27000 495.277
23.28000 493.558
23.29000 491.800
23.30000 489.823
23.31000 487.813
23.32000 488.176
23.33000 497.361
23.34000 507.377
23.35000 514.633
23.36000 505.939
23.37000 498.674
23.38000 497.957
23.39000 508.355
23.40000 518.936
23.41000 521.271
23.42000 514.358
23.43000 507.462
23.44000 503.471
23.45000 501.600
23.46000 499.646
23.47000 494.899
23.48000 488.793
23.49000 483.513
23.50000 490.261
23.51000 500.977
23.52000 510.714
23.53000 511.648
23.54000 510.761
23.55000 509.760
23.56000 508.176
23.57000 506.510
23.58000 505.066
23.59000 504.376
23.60000 503.747
23.61000 503.304
23.62000 494.772
23.63000 488.066
23.64000 482.073
23.65000 477.179
23.66000 472.298
23.67000 474.174
23.68000 482.859
23.69000 491.488
23.70000 491.397
23.71000 485.660
23.72000 480.141
23.73000 480.337
23.74000 483.065
23.75000 485.767
23.76000 488.146
23.77000 490.428
23.78000 492.474
23.79000 490.772
23.80000 488.634
23.81000 487.215
23.82000 489.103
23.83000 491.404
23.84000 490.500
23.85000 479.757
23.86000 468.324
23.87000 460.526
23.88000 473.793
23.89000 484.202
23.90000 489.099
23.91000 486.294
23.92000 483.436
23.93000 481.658
23.94000 480.855
23.95000 480.060
23.96000 484.554
23.97000 492.043
23.98000 499.136
23.99000 497.763
24.00000 492.973
24.01000 488.607
24.02000 488.828
24.03000 490.299
24.04000 491.599
24.05000 487.656
24.06000 483.440
24.07000 481.056
24.08000 486.303
24.09000 492.388
24.10000 495.058
24.11000 488.180
24.12000 480.734
24.13000 475.822
24.14000 487.865
24.15000 497.042
24.16000 498.046
24.17000 488.713
24.18000 479.364
24.19000 477.103
24.20000 480.618
24.21000 484.083
24.22000 481.757
24.23000 476.445
24.24000 471.824
24.25000 479.484
24.26000 491.659
24.27000 502.023
24.28000 495.275
24.29000 484.297
24.30000 474.744
24.31000 471.368
24.32000 469.330
24.33000 467.981
24.34000 469.227
24.35000 470.724
24.36000 474.599
24.37000 484.528
24.38000 494.758
24.39000 501.273
24.40000 486.937
24.41000 476.252
24.42000 473.268
24.43000 479.066
24.44000 484.870
24.45000 490.120
24.46000 494.962
24.47000 499.712
24.48000 500.655
24.49000 499.750
24.50000 498.667
24.51000 494.901
24.52000 490.237
24.53000 485.777
24.54000 483.018
24.55000 480.640
24.56000 478.604
24.57000 470.050
24.58000 462.047
24.59000 456.753
24.60000 460.743
24.61000 465.509
24.62000 472.120
24.63000 483.011
24.64000 494.075
24.65000 500.859
24.66000 496.194
24.67000 492.754
24.68000 485.669
24.69000 474.845
24.70000 464.088
24.71000 460.148
24.72000 460.755
24.73000 461.348
24.74000 464.589
24.75000 468.824
24.76000 472.931
24.77000 475.417
24.78000 477.408
24.79000 479.682
24.80000 484.038
24.81000 488.814
24.82000 492.829
24.83000 486.409
24.84000 479.953
24.85000 474.586
24.86000 472.616
24.87000 470.889
24.88000 469.290
24.89000 467.960
24.90000 466.638
24.91000 465.860
24.92000 477.130
24.93000 485.141
24.94000 486.560
24.95000 481.916
24.96000 477.268
24.97000 472.390
24.98000 467.371
24.99000 462.509
25.00000 465.708
25.01000 471.862
25.02000 476.963
25.03000 470.419
25.04000 460.653
25.05000 452.535
25.06000 455.244
25.07000 459.921
25.08000 463.779
25.09000 459.633
25.10000 455.479
25.11000 454.420
25.12000 462.141
25.13000 470.398
25.14000 475.582
25.15000 474.855
25.16000 473.980
25.17000 473.487
25.18000 477.716
25.19000 480.658
25.20000 480.225
25.21000 476.995
25.22000 473.697
25.23000 467.128
25.24000 458.758
25.25000 450.708
25.26000 460.084
25.27000 474.967
25.28000 488.331
25.29000 487.022
25.30000 482.029
25.31000 478.312
25.32000 482.093
25.33000 487.098
25.34000 491.142
25.35000 483.542
25.36000 476.429
25.37000 470.380
25.38000 467.082
25.39000 463.924
25.40000 460.849
25.41000 457.921
25.42000 454.996
25.43000 453.424
25.44000 454.629
25.45000 455.449
25.46000 455.052
25.47000 453.743
25.48000 452.365
25.49000 448.476
25.50000 443.329
25.51000 438.420
25.52000 447.901
25.53000 461.236
25.54000 473.384
25.55000 475.458
25.56000 475.241
25.57000 474.504
25.58000 471.020
25.59000 467.136
25.60000 464.064
25.61000 463.674
25.62000 463.546
25.63000 462.353
25.64000 458.655
25.65000 454.852
25.66000 453.145
25.67000 454.772
25.68000 456.443
25.69000 457.295
25.70000 454.052
25.71000 451.869
25.72000 449.115
25.73000 445.972
25.74000 443.002
25.75000 444.910
25.76000 449.044
25.77000 452.951
25.78000 454.716
25.79000 455.729
25.80000 456.929
25.81000 459.542
25.82000 462.444
25.83000 464.281
25.84000 461.044
25.85000 457.149
25.86000 454.140
25.87000 453.701
25.88000 453.503
25.89000 454.336
25.90000 457.381
25.91000 460.500
25.92000 461.408
25.93000 459.123
25.94000 456.813
25.95000 453.276
25.96000 448.593
25.97000 443.965
25.98000 443.237
25.99000 444.911
26.00000 446.556
26.01000 447.570
26.02000 448.321
26.03000 449.024
26.04000 450.830
26.05000 452.753
26.06000 455.168
26.07000 460.872
26.08000 467.185
26.09000 471.279
26.10000 465.835
26.11000 459.299
26.12000 454.372
26.13000 454.570
26.14000 454.977
26.15000 456.930
26.16000 461.905
26.17000 466.958
26.18000 466.136
26.19000 457.637
26.20000 449.113
26.21000 446.997
26.22000 450.269
26.23000 453.519
26.24000 455.606
26.25000 457.044
26.26000 458.357
26.27000 457.332
26.28000 455.421
26.29000 453.653
26.30000 445.673
26.31000 437.077
26.32000 430.980
26.33000 439.820
26.34000 451.141
26.35000 459.808
26.36000 458.134
26.37000 455.419
26.38000 453.426
26.39000 448.686
26.40000 444.911
26.41000 441.770
26.42000 439.755
26.43000 437.763
26.44000 440.902
26.45000 450.096
26.46000 459.277
26.47000 460.716
26.48000 456.296
26.49000 451.939
26.50000 449.947
26.51000 449.158
26.52000 448.250
26.53000 445.467
26.54000 442.038
26.55000 438.902
26.56000 440.010
26.57000 441.867
26.58000 443.914
26.59000 446.985
26.60000 450.209
26.61000 451.895
26.62000 448.144
26.63000 443.916
26.64000 440.898
26.65000 445.904
26.66000 449.987
26.67000 452.046
26.68000 450.836
26.69000 449.581
26.70000 446.755
26.71000 442.262
26.72000 437.791
26.73000 436.907
26.74000 438.476
26.75000 440.074
26.76000 442.541
26.77000 445.410
26.78000 448.143
26.79000 449.032
26.80000 449.343
26.81000 449.623
26.82000 441.379
26.83000 432.572
26.84000 425.987
26.85000 430.153
26.86000 435.739
26.87000 440.280
26.88000 441.464
26.89000 442.394
26.90000 443.038
26.91000 442.928
26.92000 442.825
26.93000 438.109
26.94000 426.628
26.95000 415.089
26.96000 415.049
26.97000 425.959
26.98000 436.782
26.99000 443.459
27.00000 447.472
27.01000 451.137
27.02000 446.570
27.03000 438.526
27.04000 431.112
27.05000 430.986
27.06000 432.941
27.07000 434.681
27.08000 439.156
27.09000 443.489
27.10000 445.371
27.11000 436.541
27.12000 426.459
27.13000 420.311
27.14000 425.670
27.15000 431.771
27.16000 435.863
27.17000 437.449
27.18000 438.575
27.19000 443.029
27.20000 451.901
27.21000 460.777
27.22000 457.224
27.23000 443.024
27.24000 428.993
27.25000 420.773
27.26000 415.976
27.27000 411.644
27.28000 416.331
27.29000 424.487
27.30000 432.385
27.31000 437.677
27.32000 442.294
27.33000 446.342
27.34000 436.316
27.35000 425.667
27.36000 418.180
27.37000 423.211
27.38000 429.529
27.39000 434.480
27.40000 435.790
27.41000 436.902
27.42000 437.623
27.43000 433.406
27.44000 430.245
27.45000 428.685
27.46000 429.044
27.47000 429.407
27.48000 429.998
27.49000 430.765
27.50000 431.519
27.51000 428.897
27.52000 424.671
27.53000 420.610
27.54000 419.201
27.55000 418.722
27.56000 418.276
27.57000 418.120
27.58000 418.031
27.59000 417.955
27.60000 413.730
27.61000 409.613
27.62000 407.368
27.63000 411.846
27.64000 416.926
27.65000 421.524
27.66000 424.956
27.67000 428.335
27.68000 430.446
27.69000 427.129
27.70000 424.678
27.71000 422.271
27.72000 419.909
27.73000 417.536
27.74000 413.659
27.75000 408.728
27.76000 403.904
27.77000 413.460
27.78000 429.119
27.79000 443.547
27.80000 441.010
27.81000 433.061
27.82000 425.464
27.83000 420.615
27.84000 416.350
27.85000 412.732
27.86000 414.613
27.87000 416.810
27.88000 420.375
27.89000 428.405
27.90000 436.782
27.91000 440.470
27.92000 433.794
27.93000 426.742
27.94000 422.507
27.95000 415.895
27.96000 411.180
27.97000 409.708
27.98000 411.381
27.99000 413.048
28.00000 414.276
28.01000 415.227
28.02000 416.150
28.03000 415.314
28.04000 413.802
28.05000 412.648
28.06000 415.730
28.07000 420.041
28.08000 424.237
28.09000 427.640
28.10000 430.890
28.11000 433.596
28.12000 417.654
28.13000 402.607
28.14000 394.400
28.15000 406.506
28.16000 419.955
28.17000 430.698
28.18000 435.988
28.19000 441.125
28.20000 444.081
28.21000 431.661
28.22000 422.913
28.23000 416.774
28.24000 412.909
28.25000 409.131
28.26000 410.255
28.27000 414.205
28.28000 418.018
28.29000 414.699
28.30000 408.951
28.31000 404.294
28.32000 410.873
28.33000 420.410
28.34000 427.869
28.35000 422.448
28.36000 414.809
28.37000 408.574
28.38000 417.184
28.39000 425.503
28.40000 432.546
28.41000 436.134
28.42000 439.530
28.43000 441.659
28.44000 441.467
28.45000 441.225
28.46000 441.092
28.47000 419.798
28.48000 405.121
28.49000 396.546
28.50000 392.769
28.51000 389.239
28.52000 395.928
28.53000 407.977
28.54000 419.517
28.55000 416.631
28.56000 409.155
28.57000 402.229
28.58000 400.267
28.59000 399.490
28.60000 399.448
28.61000 403.486
28.62000 408.154
28.63000 411.885
28.64000 421.044
28.65000 428.848
28.66000 431.464
28.67000 421.303
28.68000 410.551
28.69000 405.343
28.70000 409.372
28.71000 413.544
28.72000 415.729
28.73000 408.533
28.74000 403.682
28.75000 402.431
28.76000 403.740
28.77000 405.140
28.78000 409.430
28.79000 415.102
28.80000 420.486
28.81000 418.434
28.82000 414.318
28.83000 410.568
28.84000 409.728
28.85000 409.516
28.86000 409.861
28.87000 412.986
28.88000 416.493
28.89000 419.234
28.90000 419.428
28.91000 419.421
28.92000 417.981
28.93000 413.327
28.94000 408.552
28.95000 406.491
28.96000 408.538
28.97000 410.628
28.98000 409.810
28.99000 406.125
29.00000 402.494
29.01000 403.478
29.02000 407.440
29.03000 411.183
29.04000 409.424
29.05000 405.270
29.06000 401.365
29.07000 403.120
29.08000 406.244
29.09000 409.318
29.10000 412.031
29.11000 414.674
29.12000 416.549
29.13000 414.953
29.14000 412.935
29.15000 411.395
29.16000 410.260
29.17000 409.388
29.18000 407.698
29.19000 404.338
29.20000 400.928
29.21000 397.614
29.22000 394.432
29.23000 391.252
29.24000 392.046
29.25000 396.356
29.26000 400.654
29.27000 404.281
29.28000 407.515
29.29000 410.508
29.30000 408.528
29.31000 404.578
29.32000 400.903
29.33000 402.874
29.34000 406.019
29.35000 409.580
29.36000 415.762
29.37000 422.404
29.38000 426.155
29.39000 418.099
29.40000 408.776
29.41000 401.842
29.42000 410.877
29.43000 418.618
29.44000 420.124
29.45000 410.027
29.46000 399.668
29.47000 395.680
29.48000 399.591
29.49000 403.518
29.50000 405.374
29.51000 405.575
29.52000 405.817
29.53000 407.837
29.54000 410.805
29.55000 413.567
29.56000 412.800
29.57000 410.758
29.58000 408.879
29.59000 403.636
29.60000 398.222
29.61000 393.814
29.62000 395.098
29.63000 397.274
29.64000 398.949
29.65000 398.763
29.66000 398.404
29.67000 398.143
29.68000 401.438
29.69000 404.098
29.70000 403.357
29.71000 396.861
29.72000 390.272
29.73000 391.792
29.74000 402.375
29.75000 412.927
29.76000 416.224
29.77000 414.296
29.78000 412.425
29.79000 412.433
29.80000 413.353
29.81000 414.115
29.82000 412.590
29.83000 410.312
29.84000 408.244
29.85000 403.820
29.86000 399.456
29.87000 397.315
29.88000 406.483
29.89000 417.234
29.90000 425.554
29.91000 425.692
29.92000 425.164
29.93000 424.794
29.94000 425.464
29.95000 426.002
29.96000 421.470
29.97000 409.142
29.98000 396.728
29.99000 393.919
30.00000 400.750
30.01000 407.537
30.02000 414.526
30.03000 421.542
30.04000 428.131
30.05000 423.535
30.06000 413.998
30.07000 405.722
30.08000 413.122
30.09000 425.210
30.10000 436.044
30.11000 425.245
30.12000 412.072
30.13000 400.949
30.14000 399.238
30.15000 398.695
30.16000 399.272
30.17000 403.276
30.18000 407.518
30.19000 410.409
30.20000 412.121
30.21000 413.373
30.22000 415.525
30.23000 418.931
30.24000 422.343
30.25000 422.533
30.26000 419.819
30.27000 417.133
30.28000 415.100
30.29000 413.491
30.30000 412.020
30.31000 413.469
30.32000 416.093
30.33000 418.407
30.34000 417.394
30.35000 415.475
30.36000 413.781
30.37000 407.452
30.38000 401.275
30.39000 398.574
30.40000 410.305
30.41000 423.616
30.42000 432.335
30.43000 428.255
30.44000 423.418
30.45000 420.230
30.46000 418.645
30.47000 417.504
30.48000 415.505
30.49000 412.423
30.50000 409.334
30.51000 404.889
30.52000 399.342
30.53000 393.874
30.54000 396.272
30.55000 402.736
30.56000 408.790
30.57000 407.604
30.58000 403.763
30.59000 399.814
30.60000 394.857
30.61000 389.651
30.62000 385.123
30.63000 392.547
30.64000 400.510
30.65000 407.477
30.66000 410.690
30.67000 413.544
30.68000 414.265
30.69000 409.575
30.70000 404.618
30.71000 401.464
30.72000 405.127
30.73000 407.874
30.74000 410.076
30.75000 411.658
30.76000 413.240
30.77000 414.651
30.78000 415.939
30.79000 417.202
30.80000 414.315
30.81000 409.565
30.82000 405.533
30.83000 412.193
30.84000 422.422
30.85000 431.863
30.86000 434.770
30.87000 436.219
30.88000 437.459
30.89000 437.020
30.90000 436.449
30.91000 435.997
30.92000 435.953
30.93000 435.944
30.94000 438.968
30.95000 449.010
30.96000 459.334
30.97000 465.657
30.98000 456.368
30.99000 449.585
31.00000 450.592
31.01000 459.558
31.02000 468.548
31.03000 479.921
31.04000 492.878
31.05000 505.514
31.06000 522.738
31.07000 541.152
31.08000 558.616
31.09000 563.990
31.10000 565.691
31.11000 569.161
31.12000 585.619
31.13000 604.692
31.14000 620.717
31.15000 647.201
31.16000 670.369
31.17000 693.122
31.18000 714.585
31.19000 735.956
31.20000 763.108
31.21000 802.441
31.22000 842.164
31.23000 865.517
31.24000 920.826
31.25000 959.990
31.26000 995.725
31.27000 1028.316
31.28000 1061.011
31.29000 1100.590
31.30000 1144.328
31.31000 1186.694
31.32000 1212.814
31.33000 1231.247
31.34000 1250.052
31.35000 1272.971
31.36000 1297.024
31.37000 1318.669
31.38000 1324.555
31.39000 1327.583
31.40000 1330.079
31.41000 1352.204
31.42000 1372.221
31.43000 1380.792
31.44000 1356.980
31.45000 1331.202
31.46000 1313.323
31.47000 1310.599
31.48000 1308.250
31.49000 1306.928
31.50000 1261.191
31.51000 1229.321
31.52000 1193.955
31.53000 1155.702
31.54000 1117.505
31.55000 1082.015
31.56000 1048.013
31.57000 1015.322
31.58000 987.477
31.59000 963.079
31.60000 937.441
31.61000 899.889
31.62000 859.354
31.63000 820.405
31.64000 790.750
31.65000 762.605
31.66000 739.875
31.67000 715.815
31.68000 696.149
31.69000 677.391
31.70000 660.974
31.71000 644.676
31.72000 628.717
31.73000 613.351
31.74000 597.995
31.75000 589.755
31.76000 572.329
31.77000 560.408
31.78000 545.416
31.79000 528.135
31.80000 511.177
31.81000 505.833
31.82000 506.293
31.83000 506.732
31.84000 497.146
31.85000 485.104
31.86000 473.568
31.87000 466.319
31.88000 460.041
31.89000 453.898
31.90000 448.468
31.91000 443.142
31.92000 438.933
31.93000 450.820
31.94000 461.466
31.95000 463.827
31.96000 446.738
31.97000 428.839
31.98000 421.539
31.99000 431.050
32.00000 440.774
32.01000 445.731
32.02000 427.898
32.03000 415.960
32.04000 407.220
32.05000 400.643
32.06000 394.372
32.07000 396.717
32.08000 402.985
32.09000 408.907
32.10000 407.805
32.11000 404.806
32.12000 401.972
32.13000 400.384
32.14000 399.051
32.15000 397.522
32.16000 395.068
32.17000 392.494
32.18000 390.507
32.19000 395.025
32.20000 398.985
32.21000 401.948
32.22000 402.780
32.23000 403.540
32.24000 403.471
32.25000 402.208
32.26000 400.935
32.27000 395.726
32.28000 386.849
32.29000 378.084
32.30000 377.253
32.31000 381.291
32.32000 385.264
32.33000 387.780
32.34000 389.693
32.35000 391.482
32.36000 385.404
32.37000 377.881
32.38000 372.067
32.39000 377.630
32.40000 385.292
32.41000 391.026
32.42000 388.488
32.43000 385.007
32.44000 382.385
32.45000 384.264
32.46000 385.954
32.47000 384.957
32.48000 378.724
32.49000 372.356
32.50000 368.444
32.51000 367.733
32.52000 367.036
32.53000 366.320
32.54000 365.589
32.55000 364.993
32.56000 371.104
32.57000 380.956
32.58000 390.249
32.59000 389.081
32.60000 383.960
32.61000 379.223
32.62000 376.972
32.63000 375.518
32.64000 374.530
32.65000 376.321
32.66000 378.573
32.67000 379.256
32.68000 373.848
32.69000 367.830
32.70000 363.416
32.71000 364.059
32.72000 364.760
32.73000 365.387
32.74000 365.884
32.75000 366.378
32.76000 367.948
32.77000 370.783
32.78000 373.612
32.79000 370.210
32.80000 362.136
32.81000 354.362
32.82000 357.813
32.83000 366.960
32.84000 375.882
32.85000 381.257
32.86000 385.411
32.87000 389.207
32.88000 387.033
32.89000 383.881
32.90000 380.060
32.91000 372.662
32.92000 364.735
32.93000 360.524
32.94000 369.417
32.95000 379.453
32.96000 386.610
32.97000 376.329
32.98000 367.918
32.99000 364.115
33.00000 367.735
33.01000 371.456
33.02000 372.805
33.03000 371.645
33.04000 370.491
33.05000 367.677
33.06000 363.770
33.07000 359.682
33.08000 350.312
33.09000 338.501
33.10000 327.590
33.11000 328.714
33.12000 333.606
33.13000 338.020
33.14000 343.119
33.15000 347.722
33.16000 350.752
33.17000 346.193
33.18000 340.634
33.19000 337.909
33.20000 344.267
33.21000 351.308
33.22000 356.181
33.23000 353.375
33.24000 351.065
33.25000 348.285
33.26000 344.820
33.27000 341.349
33.28000 335.063
33.29000 326.107
33.30000 317.223
33.31000 323.506
33.32000 338.956
33.33000 353.646
33.34000 350.498
33.35000 339.840
33.36000 329.996
33.37000 329.541
33.38000 331.759
33.39000 333.731
33.40000 330.126
33.41000 326.086
33.42000 322.931
33.43000 323.625
33.44000 324.768
33.45000 325.930
33.46000 327.149
33.47000 328.372
33.48000 329.192
33.49000 333.295
33.50000 336.405
33.51000 339.961
33.52000 344.105
33.53000 348.238
33.54000 342.877
33.55000 329.407
33.56000 316.099
33.57000 315.758
33.58000 322.585
33.59000 329.248
33.60000 332.736
33.61000 335.007
33.62000 336.829
33.63000 334.154
33.64000 330.317
33.65000 326.954
33.66000 324.474
33.67000 322.473
33.68000 321.153
33.69000 322.519
33.70000 324.159
33.71000 326.102
33.72000 328.846
33.73000 331.633
33.74000 333.437
33.75000 327.262
33.76000 322.626
33.77000 321.600
33.78000 324.892
33.79000 328.181
33.80000 328.813
33.81000 327.398
33.82000 326.007
33.83000 324.430
33.84000 322.812
33.85000 321.301
33.86000 321.525
33.87000 322.354
33.88000 323.246
33.89000 324.692
33.90000 326.267
33.91000 327.625
33.92000 328.856
33.93000 329.885
33.94000 330.233
33.95000 328.143
33.96000 325.836
33.97000 324.999
33.98000 327.719
33.99000 330.598
34.00000 332.394
34.01000 327.475
34.02000 323.859
34.03000 321.109
34.04000 319.292
34.05000 317.497
34.06000 318.359
34.07000 321.076
34.08000 323.733
34.09000 321.112
34.10000 316.222
34.11000 312.156
34.12000 319.406
34.13000 330.254
34.14000 340.337
34.15000 344.462
34.16000 347.325
34.17000 349.753
34.18000 339.918
34.19000 330.297
34.20000 322.489
34.21000 320.582
34.22000 319.130
34.23000 316.206
34.24000 310.037
34.25000 303.752
34.26000 299.982
34.27000 308.055
34.28000 313.869
34.29000 319.190
34.30000 324.033
34.31000 328.804
34.32000 327.767
34.33000 323.054
34.34000 318.474
34.35000 323.414
34.36000 331.978
34.37000 339.696
34.38000 337.422
34.39000 332.259
34.40000 327.498
34.41000 325.520
34.42000 324.073
34.43000 322.869
34.44000 324.058
34.45000 325.277
34.46000 325.557
34.47000 323.056
34.48000 320.372
34.49000 319.668
34.50000 322.940
34.51000 326.324
34.52000 328.270
34.53000 319.468
34.54000 313.281
34.55000 315.936
34.56000 326.268
34.57000 336.394
34.58000 335.008
34.59000 327.002
34.60000 319.276
34.61000 315.714
34.62000 313.887
34.63000 312.527
34.64000 315.958
34.65000 320.647
34.66000 324.162
34.67000 320.428
34.68000 315.451
34.69000 311.390
34.70000 312.641
34.71000 314.118
34.72000 315.750
34.73000 317.794
34.74000 319.862
34.75000 320.000
34.76000 316.609
34.77000 313.143
34.78000 311.239
34.79000 310.415
34.80000 309.857
34.81000 311.354
34.82000 314.460
34.83000 317.463
34.84000 316.246
34.85000 312.820
34.86000 309.540
34.87000 313.457
34.88000 319.489
34.89000 324.574
34.90000 321.156
34.91000 315.715
34.92000 311.106
34.93000 311.105
34.94000 311.812
34.95000 312.376
34.96000 312.500
34.97000 312.567
34.98000 313.747
34.99000 317.659
35.00000 321.696
35.01000 323.352
35.02000 321.052
35.03000 318.691
35.04000 317.456
35.05000 310.200
35.06000 305.344
35.07000 308.494
35.08000 317.320
35.09000 325.825
35.10000 324.235
35.11000 317.835
35.12000 311.762
35.13000 306.604
35.14000 302.117
35.15000 299.044
35.16000 307.183
35.17000 317.736
35.18000 324.665
35.19000 313.526
35.20000 299.916
35.21000 289.286
35.22000 298.494
35.23000 307.089
35.24000 311.932
35.25000 308.379
35.26000 304.512
35.27000 301.883
35.28000 301.121
35.29000 300.379
35.30000 299.357
35.31000 298.063
35.32000 296.804
35.33000 298.683
35.34000 302.577
35.35000 306.443
35.36000 309.610
35.37000 312.472
35.38000 315.162
35.39000 319.153
35.40000 323.144
35.41000 325.764
35.42000 318.721
35.43000 309.802
35.44000 303.150
35.45000 306.697
35.46000 311.482
35.47000 315.130
35.48000 312.872
35.49000 310.779
35.50000 310.224
35.51000 312.805
35.52000 315.479
35.53000 315.227
35.54000 310.977
35.55000 306.704
35.56000 307.022
35.57000 311.388
35.58000 315.665
35.59000 314.729
35.60000 310.749
35.61000 306.954
35.62000 306.932
35.63000 308.402
35.64000 309.769
35.65000 311.742
35.66000 313.669
35.67000 315.026
35.68000 312.798
35.69000 309.945
35.70000 307.091
35.71000 304.229
35.72000 301.366
35.73000 299.239
35.74000 297.775
35.75000 296.667
35.76000 297.900
35.77000 303.479
35.78000 309.154
35.79000 313.612
35.80000 316.563
35.81000 319.505
35.82000 318.251
35.83000 313.676
35.84000 309.093
35.85000 304.213
35.86000 299.176
35.87000 294.525
35.88000 296.466
35.89000 300.783
35.90000 304.751
35.91000 299.970
35.92000 293.811
35.93000 289.402
35.94000 294.849
35.95000 301.837
35.96000 306.893
35.97000 304.809
35.98000 302.060
35.99000 300.071
36.00000 307.360
36.01000 313.291
36.02000 315.375
36.03000 310.968
36.04000 306.455
36.05000 302.735
36.06000 299.899
36.07000 297.074
36.08000 297.585
36.09000 300.473
36.10000 303.236
36.11000 301.896
36.12000 298.572
36.13000 295.873
36.14000 302.202
36.15000 311.489
36.16000 319.922
36.17000 313.466
36.18000 304.888
36.19000 297.486
36.20000 296.049
36.21000 295.443
36.22000 295.769
36.23000 299.221
36.24000 302.926
36.25000 305.528
36.26000 316.261
36.27000 324.626
36.28000 326.330
36.29000 317.825
36.30000 309.209
36.31000 303.328
36.32000 300.186
36.33000 297.064
36.34000 294.926
36.35000 293.454
36.36000 292.072
36.37000 293.030
36.38000 295.018
36.39000 296.661
36.40000 294.023
36.41000 290.109
36.42000 286.602
36.43000 291.318
36.44000 296.854
36.45000 301.385
36.46000 301.325
36.47000 300.698
36.48000 299.726
36.49000 297.703
36.50000 295.608
36.51000 294.182
36.52000 283.322
36.53000 274.994
36.54000 270.730
36.55000 272.113
36.56000 273.531
36.57000 272.362
36.58000 268.869
36.59000 265.410
36.60000 267.891
36.61000 273.764
36.62000 279.526
36.63000 282.926
36.64000 285.377
36.65000 287.622
36.66000 287.651
36.67000 287.081
36.68000 286.577
36.69000 286.503
36.70000 286.506
36.71000 287.143
36.72000 290.409
36.73000 293.962
36.74000 295.876
36.75000 293.237
36.76000 290.330
36.77000 288.415
36.78000 280.327
36.79000 274.261
36.80000 273.478
36.81000 279.333
36.82000 285.193
36.83000 284.884
36.84000 279.582
36.85000 274.355
36.86000 274.053
36.87000 276.340
36.88000 278.781
36.89000 283.925
36.90000 290.058
36.91000 295.173
36.92000 290.747
36.93000 283.976
36.94000 278.091
36.95000 286.035
36.96000 294.690
36.97000 300.860
36.98000 297.707
36.99000 293.664
37.00000 290.980
37.01000 291.735
37.02000 292.658
37.03000 293.244
37.04000 304.709
37.05000 313.171
37.06000 313.457
37.07000 304.478
37.08000 295.518
37.09000 291.340
37.10000 290.661
37.11000 289.995
37.12000 290.444
37.13000 291.403
37.14000 292.032
37.15000 287.780
37.16000 281.903
37.17000 277.368
37.18000 283.913
37.19000 292.921
37.20000 300.622
37.21000 299.258
37.22000 297.023
37.23000 294.353
37.24000 290.201
37.25000 285.926
37.26000 285.570
37.27000 294.250
37.28000 303.292
37.29000 308.823
37.30000 299.289
37.31000 292.340
37.32000 291.128
37.33000 295.756
37.34000 300.317
37.35000 298.188
37.36000 291.621
37.37000 285.219
37.38000 284.764
37.39000 286.869
37.40000 288.730
37.41000 287.483
37.42000 285.296
37.43000 282.795
37.44000 277.998
37.45000 272.740
37.46000 268.325
37.47000 269.783
37.48000 271.615
37.49000 274.726
37.50000 281.803
37.51000 289.162
37.52000 293.790
37.53000 292.678
37.54000 291.384
37.55000 290.624
37.56000 294.850
37.57000 297.852
37.58000 298.228
37.59000 296.203
37.60000 294.192
37.61000 293.123
37.62000 292.620
37.63000 292.133
37.64000 291.740
37.65000 291.405
37.66000 290.948
37.67000 289.155
37.68000 286.993
37.69000 284.779
37.70000 282.224
37.71000 279.607
37.72000 277.451
37.73000 279.843
37.74000 282.229
37.75000 283.644
37.76000 282.322
37.77000 280.835
37.78000 279.684
37.79000 279.177
37.80000 278.685
37.81000 278.409
37.82000 279.491
37.83000 280.251
37.84000 283.241
37.85000 288.067
37.86000 292.828
37.87000 294.507
37.88000 294.496
37.89000 294.486
37.90000 287.229
37.91000 277.911
37.92000 269.430
37.93000 268.955
37.94000 270.477
37.95000 272.719
37.96000 279.152
37.97000 286.265
37.98000 292.007
37.99000 288.657
38.00000 285.215
38.01000 282.931
38.02000 283.627
38.03000 284.473
38.04000 286.566
38.05000 290.829
38.06000 295.131
38.07000 297.436
38.08000 292.591
38.09000 289.298
38.10000 289.498
38.11000 292.297
38.12000 295.018
38.13000 294.983
38.14000 293.573
38.15000 292.230
38.16000 290.521
38.17000 288.823
38.18000 287.564
38.19000 290.007
38.20000 293.288
38.21000 295.693
38.22000 293.507
38.23000 290.656
38.24000 288.405
38.25000 295.186
38.26000 301.243
38.27000 304.769
38.28000 302.367
38.29000 299.719
38.30000 296.281
38.31000 291.592
38.32000 286.887
38.33000 284.493
38.34000 298.561
38.35000 307.971
38.36000 314.614
38.37000 319.392
38.38000 324.087
38.39000 326.483
38.40000 327.834
38.41000 329.110
38.42000 336.491
38.43000 344.987
38.44000 352.515
38.45000 352.822
38.46000 351.655
38.47000 352.790
38.48000 364.815
38.49000 378.241
38.50000 388.600
38.51000 409.896
38.52000 427.405
38.53000 441.439
38.54000 448.059
38.55000 454.433
38.56000 469.128
38.57000 495.759
38.58000 522.479
38.59000 539.867
38.60000 548.575
38.61000 557.395
38.62000 574.086
38.63000 595.591
38.64000 616.997
38.65000 636.184
38.66000 654.453
38.67000 671.532
38.68000 680.440
38.69000 686.454
38.70000 694.069
38.71000 712.315
38.72000 732.515
38.73000 748.789
38.74000 748.282
38.75000 745.866
38.76000 744.048
38.77000 727.469
38.78000 713.781
38.79000 700.029
38.80000 686.155
38.81000 672.278
38.82000 655.606
38.83000 635.306
38.84000 615.011
38.85000 597.773
38.86000 583.135
38.87000 568.411
38.88000 549.411
38.89000 528.033
38.90000 506.699
38.91000 486.164
38.92000 465.930
38.93000 447.221
38.94000 438.081
38.95000 432.053
38.96000 424.759
38.97000 409.953
38.98000 393.907
38.99000 378.715
39.00000 366.831
39.01000 355.278
39.02000 346.809
39.03000 339.336
39.04000 333.604
39.05000 327.283
39.06000 319.921
39.07000 312.539
39.08000 306.589
39.09000 302.318
39.10000 298.060
39.11000 292.278
39.12000 285.390
39.13000 278.614
39.14000 276.027
39.15000 275.561
39.16000 275.183
39.17000 276.209
39.18000 277.716
39.19000 279.092
39.20000 276.357
39.21000 273.088
39.22000 270.370
39.23000 270.584
39.24000 271.231
39.25000 272.384
39.26000 275.314
39.27000 278.398
39.28000 280.596
39.29000 269.278
39.30000 260.211
39.31000 254.842
39.32000 255.414
39.33000 256.065
39.34000 257.831
39.35000 260.773
39.36000 263.700
39.37000 265.324
39.38000 266.048
39.39000 266.665
39.40000 264.196
39.41000 260.306
39.42000 256.708
39.43000 257.014
39.44000 258.538
39.45000 259.913
39.46000 263.014
39.47000 266.052
39.48000 268.014
39.49000 264.811
39.50000 260.929
39.51000 258.653
39.52000 261.506
39.53000 264.743
39.54000 266.981
39.55000 266.924
39.56000 266.822
39.57000 264.607
39.58000 259.312
39.59000 253.992
39.60000 255.260
39.61000 262.761
39.62000 270.199
39.63000 273.069
39.64000 273.098
39.65000 273.180
39.66000 274.476
39.67000 276.282
39.68000 277.737
39.69000 275.164
39.70000 271.447
39.71000 268.141
39.72000 261.456
39.73000 255.105
39.74000 251.820
39.75000 261.858
39.76000 273.442
39.77000 279.130
39.78000 267.671
39.79000 255.118
39.80000 246.715
39.81000 258.047
39.82000 266.844
39.83000 271.457
39.84000 270.547
39.85000 269.607
39.86000 265.706
39.87000 259.285
39.88000 252.941
39.89000 251.722
39.90000 253.356
39.91000 255.043
39.92000 257.765
39.93000 260.883
39.94000 263.796
39.95000 264.655
39.96000 264.984
39.97000 265.273
39.98000 262.222
39.99000 259.123
40.00000 255.943
40.01000 252.442
40.02000 248.908
40.03000 246.414
40.04000 246.676
40.05000 247.086
40.06000 247.351
40.07000 252.229
40.08000 255.864
40.09000 258.096
40.10000 258.654
40.11000 259.208
40.12000 259.331
40.13000 259.122
40.14000 258.916
40.15000 257.567
40.16000 255.693
40.17000 253.968
40.18000 254.624
40.19000 256.110
40.20000 257.352
40.21000 256.459
40.22000 255.068
40.23000 253.869
40.24000 254.290
40.25000 254.853
40.26000 254.490
40.27000 250.819
40.28000 246.855
40.29000 243.762
40.30000 242.776
40.31000 241.882
40.32000 241.326
40.33000 247.916
40.34000 252.739
40.35000 253.125
40.36000 248.749
40.37000 244.402
40.38000 243.924
40.39000 246.137
40.40000 248.301
40.41000 245.665
40.42000 240.985
40.43000 236.665
40.44000 237.268
40.45000 239.434
40.46000 242.223
40.47000 249.849
40.48000 258.496
40.49000 265.821
40.50000 255.958
40.51000 245.770
40.52000 238.062
40.53000 238.399
40.54000 239.354
40.55000 241.060
40.56000 244.416
40.57000 247.832
40.58000 249.878
40.59000 254.170
40.60000 257.231
40.61000 257.424
40.62000 254.855
40.63000 252.259
40.64000 247.501
40.65000 241.381
40.66000 235.433
40.67000 237.384
40.68000 242.437
40.69000 246.783
40.70000 242.836
40.71000 236.497
40.72000 231.796
40.73000 238.381
40.74000 247.114
40.75000 254.377
40.76000 253.116
40.77000 251.237
40.78000 249.278
40.79000 247.081
40.80000 244.869
40.81000 242.484
40.82000 239.752
40.83000 237.012
40.84000 235.438
40.85000 238.327
40.86000 240.363
40.87000 241.645
40.88000 242.275
40.89000 242.906
40.90000 243.604
40.91000 244.341
40.92000 245.053
40.93000 246.495
40.94000 248.120
40.95000 249.523
40.96000 248.657
40.97000 247.198
40.98000 245.926
40.99000 245.810
41.00000 245.892
41.01000 245.958
41.02000 240.218
41.03000 235.031
41.04000 232.019
41.05000 234.855
41.06000 238.014
41.07000 241.607
41.08000 245.993
41.09000 250.396
41.10000 252.810
41.11000 249.481
41.12000 247.186
41.13000 245.931
41.14000 245.489
41.15000 244.909
41.16000 238.710
41.17000 229.581
41.18000 220.843
41.19000 231.947
41.20000 248.833
41.21000 263.672
41.22000 260.174
41.23000 252.326
41.24000 244.510
41.25000 236.871
41.26000 229.261
41.27000 223.185
41.28000 226.982
41.29000 230.773
41.30000 233.465
41.31000 233.466
41.32000 233.343
41.33000 233.827
41.34000 235.316
41.35000 236.819
41.36000 237.604
41.37000 242.429
41.38000 245.665
41.39000 244.979
41.40000 241.520
41.41000 238.155
41.42000 237.748
41.43000 238.745
41.44000 239.692
41.45000 238.149
41.46000 235.988
41.47000 234.511
41.48000 238.455
41.49000 243.560
41.50000 247.235
41.51000 243.796
41.52000 239.388
41.53000 235.947
41.54000 234.503
41.55000 233.477
41.56000 232.472
41.57000 231.517
41.58000 230.563
41.59000 231.923
41.60000 236.766
41.61000 241.644
41.62000 243.321
41.63000 241.862
41.64000 240.387
41.65000 237.628
41.66000 234.045
41.67000 230.614
41.68000 231.002
41.69000 233.042
41.70000 234.958
41.71000 234.119
41.72000 232.617
41.73000 231.297
41.74000 231.261
41.75000 231.472
41.76000 231.270
41.77000 229.214
41.78000 226.934
41.79000 225.197
41.80000 229.693
41.81000 233.562
41.82000 236.526
41.83000 237.647
41.84000 238.715
41.85000 236.172
41.86000 228.705
41.87000 221.214
41.88000 221.836
41.89000 229.588
41.90000 237.274
41.91000 241.037
41.92000 242.518
41.93000 243.889
41.94000 243.029
41.95000 241.289
41.96000 239.672
41.97000 238.001
41.98000 236.479
41.99000 235.653
42.00000 239.184
42.01000 243.472
42.02000 246.492
42.03000 244.361
42.04000 241.682
42.05000 239.692
42.06000 240.723
42.07000 241.658
42.08000 241.380
42.09000 238.857
42.10000 236.285
42.11000 233.239
42.12000 229.610
42.13000 225.986
42.14000 227.067
42.15000 231.862
42.16000 236.492
42.17000 234.146
42.18000 228.106
42.19000 222.421
42.20000 222.783
42.21000 225.316
42.22000 227.644
42.23000 230.142
42.24000 232.409
42.25000 234.015
42.26000 231.908
42.27000 229.223
42.28000 227.676
42.29000 230.323
42.30000 233.359
42.31000 235.554
42.32000 230.812
42.33000 226.924
42.34000 225.916
42.35000 229.755
42.36000 233.672
42.37000 235.382
42.38000 234.640
42.39000 233.900
42.40000 232.543
42.41000 230.760
42.42000 229.106
42.43000 231.647
42.44000 236.211
42.45000 240.361
42.46000 238.571
42.47000 234.839
42.48000 231.452
42.49000 223.875
42.50000 216.379
42.51000 212.131
42.52000 224.304
42.53000 238.758
42.54000 248.556
42.55000 242.771
42.56000 235.731
42.57000 230.791
42.58000 227.108
42.59000 224.356
42.60000 223.123
42.61000 224.209
42.62000 225.321
42.63000 226.562
42.64000 227.932
42.65000 229.293
42.66000 231.327
42.67000 233.762
42.68000 236.048
42.69000 234.482
42.70000 231.224
42.71000 227.823
42.72000 222.656
42.73000 216.964
42.74000 211.867
42.75000 214.454
42.76000 218.033
42.77000 221.671
42.78000 225.585
42.79000 229.532
42.80000 231.984
42.81000 229.885
42.82000 227.471
42.83000 225.829
42.84000 228.407
42.85000 230.428
42.86000 230.361
42.87000 227.403
42.88000 224.427
42.89000 221.432
42.90000 218.421
42.91000 215.440
42.92000 216.681
42.93000 220.337
42.94000 223.921
42.95000 225.984
42.96000 227.438
42.97000 228.503
42.98000 225.408
42.99000 221.189
43.00000 217.466
43.01000 216.206
43.02000 215.495
43.03000 215.414
43.04000 217.929
43.05000 220.727
43.06000 222.413
43.07000 221.018
43.08000 219.443
43.09000 218.407
43.10000 220.151
43.11000 221.482
43.12000 223.899
43.13000 227.676
43.14000 231.444
43.15000 230.651
43.16000 226.177
43.17000 221.767
43.18000 219.705
43.19000 218.931
43.20000 218.308
43.21000 220.350
43.22000 223.362
43.23000 226.252
43.24000 227.993
43.25000 229.453
43.26000 230.721
43.27000 225.059
43.28000 219.293
43.29000 215.268
43.30000 217.755
43.31000 220.863
43.32000 222.399
43.33000 219.968
43.34000 217.345
43.35000 215.680
43.36000 215.024
43.37000 214.560
43.38000 215.361
43.39000 217.589
43.40000 219.802
43.41000 219.322
43.42000 216.876
43.43000 214.478
43.44000 211.275
43.45000 207.812
43.46000 204.807
43.47000 208.557
43.48000 214.549
43.49000 220.321
43.50000 224.278
43.51000 227.833
43.52000 230.870
43.53000 227.383
43.54000 223.667
43.55000 221.204
43.56000 222.999
43.57000 225.147
43.58000 225.667
43.59000 222.446
43.60000 219.077
43.61000 217.018
43.62000 215.876
43.63000 215.067
43.64000 216.579
43.65000 220.448
43.66000 224.265
43.67000 223.011
43.68000 218.403
43.69000 213.911
43.70000 214.393
43.71000 216.970
43.72000 219.385
43.73000 219.754
43.74000 219.505
43.75000 219.090
43.76000 217.463
43.77000 215.593
43.78000 214.023
43.79000 214.776
43.80000 215.646
43.81000 217.600
43.82000 222.905
43.83000 228.447
43.84000 229.560
43.85000 221.395
43.86000 212.936
43.87000 207.976
43.88000 206.490
43.89000 205.462
43.90000 209.375
43.91000 217.789
43.92000 226.060
43.93000 225.016
43.94000 218.377
43.95000 211.949
43.96000 210.703
43.97000 211.516
43.98000 212.266
43.99000 212.329
44.00000 212.203
44.01000 212.349
44.02000 214.261
44.03000 216.491
44.04000 218.328
44.05000 212.348
44.06000 206.717
44.07000 203.660
44.08000 207.843
44.09000 212.461
44.10000 216.087
44.11000 217.818
44.12000 219.503
44.13000 220.448
44.14000 217.066
44.15000 214.712
44.16000 213.449
44.17000 213.080
44.18000 212.713
44.19000 212.406
44.20000 212.133
44.21000 211.870
44.22000 210.077
44.23000 207.866
44.24000 205.785
44.25000 204.932
44.26000 204.385
44.27000 205.006
44.28000 212.426
44.29000 220.944
44.30000 227.815
44.31000 225.822
44.32000 223.503
44.33000 223.359
44.34000 228.788
44.35000 234.496
44.36000 234.859
44.37000 225.944
44.38000 216.864
44.39000 212.006
44.40000 211.667
44.41000 211.442
44.42000 211.701
44.43000 212.320
44.44000 212.974
44.45000 214.910
44.46000 217.483
44.47000 219.934
44.48000 218.551
44.49000 216.070
44.50000 213.746
44.51000 212.734
44.52000 212.018
44.53000 212.145
44.54000 216.683
44.55000 221.857
44.56000 225.941
44.57000 225.642
44.58000 225.106
44.59000 224.823
44.60000 225.134
44.61000 225.469
44.62000 224.113
44.63000 220.089
44.64000 216.033
44.65000 213.971
44.66000 216.222
44.67000 217.746
44.68000 220.807
44.69000 224.900
44.70000 228.735
44.71000 225.406
44.72000 218.833
44.73000 212.627
44.74000 212.910
44.75000 214.993
44.76000 217.047
44.77000 218.881
44.78000 220.669
44.79000 222.573
44.80000 225.023
44.81000 227.544
44.82000 229.487
44.83000 226.113
44.84000 223.134
44.85000 222.441
44.86000 226.609
44.87000 230.937
44.88000 230.852
44.89000 224.455
44.90000 218.010
44.91000 216.874
44.92000 220.656
44.93000 224.396
44.94000 225.230
44.95000 224.292
44.96000 223.522
44.97000 226.516
44.98000 231.061
44.99000 235.310
45.00000 236.779
45.01000 237.410
45.02000 237.668
45.03000 235.460
45.04000 232.800
45.05000 231.212
45.06000 234.192
45.07000 237.689
45.08000 240.319
45.09000 242.149
45.10000 243.542
45.11000 244.321
45.12000 243.911
45.13000 243.472
45.14000 244.012
45.15000 245.820
45.16000 247.631
45.17000 251.664
45.18000 257.533
45.19000 263.271
45.20000 262.568
45.21000 258.294
45.22000 254.119
45.23000 251.757
45.24000 250.078
45.25000 248.526
45.26000 246.770
45.27000 245.147
45.28000 244.328
45.29000 248.270
45.30000 252.995
45.31000 256.286
45.32000 254.041
45.33000 251.245
45.34000 249.198
45.35000 250.468
45.36000 251.580
45.37000 252.314
45.38000 252.381
45.39000 252.436
45.40000 254.806
45.41000 259.881
45.42000 264.946
45.43000 265.347
45.44000 262.253
45.45000 259.139
45.46000 255.302
45.47000 251.099
45.48000 247.229
45.49000 248.520
45.50000 251.577
45.51000 254.369
45.52000 253.068
45.53000 251.081
45.54000 248.926
45.55000 245.879
45.56000 242.700
45.57000 240.158
45.58000 239.849
45.59000 239.732
45.60000 239.649
45.61000 243.997
45.62000 247.453
45.63000 247.065
45.64000 240.520
45.65000 233.894
45.66000 232.243
45.67000 235.822
45.68000 239.383
45.69000 240.128
45.70000 238.964
45.71000 237.765
45.72000 235.572
45.73000 232.923
45.74000 230.686
45.75000 233.926
45.76000 238.870
45.77000 243.328
45.78000 235.710
45.79000 226.831
45.80000 219.768
45.81000 221.408
45.82000 224.185
45.83000 226.772
45.84000 228.754
45.85000 230.691
45.86000 232.029
45.87000 226.295
45.88000 221.804
45.89000 218.477
45.90000 216.839
45.91000 215.217
45.92000 216.376
45.93000 220.160
45.94000 223.912
45.95000 221.415
45.96000 215.163
45.97000 209.301
45.98000 212.479
45.99000 219.442
46.00000 225.803
46.01000 225.284
46.02000 222.818
46.03000 220.626
46.04000 223.703
46.05000 227.226
46.06000 229.008
46.07000 223.250
46.08000 216.620
46.09000 212.011
46.10000 213.260
46.11000 214.880
46.12000 215.964
46.13000 219.697
46.14000 222.516
46.15000 222.401
46.16000 218.423
46.17000 214.424
46.18000 208.338
46.19000 200.482
46.20000 192.721
46.21000 193.026
46.22000 197.749
46.23000 202.243
46.24000 202.382
46.25000 200.860
46.26000 200.016
46.27000 205.933
46.28000 213.587
46.29000 220.288
46.30000 211.733
46.31000 202.206
46.32000 194.899
46.33000 196.297
46.34000 198.580
46.35000 199.466
46.36000 196.667
46.37000 193.670
46.38000 191.735
46.39000 193.050
46.40000 194.059
46.41000 197.209
46.42000 202.904
46.43000 208.588
46.44000 210.734
46.45000 210.169
46.46000 209.613
46.47000 207.427
46.48000 204.505
46.49000 202.016
46.50000 206.435
46.51000 213.255
46.52000 219.138
46.53000 216.835
46.54000 212.626
46.55000 209.000
46.56000 204.369
46.57000 200.316
46.58000 197.761
46.59000 200.537
46.60000 203.784
46.61000 206.410
46.62000 207.545
46.63000 208.614
46.64000 209.280
46.65000 209.292
46.66000 209.295
46.67000 208.222
46.68000 205.999
46.69000 203.776
46.70000 201.669
46.71000 199.642
46.72000 197.661
46.73000 200.450
46.74000 205.258
46.75000 209.424
46.76000 204.865
46.77000 197.547
46.78000 191.365
46.79000 193.960
46.80000 198.402
46.81000 202.163
46.82000 199.380
46.83000 196.320
46.84000 193.997
46.85000 194.056
46.86000 194.298
46.87000 193.494
46.88000 190.396
46.89000 187.218
46.90000 185.316
46.91000 194.376
46.92000 200.878
46.93000 205.350
46.94000 207.875
46.95000 210.325
46.96000 206.770
46.97000 199.438
46.98000 192.314
46.99000 190.513
47.00000 190.952
47.01000 191.314
47.02000 190.777
47.03000 189.983
47.04000 189.635
47.05000 192.357
47.06000 195.661
47.07000 198.407
47.08000 201.002
47.09000 203.133
47.10000 202.184
47.11000 192.161
47.12000 181.546
47.13000 175.770
47.14000 179.653
47.15000 183.805
47.16000 186.186
47.17000 198.343
47.18000 206.865
47.19000 208.789
47.20000 205.018
47.21000 201.278
47.22000 199.188
47.23000 198.042
47.24000 196.937
47.25000 197.026
47.26000 197.544
47.27000 197.926
47.28000 196.924
47.29000 195.559
47.30000 194.022
47.31000 191.422
47.32000 188.642
47.33000 186.376
47.34000 186.296
47.35000 186.416
47.36000 185.981
47.37000 184.058
47.38000 182.054
47.39000 180.295
47.40000 178.979
47.41000 177.674
47.42000 176.958
47.43000 184.834
47.44000 190.243
47.45000 190.455
47.46000 186.620
47.47000 182.887
47.48000 183.284
47.49000 185.828
47.50000 188.262
47.51000 189.977
47.52000 191.338
47.53000 192.819
47.54000 195.382
47.55000 198.199
47.56000 200.572
47.57000 200.496
47.58000 200.046
47.59000 199.687
47.60000 197.562
47.61000 195.718
47.62000 193.748
47.63000 191.473
47.64000 189.184
47.65000 187.282
47.66000 186.020
47.67000 184.767
47.68000 184.113
47.69000 184.810
47.70000 185.264
47.71000 183.438
47.72000 180.006
47.73000 176.679
47.74000 176.596
47.75000 178.051
47.76000 179.431
47.77000 176.575
47.78000 172.687
47.79000 169.825
47.80000 175.037
47.81000 181.976
47.82000 187.262
47.83000 184.357
47.84000 180.338
47.85000 177.204
47.86000 182.360
47.87000 186.986
47.88000 188.364
47.89000 182.512
47.90000 176.393
47.91000 176.085
47.92000 184.492
47.93000 192.984
47.94000 193.386
47.95000 185.889
47.96000 178.458
47.97000 176.580
47.98000 178.250
47.99000 179.819
48.00000 178.869
48.01000 176.832
48.02000 174.919
48.03000 172.141
48.04000 169.377
48.05000 167.337
48.06000 170.361
48.07000 174.362
48.08000 178.241
48.09000 181.578
48.10000 184.849
48.11000 187.339
48.12000 189.564
48.13000 191.302
48.14000 189.957
48.15000 182.363
48.16000 174.589
48.17000 171.976
48.18000 176.376
48.19000 180.813
48.20000 182.342
48.21000 181.320
48.22000 180.244
48.23000 176.136
48.24000 170.265
48.25000 164.650
48.26000 164.206
48.27000 165.795
48.28000 167.272
48.29000 170.713
48.30000 174.288
48.31000 177.115
48.32000 175.265
48.33000 172.603
48.34000 170.740
48.35000 172.106
48.36000 173.815
48.37000 175.083
48.38000 181.173
48.39000 186.115
48.40000 187.245
48.41000 181.340
48.42000 175.281
48.43000 173.402
48.44000 176.659
48.45000 179.924
48.46000 182.740
48.47000 185.187
48.48000 187.584
48.49000 187.821
48.50000 186.917
48.51000 185.962
48.52000 184.145
48.53000 182.020
48.54000 180.068
48.55000 179.509
48.56000 179.308
48.57000 179.288
48.58000 180.280
48.59000 181.430
48.60000 181.436
48.61000 177.244
48.62000 172.662
48.63000 169.355
48.64000 171.875
48.65000 174.016
48.66000 174.487
48.67000 172.154
48.68000 169.777
48.69000 170.056
48.70000 173.276
48.71000 176.486
48.72000 179.093
48.73000 181.248
48.74000 183.376
48.75000 184.600
48.76000 185.389
48.77000 186.087
48.78000 185.473
48.79000 184.432
48.80000 183.488
48.81000 179.595
48.82000 175.594
48.83000 171.769
48.84000 168.830
48.85000 166.014
48.86000 164.295
48.87000 166.240
48.88000 168.479
48.89000 170.049
48.90000 168.774
48.91000 167.728
48.92000 167.655
48.93000 169.064
48.94000 170.490
48.95000 171.493
48.96000 172.077
48.97000 172.657
48.98000 172.400
48.99000 171.612
49.00000 170.881
49.01000 171.628
49.02000 173.021
49.03000 174.287
49.04000 173.988
49.05000 173.225
49.06000 172.542
49.07000 176.788
49.08000 181.335
49.09000 185.110
49.10000 185.367
49.11000 185.193
49.12000 184.993
49.13000 184.718
49.14000 184.438
49.15000 184.248
49.16000 178.633
49.17000 174.320
49.18000 171.428
49.19000 170.498
49.20000 169.580
49.21000 168.837
49.22000 168.250
49.23000 167.669
49.24000 168.512
49.25000 170.157
49.26000 171.679
49.27000 170.614
49.28000 168.516
49.29000 166.706
49.30000 167.960
49.31000 170.040
49.32000 171.873
49.33000 176.719
49.34000 181.356
49.35000 184.029
49.36000 178.622
49.37000 172.339
49.38000 168.240
49.39000 170.174
49.40000 172.459
49.41000 173.960
49.42000 173.960
49.43000 173.935
49.44000 172.494
49.45000 169.285
49.46000 166.084
49.47000 167.723
49.48000 173.256
49.49000 178.708
49.50000 178.215
49.51000 174.641
49.52000 171.398
49.53000 173.904
49.54000 178.500
49.55000 182.289
49.56000 178.576
49.57000 173.030
49.58000 168.214
49.59000 169.825
49.60000 172.064
49.61000 173.415
49.62000 171.449
49.63000 169.168
49.64000 167.953
49.65000 169.419
49.66000 171.014
49.67000 172.026
49.68000 170.573
49.69000 169.490
49.70000 170.127
49.71000 172.704
49.72000 175.267
49.73000 175.217
49.74000 173.268
49.75000 171.356
49.76000 170.807
49.77000 170.918
49.78000 171.059
49.79000 171.645
49.80000 172.379
49.81000 172.763
49.82000 170.282
49.83000 167.167
49.84000 164.508
49.85000 171.798
49.86000 179.120
49.87000 183.462
49.88000 177.702
49.89000 171.112
49.90000 166.159
49.91000 164.959
49.92000 163.906
49.93000 163.264
49.94000 169.828
49.95000 174.580
49.96000 176.613
49.97000 175.894
49.98000 175.179
49.99000 174.716
50.00000 174.420
50.01000 174.131
50.02000 170.836
50.03000 166.416
50.04000 162.147
50.05000 159.771
50.06000 157.966
50.07000 156.970
50.08000 161.860
50.09000 167.925
50.10000 173.011
50.11000 171.329
50.12000 169.224
50.13000 168.573
50.14000 172.400
50.15000 176.543
50.16000 179.331
50.17000 179.287
50.18000 179.155
50.19000 179.078
50.20000 178.824
50.21000 178.646
50.22000 180.163
50.23000 183.221
50.24000 186.212
50.25000 184.919
50.26000 181.060
50.27000 177.325
50.28000 178.595
50.29000 181.712
50.30000 184.459
50.31000 183.187
50.32000 180.816
50.33000 178.682
50.34000 178.091
50.35000 177.776
50.36000 177.517
50.37000 172.745
50.38000 168.413
50.39000 165.702
50.40000 167.538
50.41000 169.646
50.42000 172.475
50.43000 176.675
50.44000 180.909
50.45000 183.280
50.46000 174.546
50.47000 168.479
50.48000 167.787
50.49000 171.494
50.50000 175.180
50.51000 177.920
50.52000 180.144
50.53000 182.281
50.54000 184.091
50.55000 185.672
50.56000 186.729
50.57000 182.801
50.58000 177.637
50.59000 173.385
50.60000 174.416
50.61000 176.298
50.62000 177.815
50.63000 176.752
50.64000 175.686
50.65000 176.240
50.66000 180.932
50.67000 185.831
50.68000 186.894
50.69000 181.320
50.70000 175.628
50.71000 172.588
50.72000 180.382
50.73000 185.703
50.74000 190.749
50.75000 195.592
50.76000 200.256
50.77000 198.642
50.78000 193.916
50.79000 189.413
50.80000 184.389
50.81000 179.572
50.82000 175.191
50.83000 174.456
50.84000 174.541
50.85000 174.485
50.86000 173.693
50.87000 172.796
50.88000 172.089
50.89000 177.184
50.90000 181.663
50.91000 185.128
50.92000 186.234
50.93000 187.244
50.94000 186.609
50.95000 183.388
50.96000 180.136
50.97000 178.486
50.98000 179.963
50.99000 180.939
51.00000 180.559
51.01000 179.271
51.02000 177.795
51.03000 171.149
51.04000 162.170
51.05000 153.695
51.06000 153.634
51.07000 155.938
51.08000 158.604
51.09000 163.956
51.10000 169.852
51.11000 174.353
51.12000 172.301
51.13000 169.412
51.14000 167.186
51.15000 171.059
51.16000 174.476
51.17000 175.509
51.18000 171.486
51.19000 167.298
51.20000 165.839
51.21000 168.274
51.22000 170.737
51.23000 171.409
51.24000 170.427
51.25000 169.459
51.26000 169.410
51.27000 169.919
51.28000 170.489
51.29000 172.403
51.30000 174.872
51.31000 177.177
51.32000 177.108
51.33000 176.446
51.34000 175.781
51.35000 175.100
51.36000 174.415
51.37000 173.552
51.38000 171.927
51.39000 170.217
51.40000 168.932
51.41000 166.185
51.42000 163.968
51.43000 161.348
51.44000 157.952
51.45000 154.537
51.46000 155.142
51.47000 160.936
51.48000 166.744
51.49000 168.403
51.50000 166.617
51.51000 164.840
51.52000 163.493
51.53000 162.383
51.54000 161.282
51.55000 160.337
51.56000 159.451
51.57000 158.632
51.58000 159.006
51.59000 159.611
51.60000 160.222
51.61000 160.870
51.62000 161.523
51.63000 162.267
51.64000 163.357
51.65000 164.482
51.66000 165.306
51.67000 167.048
51.68000 168.428
51.69000 170.056
51.70000 172.119
51.71000 174.190
51.72000 174.438
51.73000 172.565
51.74000 170.693
51.75000 168.036
51.76000 164.811
51.77000 161.624
51.78000 159.816
51.79000 158.703
51.80000 157.757
51.81000 159.391
51.82000 161.905
51.83000 164.200
51.84000 161.168
51.85000 157.398
51.86000 154.259
51.87000 154.468
51.88000 155.166
51.89000 155.827
51.90000 156.355
51.91000 156.872
51.92000 157.240
51.93000 154.926
51.94000 153.078
51.95000 152.792
51.96000 155.000
51.97000 157.240
51.98000 158.892
51.99000 159.928
52.00000 160.959
52.01000 162.385
52.02000 164.058
52.03000 165.587
52.04000 162.993
52.05000 158.510
52.06000 154.210
52.07000 152.317
52.08000 151.172
52.09000 150.141
52.10000 153.461
52.11000 157.162
52.12000 159.850
52.13000 157.701
52.14000 154.921
52.15000 152.621
52.16000 151.843
52.17000 151.179
52.18000 150.721
52.19000 156.261
52.20000 160.577
52.21000 163.285
52.22000 163.664
52.23000 164.023
52.24000 162.748
52.25000 159.937
52.26000 157.149
52.27000 155.791
52.28000 155.326
52.29000 155.031
52.30000 158.672
52.31000 163.957
52.32000 168.557
52.33000 165.366
52.34000 159.978
52.35000 155.190
52.36000 157.641
52.37000 160.933
52.38000 163.029
52.39000 159.966
52.40000 156.308
52.41000 153.207
52.42000 151.717
52.43000 150.327
52.44000 149.399
52.45000 158.828
52.46000 166.017
52.47000 169.033
52.48000 166.574
52.49000 164.090
52.50000 161.031
52.51000 157.488
52.52000 153.988
52.53000 152.913
52.54000 153.193
52.55000 153.641
52.56000 157.293
52.57000 162.164
52.58000 166.537
52.59000 165.978
52.60000 164.155
52.61000 162.560
52.62000 158.835
52.63000 155.338
52.64000 153.571
52.65000 158.572
52.66000 164.257
52.67000 166.416
52.68000 159.286
52.69000 151.664
52.70000 146.746
52.71000 153.868
52.72000 159.244
52.73000 160.228
52.74000 156.008
52.75000 151.794
52.76000 151.116
52.77000 153.139
52.78000 155.126
52.79000 155.734
52.80000 155.640
52.81000 155.496
52.82000 154.558
52.83000 153.346
52.84000 152.549
52.85000 155.377
52.86000 159.045
52.87000 162.203
52.88000 159.810
52.89000 157.081
52.90000 155.226
52.91000 156.476
52.92000 157.999
52.93000 158.937
52.94000 158.471
52.95000 157.944
52.96000 157.617
52.97000 156.331
52.98000 155.396
52.99000 154.068
53.00000 152.322
53.01000 150.599
53.02000 151.738
53.03000 154.855
53.04000 157.903
53.05000 156.651
53.06000 153.535
53.07000 150.732
53.08000 152.160
53.09000 154.922
53.10000 157.605
53.11000 159.680
53.12000 161.626
53.13000 163.274
53.14000 160.354
53.15000 157.402
53.16000 154.975
53.17000 154.237
53.18000 153.629
53.19000 153.378
53.20000 153.909
53.21000 154.468
53.22000 154.802
53.23000 150.101
53.24000 146.734
53.25000 146.715
53.26000 149.896
53.27000 153.072
53.28000 155.806
53.29000 158.263
53.30000 160.649
53.31000 158.942
53.32000 155.675
53.33000 152.536
53.34000 150.903
53.35000 149.701
53.36000 148.765
53.37000 149.652
53.38000 150.884
53.39000 151.907
53.40000 151.478
53.41000 150.981
53.42000 151.341
53.43000 154.212
53.44000 157.247
53.45000 158.038
53.46000 154.361
53.47000 150.561
53.48000 148.385
53.49000 151.670
53.50000 153.981
53.51000 154.674
53.52000 153.973
53.53000 153.270
53.54000 152.444
53.55000 151.548
53.56000 150.684
53.57000 155.143
53.58000 161.270
53.59000 166.570
53.60000 163.488
53.61000 158.225
53.62000 153.459
53.63000 151.739
53.64000 150.535
53.65000 149.556
53.66000 152.874
53.67000 155.948
53.68000 156.841
53.69000 151.906
53.70000 146.652
53.71000 144.671
53.72000 148.619
53.73000 152.690
53.74000 154.916
53.75000 152.712
53.76000 151.204
53.77000 153.036
53.78000 157.463
53.79000 161.737
53.80000 159.965
53.81000 155.058
53.82000 150.363
53.83000 147.381
53.84000 145.165
53.85000 143.804
53.86000 150.039
53.87000 158.067
53.88000 164.349
53.89000 161.056
53.90000 156.307
53.91000 152.522
53.92000 148.271
53.93000 144.807
53.94000 143.569
53.95000 147.752
53.96000 152.180
53.97000 154.427
53.98000 153.080
53.99000 151.680
54.00000 150.951
54.01000 161.293
54.02000 168.236
54.03000 168.847
54.04000 165.008
54.05000 161.227
54.06000 159.221
54.07000 158.052
54.08000 156.943
54.09000 154.694
54.10000 152.284
54.11000 150.324
54.12000 151.888
54.13000 154.204
54.14000 155.771
54.15000 153.640
54.16000 151.008
54.17000 148.957
54.18000 149.222
54.19000 149.577
54.20000 150.305
54.21000 151.858
54.22000 153.441
54.23000 152.423
54.24000 147.517
54.25000 142.572
54.26000 143.176
54.27000 149.180
54.28000 155.107
54.29000 154.625
54.30000 150.061
54.31000 145.625
54.32000 144.342
54.33000 144.416
54.34000 144.486
54.35000 146.834
54.36000 149.579
54.37000 151.884
54.38000 151.117
54.39000 149.760
54.40000 148.623
54.41000 148.469
54.42000 148.432
54.43000 148.404
54.44000 147.458
54.45000 146.665
54.46000 147.348
54.47000 151.011
54.48000 154.760
54.49000 156.407
54.50000 155.205
54.51000 153.989
54.52000 154.786
54.53000 157.342
54.54000 159.798
54.55000 156.597
54.56000 150.122
54.57000 144.092
54.58000 147.034
54.59000 153.493
54.60000 159.494
54.61000 161.833
54.62000 163.071
54.63000 163.578
54.64000 159.542
54.65000 154.721
54.66000 150.804
54.67000 150.536
54.68000 150.652
54.69000 150.739
54.70000 151.712
54.71000 152.507
54.72000 153.200
54.73000 153.705
54.74000 154.207
54.75000 153.138
54.76000 150.148
54.77000 147.158
54.78000 151.507
54.79000 161.598
54.80000 171.417
54.81000 169.912
54.82000 162.442
54.83000 155.136
54.84000 150.575
54.85000 146.994
54.86000 143.705
54.87000 148.357
54.88000 154.206
54.89000 158.644
54.90000 155.210
54.91000 150.557
54.92000 146.854
54.93000 146.632
54.94000 146.731
54.95000 146.802
54.96000 145.577
54.97000 144.592
54.98000 146.249
54.99000 152.327
55.00000 158.473
55.01000 160.061
55.02000 156.618
55.03000 153.185
55.04000 152.112
55.05000 152.718
55.06000 153.277
55.07000 152.329
55.08000 150.660
55.09000 149.026
55.10000 147.904
55.11000 146.948
55.12000 146.082
55.13000 146.578
55.14000 147.277
55.15000 148.191
55.16000 150.187
55.17000 152.333
55.18000 155.521
55.19000 162.178
55.20000 169.112
55.21000 173.969
55.22000 161.250
55.23000 151.128
55.24000 145.722
55.25000 147.479
55.26000 149.310
55.27000 153.853
55.28000 161.082
55.29000 168.262
55.30000 171.546
55.31000 172.295
55.32000 172.946
55.33000 171.085
55.34000 168.128
55.35000 165.116
55.36000 161.430
55.37000 157.546
55.38000 154.070
55.39000 158.325
55.40000 163.354
55.41000 168.382
55.42000 173.405
55.43000 178.427
55.44000 180.464
55.45000 173.463
55.46000 165.844
55.47000 160.672
55.48000 166.489
55.49000 171.073
55.50000 174.418
55.51000 176.058
55.52000 177.685
55.53000 176.996
55.54000 174.245
55.55000 171.524
55.56000 173.643
55.57000 178.499
55.58000 183.298
55.59000 186.933
55.60000 190.105
55.61000 193.086
55.62000 194.041
55.63000 194.451
55.64000 194.813
55.65000 201.274
55.66000 207.768
55.67000 214.153
55.68000 220.093
55.69000 225.985
55.70000 232.562
55.71000 241.028
55.72000 249.603
55.73000 255.233
55.74000 262.369
55.75000 267.644
55.76000 274.541
55.77000 283.456
55.78000 292.378
55.79000 301.441
55.80000 310.618
55.81000 319.660
55.82000 325.198
55.83000 328.755
55.84000 332.383
55.85000 337.247
55.86000 342.558
55.87000 348.959
55.88000 365.451
55.89000 384.399
55.90000 400.846
55.91000 391.831
55.92000 380.730
55.93000 373.796
55.94000 382.359
55.95000 392.384
55.96000 402.488
55.97000 412.790
55.98000 423.102
55.99000 429.632
56.00000 418.331
56.01000 409.921
56.02000 398.979
56.03000 385.195
56.04000 371.457
56.05000 365.493
56.06000 365.167
56.07000 364.848
56.08000 363.588
56.09000 361.934
56.10000 359.727
56.11000 349.438
56.12000 336.483
56.13000 324.676
56.14000 322.241
56.15000 321.871
56.16000 321.555
56.17000 313.332
56.18000 305.473
56.19000 297.415
56.20000 288.686
56.21000 279.902
56.22000 273.370
56.23000 271.988
56.24000 270.809
56.25000 270.090
56.26000 258.672
56.27000 250.427
56.28000 247.579
56.29000 250.172
56.30000 252.639
56.31000 243.040
56.32000 225.508
56.33000 208.425
56.34000 199.761
56.35000 195.058
56.36000 190.621
56.37000 189.506
56.38000 189.389
56.39000 189.385
56.40000 190.198
56.41000 191.174
56.42000 191.992
56.43000 187.295
56.44000 182.816
56.45000 178.559
56.46000 174.986
56.47000 171.461
56.48000 169.177
56.49000 169.476
56.50000 169.855
56.51000 170.077
56.52000 168.134
56.53000 166.756
56.54000 165.387
56.55000 164.027
56.56000 162.673
56.57000 161.698
56.58000 160.950
56.59000 160.226
56.60000 160.632
56.61000 161.448
56.62000 162.061
56.63000 160.493
56.64000 158.330
56.65000 156.946
56.66000 160.589
56.67000 165.133
56.68000 168.869
56.69000 162.298
56.70000 155.966
56.71000 151.506
56.72000 152.285
56.73000 153.375
56.74000 153.403
56.75000 151.415
56.76000 149.380
56.77000 148.241
56.78000 149.325
56.79000 150.079
56.80000 150.194
56.81000 149.786
56.82000 149.416
56.83000 150.804
56.84000 153.146
56.85000 155.395
56.86000 154.922
56.87000 153.542
56.88000 152.248
56.89000 151.772
56.90000 151.497
56.91000 151.524
56.92000 153.292
56.93000 155.340
56.94000 156.989
56.95000 156.089
56.96000 155.159
56.97000 153.775
56.98000 151.238
56.99000 148.643
57.00000 146.243
57.01000 144.177
57.02000 142.118
57.03000 141.020
57.04000 140.139
57.05000 139.552
57.06000 141.205
57.07000 144.509
57.08000 147.704
57.09000 147.100
57.10000 144.619
57.11000 142.256
57.12000 143.065
57.13000 144.799
57.14000 146.180
57.15000 144.615
57.16000 142.391
57.17000 140.139
57.18000 137.747
57.19000 135.334
57.20000 133.432
57.21000 137.813
57.22000 141.748
57.23000 144.990
57.24000 146.626
57.25000 148.197
57.26000 150.674
57.27000 154.572
57.28000 158.487
57.29000 160.470
57.30000 147.995
57.31000 139.692
57.32000 136.508
57.33000 136.743
57.34000 137.065
57.35000 139.772
57.36000 143.552
57.37000 147.120
57.38000 142.873
57.39000 136.796
57.40000 131.727
57.41000 134.091
57.42000 137.959
57.43000 140.546
57.44000 137.132
57.45000 132.956
57.46000 129.740
57.47000 133.272
57.48000 136.452
57.49000 137.770
57.50000 135.149
57.51000 132.401
57.52000 131.355
57.53000 132.728
57.54000 134.118
57.55000 137.372
57.56000 142.339
57.57000 147.260
57.58000 149.081
57.59000 149.021
57.60000 148.738
57.61000 143.539
57.62000 136.323
57.63000 129.583
57.64000 133.888
57.65000 140.567
57.66000 146.499
57.67000 147.519
57.68000 147.644
57.69000 146.994
57.70000 143.061
57.71000 138.759
57.72000 135.529
57.73000 137.544
57.74000 139.369
57.75000 140.834
57.76000 141.607
57.77000 142.361
57.78000 142.830
57.79000 142.928
57.80000 143.026
57.81000 141.448
57.82000 138.490
57.83000 135.649
57.84000 138.457
57.85000 144.379
57.86000 149.885
57.87000 147.766
57.88000 142.800
57.89000 138.212
57.90000 140.108
57.91000 143.270
57.92000 146.119
57.93000 147.124
57.94000 147.829
57.95000 148.459
57.96000 148.800
57.97000 149.113
57.98000 149.342
57.99000 142.864
58.00000 137.604
58.01000 136.345
58.02000 142.101
58.03000 147.987
58.04000 149.412
58.05000 145.658
58.06000 141.908
58.07000 139.542
58.08000 138.223
58.09000 137.009
58.10000 139.617
58.11000 144.142
58.12000 148.296
58.13000 146.738
58.14000 143.235
58.15000 140.039
58.16000 142.152
58.17000 145.098
58.18000 146.578
58.19000 140.313
58.20000 132.916
58.21000 127.777
58.22000 130.503
58.23000 133.903
58.24000 136.320
58.25000 133.406
58.26000 131.019
58.27000 129.518
58.28000 129.431
58.29000 129.363
58.30000 129.271
58.31000 129.156
58.32000 129.041
58.33000 128.636
58.34000 128.042
58.35000 127.493
58.36000 128.237
58.37000 129.572
58.38000 131.099
58.39000 135.157
58.40000 139.998
58.41000 144.358
58.42000 143.534
58.43000 141.877
58.44000 140.547
58.45000 140.776
58.46000 141.207
58.47000 141.214
58.48000 139.878
58.49000 138.442
58.50000 137.453
58.51000 134.737
58.52000 132.654
58.53000 132.615
58.54000 135.530
58.55000 138.468
58.56000 137.889
58.57000 134.015
58.58000 130.174
58.59000 129.813
58.60000 131.560
58.61000 133.291
58.62000 134.643
58.63000 135.837
58.64000 136.763
58.65000 134.661
58.66000 131.706
58.67000 129.081
58.68000 130.459
58.69000 132.295
58.70000 133.545
58.71000 132.269
58.72000 130.703
58.73000 130.464
58.74000 134.051
58.75000 137.879
58.76000 140.433
58.77000 137.616
58.78000 135.425
58.79000 134.623
58.80000 135.636
58.81000 136.653
58.82000 135.717
58.83000 133.133
58.84000 130.581
58.85000 129.271
58.86000 128.671
58.87000 128.232
58.88000 130.803
58.89000 134.516
58.90000 137.779
58.91000 136.600
58.92000 134.286
58.93000 132.262
58.94000 130.153
58.95000 128.335
58.96000 126.344
58.97000 123.679
58.98000 120.946
58.99000 121.620
59.00000 131.239
59.01000 141.329
59.02000 147.834
59.03000 143.236
59.04000 139.719
59.05000 138.349
59.06000 139.513
59.07000 140.672
59.08000 139.717
59.09000 137.153
59.10000 134.633
59.11000 133.524
59.12000 133.148
59.13000 132.755
59.14000 132.105
59.15000 131.367
59.16000 131.011
59.17000 133.975
59.18000 137.706
59.19000 140.917
59.20000 138.418
59.21000 135.583
59.22000 133.297
59.23000 132.953
59.24000 132.780
59.25000 133.622
59.26000 136.893
59.27000 140.269
59.28000 142.366
59.29000 141.663
59.30000 141.129
59.31000 138.384
59.32000 133.289
59.33000 128.247
59.34000 129.584
59.35000 135.318
59.36000 140.923
59.37000 139.872
59.38000 135.908
59.39000 132.128
59.40000 130.828
59.41000 130.309
59.42000 130.161
59.43000 132.865
59.44000 136.165
59.45000 138.956
59.46000 138.832
59.47000 138.406
59.48000 137.630
59.49000 135.727
59.50000 133.739
59.51000 131.708
59.52000 129.582
59.53000 127.453
59.54000 126.183
59.55000 129.167
59.56000 131.309
59.57000 133.070
59.58000 134.467
59.59000 135.840
59.60000 135.407
59.61000 133.845
59.62000 132.327
59.63000 132.672
59.64000 133.745
59.65000 134.724
59.66000 134.601
59.67000 134.163
59.68000 133.835
59.69000 134.255
59.70000 134.816
59.71000 135.282
59.72000 138.501
59.73000 141.429
59.74000 142.103
59.75000 136.180
59.76000 129.830
59.77000 125.147
59.78000 123.773
59.79000 122.490
59.80000 121.756
59.81000 127.907
59.82000 132.224
59.83000 135.651
59.84000 138.317
59.85000 140.920
59.86000 140.224
59.87000 137.652
59.88000 135.172
59.89000 133.353
59.90000 131.882
59.91000 130.209
59.92000 126.495
59.93000 122.251
59.94000 118.850
59.95000 120.580
59.96000 123.179
59.97000 125.295
59.98000 126.403
59.99000 127.223
60.00000 127.547
60.01000 126.547
60.02000 125.476
60.03000 126.880
60.04000 132.757
60.05000 138.725
60.06000 141.984
60.07000 132.604
60.08000 126.171
60.09000 126.860
60.10000 133.061
60.11000 139.138
60.12000 140.322
60.13000 138.974
60.14000 137.686
60.15000 133.212
60.16000 128.007
60.17000 123.926
60.18000 129.799
60.19000 138.011
60.20000 144.454
60.21000 141.218
60.22000 136.516
60.23000 132.770
60.24000 131.072
60.25000 129.851
60.26000 129.111
60.27000 129.537
60.28000 130.016
60.29000 131.162
60.30000 133.404
60.31000 135.663
60.32000 136.836
60.33000 132.022
60.34000 128.786
60.35000 127.843
60.36000 128.506
60.37000 129.183
60.38000 130.316
60.39000 131.664
60.40000 132.942
60.41000 134.595
60.42000 136.228
60.43000 137.668
60.44000 137.591
60.45000 137.193
60.46000 136.572
60.47000 134.855
60.48000 132.991
60.49000 131.539
60.50000 129.950
60.51000 128.676
60.52000 127.621
60.53000 127.051
60.54000 126.498
60.55000 127.456
60.56000 130.665
60.57000 133.895
60.58000 134.081
60.59000 131.313
60.60000 128.592
60.61000 129.641
60.62000 133.086
60.63000 136.452
60.64000 137.873
60.65000 138.461
60.66000 139.012
60.67000 136.604
60.68000 133.626
60.69000 131.102
60.70000 131.739
60.71000 132.982
60.72000 133.999
60.73000 134.013
60.74000 133.907
60.75000 133.827
60.76000 133.420
60.77000 133.084
60.78000 133.399
60.79000 135.025
60.80000 136.689
60.81000 136.806
60.82000 134.833
60.83000 132.851
60.84000 135.467
60.85000 142.082
60.86000 148.588
60.87000 148.918
60.88000 145.682
60.89000 142.453
60.90000 139.356
60.91000 136.311
60.92000 133.482
60.93000 133.971
60.94000 135.200
60.95000 136.611
60.96000 139.149
60.97000 141.882
60.98000 144.652
60.99000 147.569
61.00000 150.501
61.01000 152.674
61.02000 145.650
61.03000 139.798
61.04000 134.834
61.05000 131.498
61.06000 128.196
61.07000 128.533
61.08000 133.312
61.09000 138.092
61.10000 138.431
61.11000 135.292
61.12000 132.243
61.13000 132.954
61.14000 135.639
61.15000 138.150
61.16000 137.742
61.17000 136.295
61.18000 134.967
61.19000 134.214
61.20000 133.666
61.21000 133.442
61.22000 135.023
61.23000 136.883
61.24000 137.822
61.25000 135.397
61.26000 132.663
61.27000 130.693
61.28000 135.792
61.29000 139.948
61.30000 140.913
61.31000 136.552
61.32000 132.109
61.33000 130.569
61.34000 132.223
61.35000 133.872
61.36000 136.827
61.37000 140.672
61.38000 144.416
61.39000 144.956
61.40000 143.963
61.41000 142.934
61.42000 141.411
61.43000 139.727
61.44000 138.201
61.45000 141.345
61.46000 145.009
61.47000 148.173
61.48000 148.841
61.49000 149.166
61.50000 150.434
61.51000 154.831
61.52000 159.476
61.53000 162.727
61.54000 172.269
61.55000 179.662
61.56000 187.618
61.57000 196.428
61.58000 205.247
61.59000 212.854
61.60000 219.264
61.61000 225.630
61.62000 232.171
61.63000 238.724
61.64000 245.211
61.65000 250.045
61.66000 254.160
61.67000 258.178
61.68000 261.014
61.69000 263.500
61.70000 265.724
61.71000 268.018
61.72000 270.030
61.73000 270.888
61.74000 266.530
61.75000 261.537
61.76000 255.798
61.77000 247.808
61.78000 239.666
61.79000 234.144
61.80000 222.996
61.81000 214.559
61.82000 203.628
61.83000 189.275
61.84000 174.907
61.85000 166.082
61.86000 162.175
61.87000 158.308
61.88000 156.153
61.89000 155.027
61.90000 153.812
61.91000 150.769
61.92000 147.000
61.93000 143.478
61.94000 142.563
61.95000 142.345
61.96000 142.153
61.97000 144.200
61.98000 146.303
61.99000 148.422
62.00000 150.611
62.01000 152.807
62.02000 153.425
62.03000 149.708
62.04000 145.741
62.05000 143.140
62.06000 140.820
62.07000 139.119
62.08000 137.879
62.09000 137.214
62.10000 136.558
62.11000 138.552
62.12000 142.665
62.13000 146.716
62.14000 146.636
62.15000 144.421
62.16000 142.371
62.17000 143.149
62.18000 144.949
62.19000 146.214
62.20000 142.534
62.21000 137.653
62.22000 133.419
62.23000 134.776
62.24000 136.679
62.25000 137.968
62.26000 136.978
62.27000 135.775
62.28000 135.607
62.29000 138.032
62.30000 140.581
62.31000 142.193
62.32000 144.205
62.33000 145.669
62.34000 146.984
62.35000 148.134
62.36000 149.275
62.37000 149.061
62.38000 147.867
62.39000 146.697
62.40000 143.656
62.41000 139.857
62.42000 136.333
62.43000 136.794
62.44000 138.568
62.45000 140.173
62.46000 140.408
62.47000 140.342
62.48000 140.286
62.49000 137.650
62.50000 135.127
62.51000 134.443
62.52000 139.959
62.53000 145.980
62.54000 148.342
62.55000 142.361
62.56000 136.056
62.57000 132.218
62.58000 135.508
62.59000 137.914
62.60000 141.508
62.61000 146.298
62.62000 151.046
62.63000 151.837
62.64000 150.033
62.65000 148.276
62.66000 146.628
62.67000 145.103
62.68000 143.500
62.69000 140.927
62.70000 138.064
62.71000 135.528
62.72000 135.357
62.73000 135.654
62.74000 135.903
62.75000 137.234
62.76000 138.453
62.77000 139.716
62.78000 141.118
62.79000 142.530
62.80000 142.377
62.81000 138.975
62.82000 135.473
62.83000 133.428
62.84000 134.921
62.85000 135.988
62.86000 138.389
62.87000 141.993
62.88000 145.542
62.89000 145.638
62.90000 143.677
62.91000 141.781
62.92000 141.443
62.93000 141.717
62.94000 141.838
62.95000 140.305
62.96000 138.323
62.97000 137.269
62.98000 142.192
62.99000 148.180
63.00000 153.102
63.01000 147.491
63.02000 141.934
63.03000 138.165
63.04000 139.385
63.05000 140.900
63.06000 142.471
63.07000 144.147
63.08000 145.825
63.09000 146.762
63.10000 152.062
63.11000 155.730
63.12000 155.264
63.13000 151.435
63.14000 147.584
63.15000 142.688
63.16000 137.226
63.17000 131.981
63.18000 134.746
63.19000 140.084
63.20000 144.916
63.21000 144.990
63.22000 143.890
63.23000 143.198
63.24000 144.852
63.25000 146.882
63.26000 148.516
63.27000 144.809
63.28000 141.386
63.29000 140.089
63.30000 144.195
63.31000 148.567
63.32000 151.090
63.33000 150.429
63.34000 149.713
63.35000 149.331
63.36000 144.487
63.37000 141.200
63.38000 140.435
63.39000 141.524
63.40000 142.674
63.41000 145.922
63.42000 150.203
63.43000 154.279
63.44000 152.411
63.45000 148.843
63.46000 145.592
63.47000 144.985
63.48000 144.969
63.49000 145.373
63.50000 147.960
63.51000 150.859
63.52000 153.142
63.53000 150.636
63.54000 148.308
63.55000 148.091
63.56000 152.764
63.57000 157.634
63.58000 158.695
63.59000 153.803
63.60000 148.840
63.61000 146.331
63.62000 153.383
63.63000 158.024
63.64000 154.720
63.65000 146.123
63.66000 137.910
63.67000 140.115
63.68000 146.995
63.69000 153.486
63.70000 153.149
63.71000 150.939
63.72000 149.316
63.73000 152.005
63.74000 155.564
63.75000 157.920
63.76000 154.662
63.77000 150.692
63.78000 147.638
63.79000 150.219
63.80000 152.580
63.81000 154.411
63.82000 155.123
63.83000 155.799
63.84000 156.128
63.85000 155.964
63.86000 155.798
63.87000 156.076
63.88000 156.763
63.89000 157.407
63.90000 155.236
63.91000 151.362
63.92000 147.542
63.93000 144.894
63.94000 142.725
63.95000 140.700
63.96000 142.439
63.97000 144.959
63.98000 146.977
63.99000 145.711
64.00000 143.850
64.01000 142.455
64.02000 143.031
64.03000 143.828
64.04000 144.426
64.05000 150.453
64.06000 155.419
64.07000 157.943
64.08000 155.778
64.09000 153.497
64.10000 152.001
64.11000 151.512
64.12000 151.028
64.13000 153.238
64.14000 157.660
64.15000 161.974
64.16000 161.073
64.17000 157.305
64.18000 153.840
64.19000 155.867
64.20000 159.940
64.21000 163.700
64.22000 161.721
64.23000 158.657
64.24000 156.501
64.25000 159.666
64.26000 163.698
64.27000 166.800
64.28000 166.340
64.29000 165.532
64.30000 164.941
64.31000 164.752
64.32000 164.622
64.33000 164.085
64.34000 162.836
64.35000 161.575
64.36000 160.550
64.37000 159.798
64.38000 159.049
64.39000 160.923
64.40000 164.727
64.41000 168.424
64.42000 168.239
64.43000 166.113
64.44000 164.067
64.45000 163.243
64.46000 162.833
64.47000 162.460
64.48000 161.118
64.49000 159.733
64.50000 159.540
64.51000 165.619
64.52000 172.610
64.53000 177.288
64.54000 173.928
64.55000 169.881
64.56000 167.008
64.57000 168.627
64.58000 170.002
64.59000 171.520
64.60000 173.262
64.61000 175.007
64.62000 173.630
64.63000 169.002
64.64000 164.398
64.65000 166.920
64.66000 174.171
64.67000 181.200
64.68000 181.993
64.69000 179.944
64.70000 178.147
64.71000 179.644
64.72000 182.157
64.73000 184.419
64.74000 185.437
64.75000 186.106
64.76000 186.401
64.77000 184.919
64.78000 183.207
64.79000 181.487
64.80000 179.737
64.81000 177.986
64.82000 176.779
64.83000 179.616
64.84000 181.847
64.85000 182.865
64.86000 182.135
64.87000 181.393
64.88000 182.831
64.89000 186.306
64.90000 189.751
64.91000 188.576
64.92000 184.640
64.93000 180.938
64.94000 182.553
64.95000 186.375
64.96000 189.705
64.97000 187.486
64.98000 183.710
64.99000 180.358
65.00000 182.001
65.01000 184.225
65.02000 186.194
65.03000 187.070
65.04000 187.822
65.05000 188.768
65.06000 190.272
65.07000 191.812
65.08000 192.838
65.09000 197.710
65.10000 201.392
65.11000 203.709
65.12000 204.249
65.13000 204.780
65.14000 204.338
65.15000 203.077
65.16000 201.833
65.17000 205.941
65.18000 212.853
65.19000 219.414
65.20000 219.394
65.21000 216.885
65.22000 214.272
65.23000 210.628
65.24000 206.723
65.25000 203.308
65.26000 207.043
65.27000 211.257
65.28000 214.225
65.29000 212.347
65.30000 209.983
65.31000 210.138
65.32000 216.888
65.33000 223.983
65.34000 228.552
65.35000 238.008
65.36000 244.980
65.37000 244.624
65.38000 235.643
65.39000 226.686
65.40000 226.233
65.41000 232.234
65.42000 238.131
65.43000 241.961
65.44000 244.648
65.45000 247.318
65.46000 249.729
65.47000 252.050
65.48000 254.596
65.49000 259.074
65.50000 263.998
65.51000 268.233
65.52000 268.575
65.53000 268.375
65.54000 271.158
65.55000 284.468
65.56000 298.697
65.57000 307.258
65.58000 302.299
65.59000 296.756
65.60000 293.317
65.61000 302.778
65.62000 309.711
65.63000 318.369
65.64000 328.853
65.65000 339.404
65.66000 357.797
65.67000 381.580
65.68000 404.819
65.69000 421.069
65.70000 433.538
65.71000 448.247
65.72000 492.958
65.73000 547.075
65.74000 601.882
65.75000 661.966
65.76000 723.149
65.77000 774.867
65.78000 832.161
65.79000 880.700
65.80000 926.527
65.81000 963.652
65.82000 1000.121
65.83000 1026.879
65.84000 1032.530
65.85000 1037.449
65.86000 1040.381
65.87000 1031.956
65.88000 1025.916
65.89000 1029.137
65.90000 1041.157
65.91000 1052.856
65.92000 1040.216
65.93000 1012.397
65.94000 985.387
65.95000 942.595
65.96000 895.667
65.97000 847.863
65.98000 789.944
65.99000 729.143
66.00000 668.704
66.01000 610.723
66.02000 553.203
66.03000 505.482
66.04000 464.153
66.05000 430.614
66.06000 400.402
66.07000 379.901
66.08000 360.024
66.09000 343.083
66.10000 331.954
66.11000 320.982
66.12000 314.716
66.13000 311.900
66.14000 309.947
66.15000 308.384
66.16000 307.156
66.17000 305.984
66.18000 307.851
66.19000 311.440
66.20000 314.900
66.21000 317.415
66.22000 319.438
66.23000 321.559
66.24000 324.666
66.25000 328.027
66.26000 332.965
66.27000 347.477
66.28000 363.604
66.29000 376.719
66.30000 381.263
66.31000 384.255
66.32000 391.483
66.33000 409.974
66.34000 429.073
66.35000 439.543
66.36000 434.465
66.37000 429.072
66.38000 426.131
66.39000 434.487
66.40000 440.240
66.41000 446.081
66.42000 451.989
66.43000 457.631
66.44000 452.870
66.45000 442.744
66.46000 433.061
66.47000 430.512
66.48000 430.461
66.49000 430.390
66.50000 430.143
66.51000 429.855
66.52000 427.186
66.53000 411.539
66.54000 393.933
66.55000 379.917
66.56000 368.290
66.57000 359.089
66.58000 349.200
66.59000 337.646
66.60000 326.018
66.61000 318.042
66.62000 316.047
66.63000 314.138
66.64000 313.148
66.65000 320.608
66.66000 325.628
66.67000 328.326
66.68000 329.403
66.69000 330.411
66.70000 329.342
66.71000 327.296
66.72000 325.358
66.73000 323.547
66.74000 321.916
66.75000 320.195
66.76000 317.764
66.77000 315.183
66.78000 313.425
66.79000 315.702
66.80000 318.521
66.81000 320.715
66.82000 321.835
66.83000 322.661
66.84000 324.376
66.85000 328.051
66.86000 331.797
66.87000 335.186
66.88000 338.042
66.89000 340.893
66.90000 341.683
66.91000 340.478
66.92000 339.275
66.93000 338.145
66.94000 337.060
66.95000 335.920
66.96000 333.448
66.97000 330.406
66.98000 327.552
66.99000 331.515
67.00000 336.926
67.01000 342.605
67.02000 350.141
67.03000 358.033
67.04000 363.860
67.05000 360.536
67.06000 356.123
67.07000 352.771
67.08000 355.645
67.09000 358.227
67.10000 358.971
67.11000 356.019
67.12000 352.963
67.13000 357.014
67.14000 370.639
67.15000 384.307
67.16000 386.052
67.17000 377.449
67.18000 369.014
67.19000 369.964
67.20000 376.315
67.21000 382.723
67.22000 390.274
67.23000 398.269
67.24000 405.693
67.25000 402.162
67.26000 396.384
67.27000 391.781
67.28000 394.446
67.29000 398.359
67.30000 399.906
67.31000 391.957
67.32000 383.012
67.33000 376.392
67.34000 389.248
67.35000 400.064
67.36000 406.719
67.37000 405.762
67.38000 404.642
67.39000 405.394
67.40000 408.425
67.41000 411.454
67.42000 414.825
67.43000 418.445
67.44000 422.028
67.45000 424.072
67.46000 425.309
67.47000 426.276
67.48000 422.746
67.49000 417.619
67.50000 412.915
67.51000 419.183
67.52000 427.102
67.53000 433.186
67.54000 429.098
67.55000 423.447
67.56000 420.600
67.57000 427.962
67.58000 436.258
67.59000 442.231
67.60000 443.176
67.61000 443.722
67.62000 444.096
67.63000 444.185
67.64000 444.269
67.65000 447.216
67.66000 453.300
67.67000 459.361
67.68000 461.531
67.69000 460.945
67.70000 460.488
67.71000 464.113
67.72000 469.683
67.73000 474.491
67.74000 468.541
67.75000 459.115
67.76000 450.573
67.77000 456.899
67.78000 465.300
67.79000 474.040
67.80000 484.477
67.81000 495.145
67.82000 501.815
67.83000 495.258
67.84000 487.655
67.85000 482.339
67.86000 499.791
67.87000 513.621
67.88000 520.223
67.89000 515.906
67.90000 511.478
67.91000 511.793
67.92000 516.776
67.93000 521.724
67.94000 518.772
67.95000 510.862
67.96000 503.353
67.97000 505.929
67.98000 512.885
67.99000 519.881
68.00000 527.369
68.01000 535.001
68.02000 541.824
68.03000 542.915
68.04000 542.896
68.05000 542.745
68.06000 542.005
68.07000 541.193
68.08000 542.028
68.09000 547.820
68.10000 553.949
68.11000 558.100
68.12000 564.736
68.13000 569.737
68.14000 574.038
68.15000 577.382
68.16000 580.719
68.17000 582.991
68.18000 584.319
68.19000 585.634
68.20000 587.707
68.21000 590.166
68.22000 592.955
68.23000 602.496
68.24000 614.710
68.25000 626.315
68.26000 631.525
68.27000 635.028
68.28000 638.113
68.29000 635.189
68.30000 631.764
68.31000 631.913
68.32000 646.633
68.33000 662.912
68.34000 678.066
68.35000 690.137
68.36000 702.032
68.37000 709.824
68.38000 700.773
68.39000 693.843
68.40000 695.110
68.41000 706.520
68.42000 717.942
68.43000 724.067
68.44000 725.970
68.45000 727.844
68.46000 731.984
68.47000 737.170
68.48000 742.689
68.49000 753.913
68.50000 767.195
68.51000 780.588
68.52000 795.011
68.53000 809.683
68.54000 822.406
68.55000 836.716
68.56000 849.112
68.57000 864.885
68.58000 893.145
68.59000 922.572
68.60000 951.842
68.61000 980.719
68.62000 1009.577
68.63000 1027.812
68.64000 1077.368
68.65000 1113.646
68.66000 1169.615
68.67000 1247.545
68.68000 1325.358
68.69000 1382.326
68.70000 1424.266
68.71000 1465.363
68.72000 1508.427
68.73000 1550.769
68.74000 1594.811
68.75000 1663.436
68.76000 1740.129
68.77000 1812.975
68.78000 1854.652
68.79000 1889.504
68.80000 1919.219
68.81000 1988.192
68.82000 2050.834
68.83000 2117.237
68.84000 2196.271
68.85000 2276.328
68.86000 2385.253
68.87000 2559.828
68.88000 2736.941
68.89000 2844.626
68.90000 3296.104
68.91000 3621.138
68.92000 4289.299
68.93000 5301.135
68.94000 6323.033
68.95000 8279.200
68.96000 10846.030
68.97000 13346.191
68.98000 17183.373
68.99000 21403.795
69.00000 25645.137
69.01000 30145.688
69.02000 34723.613
69.03000 39149.148
69.04000 42479.293
69.05000 45592.965
69.06000 48200.121
69.07000 49910.273
69.08000 51239.527
69.09000 52344.781
69.10000 52765.590
69.11000 53138.840
69.12000 53463.566
69.13000 53687.781
69.14000 53908.918
69.15000 54037.910
69.16000 55229.656
69.17000 56072.211
69.18000 56420.375
69.19000 56323.902
69.20000 56208.547
69.21000 54916.086
69.22000 52924.898
69.23000 50998.629
69.24000 47846.328
69.25000 44403.895
69.26000 41028.652
69.27000 38374.789
69.28000 35916.547
69.29000 33575.531
69.30000 31985.930
69.31000 30529.926
69.32000 29334.109
69.33000 28509.141
69.34000 27864.941
69.35000 27215.689
69.36000 26552.381
69.37000 25888.248
69.38000 25008.188
69.39000 23720.887
69.40000 22424.021
69.41000 21700.482
69.42000 18509.814
69.43000 16296.122
69.44000 14073.406
69.45000 11843.376
69.46000 9625.676
69.47000 7963.171
69.48000 6600.378
69.49000 5292.074
69.50000 4367.038
69.51000 3633.085
69.52000 2935.348
69.53000 2577.509
69.54000 2303.262
69.55000 2049.087
69.56000 1910.141
69.57000 1789.560
69.58000 1692.549
69.59000 1572.905
69.60000 1474.104
69.61000 1389.903
69.62000 1342.698
69.63000 1297.306
69.64000 1249.141
69.65000 1196.219
69.66000 1143.216
69.67000 1115.032
69.68000 1085.489
69.69000 1065.353
69.70000 1040.697
69.71000 1012.730
69.72000 985.206
69.73000 972.839
69.74000 967.921
69.75000 963.240
69.76000 943.636
69.77000 920.885
69.78000 898.411
69.79000 878.234
69.80000 858.567
69.81000 840.278
69.82000 829.102
69.83000 818.938
69.84000 810.939
69.85000 807.838
69.86000 805.680
69.87000 798.448
69.88000 779.506
69.89000 760.094
69.90000 743.566
69.91000 731.532
69.92000 719.551
69.93000 713.503
69.94000 691.464
69.95000 676.785
69.96000 668.269
69.97000 663.844
69.98000 659.474
69.99000 656.601
70.00000 654.398
