20.00000 542.617
20.01000 547.175
20.02000 552.385
20.03000 556.420
20.04000 555.866
20.05000 554.848
20.06000 554.100
20.07000 552.652
20.08000 551.504
20.09000 552.621
20.10000 557.777
20.11000 563.012
20.12000 566.841
20.13000 569.005
20.14000 571.162
20.15000 571.802
20.16000 571.289
20.17000 570.817
20.18000 571.913
20.19000 573.809
20.20000 575.425
20.21000 572.591
20.22000 568.218
20.23000 564.218
20.24000 563.162
20.25000 562.830
20.26000 560.849
20.27000 549.987
20.28000 537.802
20.29000 530.837
20.30000 542.384
20.31000 555.560
20.32000 564.972
20.33000 560.754
20.34000 557.082
20.35000 556.278
20.36000 560.121
20.37000 564.028
20.38000 564.501
20.39000 561.318
20.40000 558.149
20.41000 553.836
20.42000 548.792
20.43000 543.840
20.44000 541.610
20.45000 540.644
20.46000 540.179
20.47000 546.472
20.48000 554.893
20.49000 562.497
20.50000 556.613
20.51000 548.959
20.52000 542.703
20.53000 543.234
20.54000 544.665
20.55000 544.879
20.56000 541.170
20.57000 537.164
20.58000 534.386
20.59000 538.211
20.60000 541.266
20.61000 542.750
20.62000 541.926
20.63000 541.081
20.64000 543.076
20.65000 547.784
20.66000 552.455
20.67000 547.770
20.68000 537.407
20.69000 527.434
20.70000 526.746
20.71000 529.991
20.72000 533.139
20.73000 535.171
20.74000 536.884
20.75000 538.409
20.76000 543.495
20.77000 548.498
20.78000 551.012
20.79000 542.616
20.80000 532.939
20.81000 528.331
20.82000 538.592
20.83000 549.815
20.84000 557.351
20.85000 556.380
20.86000 555.486
20.87000 553.176
20.88000 548.982
20.89000 544.780
20.90000 542.218
20.91000 541.065
20.92000 539.926
20.93000 537.353
20.94000 534.047
20.95000 531.017
20.96000 533.398
20.97000 537.866
20.98000 541.843
20.99000 540.852
21.00000 538.570
21.01000 536.569
21.02000 545.510
21.03000 554.782
21.04000 560.667
21.05000 553.104
21.06000 544.153
21.07000 537.142
21.08000 535.310
21.09000 533.761
21.10000 532.756
21.11000 529.174
21.12000 526.512
21.13000 526.519
21.14000 529.739
21.15000 532.975
21.16000 538.805
21.17000 546.645
21.18000 554.357
21.19000 545.026
21.20000 527.446
21.21000 511.333
21.22000 519.122
21.23000 535.312
21.24000 550.251
21.25000 554.097
21.26000 555.328
21.27000 556.391
21.28000 553.884
21.29000 551.297
21.30000 551.094
21.31000 559.480
21.32000 568.639
21.33000 573.752
21.34000 569.020
21.35000 563.844
21.36000 560.607
21.37000 557.992
21.38000 556.112
21.39000 551.546
21.40000 544.072
21.41000 536.645
21.42000 535.725
21.43000 539.373
21.44000 542.942
21.45000 542.439
21.46000 540.114
21.47000 537.486
21.48000 530.686
21.49000 522.550
21.50000 516.864
21.51000 530.374
21.52000 547.973
21.53000 562.906
21.54000 560.908
21.55000 557.312
21.56000 553.866
21.57000 550.908
21.58000 547.988
21.59000 548.730
21.60000 557.591
21.61000 566.748
21.62000 572.254
21.63000 562.253
21.64000 555.036
21.65000 557.438
21.66000 569.191
21.67000 580.877
21.68000 586.990
21.69000 589.555
21.70000 592.048
21.71000 601.333
21.72000 612.939
21.73000 624.087
21.74000 629.785
21.75000 633.898
21.76000 636.618
21.77000 629.631
21.78000 620.780
21.79000 613.406
21.80000 618.115
21.81000 623.215
21.82000 630.914
21.83000 646.351
21.84000 662.304
21.85000 677.071
21.86000 689.445
21.87000 701.751
21.88000 708.845
21.89000 725.834
21.90000 737.761
21.91000 743.718
21.92000 744.456
21.93000 745.297
21.94000 751.900
21.95000 761.836
21.96000 771.429
21.97000 782.097
21.98000 792.544
21.99000 802.127
22.00000 802.783
22.01000 801.082
22.02000 799.780
22.03000 800.967
22.04000 802.583
22.05000 803.902
22.06000 800.588
22.07000 797.475
22.08000 793.460
22.09000 786.999
22.10000 780.400
22.11000 774.757
22.12000 770.871
22.13000 767.023
22.14000 764.903
22.15000 761.065
22.16000 758.404
22.17000 751.958
22.18000 742.527
22.19000 732.952
22.20000 717.362
22.21000 698.609
22.22000 680.645
22.23000 672.723
22.24000 668.676
22.25000 664.354
22.26000 657.552
22.27000 650.157
22.28000 643.885
22.29000 643.883
22.30000 644.850
22.31000 645.624
22.32000 629.223
22.33000 614.687
22.34000 599.147
22.35000 581.129
22.36000 562.995
22.37000 557.815
22.38000 574.290
22.39000 591.101
22.40000 599.919
22.41000 586.255
22.42000 577.025
22.43000 572.905
22.44000 572.430
22.45000 572.001
22.46000 573.055
22.47000 574.818
22.48000 576.493
22.49000 569.836
22.50000 561.191
22.51000 553.304
22.52000 551.465
22.53000 550.937
22.54000 549.563
22.55000 543.947
22.56000 537.746
22.57000 532.897
22.58000 527.069
22.59000 522.355
22.60000 521.740
22.61000 530.351
22.62000 539.311
22.63000 541.625
22.64000 533.853
22.65000 525.976
22.66000 523.267
22.67000 525.674
22.68000 528.079
22.69000 530.311
22.70000 532.431
22.71000 534.367
22.72000 531.641
22.73000 526.880
22.74000 522.402
22.75000 513.759
22.76000 504.740
22.77000 497.027
22.78000 498.573
22.79000 501.928
22.80000 504.928
22.81000 506.320
22.82000 507.515
22.83000 508.428
22.84000 507.902
22.85000 507.411
22.86000 510.260
22.87000 519.958
22.88000 529.861
22.89000 531.982
22.90000 523.398
22.91000 514.752
22.92000 511.272
22.93000 512.382
22.94000 513.493
22.95000 514.613
22.96000 515.739
22.97000 517.063
22.98000 522.506
22.99000 529.587
23.00000 536.177
23.01000 530.784
23.02000 523.006
23.03000 515.343
23.04000 508.403
23.05000 501.591
23.06000 496.417
23.07000 497.961
23.08000 500.227
23.09000 501.915
23.10000 491.005
23.11000 481.950
23.12000 477.268
23.13000 480.750
23.14000 484.418
23.15000 488.358
23.16000 492.635
23.17000 496.906
23.18000 502.977
23.19000 510.459
23.20000 517.774
23.21000 517.784
23.22000 513.891
23.23000 510.135
23.24000 508.740
23.25000 508.199
23.26000 507.702
23.27000 511.094
23.28000 514.971
23.29000 517.386
23.30000 511.505
23.31000 504.318
23.32000 499.071
23.33000 501.030
23.34000 503.669
23.35000 505.580
23.36000 503.961
23.37000 502.588
23.38000 500.197
23.39000 496.078
23.40000 491.930
23.41000 489.367
23.42000 488.580
23.43000 487.798
23.44000 486.456
23.45000 484.724
23.46000 483.106
23.47000 485.286
23.48000 489.313
23.49000 493.289
23.50000 496.520
23.51000 499.506
23.52000 502.219
23.53000 492.441
23.54000 481.371
23.55000 472.807
23.56000 477.028
23.57000 483.046
23.58000 488.871
23.59000 494.051
23.60000 499.178
23.61000 502.785
23.62000 499.987
23.63000 497.677
23.64000 493.318
23.65000 485.800
23.66000 478.246
23.67000 477.173
23.68000 482.628
23.69000 488.048
23.70000 490.971
23.71000 492.235
23.72000 493.393
23.73000 491.730
23.74000 488.816
23.75000 486.313
23.76000 488.932
23.77000 493.086
23.78000 496.810
23.79000 493.494
23.80000 489.375
23.81000 485.164
23.82000 480.530
23.83000 475.844
23.84000 471.831
23.85000 469.884
23.86000 468.082
23.87000 466.853
23.88000 469.655
23.89000 471.843
23.90000 477.594
23.91000 488.328
23.92000 499.088
23.93000 499.260
23.94000 489.858
23.95000 480.548
23.96000 477.819
23.97000 478.993
23.98000 480.352
23.99000 485.705
24.00000 492.669
24.01000 498.645
24.02000 493.947
24.03000 486.339
24.04000 479.617
24.05000 478.523
24.06000 478.449
24.07000 479.522
24.08000 485.376
24.09000 491.755
24.10000 494.387
24.11000 486.541
24.12000 478.073
24.13000 472.485
24.14000 477.495
24.15000 481.374
24.16000 486.050
24.17000 491.735
24.18000 497.408
24.19000 497.401
24.20000 492.766
24.21000 488.195
24.22000 487.255
24.23000 488.254
24.24000 489.729
24.25000 499.650
24.26000 512.677
24.27000 523.521
24.28000 513.752
24.29000 498.887
24.30000 485.954
24.31000 484.254
24.32000 484.340
24.33000 484.674
24.34000 485.942
24.35000 487.300
24.36000 487.920
24.37000 486.663
24.38000 485.313
24.39000 484.453
24.40000 493.648
24.41000 500.460
24.42000 502.698
24.43000 499.718
24.44000 496.684
24.45000 484.942
24.46000 466.787
24.47000 448.976
24.48000 453.540
24.49000 468.587
24.50000 482.714
24.51000 483.073
24.52000 478.822
24.53000 474.768
24.54000 472.355
24.55000 470.308
24.56000 468.556
24.57000 480.604
24.58000 492.432
24.59000 499.898
24.60000 492.410
24.61000 483.672
24.62000 476.413
24.63000 472.586
24.64000 468.899
24.65000 466.637
24.66000 470.605
24.67000 473.501
24.68000 475.865
24.69000 477.685
24.70000 479.555
24.71000 486.555
24.72000 496.980
24.73000 507.148
24.74000 504.561
24.75000 496.611
24.76000 488.914
24.77000 484.457
24.78000 480.988
24.79000 477.482
24.80000 473.700
24.81000 469.861
24.82000 466.635
24.83000 476.351
24.84000 485.819
24.85000 491.801
24.86000 486.913
24.87000 481.245
24.88000 476.532
24.89000 473.837
24.90000 471.207
24.91000 469.659
24.92000 472.490
24.93000 474.510
24.94000 475.697
24.95000 476.117
24.96000 476.518
24.97000 475.601
24.98000 473.885
24.99000 472.223
25.00000 468.635
25.01000 464.493
25.02000 460.843
25.03000 462.628
25.04000 465.918
25.05000 468.782
25.06000 468.853
25.07000 468.416
25.08000 468.055
25.09000 465.110
25.10000 462.446
25.11000 461.227
25.12000 464.107
25.13000 467.237
25.14000 472.378
25.15000 481.387
25.16000 490.492
25.17000 495.622
25.18000 478.923
25.19000 467.286
25.20000 463.998
25.21000 467.627
25.22000 471.191
25.23000 471.647
25.24000 470.390
25.25000 469.181
25.26000 467.831
25.27000 466.517
25.28000 465.413
25.29000 466.335
25.30000 467.765
25.31000 468.580
25.32000 465.783
25.33000 462.396
25.34000 459.659
25.35000 466.449
25.36000 472.734
25.37000 475.543
25.38000 469.366
25.39000 462.732
25.40000 458.616
25.41000 458.911
25.42000 459.288
25.43000 459.490
25.44000 458.709
25.45000 458.178
25.46000 458.430
25.47000 459.269
25.48000 459.984
25.49000 456.225
25.50000 450.225
25.51000 444.502
25.52000 445.414
25.53000 448.354
25.54000 450.950
25.55000 450.633
25.56000 449.654
25.57000 448.889
25.58000 449.251
25.59000 449.777
25.60000 450.193
25.61000 457.538
25.62000 463.914
25.63000 469.016
25.64000 471.117
25.65000 473.092
25.66000 469.623
25.67000 457.492
25.68000 445.250
25.69000 438.999
25.70000 453.750
25.71000 463.578
25.72000 464.883
25.73000 460.409
25.74000 456.062
25.75000 455.272
25.76000 456.106
25.77000 456.895
25.78000 461.799
25.79000 467.470
25.80000 472.774
25.81000 475.313
25.82000 477.284
25.83000 479.258
25.84000 481.243
25.85000 483.230
25.86000 484.764
25.87000 466.379
25.88000 450.633
25.89000 441.038
25.90000 444.640
25.91000 448.685
25.92000 453.669
25.93000 460.010
25.94000 466.361
25.95000 470.158
25.96000 471.564
25.97000 472.827
25.98000 463.809
25.99000 448.466
26.00000 433.809
26.01000 434.814
26.02000 442.333
26.03000 449.367
26.04000 452.548
26.05000 454.453
26.06000 455.785
26.07000 453.280
26.08000 450.066
26.09000 448.447
26.10000 453.693
26.11000 459.726
26.12000 464.273
26.13000 463.190
26.14000 462.066
26.15000 457.989
26.16000 448.143
26.17000 438.147
26.18000 436.214
26.19000 444.816
26.20000 453.455
26.21000 454.840
26.22000 450.125
26.23000 445.593
26.24000 450.342
26.25000 460.281
26.26000 469.528
26.27000 465.776
26.28000 457.098
26.29000 449.068
26.30000 447.417
26.31000 447.397
26.32000 446.744
26.33000 442.312
26.34000 437.253
26.35000 434.758
26.36000 442.257
26.37000 450.760
26.38000 457.004
26.39000 451.846
26.40000 447.397
26.41000 446.326
26.42000 451.263
26.43000 456.315
26.44000 458.179
26.45000 456.281
26.46000 454.381
26.47000 445.594
26.48000 431.657
26.49000 418.043
26.50000 416.611
26.51000 421.379
26.52000 426.177
26.53000 431.445
26.54000 436.875
26.55000 441.839
26.56000 453.738
26.57000 465.736
26.58000 475.021
26.59000 469.739
26.60000 462.295
26.61000 455.003
26.62000 448.254
26.63000 441.551
26.64000 436.768
26.65000 431.509
26.66000 427.481
26.67000 426.607
26.68000 430.827
26.69000 435.117
26.70000 434.629
26.71000 429.069
26.72000 423.536
26.73000 423.122
26.74000 426.199
26.75000 429.220
26.76000 430.582
26.77000 431.176
26.78000 432.034
26.79000 436.456
26.80000 441.997
26.81000 446.997
26.82000 446.870
26.83000 445.818
26.84000 445.591
26.85000 449.359
26.86000 453.654
26.87000 456.006
26.88000 452.111
26.89000 447.744
26.90000 444.719
26.91000 441.258
26.92000 438.642
26.93000 438.167
26.94000 440.832
26.95000 443.524
26.96000 446.282
26.97000 449.103
26.98000 451.901
26.99000 450.333
27.00000 446.114
27.01000 442.165
27.02000 444.601
27.03000 449.734
27.04000 453.861
27.05000 446.331
27.06000 435.474
27.07000 425.811
27.08000 431.591
27.09000 439.135
27.10000 445.465
27.11000 446.482
27.12000 446.878
27.13000 448.982
27.14000 456.081
27.15000 463.503
27.16000 468.482
27.17000 464.278
27.18000 460.972
27.19000 457.884
27.20000 455.087
27.21000 452.287
27.22000 446.371
27.23000 437.784
27.24000 429.299
27.25000 430.057
27.26000 435.917
27.27000 441.569
27.28000 443.215
27.29000 443.318
27.30000 443.114
27.31000 439.801
27.32000 435.683
27.33000 432.072
27.34000 430.612
27.35000 429.670
27.36000 429.635
27.37000 433.185
27.38000 437.103
27.39000 440.825
27.40000 444.022
27.41000 447.190
27.42000 449.244
27.43000 441.997
27.44000 436.553
27.45000 434.140
27.46000 435.362
27.47000 436.569
27.48000 432.309
27.49000 423.823
27.50000 415.476
27.51000 418.167
27.52000 426.289
27.53000 433.967
27.54000 434.432
27.55000 432.370
27.56000 430.381
27.57000 429.038
27.58000 427.847
27.59000 426.820
27.60000 435.712
27.61000 444.529
27.62000 449.072
27.63000 438.268
27.64000 426.088
27.65000 419.315
27.66000 425.664
27.67000 432.600
27.68000 436.934
27.69000 433.870
27.70000 431.581
27.71000 430.030
27.72000 429.273
27.73000 428.503
27.74000 425.895
27.75000 422.000
27.76000 418.189
27.77000 422.613
27.78000 430.574
27.79000 437.699
27.80000 433.302
27.81000 425.230
27.82000 418.300
27.83000 420.282
27.84000 424.156
27.85000 427.442
27.86000 425.623
27.87000 423.521
27.88000 423.051
27.89000 427.904
27.90000 433.169
27.91000 433.184
27.92000 421.592
27.93000 409.581
27.94000 402.366
27.95000 409.917
27.96000 415.383
27.97000 417.007
27.98000 414.909
27.99000 412.880
28.00000 416.464
28.01000 423.611
28.02000 430.558
28.03000 430.243
28.04000 426.983
28.05000 423.617
28.06000 418.986
28.07000 413.988
28.08000 409.504
28.09000 408.590
28.10000 408.360
28.11000 408.168
28.12000 419.081
28.13000 429.216
28.14000 435.822
28.15000 431.948
28.16000 427.379
28.17000 423.974
28.18000 422.912
28.19000 421.916
28.20000 421.343
28.21000 417.229
28.22000 414.339
28.23000 413.850
28.24000 415.452
28.25000 417.002
28.26000 415.610
28.27000 412.521
28.28000 409.539
28.29000 413.264
28.30000 419.239
28.31000 424.673
28.32000 424.537
28.33000 422.935
28.34000 421.657
28.35000 422.385
28.36000 423.459
28.37000 424.336
28.38000 419.747
28.39000 415.524
28.40000 412.995
28.41000 415.047
28.42000 417.355
28.43000 418.621
28.44000 417.977
28.45000 417.292
28.46000 416.916
28.47000 410.635
28.48000 406.315
28.49000 406.577
28.50000 410.439
28.51000 414.194
28.52000 413.539
28.53000 410.571
28.54000 407.728
28.55000 406.944
28.56000 406.895
28.57000 407.151
28.58000 410.144
28.59000 413.791
28.60000 417.361
28.61000 420.506
28.62000 423.585
28.63000 426.045
28.64000 424.569
28.65000 423.084
28.66000 422.190
28.67000 422.752
28.68000 423.381
28.69000 421.580
28.70000 415.728
28.71000 409.814
28.72000 406.717
28.73000 396.183
28.74000 389.101
28.75000 389.738
28.76000 395.865
28.77000 401.947
28.78000 406.629
28.79000 410.642
28.80000 414.451
28.81000 412.810
28.82000 409.668
28.83000 406.198
28.84000 400.114
28.85000 393.467
28.86000 389.129
28.87000 396.336
28.88000 405.129
28.89000 412.002
28.90000 419.270
28.91000 425.096
28.92000 426.853
28.93000 419.479
28.94000 411.762
28.95000 407.643
28.96000 408.967
28.97000 410.348
28.98000 408.949
28.99000 404.808
29.00000 400.736
29.01000 402.718
29.02000 408.601
29.03000 414.178
29.04000 412.003
29.05000 406.454
29.06000 401.237
29.07000 404.732
29.08000 410.266
29.09000 414.679
29.10000 411.164
29.11000 406.105
29.12000 403.304
29.13000 410.702
29.14000 419.341
29.15000 425.934
29.16000 421.487
29.17000 417.392
29.18000 413.662
29.19000 410.677
29.20000 407.714
29.21000 407.164
29.22000 409.922
29.23000 412.698
29.24000 413.287
29.25000 411.938
29.26000 410.582
29.27000 408.796
29.28000 406.758
29.29000 404.950
29.30000 407.880
29.31000 412.689
29.32000 417.163
29.33000 412.333
29.34000 405.723
29.35000 400.216
29.36000 401.674
29.37000 404.352
29.38000 406.778
29.39000 408.177
29.40000 409.466
29.41000 410.425
29.42000 414.180
29.43000 417.225
29.44000 416.929
29.45000 410.413
29.46000 403.757
29.47000 399.573
29.48000 398.452
29.49000 397.341
29.50000 397.710
29.51000 399.254
29.52000 400.855
29.53000 404.964
29.54000 410.407
29.55000 415.486
29.56000 414.315
29.57000 410.888
29.58000 407.735
29.59000 411.115
29.60000 415.551
29.61000 418.921
29.62000 416.273
29.63000 412.681
29.64000 410.366
29.65000 412.785
29.66000 415.648
29.67000 417.720
29.68000 420.167
29.69000 422.060
29.70000 420.159
29.71000 411.839
29.72000 403.414
29.73000 397.125
29.74000 393.225
29.75000 389.340
29.76000 391.710
29.77000 398.538
29.78000 405.302
29.79000 409.957
29.80000 413.588
29.81000 417.098
29.82000 418.830
29.83000 419.977
29.84000 421.019
29.85000 423.021
29.86000 424.975
29.87000 425.465
29.88000 418.511
29.89000 410.515
29.90000 406.574
29.91000 416.280
29.92000 427.097
29.93000 434.701
29.94000 428.167
29.95000 422.801
29.96000 420.772
29.97000 423.874
29.98000 427.032
29.99000 427.529
30.00000 425.354
30.01000 423.193
30.02000 428.430
30.03000 438.364
30.04000 447.831
30.05000 445.083
30.06000 436.940
30.07000 429.744
30.08000 434.322
30.09000 442.421
30.10000 449.680
30.11000 445.075
30.12000 439.002
30.13000 433.210
30.14000 428.715
30.15000 424.380
30.16000 421.568
30.17000 423.418
30.18000 425.592
30.19000 427.074
30.20000 420.574
30.21000 415.532
30.22000 415.911
30.23000 423.842
30.24000 431.817
30.25000 429.506
30.26000 417.923
30.27000 406.455
30.28000 404.286
30.29000 407.577
30.30000 410.905
30.31000 415.013
30.32000 419.436
30.33000 423.981
30.34000 429.842
30.35000 436.060
30.36000 441.552
30.37000 432.807
30.38000 423.068
30.39000 415.134
30.40000 414.695
30.41000 415.077
30.42000 414.389
30.43000 410.717
30.44000 406.869
30.45000 404.332
30.46000 406.793
30.47000 408.694
30.48000 414.936
30.49000 426.654
30.50000 438.349
30.51000 434.899
30.52000 419.149
30.53000 403.621
30.54000 400.763
30.55000 404.642
30.56000 408.440
30.57000 410.787
30.58000 412.603
30.59000 414.300
30.60000 414.885
30.61000 415.197
30.62000 415.468
30.63000 412.200
30.64000 408.928
30.65000 407.610
30.66000 413.645
30.67000 420.385
30.68000 426.409
30.69000 430.616
30.70000 434.733
30.71000 437.353
30.72000 426.461
30.73000 418.379
30.74000 417.214
30.75000 423.914
30.76000 430.607
30.77000 434.816
30.78000 437.200
30.79000 439.539
30.80000 441.044
30.81000 442.099
30.82000 443.387
30.83000 448.146
30.84000 454.064
30.85000 460.158
30.86000 467.717
30.87000 475.601
30.88000 482.345
30.89000 484.992
30.90000 486.731
30.91000 489.878
30.92000 497.835
30.93000 506.193
30.94000 515.014
30.95000 524.907
30.96000 534.843
30.97000 540.928
30.98000 568.101
30.99000 587.733
31.00000 606.675
31.01000 624.909
31.02000 643.247
31.03000 671.912
31.04000 707.449
31.05000 742.104
31.06000 775.871
31.07000 807.739
31.08000 840.218
31.09000 880.489
31.10000 923.126
31.11000 965.974
31.12000 1010.379
31.13000 1055.097
31.14000 1092.668
31.15000 1174.402
31.16000 1247.154
31.17000 1316.138
31.18000 1373.406
31.19000 1429.837
31.20000 1496.677
31.21000 1585.452
31.22000 1674.931
31.23000 1727.534
31.24000 1811.036
31.25000 1870.077
31.26000 1930.449
31.27000 1992.042
31.28000 2053.617
31.29000 2114.008
31.30000 2173.683
31.31000 2231.488
31.32000 2251.225
31.33000 2255.180
31.34000 2259.747
31.35000 2271.033
31.36000 2284.175
31.37000 2294.821
31.38000 2289.145
31.39000 2280.510
31.40000 2273.391
31.41000 2241.188
31.42000 2212.376
31.43000 2178.595
31.44000 2130.758
31.45000 2082.068
31.46000 2031.605
31.47000 1977.741
31.48000 1923.794
31.49000 1893.443
31.50000 1787.053
31.51000 1713.024
31.52000 1645.988
31.53000 1584.728
31.54000 1523.418
31.55000 1459.770
31.56000 1394.838
31.57000 1332.411
31.58000 1269.371
31.59000 1210.093
31.60000 1152.688
31.61000 1113.293
31.62000 1078.409
31.63000 1042.301
31.64000 999.028
31.65000 954.589
31.66000 918.699
31.67000 887.003
31.68000 861.569
31.69000 832.145
31.70000 792.436
31.71000 752.205
31.72000 720.680
31.73000 704.350
31.74000 688.298
31.75000 679.685
31.76000 655.752
31.77000 639.405
31.78000 624.400
31.79000 610.395
31.80000 596.088
31.81000 570.944
31.82000 540.382
31.83000 511.243
31.84000 503.735
31.85000 503.572
31.86000 502.482
31.87000 493.558
31.88000 482.858
31.89000 473.185
31.90000 468.922
31.91000 465.444
31.92000 462.696
31.93000 456.644
31.94000 451.560
31.95000 445.738
31.96000 438.184
31.97000 430.559
31.98000 423.099
31.99000 415.900
32.00000 408.705
32.01000 405.037
32.02000 407.951
32.03000 409.900
32.04000 411.053
32.05000 411.667
32.06000 412.187
32.07000 410.078
32.08000 406.772
32.09000 403.649
32.10000 401.735
32.11000 400.321
32.12000 399.495
32.13000 403.065
32.14000 407.536
32.15000 410.604
32.16000 407.015
32.17000 402.567
32.18000 399.132
32.19000 392.466
32.20000 386.993
32.21000 384.365
32.22000 387.823
32.23000 391.483
32.24000 395.455
32.25000 399.876
32.26000 404.300
32.27000 400.838
32.28000 390.025
32.29000 379.292
32.30000 374.207
32.31000 372.587
32.32000 371.219
32.33000 375.577
32.34000 382.311
32.35000 388.608
32.36000 386.987
32.37000 383.498
32.38000 380.786
32.39000 383.244
32.40000 386.655
32.41000 388.467
32.42000 383.424
32.43000 377.599
32.44000 373.211
32.45000 370.635
32.46000 368.707
32.47000 367.823
32.48000 368.973
32.49000 370.174
32.50000 373.051
32.51000 378.110
32.52000 383.172
32.53000 383.737
32.54000 380.534
32.55000 377.319
32.56000 373.565
32.57000 369.509
32.58000 365.665
32.59000 365.776
32.60000 367.380
32.61000 368.864
32.62000 366.618
32.63000 363.749
32.64000 361.065
32.65000 359.494
32.66000 358.107
32.67000 357.885
32.68000 362.190
32.69000 366.948
32.70000 370.438
32.71000 370.762
32.72000 370.884
32.73000 370.151
32.74000 367.900
32.75000 365.621
32.76000 365.609
32.77000 368.266
32.78000 370.919
32.79000 372.155
32.80000 372.314
32.81000 372.678
32.82000 380.707
32.83000 392.626
32.84000 403.642
32.85000 400.477
32.86000 392.431
32.87000 385.078
32.88000 386.733
32.89000 390.046
32.90000 392.607
32.91000 391.138
32.92000 389.073
32.93000 388.093
32.94000 390.937
32.95000 394.115
32.96000 396.382
32.97000 388.819
32.98000 382.729
32.99000 377.665
33.00000 374.252
33.01000 370.862
33.02000 365.985
33.03000 359.536
33.04000 353.118
33.05000 354.622
33.06000 361.485
33.07000 368.112
33.08000 367.856
33.09000 364.417
33.10000 361.119
33.11000 359.693
33.12000 358.853
33.13000 358.095
33.14000 359.578
33.15000 361.290
33.16000 361.094
33.17000 351.694
33.18000 341.081
33.19000 336.205
33.20000 349.711
33.21000 364.600
33.22000 374.903
33.23000 371.284
33.24000 368.199
33.25000 367.084
33.26000 368.850
33.27000 370.639
33.28000 365.586
33.29000 354.039
33.30000 342.585
33.31000 340.418
33.32000 343.974
33.33000 347.314
33.34000 345.615
33.35000 341.793
33.36000 338.546
33.37000 341.928
33.38000 347.198
33.39000 351.886
33.40000 348.134
33.41000 343.501
33.42000 339.687
33.43000 339.437
33.44000 339.604
33.45000 341.157
33.46000 346.756
33.47000 352.615
33.48000 356.541
33.49000 353.166
33.50000 350.516
33.51000 349.066
33.52000 349.203
33.53000 349.347
33.54000 349.301
33.55000 349.092
33.56000 348.885
33.57000 346.480
33.58000 342.922
33.59000 339.372
33.60000 335.984
33.61000 332.658
33.62000 329.956
33.63000 333.520
33.64000 338.703
33.65000 343.245
33.66000 337.888
33.67000 331.859
33.68000 327.293
33.69000 328.498
33.70000 330.293
33.71000 333.018
33.72000 338.210
33.73000 343.535
33.74000 346.982
33.75000 332.351
33.76000 321.379
33.77000 318.802
33.78000 326.263
33.79000 333.734
33.80000 338.626
33.81000 341.529
33.82000 344.384
33.83000 348.361
33.84000 352.768
33.85000 356.723
33.86000 353.378
33.87000 347.482
33.88000 342.110
33.89000 341.352
33.90000 341.676
33.91000 341.954
33.92000 335.672
33.93000 329.505
33.94000 323.836
33.95000 319.946
33.96000 316.216
33.97000 314.877
33.98000 319.327
33.99000 324.035
34.00000 326.972
34.01000 331.564
34.02000 334.892
34.03000 336.817
34.04000 337.232
34.05000 337.626
34.06000 335.302
34.07000 331.083
34.08000 326.956
34.09000 323.821
34.10000 321.262
34.11000 318.799
34.12000 317.666
34.13000 316.956
34.14000 316.304
34.15000 316.100
34.16000 315.990
34.17000 315.897
34.18000 316.904
34.19000 317.872
34.20000 319.434
34.21000 322.931
34.22000 326.578
34.23000 329.457
34.24000 330.644
34.25000 331.771
34.26000 332.447
34.27000 327.314
34.28000 323.630
34.29000 323.379
34.30000 326.446
34.31000 329.523
34.32000 333.515
34.33000 338.086
34.34000 342.528
34.35000 340.114
34.36000 335.033
34.37000 330.096
34.38000 326.855
34.39000 324.104
34.40000 321.236
34.41000 317.556
34.42000 313.722
34.43000 310.531
34.44000 313.907
34.45000 317.349
34.46000 320.930
34.47000 324.927
34.48000 328.951
34.49000 328.526
34.50000 319.166
34.51000 309.555
34.52000 304.029
34.53000 303.836
34.54000 303.724
34.55000 306.501
34.56000 311.788
34.57000 317.068
34.58000 321.986
34.59000 326.697
34.60000 331.243
34.61000 324.899
34.62000 314.934
34.63000 306.159
34.64000 309.601
34.65000 316.249
34.66000 322.524
34.67000 326.486
34.68000 330.052
34.69000 332.961
34.70000 326.976
34.71000 321.320
34.72000 316.385
34.73000 313.395
34.74000 310.512
34.75000 309.292
34.76000 311.110
34.77000 312.993
34.78000 314.027
34.79000 314.849
34.80000 315.428
34.81000 319.804
34.82000 327.154
34.83000 334.235
34.84000 330.337
34.85000 320.695
34.86000 311.463
34.87000 310.086
34.88000 311.400
34.89000 312.799
34.90000 314.974
34.91000 317.332
34.92000 319.243
34.93000 318.669
34.94000 317.713
34.95000 316.950
34.96000 310.809
34.97000 305.453
34.98000 304.417
34.99000 313.997
35.00000 324.065
35.01000 328.411
35.02000 323.251
35.03000 317.947
35.04000 315.173
35.05000 318.679
35.06000 321.048
35.07000 322.520
35.08000 323.355
35.09000 324.168
35.10000 324.253
35.11000 323.992
35.12000 323.744
35.13000 317.424
35.14000 309.784
35.15000 302.917
35.16000 302.192
35.17000 302.788
35.18000 304.636
35.19000 312.727
35.20000 321.673
35.21000 328.659
35.22000 322.646
35.23000 317.029
35.24000 312.840
35.25000 311.845
35.26000 310.968
35.27000 310.818
35.28000 311.764
35.29000 312.721
35.30000 312.097
35.31000 309.919
35.32000 307.759
35.33000 307.186
35.34000 307.632
35.35000 308.078
35.36000 308.526
35.37000 308.973
35.38000 309.394
35.39000 310.995
35.40000 312.772
35.41000 314.642
35.42000 317.161
35.43000 319.806
35.44000 320.796
35.45000 314.334
35.46000 306.969
35.47000 301.353
35.48000 304.267
35.49000 307.016
35.50000 307.540
35.51000 303.527
35.52000 299.381
35.53000 299.236
35.54000 304.560
35.55000 309.913
35.56000 311.948
35.57000 311.053
35.58000 310.102
35.59000 305.894
35.60000 299.785
35.61000 293.853
35.62000 291.544
35.63000 290.668
35.64000 289.853
35.65000 295.885
35.66000 302.982
35.67000 309.837
35.68000 315.171
35.69000 320.239
35.70000 322.791
35.71000 315.089
35.72000 306.293
35.73000 299.755
35.74000 296.187
35.75000 293.543
35.76000 292.227
35.77000 293.372
35.78000 294.572
35.79000 296.376
35.80000 298.925
35.81000 301.471
35.82000 303.836
35.83000 306.046
35.84000 308.183
35.85000 307.218
35.86000 304.604
35.87000 302.048
35.88000 300.467
35.89000 299.237
35.90000 298.107
35.91000 301.464
35.92000 305.432
35.93000 309.059
35.94000 310.762
35.95000 312.164
35.96000 312.023
35.97000 306.180
35.98000 299.804
35.99000 295.194
36.00000 287.868
36.01000 282.147
36.02000 280.850
36.03000 287.018
36.04000 293.308
36.05000 295.517
36.06000 293.181
36.07000 290.850
36.08000 292.184
36.09000 296.122
36.10000 299.835
36.11000 296.219
36.12000 289.058
36.13000 282.276
36.14000 280.948
36.15000 281.410
36.16000 281.829
36.17000 286.371
36.18000 291.178
36.19000 294.832
36.20000 292.635
36.21000 289.622
36.22000 287.010
36.23000 285.743
36.24000 284.585
36.25000 283.772
36.26000 288.747
36.27000 292.683
36.28000 296.314
36.29000 299.478
36.30000 302.636
36.31000 302.822
36.32000 300.035
36.33000 297.267
36.34000 297.034
36.35000 298.436
36.36000 299.709
36.37000 297.640
36.38000 294.098
36.39000 291.049
36.40000 294.098
36.41000 298.966
36.42000 303.326
36.43000 299.804
36.44000 295.369
36.45000 291.354
36.46000 289.256
36.47000 287.396
36.48000 285.261
36.49000 282.289
36.50000 279.259
36.51000 277.197
36.52000 291.712
36.53000 302.934
36.54000 306.735
36.55000 300.225
36.56000 293.649
36.57000 289.650
36.58000 287.967
36.59000 286.300
36.60000 284.853
36.61000 283.564
36.62000 282.459
36.63000 285.236
36.64000 289.572
36.65000 293.784
36.66000 296.663
36.67000 299.181
36.68000 301.404
36.69000 304.425
36.70000 307.154
36.71000 307.858
36.72000 300.178
36.73000 291.584
36.74000 284.411
36.75000 281.189
36.76000 278.200
36.77000 276.231
36.78000 284.089
36.79000 290.047
36.80000 292.802
36.81000 291.531
36.82000 290.244
36.83000 287.665
36.84000 284.039
36.85000 280.464
36.86000 282.690
36.87000 287.890
36.88000 292.865
36.89000 293.880
36.90000 293.448
36.91000 293.233
36.92000 295.060
36.93000 297.389
36.94000 299.414
36.95000 297.433
36.96000 295.199
36.97000 292.543
36.98000 288.306
36.99000 283.917
37.00000 283.347
37.01000 292.445
37.02000 302.017
37.03000 308.099
37.04000 295.913
37.05000 286.836
37.06000 282.386
37.07000 283.180
37.08000 283.999
37.09000 288.136
37.10000 294.702
37.11000 301.142
37.12000 296.116
37.13000 285.853
37.14000 276.144
37.15000 274.650
37.16000 275.890
37.17000 277.258
37.18000 279.683
37.19000 282.344
37.20000 284.619
37.21000 285.052
37.22000 285.197
37.23000 285.839
37.24000 288.176
37.25000 290.653
37.26000 292.003
37.27000 290.756
37.28000 289.404
37.29000 288.577
37.30000 289.032
37.31000 289.368
37.32000 288.196
37.33000 285.489
37.34000 282.814
37.35000 283.317
37.36000 285.928
37.37000 288.474
37.38000 292.349
37.39000 296.616
37.40000 300.224
37.41000 295.491
37.42000 288.231
37.43000 282.165
37.44000 284.831
37.45000 289.251
37.46000 292.962
37.47000 287.756
37.48000 282.484
37.49000 278.656
37.50000 279.305
37.51000 280.273
37.52000 280.992
37.53000 281.186
37.54000 281.364
37.55000 281.468
37.56000 290.158
37.57000 296.324
37.58000 295.915
37.59000 289.496
37.60000 283.138
37.61000 280.698
37.62000 280.618
37.63000 280.541
37.64000 279.090
37.65000 277.189
37.66000 275.762
37.67000 279.536
37.68000 284.742
37.69000 289.135
37.70000 288.228
37.71000 286.363
37.72000 284.826
37.73000 281.234
37.74000 278.089
37.75000 276.897
37.76000 281.213
37.77000 285.861
37.78000 287.576
37.79000 283.677
37.80000 279.641
37.81000 277.373
37.82000 278.393
37.83000 279.108
37.84000 279.562
37.85000 279.802
37.86000 280.087
37.87000 282.478
37.88000 286.024
37.89000 289.432
37.90000 288.293
37.91000 285.644
37.92000 283.168
37.93000 282.335
37.94000 281.913
37.95000 282.264
37.96000 287.132
37.97000 292.731
37.98000 297.251
37.99000 293.181
38.00000 289.192
38.01000 285.457
38.02000 282.375
38.03000 279.326
38.04000 276.183
38.05000 272.877
38.06000 269.568
38.07000 267.795
38.08000 279.605
38.09000 287.640
38.10000 289.126
38.11000 285.739
38.12000 282.416
38.13000 281.398
38.14000 281.528
38.15000 281.652
38.16000 281.372
38.17000 280.985
38.18000 281.353
38.19000 288.075
38.20000 296.233
38.21000 303.112
38.22000 303.274
38.23000 302.463
38.24000 301.823
38.25000 296.330
38.26000 291.591
38.27000 289.914
38.28000 295.407
38.29000 301.196
38.30000 306.610
38.31000 311.431
38.32000 316.244
38.33000 318.694
38.34000 330.992
38.35000 339.181
38.36000 341.062
38.37000 338.691
38.38000 336.656
38.39000 344.017
38.40000 355.642
38.41000 366.621
38.42000 382.662
38.43000 398.809
38.44000 413.702
38.45000 419.243
38.46000 422.875
38.47000 426.296
38.48000 428.715
38.49000 431.006
38.50000 432.773
38.51000 446.329
38.52000 457.754
38.53000 470.698
38.54000 486.883
38.55000 503.174
38.56000 511.243
38.57000 507.516
38.58000 503.697
38.59000 509.159
38.60000 523.244
38.61000 537.250
38.62000 545.747
38.63000 550.873
38.64000 555.543
38.65000 549.940
38.66000 540.088
38.67000 530.878
38.68000 534.226
38.69000 540.451
38.70000 546.495
38.71000 551.333
38.72000 555.950
38.73000 558.423
38.74000 551.736
38.75000 544.007
38.76000 538.191
38.77000 524.125
38.78000 512.719
38.79000 503.739
38.80000 499.473
38.81000 495.326
38.82000 488.622
38.83000 478.595
38.84000 468.564
38.85000 457.154
38.86000 444.624
38.87000 432.149
38.88000 422.409
38.89000 414.189
38.90000 406.104
38.91000 400.504
38.92000 395.840
38.93000 391.528
38.94000 379.261
38.95000 366.434
38.96000 354.295
38.97000 346.239
38.98000 338.858
38.99000 331.298
39.00000 323.049
39.01000 314.731
39.02000 308.634
39.03000 308.182
39.04000 308.060
39.05000 306.927
39.06000 304.005
39.07000 301.049
39.08000 296.780
39.09000 290.969
39.10000 285.172
39.11000 284.128
39.12000 286.661
39.13000 289.174
39.14000 290.971
39.15000 292.405
39.16000 293.543
39.17000 290.070
39.18000 285.015
39.19000 280.396
39.20000 278.293
39.21000 276.940
39.22000 275.599
39.23000 274.326
39.24000 273.064
39.25000 271.660
39.26000 269.756
39.27000 267.809
39.28000 266.421
39.29000 265.247
39.30000 264.358
39.31000 265.035
39.32000 268.224
39.33000 271.447
39.34000 270.375
39.35000 264.775
39.36000 259.202
39.37000 259.070
39.38000 262.620
39.39000 266.033
39.40000 265.463
39.41000 263.058
39.42000 260.962
39.43000 262.975
39.44000 266.272
39.45000 269.245
39.46000 267.822
39.47000 265.772
39.48000 263.394
39.49000 259.442
39.50000 255.284
39.51000 254.011
39.52000 261.957
39.53000 270.593
39.54000 276.564
39.55000 268.959
39.56000 262.890
39.57000 258.204
39.58000 255.534
39.59000 252.883
39.60000 253.623
39.61000 257.573
39.62000 261.491
39.63000 264.437
39.64000 266.738
39.65000 268.876
39.66000 267.205
39.67000 263.936
39.68000 261.424
39.69000 267.608
39.70000 276.260
39.71000 283.954
39.72000 284.112
39.73000 283.025
39.74000 280.946
39.75000 274.561
39.76000 267.676
39.77000 260.945
39.78000 254.660
39.79000 248.403
39.80000 244.215
39.81000 256.348
39.82000 265.671
39.83000 267.502
39.84000 259.446
39.85000 251.351
39.86000 247.484
39.87000 247.216
39.88000 246.951
39.89000 251.198
39.90000 257.821
39.91000 264.151
39.92000 264.886
39.93000 263.481
39.94000 262.234
39.95000 262.577
39.96000 263.330
39.97000 263.989
39.98000 260.082
39.99000 256.072
40.00000 254.387
40.01000 261.851
40.02000 270.248
40.03000 273.758
40.04000 264.320
40.05000 254.189
40.06000 247.637
40.07000 247.341
40.08000 247.217
40.09000 250.464
40.10000 257.732
40.11000 264.988
40.12000 267.599
40.13000 266.642
40.14000 265.701
40.15000 267.235
40.16000 269.949
40.17000 272.172
40.18000 266.525
40.19000 258.137
40.20000 250.370
40.21000 248.062
40.22000 247.027
40.23000 246.136
40.24000 242.466
40.25000 239.001
40.26000 237.952
40.27000 245.528
40.28000 253.870
40.29000 259.845
40.30000 260.108
40.31000 260.118
40.32000 260.124
40.33000 264.303
40.34000 267.357
40.35000 266.270
40.36000 260.739
40.37000 255.228
40.38000 252.392
40.39000 251.418
40.40000 250.466
40.41000 250.784
40.42000 251.658
40.43000 252.163
40.44000 247.624
40.45000 241.486
40.46000 236.434
40.47000 239.804
40.48000 244.951
40.49000 249.311
40.50000 258.010
40.51000 265.783
40.52000 269.458
40.53000 259.837
40.54000 249.195
40.55000 244.252
40.56000 251.839
40.57000 259.872
40.58000 264.685
40.59000 258.788
40.60000 254.531
40.61000 250.086
40.62000 245.460
40.63000 240.900
40.64000 241.553
40.65000 245.497
40.66000 249.328
40.67000 250.752
40.68000 251.130
40.69000 251.545
40.70000 252.396
40.71000 253.372
40.72000 254.210
40.73000 254.091
40.74000 253.790
40.75000 253.539
40.76000 252.229
40.77000 251.042
40.78000 249.271
40.79000 245.779
40.80000 242.173
40.81000 239.427
40.82000 238.400
40.83000 237.422
40.84000 236.860
40.85000 244.514
40.86000 249.893
40.87000 253.142
40.88000 254.548
40.89000 255.888
40.90000 253.625
40.91000 249.296
40.92000 245.120
40.93000 244.545
40.94000 245.320
40.95000 245.940
40.96000 244.962
40.97000 243.567
40.98000 241.849
40.99000 238.146
41.00000 234.104
41.01000 230.808
41.02000 237.095
41.03000 243.050
41.04000 247.022
41.05000 245.664
41.06000 244.011
41.07000 243.970
41.08000 246.866
41.09000 249.824
41.10000 251.447
41.11000 247.387
41.12000 244.592
41.13000 243.558
41.14000 243.899
41.15000 244.275
41.16000 246.061
41.17000 248.582
41.18000 250.994
41.19000 250.362
41.20000 248.770
41.21000 247.227
41.22000 246.125
41.23000 245.128
41.24000 244.086
41.25000 242.798
41.26000 241.472
41.27000 240.413
41.28000 240.343
41.29000 240.358
41.30000 240.633
41.31000 241.543
41.32000 242.482
41.33000 241.945
41.34000 238.963
41.35000 235.944
41.36000 234.369
41.37000 241.752
41.38000 246.710
41.39000 246.300
41.40000 242.096
41.41000 237.918
41.42000 234.565
41.43000 231.602
41.44000 228.792
41.45000 229.804
41.46000 231.873
41.47000 233.906
41.48000 235.659
41.49000 237.352
41.50000 239.414
41.51000 243.315
41.52000 247.467
41.53000 250.708
41.54000 251.910
41.55000 252.741
41.56000 251.836
41.57000 247.056
41.58000 242.132
41.59000 239.672
41.60000 240.917
41.61000 242.200
41.62000 245.114
41.63000 249.627
41.64000 254.062
41.65000 251.956
41.66000 245.656
41.67000 239.489
41.68000 236.643
41.69000 235.232
41.70000 233.907
41.71000 233.254
41.72000 232.837
41.73000 232.976
41.74000 237.023
41.75000 241.825
41.76000 246.709
41.77000 251.953
41.78000 257.242
41.79000 261.271
41.80000 257.254
41.81000 253.665
41.82000 251.380
41.83000 251.747
41.84000 252.192
41.85000 251.865
41.86000 250.487
41.87000 249.105
41.88000 245.218
41.89000 239.136
41.90000 233.116
41.91000 230.679
41.92000 230.330
41.93000 230.077
41.94000 231.805
41.95000 234.313
41.96000 236.645
41.97000 232.673
41.98000 227.574
41.99000 223.475
42.00000 225.644
42.01000 228.904
42.02000 230.911
42.03000 227.830
42.04000 224.208
42.05000 221.518
42.06000 221.953
42.07000 222.429
42.08000 224.076
42.09000 227.892
42.10000 231.756
42.11000 232.660
42.12000 229.915
42.13000 227.166
42.14000 228.706
42.15000 233.629
42.16000 238.432
42.17000 238.139
42.18000 235.148
42.19000 232.166
42.20000 229.340
42.21000 226.571
42.22000 224.026
42.23000 226.221
42.24000 229.200
42.25000 231.437
42.26000 229.498
42.27000 226.909
42.28000 225.498
42.29000 228.428
42.30000 231.762
42.31000 234.171
42.32000 225.042
42.33000 217.622
42.34000 217.345
42.35000 229.090
42.36000 241.026
42.37000 242.527
42.38000 232.437
42.39000 222.379
42.40000 219.915
42.41000 222.879
42.42000 225.822
42.43000 228.089
42.44000 230.030
42.45000 232.146
42.46000 236.774
42.47000 242.222
42.48000 247.167
42.49000 244.037
42.50000 239.720
42.51000 236.995
42.52000 242.313
42.53000 248.749
42.54000 251.679
42.55000 242.873
42.56000 233.121
42.57000 226.279
42.58000 224.492
42.59000 223.286
42.60000 220.637
42.61000 215.782
42.62000 210.903
42.63000 211.138
42.64000 216.471
42.65000 221.769
42.66000 222.905
42.67000 221.355
42.68000 219.897
42.69000 220.818
42.70000 222.784
42.71000 224.624
42.72000 224.904
42.73000 224.721
42.74000 224.557
42.75000 225.084
42.76000 225.663
42.77000 226.562
42.78000 228.917
42.79000 231.451
42.80000 234.455
42.81000 238.887
42.82000 243.417
42.83000 246.499
42.84000 249.769
42.85000 252.216
42.86000 247.720
42.87000 233.605
42.88000 219.437
42.89000 215.160
42.90000 219.743
42.91000 224.278
42.92000 230.397
42.93000 237.299
42.94000 243.815
42.95000 242.217
42.96000 237.371
42.97000 232.609
42.98000 228.755
42.99000 225.145
43.00000 221.959
43.01000 227.236
43.02000 233.081
43.03000 238.032
43.04000 239.295
43.05000 240.156
43.06000 239.445
43.07000 234.373
43.08000 229.046
43.09000 225.543
43.10000 217.416
43.11000 211.352
43.12000 212.123
43.13000 221.454
43.14000 230.792
43.15000 232.989
43.16000 229.421
43.17000 225.905
43.18000 223.012
43.19000 220.529
43.20000 218.103
43.21000 216.672
43.22000 215.603
43.23000 214.768
43.24000 216.128
43.25000 218.024
43.26000 219.672
43.27000 223.508
43.28000 227.076
43.29000 229.103
43.30000 225.365
43.31000 221.079
43.32000 218.184
43.33000 218.802
43.34000 219.590
43.35000 220.091
43.36000 225.650
43.37000 229.747
43.38000 228.393
43.39000 220.882
43.40000 213.382
43.41000 208.794
43.42000 206.332
43.43000 203.918
43.44000 206.674
43.45000 211.765
43.46000 216.698
43.47000 219.290
43.48000 221.106
43.49000 222.523
43.50000 220.650
43.51000 218.049
43.52000 215.826
43.53000 215.145
43.54000 214.756
43.55000 215.233
43.56000 218.658
43.57000 222.326
43.58000 224.821
43.59000 224.616
43.60000 224.305
43.61000 224.115
43.62000 220.566
43.63000 218.001
43.64000 218.020
43.65000 220.663
43.66000 223.262
43.67000 221.487
43.68000 216.819
43.69000 212.270
43.70000 212.859
43.71000 215.609
43.72000 218.522
43.73000 223.502
43.74000 229.105
43.75000 233.726
43.76000 231.191
43.77000 227.222
43.78000 223.892
43.79000 222.463
43.80000 221.472
43.81000 220.797
43.82000 221.101
43.83000 221.474
43.84000 221.304
43.85000 219.995
43.86000 218.649
43.87000 217.860
43.88000 222.692
43.89000 226.121
43.90000 224.970
43.91000 219.646
43.92000 214.367
43.93000 212.008
43.94000 211.402
43.95000 210.816
43.96000 212.291
43.97000 214.478
43.98000 216.406
43.99000 215.503
44.00000 213.824
44.01000 212.692
44.02000 215.119
44.03000 218.186
44.04000 220.711
44.05000 221.445
44.06000 221.885
44.07000 222.233
44.08000 222.319
44.09000 222.389
44.10000 222.883
44.11000 224.185
44.12000 225.508
44.13000 226.250
44.14000 228.372
44.15000 229.848
44.16000 231.901
44.17000 234.426
44.18000 236.878
44.19000 235.919
44.20000 233.096
44.21000 230.383
44.22000 225.336
44.23000 219.801
44.24000 214.747
44.25000 214.273
44.26000 214.939
44.27000 216.571
44.28000 223.820
44.29000 231.976
44.30000 238.555
44.31000 226.649
44.32000 215.518
44.33000 208.783
44.34000 213.314
44.35000 218.411
44.36000 224.987
44.37000 234.129
44.38000 243.317
44.39000 248.232
44.40000 242.515
44.41000 238.611
44.42000 235.238
44.43000 232.261
44.44000 229.408
44.45000 230.973
44.46000 234.733
44.47000 238.316
44.48000 237.192
44.49000 234.681
44.50000 233.133
44.51000 239.673
44.52000 248.035
44.53000 255.056
44.54000 255.069
44.55000 254.071
44.56000 253.284
44.57000 248.937
44.58000 245.208
44.59000 243.013
44.60000 244.396
44.61000 245.927
44.62000 249.225
44.63000 255.310
44.64000 261.429
44.65000 264.538
44.66000 275.488
44.67000 282.831
44.68000 290.460
44.69000 298.280
44.70000 305.869
44.71000 307.053
44.72000 305.337
44.73000 303.718
44.74000 310.321
44.75000 318.692
44.76000 326.478
44.77000 329.922
44.78000 332.483
44.79000 335.496
44.80000 340.642
44.81000 346.062
44.82000 350.241
44.83000 358.988
44.84000 366.180
44.85000 372.000
44.86000 374.899
44.87000 377.703
44.88000 382.250
44.89000 389.289
44.90000 396.346
44.91000 399.435
44.92000 398.846
44.93000 398.332
44.94000 403.001
44.95000 410.830
44.96000 418.196
44.97000 415.214
44.98000 407.963
44.99000 401.186
45.00000 400.169
45.01000 400.702
45.02000 400.964
45.03000 399.432
45.04000 397.571
45.05000 395.380
45.06000 391.783
45.07000 388.026
45.08000 385.201
45.09000 372.105
45.10000 361.367
45.11000 354.145
45.12000 353.736
45.13000 353.501
45.14000 355.847
45.15000 361.538
45.16000 367.235
45.17000 368.569
45.18000 366.267
45.19000 363.967
45.20000 361.724
45.21000 359.515
45.22000 357.159
45.23000 352.102
45.24000 346.031
45.25000 340.420
45.26000 329.572
45.27000 318.646
45.28000 308.624
45.29000 303.955
45.30000 300.166
45.31000 298.918
45.32000 307.483
45.33000 317.022
45.34000 324.009
45.35000 320.016
45.36000 316.496
45.37000 313.359
45.38000 310.898
45.39000 308.449
45.40000 305.278
45.41000 301.264
45.42000 297.259
45.43000 299.157
45.44000 305.460
45.45000 311.419
45.46000 304.716
45.47000 291.624
45.48000 278.960
45.49000 272.959
45.50000 269.237
45.51000 265.838
45.52000 264.811
45.53000 264.382
45.54000 264.644
45.55000 268.580
45.56000 273.056
45.57000 274.812
45.58000 267.031
45.59000 258.426
45.60000 252.300
45.61000 256.015
45.62000 259.164
45.63000 259.766
45.64000 256.289
45.65000 252.759
45.66000 251.967
45.67000 254.053
45.68000 256.129
45.69000 254.859
45.70000 251.349
45.71000 247.885
45.72000 245.791
45.73000 244.326
45.74000 243.006
45.75000 243.613
45.76000 244.819
45.77000 245.907
45.78000 242.717
45.79000 239.142
45.80000 235.945
45.81000 234.562
45.82000 233.417
45.83000 230.822
45.84000 223.606
45.85000 216.045
45.86000 210.823
45.87000 222.331
45.88000 231.410
45.89000 237.074
45.90000 237.776
45.91000 238.436
45.92000 236.505
45.93000 232.130
45.94000 227.791
45.95000 227.276
45.96000 229.097
45.97000 230.667
45.98000 226.426
45.99000 219.752
46.00000 213.660
46.01000 214.224
46.02000 216.672
46.03000 218.849
46.04000 218.860
46.05000 218.521
46.06000 217.700
46.07000 214.796
46.08000 211.651
46.09000 209.915
46.10000 212.267
46.11000 214.879
46.12000 216.626
46.13000 211.617
46.14000 207.771
46.15000 205.186
46.16000 204.259
46.17000 203.345
46.18000 205.432
46.19000 210.067
46.20000 214.644
46.21000 214.825
46.22000 212.589
46.23000 210.324
46.24000 207.522
46.25000 204.514
46.26000 202.086
46.27000 205.427
46.28000 210.249
46.29000 214.472
46.30000 209.773
46.31000 204.463
46.32000 200.494
46.33000 201.782
46.34000 203.604
46.35000 204.755
46.36000 204.134
46.37000 203.419
46.38000 202.956
46.39000 204.178
46.40000 205.095
46.41000 204.870
46.42000 203.288
46.43000 201.708
46.44000 201.342
46.45000 201.906
46.46000 202.461
46.47000 201.604
46.48000 200.077
46.49000 198.654
46.50000 198.903
46.51000 199.731
46.52000 200.543
46.53000 201.208
46.54000 201.838
46.55000 202.381
46.56000 204.488
46.57000 206.472
46.58000 207.620
46.59000 205.792
46.60000 203.701
46.61000 200.246
46.62000 193.512
46.63000 186.633
46.64000 182.351
46.65000 189.893
46.66000 195.446
46.67000 199.268
46.68000 201.237
46.69000 203.212
46.70000 205.865
46.71000 208.988
46.72000 212.042
46.73000 210.036
46.74000 205.852
46.75000 201.823
46.76000 199.916
46.77000 198.679
46.78000 197.479
46.79000 196.564
46.80000 195.708
46.81000 194.983
46.82000 192.589
46.83000 190.398
46.84000 188.855
46.85000 189.412
46.86000 190.128
46.87000 190.699
46.88000 190.949
46.89000 191.188
46.90000 191.331
46.91000 192.208
46.92000 192.836
46.93000 195.818
46.94000 201.060
46.95000 206.236
46.96000 206.236
46.97000 202.980
46.98000 199.818
46.99000 201.560
47.00000 205.195
47.01000 208.103
47.02000 202.500
47.03000 194.451
47.04000 188.070
47.05000 193.138
47.06000 200.378
47.07000 206.395
47.08000 204.176
47.09000 201.538
47.10000 200.151
47.11000 202.450
47.12000 204.990
47.13000 203.179
47.14000 192.684
47.15000 181.947
47.16000 175.791
47.17000 180.243
47.18000 183.390
47.19000 184.998
47.20000 185.277
47.21000 185.561
47.22000 186.102
47.23000 186.792
47.24000 187.457
47.25000 184.485
47.26000 180.364
47.27000 176.859
47.28000 179.614
47.29000 184.003
47.30000 188.049
47.31000 189.990
47.32000 191.573
47.33000 192.863
47.34000 190.831
47.35000 188.890
47.36000 189.393
47.37000 196.450
47.38000 203.867
47.39000 206.200
47.40000 199.293
47.41000 192.193
47.42000 188.304
47.43000 182.632
47.44000 178.744
47.45000 178.962
47.46000 182.378
47.47000 185.655
47.48000 183.341
47.49000 178.119
47.50000 173.122
47.51000 175.829
47.52000 180.881
47.53000 185.333
47.54000 184.430
47.55000 182.260
47.56000 179.883
47.57000 176.373
47.58000 172.689
47.59000 169.750
47.60000 175.554
47.61000 180.878
47.62000 184.470
47.63000 183.829
47.64000 182.997
47.65000 183.568
47.66000 186.459
47.67000 189.384
47.68000 190.909
47.69000 188.859
47.70000 187.495
47.71000 189.281
47.72000 193.288
47.73000 197.072
47.74000 193.955
47.75000 187.567
47.76000 181.509
47.77000 180.635
47.78000 181.364
47.79000 182.328
47.80000 185.152
47.81000 188.373
47.82000 190.758
47.83000 188.999
47.84000 186.676
47.85000 184.865
47.86000 188.480
47.87000 191.701
47.88000 193.448
47.89000 191.919
47.90000 190.270
47.91000 188.127
47.92000 185.244
47.93000 182.354
47.94000 181.936
47.95000 183.932
47.96000 185.916
47.97000 186.961
47.98000 187.405
47.99000 187.776
48.00000 186.328
48.01000 184.095
48.02000 181.997
48.03000 182.938
48.04000 184.605
48.05000 185.559
48.06000 181.520
48.07000 176.518
48.08000 172.907
48.09000 175.516
48.10000 178.874
48.11000 181.431
48.12000 176.796
48.13000 172.769
48.14000 172.835
48.15000 181.196
48.16000 189.797
48.17000 192.566
48.18000 187.408
48.19000 182.207
48.20000 180.348
48.21000 181.421
48.22000 182.460
48.23000 181.545
48.24000 179.497
48.25000 177.707
48.26000 181.154
48.27000 186.658
48.28000 191.774
48.29000 188.792
48.30000 184.164
48.31000 179.847
48.32000 177.476
48.33000 175.443
48.34000 174.725
48.35000 179.337
48.36000 184.514
48.37000 188.356
48.38000 186.524
48.39000 184.852
48.40000 183.700
48.41000 183.505
48.42000 183.331
48.43000 181.772
48.44000 178.511
48.45000 175.251
48.46000 175.297
48.47000 177.946
48.48000 180.576
48.49000 182.404
48.50000 183.810
48.51000 184.924
48.52000 181.133
48.53000 175.584
48.54000 170.487
48.55000 171.890
48.56000 174.536
48.57000 176.683
48.58000 176.038
48.59000 174.959
48.60000 175.043
48.61000 179.398
48.62000 184.147
48.63000 187.576
48.64000 181.217
48.65000 175.989
48.66000 176.165
48.67000 185.410
48.68000 194.798
48.69000 195.669
48.70000 187.110
48.71000 178.578
48.72000 176.734
48.73000 179.650
48.74000 182.523
48.75000 183.974
48.76000 184.742
48.77000 185.550
48.78000 186.929
48.79000 188.494
48.80000 189.913
48.81000 190.308
48.82000 190.461
48.83000 190.584
48.84000 190.560
48.85000 190.516
48.86000 188.670
48.87000 180.813
48.88000 172.473
48.89000 166.627
48.90000 166.071
48.91000 165.803
48.92000 168.709
48.93000 176.453
48.94000 184.247
48.95000 186.606
48.96000 183.562
48.97000 180.539
48.98000 179.152
48.99000 178.832
49.00000 178.503
49.01000 177.963
49.02000 177.330
49.03000 176.916
49.04000 179.176
49.05000 182.229
49.06000 184.962
49.07000 178.961
49.08000 172.229
49.09000 167.123
49.10000 169.408
49.11000 172.601
49.12000 176.117
49.13000 180.618
49.14000 185.186
49.15000 188.290
49.16000 187.647
49.17000 187.082
49.18000 184.279
49.19000 178.383
49.20000 172.473
49.21000 172.502
49.22000 177.834
49.23000 183.111
49.24000 180.562
49.25000 173.555
49.26000 166.860
49.27000 166.656
49.28000 169.043
49.29000 171.540
49.30000 175.209
49.31000 179.194
49.32000 182.709
49.33000 174.627
49.34000 165.891
49.35000 160.255
49.36000 167.372
49.37000 175.869
49.38000 180.898
49.39000 176.344
49.40000 171.233
49.41000 167.874
49.42000 172.585
49.43000 176.189
49.44000 177.791
49.45000 176.894
49.46000 175.981
49.47000 172.033
49.48000 165.641
49.49000 159.343
49.50000 161.688
49.51000 168.465
49.52000 174.884
49.53000 175.085
49.54000 173.025
49.55000 171.519
49.56000 175.159
49.57000 180.055
49.58000 184.307
49.59000 185.455
49.60000 186.014
49.61000 185.252
49.62000 179.558
49.63000 173.396
49.64000 170.657
49.65000 176.533
49.66000 182.825
49.67000 186.814
49.68000 185.205
49.69000 183.970
49.70000 180.696
49.71000 175.126
49.72000 169.580
49.73000 168.210
49.74000 169.879
49.75000 171.516
49.76000 171.815
49.77000 171.476
49.78000 171.381
49.79000 174.870
49.80000 179.544
49.81000 183.503
49.82000 181.595
49.83000 178.391
49.84000 175.654
49.85000 175.215
49.86000 175.118
49.87000 175.164
49.88000 175.693
49.89000 176.263
49.90000 177.196
49.91000 178.963
49.92000 180.764
49.93000 181.862
49.94000 175.781
49.95000 171.375
49.96000 169.519
49.97000 170.242
49.98000 170.974
49.99000 172.603
50.00000 174.823
50.01000 176.986
50.02000 176.229
50.03000 174.268
50.04000 172.444
50.05000 172.330
50.06000 172.731
50.07000 173.558
50.08000 177.487
50.09000 182.035
50.10000 185.849
50.11000 182.312
50.12000 178.601
50.13000 174.693
50.14000 170.172
50.15000 165.609
50.16000 164.221
50.17000 169.468
50.18000 174.923
50.19000 178.117
50.20000 184.185
50.21000 188.472
50.22000 191.696
50.23000 193.954
50.24000 196.141
50.25000 193.732
50.26000 188.571
50.27000 183.574
50.28000 180.874
50.29000 179.201
50.30000 178.137
50.31000 183.703
50.32000 191.083
50.33000 197.905
50.34000 201.121
50.35000 203.690
50.36000 205.804
50.37000 198.983
50.38000 192.565
50.39000 190.066
50.40000 198.568
50.41000 207.726
50.42000 213.282
50.43000 211.983
50.44000 210.520
50.45000 209.700
50.46000 214.410
50.47000 217.686
50.48000 220.259
50.49000 222.256
50.50000 224.192
50.51000 223.348
50.52000 220.989
50.53000 218.722
50.54000 218.892
50.55000 219.893
50.56000 221.079
50.57000 224.034
50.58000 227.427
50.59000 229.545
50.60000 224.270
50.61000 217.805
50.62000 212.594
50.63000 217.603
50.64000 222.474
50.65000 225.349
50.66000 223.124
50.67000 220.645
50.68000 219.699
50.69000 221.408
50.70000 223.164
50.71000 224.102
50.72000 222.417
50.73000 221.263
50.74000 219.492
50.75000 217.264
50.76000 215.119
50.77000 215.836
50.78000 217.972
50.79000 220.006
50.80000 219.852
50.81000 219.027
50.82000 218.242
50.83000 217.782
50.84000 217.396
50.85000 216.673
50.86000 214.197
50.87000 211.469
50.88000 209.317
50.89000 207.237
50.90000 205.573
50.91000 202.471
50.92000 196.020
50.93000 189.433
50.94000 185.686
50.95000 186.405
50.96000 187.178
50.97000 187.571
50.98000 185.373
50.99000 183.951
51.00000 187.768
51.01000 195.093
51.02000 202.075
51.03000 199.575
51.04000 192.795
51.05000 186.395
51.06000 186.674
51.07000 188.802
51.08000 190.205
51.09000 186.243
51.10000 181.193
51.11000 176.849
51.12000 175.827
51.13000 175.229
51.14000 174.769
51.15000 174.684
51.16000 174.639
51.17000 174.441
51.18000 173.918
51.19000 173.385
51.20000 175.362
51.21000 180.918
51.22000 186.500
51.23000 186.841
51.24000 182.345
51.25000 177.925
51.26000 178.716
51.27000 182.675
51.28000 186.439
51.29000 185.848
51.30000 183.466
51.31000 181.240
51.32000 181.223
51.33000 181.764
51.34000 182.411
51.35000 183.751
51.36000 185.219
51.37000 186.884
51.38000 189.391
51.39000 191.993
51.40000 193.948
51.41000 188.112
51.42000 183.176
51.43000 177.379
51.44000 169.919
51.45000 162.417
51.46000 159.534
51.47000 162.613
51.48000 165.711
51.49000 165.292
51.50000 161.956
51.51000 158.678
51.52000 158.198
51.53000 159.266
51.54000 160.420
51.55000 163.143
51.56000 166.455
51.57000 169.515
51.58000 166.501
51.59000 162.423
51.60000 158.856
51.61000 158.305
51.62000 158.248
51.63000 158.528
51.64000 160.106
51.65000 161.812
51.66000 163.060
51.67000 162.188
51.68000 161.431
51.69000 159.526
51.70000 155.603
51.71000 151.642
51.72000 150.783
51.73000 153.536
51.74000 156.288
51.75000 158.465
51.76000 160.199
51.77000 161.846
51.78000 160.304
51.79000 157.157
51.80000 154.180
51.81000 153.826
51.82000 154.366
51.83000 154.859
51.84000 161.280
51.85000 168.178
51.86000 173.396
51.87000 169.711
51.88000 164.721
51.89000 161.125
51.90000 162.399
51.91000 164.091
51.92000 165.295
51.93000 160.554
51.94000 156.752
51.95000 156.888
51.96000 163.312
51.97000 169.818
51.98000 170.553
51.99000 165.243
52.00000 159.959
52.01000 160.077
52.02000 163.825
52.03000 167.360
52.04000 164.818
52.05000 159.491
52.06000 154.492
52.07000 153.831
52.08000 154.516
52.09000 155.134
52.10000 156.605
52.11000 158.051
52.12000 159.513
52.13000 161.054
52.14000 162.606
52.15000 164.607
52.16000 168.033
52.17000 171.565
52.18000 174.003
52.19000 166.050
52.20000 159.811
52.21000 157.249
52.22000 160.018
52.23000 162.829
52.24000 163.547
52.25000 162.295
52.26000 161.054
52.27000 159.504
52.28000 157.795
52.29000 156.156
52.30000 156.126
52.31000 156.769
52.32000 157.598
52.33000 160.540
52.34000 164.078
52.35000 167.222
52.36000 169.123
52.37000 170.571
52.38000 171.325
52.39000 169.078
52.40000 166.486
52.41000 164.341
52.42000 163.488
52.43000 162.718
52.44000 162.203
52.45000 163.538
52.46000 164.563
52.47000 163.869
52.48000 160.921
52.49000 157.966
52.50000 157.460
52.51000 159.024
52.52000 160.569
52.53000 160.230
52.54000 158.869
52.55000 157.515
52.56000 156.306
52.57000 155.153
52.58000 154.400
52.59000 157.618
52.60000 161.853
52.61000 165.560
52.62000 164.220
52.63000 162.349
52.64000 161.225
52.65000 163.021
52.66000 165.112
52.67000 165.245
52.68000 160.223
52.69000 154.927
52.70000 151.510
52.71000 155.811
52.72000 159.065
52.73000 160.463
52.74000 159.661
52.75000 158.853
52.76000 157.366
52.77000 155.361
52.78000 153.390
52.79000 151.797
52.80000 150.445
52.81000 149.350
52.82000 152.361
52.83000 156.793
52.84000 160.324
52.85000 156.008
52.86000 149.870
52.87000 144.585
52.88000 146.483
52.89000 148.999
52.90000 151.316
52.91000 152.927
52.92000 154.475
52.93000 155.694
52.94000 156.123
52.95000 156.517
52.96000 156.762
52.97000 160.584
52.98000 163.372
52.99000 164.491
53.00000 163.833
53.01000 163.173
53.02000 162.490
53.03000 161.789
53.04000 161.104
53.05000 161.131
53.06000 161.475
53.07000 161.973
53.08000 164.560
53.09000 167.806
53.10000 170.222
53.11000 166.250
53.12000 160.939
53.13000 156.444
53.14000 154.940
53.15000 154.012
53.16000 153.284
53.17000 153.199
53.18000 153.162
53.19000 153.070
53.20000 152.857
53.21000 152.641
53.22000 152.511
53.23000 156.488
53.24000 159.335
53.25000 160.612
53.26000 160.387
53.27000 160.181
53.28000 161.473
53.29000 163.706
53.30000 165.874
53.31000 166.229
53.32000 165.836
53.33000 165.130
53.34000 160.787
53.35000 155.400
53.36000 150.589
53.37000 149.706
53.38000 149.567
53.39000 149.451
53.40000 157.861
53.41000 165.645
53.42000 170.162
53.43000 165.086
53.44000 159.387
53.45000 155.152
53.46000 153.830
53.47000 152.589
53.48000 151.878
53.49000 154.978
53.50000 157.149
53.51000 154.039
53.52000 146.386
53.53000 138.929
53.54000 142.064
53.55000 151.238
53.56000 160.084
53.57000 159.569
53.58000 155.684
53.59000 152.527
53.60000 156.740
53.61000 162.872
53.62000 167.941
53.63000 166.515
53.64000 163.985
53.65000 161.925
53.66000 157.984
53.67000 154.606
53.68000 152.908
53.69000 155.699
53.70000 158.736
53.71000 160.362
53.72000 159.433
53.73000 158.451
53.74000 157.914
53.75000 155.230
53.76000 153.391
53.77000 153.843
53.78000 156.073
53.79000 158.304
53.80000 160.563
53.81000 162.837
53.82000 165.012
53.83000 164.335
53.84000 162.770
53.85000 161.088
53.86000 158.366
53.87000 155.398
53.88000 153.068
53.89000 154.233
53.90000 155.930
53.91000 157.283
53.92000 158.134
53.93000 158.785
53.94000 158.108
53.95000 154.200
53.96000 150.146
53.97000 148.192
53.98000 149.696
53.99000 151.251
54.00000 152.060
54.01000 150.465
54.02000 149.397
54.03000 149.813
54.04000 151.272
54.05000 152.642
54.06000 151.284
54.07000 148.636
54.08000 146.126
54.09000 152.589
54.10000 161.194
54.11000 168.438
54.12000 164.995
54.13000 159.273
54.14000 154.148
54.15000 151.971
54.16000 150.193
54.17000 148.807
54.18000 144.725
54.19000 141.306
54.20000 138.851
54.21000 138.540
54.22000 138.306
54.23000 139.389
54.24000 142.440
54.25000 145.509
54.26000 148.453
54.27000 151.275
54.28000 154.052
54.29000 153.119
54.30000 149.821
54.31000 146.594
54.32000 145.093
54.33000 144.336
54.34000 143.624
54.35000 144.692
54.36000 146.138
54.37000 147.646
54.38000 149.583
54.39000 151.602
54.40000 152.914
54.41000 151.074
54.42000 148.856
54.43000 147.169
54.44000 150.586
54.45000 153.542
54.46000 153.691
54.47000 148.166
54.48000 142.479
54.49000 141.348
54.50000 146.389
54.51000 151.462
54.52000 157.340
54.53000 163.910
54.54000 170.299
54.55000 166.380
54.56000 156.493
54.57000 147.019
54.58000 145.873
54.59000 147.990
54.60000 149.957
54.61000 149.886
54.62000 149.337
54.63000 148.828
54.64000 148.574
54.65000 148.364
54.66000 148.983
54.67000 152.950
54.68000 157.271
54.69000 160.474
54.70000 156.168
54.71000 152.496
54.72000 150.316
54.73000 150.879
54.74000 151.503
54.75000 150.277
54.76000 146.788
54.77000 143.300
54.78000 142.893
54.79000 144.907
54.80000 146.917
54.81000 148.765
54.82000 150.529
54.83000 152.095
54.84000 150.343
54.85000 147.406
54.86000 144.708
54.87000 145.826
54.88000 147.638
54.89000 149.620
54.90000 152.545
54.91000 155.615
54.92000 157.853
54.93000 157.039
54.94000 155.944
54.95000 155.155
54.96000 156.648
54.97000 157.873
54.98000 158.566
54.99000 158.367
55.00000 158.154
55.01000 158.242
55.02000 158.663
55.03000 159.082
55.04000 157.735
55.05000 155.151
55.06000 152.551
55.07000 149.427
55.08000 146.053
55.09000 143.139
55.10000 146.776
55.11000 152.543
55.12000 157.773
55.13000 157.971
55.14000 157.183
55.15000 156.244
55.16000 154.543
55.17000 152.736
55.18000 151.620
55.19000 152.803
55.20000 154.169
55.21000 155.126
55.22000 168.710
55.23000 179.345
55.24000 184.193
55.25000 180.249
55.26000 176.213
55.27000 173.825
55.28000 173.068
55.29000 172.316
55.30000 171.712
55.31000 171.210
55.32000 170.777
55.33000 172.110
55.34000 174.215
55.35000 176.231
55.36000 177.163
55.37000 177.775
55.38000 178.322
55.39000 183.961
55.40000 189.747
55.41000 193.736
55.42000 189.585
55.43000 184.437
55.44000 182.033
55.45000 187.932
55.46000 194.398
55.47000 198.788
55.48000 202.013
55.49000 204.394
55.50000 206.640
55.51000 208.702
55.52000 210.767
55.53000 217.823
55.54000 229.320
55.55000 240.699
55.56000 246.948
55.57000 250.111
55.58000 253.315
55.59000 257.357
55.60000 261.733
55.61000 265.799
55.62000 266.594
55.63000 266.510
55.64000 266.436
55.65000 276.151
55.66000 286.011
55.67000 295.482
55.68000 303.358
55.69000 311.062
55.70000 317.745
55.71000 321.611
55.72000 325.314
55.73000 327.745
55.74000 347.347
55.75000 362.056
55.76000 365.863
55.77000 356.097
55.78000 346.323
55.79000 347.642
55.80000 357.861
55.81000 367.930
55.82000 376.149
55.83000 383.167
55.84000 389.810
55.85000 389.990
55.86000 387.827
55.87000 386.114
55.88000 388.562
55.89000 392.023
55.90000 395.028
55.91000 395.037
55.92000 394.643
55.93000 394.335
55.94000 394.349
55.95000 394.394
55.96000 392.833
55.97000 387.244
55.98000 381.462
55.99000 377.799
56.00000 381.161
56.01000 383.684
56.02000 379.786
56.03000 368.681
56.04000 357.577
56.05000 347.721
56.06000 338.770
56.07000 329.996
56.08000 321.158
56.09000 312.622
56.10000 304.781
56.11000 307.078
56.12000 312.723
56.13000 316.749
56.14000 307.570
56.15000 295.481
56.16000 285.163
56.17000 276.521
56.18000 269.444
56.19000 264.106
56.20000 264.644
56.21000 265.663
56.22000 264.117
56.23000 256.706
56.24000 249.065
56.25000 244.408
56.26000 241.767
56.27000 239.895
56.28000 234.409
56.29000 225.279
56.30000 216.221
56.31000 214.124
56.32000 216.604
56.33000 219.020
56.34000 214.362
56.35000 206.927
56.36000 199.887
56.37000 197.796
56.38000 197.191
56.39000 196.682
56.40000 196.867
56.41000 197.190
56.42000 197.460
56.43000 189.456
56.44000 181.939
56.45000 176.094
56.46000 175.384
56.47000 175.035
56.48000 175.533
56.49000 177.797
56.50000 180.116
56.51000 181.472
56.52000 178.000
56.53000 175.533
56.54000 172.059
56.55000 167.675
56.56000 163.357
56.57000 163.195
56.58000 165.516
56.59000 167.763
56.60000 167.537
56.61000 166.380
56.62000 165.296
56.63000 164.997
56.64000 164.912
56.65000 164.356
56.66000 160.759
56.67000 156.618
56.68000 153.213
56.69000 155.485
56.70000 157.864
56.71000 159.005
56.72000 156.678
56.73000 154.144
56.74000 153.147
56.75000 155.063
56.76000 157.049
56.77000 158.159
56.78000 155.008
56.79000 152.812
56.80000 149.996
56.81000 146.672
56.82000 143.387
56.83000 141.941
56.84000 141.491
56.85000 141.059
56.86000 140.322
56.87000 139.527
56.88000 138.822
56.89000 138.963
56.90000 139.313
56.91000 139.787
56.92000 140.974
56.93000 142.275
56.94000 143.324
56.95000 141.269
56.96000 139.357
56.97000 139.282
56.98000 143.885
56.99000 148.719
57.00000 151.222
57.01000 149.700
57.02000 148.108
57.03000 147.259
57.04000 144.663
57.05000 142.908
57.06000 143.963
57.07000 147.090
57.08000 150.146
57.09000 150.721
57.10000 150.071
57.11000 149.452
57.12000 147.945
57.13000 146.273
57.14000 144.713
57.15000 144.083
57.16000 143.662
57.17000 143.896
57.18000 147.532
57.19000 151.655
57.20000 154.904
57.21000 146.151
57.22000 138.328
57.23000 134.896
57.24000 141.659
57.25000 148.836
57.26000 150.682
57.27000 144.171
57.28000 137.561
57.29000 134.213
57.30000 132.701
57.31000 131.706
57.32000 132.466
57.33000 134.398
57.34000 136.267
57.35000 136.379
57.36000 135.701
57.37000 135.062
57.38000 137.389
57.39000 140.351
57.40000 142.528
57.41000 138.913
57.42000 134.126
57.43000 130.686
57.44000 133.553
57.45000 137.224
57.46000 140.049
57.47000 138.569
57.48000 137.151
57.49000 136.560
57.50000 137.715
57.51000 138.926
57.52000 140.264
57.53000 141.781
57.54000 143.299
57.55000 141.800
57.56000 137.527
57.57000 133.315
57.58000 133.239
57.59000 135.673
57.60000 137.986
57.61000 137.623
57.62000 136.162
57.63000 134.798
57.64000 140.406
57.65000 147.244
57.66000 152.899
57.67000 150.775
57.68000 147.235
57.69000 143.672
57.70000 140.013
57.71000 136.343
57.72000 133.587
57.73000 136.656
57.74000 139.332
57.75000 141.869
57.76000 144.138
57.77000 146.400
57.78000 147.993
57.79000 148.725
57.80000 149.453
57.81000 147.605
57.82000 143.634
57.83000 139.720
57.84000 138.537
57.85000 138.859
57.86000 139.198
57.87000 139.847
57.88000 140.612
57.89000 141.319
57.90000 142.979
57.91000 144.684
57.92000 145.695
57.93000 142.631
57.94000 138.902
57.95000 135.781
57.96000 134.994
57.97000 134.437
57.98000 134.029
57.99000 133.829
58.00000 133.683
58.01000 134.793
58.02000 138.105
58.03000 141.458
58.04000 142.098
58.05000 139.588
58.06000 137.081
58.07000 138.652
58.08000 143.245
58.09000 147.677
58.10000 146.316
58.11000 142.048
58.12000 137.927
58.13000 136.074
58.14000 134.991
58.15000 134.004
58.16000 138.067
58.17000 142.691
58.18000 146.584
58.19000 146.614
58.20000 146.080
58.21000 145.366
58.22000 144.028
58.23000 142.636
58.24000 141.647
58.25000 135.327
58.26000 130.346
58.27000 129.556
58.28000 135.440
58.29000 141.410
58.30000 141.986
58.31000 136.930
58.32000 131.899
58.33000 131.805
58.34000 135.020
58.35000 138.028
58.36000 135.152
58.37000 129.587
58.38000 124.783
58.39000 129.971
58.40000 138.252
58.41000 145.710
58.42000 145.364
58.43000 143.652
58.44000 142.144
58.45000 141.607
58.46000 141.197
58.47000 140.261
58.48000 137.664
58.49000 134.944
58.50000 133.069
58.51000 139.243
58.52000 144.084
58.53000 148.302
58.54000 151.618
58.55000 154.926
58.56000 155.057
58.57000 152.209
58.58000 149.386
58.59000 144.719
58.60000 139.026
58.61000 133.497
58.62000 131.739
58.63000 131.550
58.64000 131.441
58.65000 132.239
58.66000 133.292
58.67000 134.226
58.68000 132.927
58.69000 131.442
58.70000 130.115
58.71000 129.474
58.72000 128.911
58.73000 128.538
58.74000 128.713
58.75000 128.923
58.76000 129.063
58.77000 131.420
58.78000 133.209
58.79000 134.940
58.80000 136.596
58.81000 138.248
58.82000 137.348
58.83000 134.299
58.84000 131.287
58.85000 129.084
58.86000 127.378
58.87000 126.041
58.88000 131.643
58.89000 139.876
58.90000 146.923
58.91000 142.260
58.92000 134.605
58.93000 127.910
58.94000 130.156
58.95000 133.356
58.96000 135.856
58.97000 135.628
58.98000 135.126
58.99000 135.746
59.00000 139.316
59.01000 143.042
59.02000 145.443
59.03000 136.953
59.04000 130.597
59.05000 128.466
59.06000 131.324
59.07000 134.173
59.08000 133.463
59.09000 130.041
59.10000 126.678
59.11000 129.680
59.12000 135.717
59.13000 141.441
59.14000 142.233
59.15000 141.322
59.16000 140.407
59.17000 139.453
59.18000 138.490
59.19000 137.661
59.20000 134.988
59.21000 132.492
59.22000 129.690
59.23000 125.802
59.24000 121.819
59.25000 120.926
59.26000 127.428
59.27000 134.251
59.28000 138.488
59.29000 134.477
59.30000 131.508
59.31000 131.834
59.32000 135.663
59.33000 139.470
59.34000 140.619
59.35000 139.936
59.36000 139.268
59.37000 135.409
59.38000 130.292
59.39000 125.422
59.40000 123.865
59.41000 123.351
59.42000 123.179
59.43000 125.636
59.44000 128.643
59.45000 131.187
59.46000 133.207
59.47000 134.839
59.48000 135.667
59.49000 133.909
59.50000 131.955
59.51000 131.120
59.52000 132.725
59.53000 134.414
59.54000 135.422
59.55000 129.565
59.56000 125.370
59.57000 125.701
59.58000 130.347
59.59000 134.935
59.60000 135.007
59.61000 132.255
59.62000 129.582
59.63000 128.032
59.64000 127.012
59.65000 126.278
59.66000 128.877
59.67000 132.428
59.68000 135.377
59.69000 134.228
59.70000 132.306
59.71000 130.710
59.72000 129.408
59.73000 128.360
59.74000 127.947
59.75000 129.392
59.76000 130.957
59.77000 131.668
59.78000 130.682
59.79000 129.649
59.80000 129.059
59.81000 132.526
59.82000 134.957
59.83000 135.678
59.84000 134.930
59.85000 134.203
59.86000 134.611
59.87000 135.662
59.88000 136.677
59.89000 135.555
59.90000 133.727
59.91000 132.147
59.92000 133.075
59.93000 134.654
59.94000 135.996
59.95000 135.893
59.96000 135.544
59.97000 135.261
59.98000 130.736
59.99000 126.685
60.00000 125.032
60.01000 129.775
60.02000 134.865
60.03000 138.081
60.04000 137.910
60.05000 137.669
60.06000 137.538
60.07000 137.025
60.08000 136.671
60.09000 135.989
60.10000 135.055
60.11000 134.156
60.12000 134.605
60.13000 135.751
60.14000 136.848
60.15000 134.476
60.16000 131.135
60.17000 128.258
60.18000 129.490
60.19000 131.688
60.20000 133.468
60.21000 132.964
60.22000 132.115
60.23000 131.438
60.24000 130.510
60.25000 129.744
60.26000 129.761
60.27000 131.677
60.28000 133.679
60.29000 133.166
60.30000 128.521
60.31000 123.816
60.32000 121.371
60.33000 129.896
60.34000 135.603
60.35000 134.455
60.36000 128.503
60.37000 122.702
60.38000 121.508
60.39000 122.483
60.40000 123.407
60.41000 126.321
60.42000 129.591
60.43000 132.759
60.44000 135.121
60.45000 137.313
60.46000 138.400
60.47000 134.050
60.48000 128.968
60.49000 125.009
60.50000 129.615
60.51000 133.812
60.52000 136.636
60.53000 136.421
60.54000 136.097
60.55000 134.399
60.56000 130.653
60.57000 126.888
60.58000 126.225
60.59000 128.572
60.60000 130.900
60.61000 131.784
60.62000 131.749
60.63000 131.740
60.64000 132.334
60.65000 133.186
60.66000 133.987
60.67000 134.301
60.68000 134.460
60.69000 134.693
60.70000 135.452
60.71000 136.311
60.72000 136.645
60.73000 134.649
60.74000 132.374
60.75000 130.645
60.76000 131.703
60.77000 132.680
60.78000 133.235
60.79000 132.936
60.80000 132.612
60.81000 132.351
60.82000 132.175
60.83000 131.999
60.84000 131.375
60.85000 130.360
60.86000 129.386
60.87000 130.692
60.88000 133.314
60.89000 135.783
60.90000 135.195
60.91000 133.411
60.92000 131.754
60.93000 132.784
60.94000 134.351
60.95000 136.390
60.96000 141.353
60.97000 146.821
60.98000 150.317
60.99000 145.877
61.00000 140.602
61.01000 136.695
61.02000 136.921
61.03000 137.276
61.04000 137.996
61.05000 139.386
61.06000 140.790
61.07000 140.375
61.08000 137.740
61.09000 135.105
61.10000 134.744
61.11000 136.164
61.12000 137.468
61.13000 133.951
61.14000 127.901
61.15000 122.360
61.16000 125.316
61.17000 131.298
61.18000 136.789
61.19000 139.534
61.20000 141.397
61.21000 142.357
61.22000 138.297
61.23000 133.462
61.24000 130.638
61.25000 135.157
61.26000 140.349
61.27000 144.092
61.28000 140.873
61.29000 138.160
61.30000 135.225
61.31000 131.917
61.32000 128.604
61.33000 129.295
61.34000 134.389
61.35000 139.466
61.36000 142.100
61.37000 142.988
61.38000 143.894
61.39000 145.366
61.40000 147.109
61.41000 148.709
61.42000 148.278
61.43000 147.188
61.44000 146.200
61.45000 146.004
61.46000 145.982
61.47000 147.059
61.48000 153.635
61.49000 160.967
61.50000 166.464
61.51000 165.871
61.52000 164.795
61.53000 164.042
61.54000 189.943
61.55000 210.281
61.56000 228.623
61.57000 243.942
61.58000 259.230
61.59000 268.785
61.60000 272.680
61.61000 276.548
61.62000 284.481
61.63000 294.873
61.64000 304.959
61.65000 307.322
61.66000 306.320
61.67000 305.494
61.68000 306.811
61.69000 308.759
61.70000 310.501
61.71000 310.809
61.72000 310.834
61.73000 309.861
61.74000 304.379
61.75000 298.348
61.76000 289.479
61.77000 272.050
61.78000 254.037
61.79000 241.823
61.80000 225.026
61.81000 212.399
61.82000 202.194
61.83000 195.314
61.84000 188.451
61.85000 178.718
61.86000 166.437
61.87000 154.286
61.88000 151.175
61.89000 153.314
61.90000 155.223
61.91000 152.392
61.92000 147.680
61.93000 143.232
61.94000 141.569
61.95000 140.652
61.96000 139.844
61.97000 144.392
61.98000 149.121
61.99000 152.706
62.00000 151.611
62.01000 150.013
62.02000 148.368
62.03000 146.590
62.04000 144.804
62.05000 143.634
62.06000 141.713
62.07000 140.288
62.08000 139.115
62.09000 138.257
62.10000 137.396
62.11000 135.519
62.12000 132.830
62.13000 130.181
62.14000 132.582
62.15000 137.523
62.16000 142.156
62.17000 141.499
62.18000 138.931
62.19000 136.761
62.20000 138.277
62.21000 140.686
62.22000 142.777
62.23000 141.520
62.24000 140.002
62.25000 138.760
62.26000 138.547
62.27000 138.430
62.28000 138.336
62.29000 138.296
62.30000 138.259
62.31000 138.236
62.32000 142.393
62.33000 145.456
62.34000 146.988
62.35000 146.807
62.36000 146.616
62.37000 145.189
62.38000 142.868
62.39000 140.593
62.40000 140.680
62.41000 141.867
62.42000 143.220
62.43000 146.976
62.44000 151.523
62.45000 155.393
62.46000 153.746
62.47000 150.889
62.48000 148.451
62.49000 141.263
62.50000 134.654
62.51000 131.096
62.52000 137.818
62.53000 145.378
62.54000 150.588
62.55000 150.438
62.56000 150.080
62.57000 149.862
62.58000 145.026
62.59000 141.535
62.60000 140.210
62.61000 141.061
62.62000 141.889
62.63000 140.534
62.64000 137.750
62.65000 135.036
62.66000 137.400
62.67000 141.794
62.68000 145.844
62.69000 145.612
62.70000 144.098
62.71000 142.746
62.72000 142.559
62.73000 142.604
62.74000 142.642
62.75000 145.666
62.76000 148.489
62.77000 150.401
62.78000 149.520
62.79000 148.444
62.80000 146.773
62.81000 143.868
62.82000 140.924
62.83000 139.205
62.84000 141.585
62.85000 143.280
62.86000 145.630
62.87000 148.572
62.88000 151.488
62.89000 152.743
62.90000 153.008
62.91000 153.265
62.92000 148.982
62.93000 143.206
62.94000 137.574
62.95000 133.481
62.96000 129.806
62.97000 127.032
62.98000 130.047
62.99000 134.094
63.00000 137.420
63.01000 140.614
63.02000 143.226
63.03000 145.276
63.04000 145.761
63.05000 146.153
63.06000 148.560
63.07000 154.776
63.08000 161.082
63.09000 164.605
63.10000 152.915
63.11000 144.799
63.12000 141.734
63.13000 142.777
63.14000 143.820
63.15000 144.883
63.16000 145.957
63.17000 146.988
63.18000 144.452
63.19000 140.855
63.20000 138.024
63.21000 142.396
63.22000 148.547
63.23000 153.078
63.24000 148.289
63.25000 142.008
63.26000 136.952
63.27000 138.804
63.28000 140.844
63.29000 142.163
63.30000 141.650
63.31000 141.046
63.32000 141.468
63.33000 143.656
63.34000 145.875
63.35000 147.057
63.36000 139.516
63.37000 134.407
63.38000 135.211
63.39000 140.360
63.40000 145.497
63.41000 150.213
63.42000 154.722
63.43000 159.015
63.44000 155.724
63.45000 150.331
63.46000 145.709
63.47000 147.489
63.48000 150.700
63.49000 153.989
63.50000 157.686
63.51000 161.441
63.52000 164.398
63.53000 160.575
63.54000 157.059
63.55000 154.482
63.56000 154.077
63.57000 153.760
63.58000 153.750
63.59000 154.219
63.60000 154.693
63.61000 154.933
63.62000 160.681
63.63000 164.455
63.64000 160.778
63.65000 152.140
63.66000 143.893
63.67000 146.266
63.68000 153.407
63.69000 160.142
63.70000 158.161
63.71000 153.916
63.72000 150.449
63.73000 152.701
63.74000 156.106
63.75000 158.308
63.76000 154.891
63.77000 150.761
63.78000 147.584
63.79000 150.519
63.80000 153.188
63.81000 155.692
63.82000 157.847
63.83000 159.990
63.84000 159.540
63.85000 155.412
63.86000 151.258
63.87000 151.531
63.88000 155.863
63.89000 160.161
63.90000 162.196
63.91000 162.863
63.92000 163.419
63.93000 161.535
63.94000 158.652
63.95000 155.960
63.96000 153.695
63.97000 151.748
63.98000 150.083
63.99000 150.260
64.00000 150.772
64.01000 151.969
64.02000 156.054
64.03000 160.463
64.04000 163.771
64.05000 163.165
64.06000 162.506
64.07000 162.062
64.08000 162.028
64.09000 162.005
64.10000 165.219
64.11000 172.584
64.12000 179.955
64.13000 180.203
64.14000 174.579
64.15000 168.996
64.16000 165.359
64.17000 162.791
64.18000 160.319
64.19000 159.584
64.20000 159.496
64.21000 159.415
64.22000 161.960
64.23000 164.833
64.24000 166.734
64.25000 162.944
64.26000 158.227
64.27000 154.934
64.28000 157.092
64.29000 159.785
64.30000 161.752
64.31000 164.239
64.32000 166.177
64.33000 166.098
64.34000 162.494
64.35000 158.827
64.36000 156.337
64.37000 155.211
64.38000 154.090
64.39000 157.886
64.40000 165.300
64.41000 172.543
64.42000 173.663
64.43000 171.720
64.44000 169.704
64.45000 166.570
64.46000 163.057
64.47000 159.852
64.48000 164.322
64.49000 169.830
64.50000 174.253
64.51000 172.955
64.52000 170.824
64.53000 169.933
64.54000 173.346
64.55000 177.126
64.56000 179.810
64.57000 180.600
64.58000 181.140
64.59000 180.456
64.60000 177.829
64.61000 175.177
64.62000 173.619
64.63000 173.199
64.64000 172.782
64.65000 172.232
64.66000 171.602
64.67000 171.071
64.68000 173.345
64.69000 176.898
64.70000 180.233
64.71000 180.741
64.72000 180.375
64.73000 180.046
64.74000 181.588
64.75000 183.277
64.76000 184.770
64.77000 185.337
64.78000 185.785
64.79000 185.645
64.80000 183.649
64.81000 181.518
64.82000 180.049
64.83000 188.194
64.84000 194.549
64.85000 194.728
64.86000 186.013
64.87000 177.228
64.88000 174.448
64.89000 177.276
64.90000 180.079
64.91000 184.956
64.92000 190.990
64.93000 196.921
64.94000 200.503
64.95000 203.110
64.96000 205.369
64.97000 203.713
64.98000 200.958
64.99000 198.512
65.00000 206.596
65.01000 215.287
65.02000 221.577
65.03000 217.562
65.04000 212.369
65.05000 210.183
65.06000 216.642
65.07000 223.642
65.08000 228.309
65.09000 227.990
65.10000 227.658
65.11000 230.734
65.12000 238.255
65.13000 245.789
65.14000 250.379
65.15000 252.495
65.16000 254.584
65.17000 250.208
65.18000 242.431
65.19000 235.270
65.20000 239.635
65.21000 248.360
65.22000 256.484
65.23000 258.695
65.24000 259.401
65.25000 260.018
65.26000 262.689
65.27000 265.268
65.28000 268.038
65.29000 271.548
65.30000 275.133
65.31000 278.382
65.32000 280.754
65.33000 283.081
65.34000 284.579
65.35000 286.979
65.36000 288.744
65.37000 292.142
65.38000 297.461
65.39000 302.793
65.40000 309.982
65.41000 318.582
65.42000 327.033
65.43000 324.228
65.44000 315.995
65.45000 308.242
65.46000 308.054
65.47000 310.473
65.48000 314.194
65.49000 329.174
65.50000 346.750
65.51000 361.869
65.52000 358.464
65.53000 353.259
65.54000 349.576
65.55000 351.270
65.56000 353.434
65.57000 356.009
65.58000 359.563
65.59000 363.159
65.60000 365.391
65.61000 381.843
65.62000 393.819
65.63000 405.493
65.64000 416.846
65.65000 428.302
65.66000 451.840
65.67000 483.684
65.68000 514.800
65.69000 558.818
65.70000 606.698
65.71000 654.912
65.72000 707.595
65.73000 761.679
65.74000 819.065
65.75000 901.678
65.76000 989.549
65.77000 1063.826
65.78000 1130.620
65.79000 1185.665
65.80000 1235.942
65.81000 1270.919
65.82000 1304.743
65.83000 1337.570
65.84000 1368.226
65.85000 1398.808
65.86000 1417.038
65.87000 1378.860
65.88000 1351.456
65.89000 1337.526
65.90000 1336.399
65.91000 1334.899
65.92000 1305.233
65.93000 1258.001
65.94000 1212.142
65.95000 1146.374
65.96000 1075.989
65.97000 1004.758
65.98000 923.762
65.99000 839.983
66.00000 758.555
66.01000 693.108
66.02000 630.663
66.03000 578.855
66.04000 528.080
66.05000 486.219
66.06000 449.617
66.07000 428.364
66.08000 408.097
66.09000 391.414
66.10000 381.826
66.11000 372.430
66.12000 367.063
66.13000 359.671
66.14000 354.511
66.15000 353.147
66.16000 355.028
66.17000 356.787
66.18000 352.173
66.19000 343.945
66.20000 336.013
66.21000 341.503
66.22000 351.509
66.23000 361.508
66.24000 371.443
66.25000 381.361
66.26000 391.357
66.27000 401.825
66.28000 412.373
66.29000 420.951
66.30000 421.933
66.31000 422.099
66.32000 425.788
66.33000 438.843
66.34000 452.405
66.35000 465.982
66.36000 479.589
66.37000 493.197
66.38000 500.617
66.39000 516.120
66.40000 526.734
66.41000 527.163
66.42000 519.733
66.43000 512.562
66.44000 515.559
66.45000 523.798
66.46000 531.676
66.47000 527.917
66.48000 520.631
66.49000 512.852
66.50000 500.731
66.51000 487.593
66.52000 474.319
66.53000 460.303
66.54000 446.175
66.55000 434.928
66.56000 416.116
66.57000 400.405
66.58000 387.323
66.59000 380.612
66.60000 374.185
66.61000 367.776
66.62000 361.398
66.63000 355.021
66.64000 351.712
66.65000 354.405
66.66000 356.213
66.67000 356.518
66.68000 355.776
66.69000 354.943
66.70000 351.390
66.71000 346.559
66.72000 341.981
66.73000 342.089
66.74000 343.563
66.75000 344.915
66.76000 345.313
66.77000 345.508
66.78000 345.358
66.79000 343.513
66.80000 341.440
66.81000 339.826
66.82000 351.201
66.83000 361.056
66.84000 368.549
66.85000 370.833
66.86000 372.929
66.87000 371.594
66.88000 365.159
66.89000 358.677
66.90000 360.292
66.91000 369.737
66.92000 379.052
66.93000 377.857
66.94000 370.005
66.95000 362.470
66.96000 362.616
66.97000 366.049
66.98000 369.271
66.99000 369.073
67.00000 367.992
67.01000 367.582
67.02000 371.821
67.03000 376.947
67.04000 381.513
67.05000 383.591
67.06000 385.373
67.07000 386.727
67.08000 383.874
67.09000 381.413
67.10000 384.129
67.11000 397.252
67.12000 410.668
67.13000 413.820
67.14000 403.146
67.15000 392.406
67.16000 390.874
67.17000 397.336
67.18000 403.719
67.19000 405.706
67.20000 405.163
67.21000 404.694
67.22000 405.711
67.23000 407.307
67.24000 408.790
67.25000 407.450
67.26000 405.574
67.27000 405.413
67.28000 415.852
67.29000 428.112
67.30000 437.072
67.31000 432.790
67.32000 427.121
67.33000 422.925
67.34000 433.330
67.35000 442.034
67.36000 447.607
67.37000 447.454
67.38000 447.179
67.39000 450.022
67.40000 456.663
67.41000 463.298
67.42000 462.371
67.43000 455.546
67.44000 448.885
67.45000 448.957
67.46000 452.555
67.47000 455.866
67.48000 454.406
67.49000 451.251
67.50000 448.356
67.51000 462.080
67.52000 477.846
67.53000 489.863
67.54000 481.096
67.55000 469.133
67.56000 461.013
67.57000 466.879
67.58000 474.024
67.59000 479.169
67.60000 491.075
67.61000 500.432
67.62000 505.218
67.63000 502.400
67.64000 499.466
67.65000 500.223
67.66000 505.027
67.67000 509.814
67.68000 510.295
67.69000 507.746
67.70000 505.310
67.71000 506.433
67.72000 509.253
67.73000 512.251
67.74000 517.740
67.75000 524.035
67.76000 529.739
67.77000 521.109
67.78000 510.779
67.79000 503.806
67.80000 513.596
67.81000 525.681
67.82000 535.383
67.83000 537.201
67.84000 538.396
67.85000 539.232
67.86000 542.269
67.87000 544.626
67.88000 546.631
67.89000 548.104
67.90000 549.572
67.91000 553.895
67.92000 561.030
67.93000 568.114
67.94000 571.001
67.95000 571.185
67.96000 571.522
67.97000 575.735
67.98000 581.632
67.99000 586.955
68.00000 585.341
68.01000 581.687
68.02000 578.421
68.03000 590.051
68.04000 602.710
68.05000 613.011
68.06000 612.688
68.07000 611.076
68.08000 609.973
68.09000 610.401
68.10000 610.934
68.11000 611.294
68.12000 625.980
68.13000 637.241
68.14000 646.259
68.15000 652.206
68.16000 658.133
68.17000 662.353
68.18000 665.065
68.19000 667.747
68.20000 663.805
68.21000 656.167
68.22000 649.014
68.23000 651.821
68.24000 658.568
68.25000 665.108
68.26000 669.472
68.27000 673.254
68.28000 676.586
68.29000 691.634
68.30000 706.361
68.31000 718.616
68.32000 720.787
68.33000 721.880
68.34000 722.391
68.35000 721.309
68.36000 720.137
68.37000 719.368
68.38000 751.499
68.39000 775.659
68.40000 793.238
68.41000 802.674
68.42000 812.063
68.43000 813.791
68.44000 809.410
68.45000 805.095
68.46000 812.876
68.47000 826.664
68.48000 840.580
68.49000 856.706
68.50000 873.628
68.51000 890.877
68.52000 911.137
68.53000 932.126
68.54000 950.325
68.55000 972.509
68.56000 991.929
68.57000 1013.424
68.58000 1042.599
68.59000 1072.492
68.60000 1107.982
68.61000 1157.442
68.62000 1207.565
68.63000 1239.239
68.64000 1310.468
68.65000 1362.548
68.66000 1425.643
68.67000 1501.026
68.68000 1576.394
68.69000 1648.147
68.70000 1717.292
68.71000 1785.048
68.72000 1852.696
68.73000 1917.720
68.74000 1983.516
68.75000 2060.493
68.76000 2141.138
68.77000 2221.198
68.78000 2296.520
68.79000 2370.805
68.80000 2434.139
68.81000 2566.252
68.82000 2685.484
68.83000 2814.790
68.84000 2977.938
68.85000 3143.829
68.86000 3352.010
68.87000 3656.364
68.88000 3964.436
68.89000 4151.743
68.90000 5094.838
68.91000 5774.098
68.92000 6994.538
68.93000 8757.024
68.94000 10533.018
68.95000 13563.179
68.96000 17413.096
68.97000 21163.018
68.98000 26488.463
68.99000 32228.061
69.00000 37958.555
69.01000 43576.242
69.02000 49160.258
69.03000 54541.398
69.04000 58464.273
69.05000 62098.961
69.06000 65142.371
69.07000 67114.828
69.08000 68644.219
69.09000 69889.852
69.10000 70268.461
69.11000 70586.813
69.12000 71017.305
69.13000 71680.078
69.14000 72349.969
69.15000 72740.742
69.16000 73809.758
69.17000 74563.977
69.18000 74443.016
69.19000 73534.969
69.20000 72602.508
69.21000 70148.469
69.22000 66791.234
69.23000 63543.445
69.24000 59962.004
69.25000 56452.852
69.26000 52958.262
69.27000 49620.063
69.28000 46324.273
69.29000 43205.188
69.30000 41218.770
69.31000 39433.730
69.32000 37967.680
69.33000 36851.773
69.34000 35966.801
69.35000 35044.953
69.36000 34020.527
69.37000 32990.066
69.38000 31605.484
69.39000 29553.016
69.40000 27484.863
69.41000 26331.014
69.42000 22094.824
69.43000 19156.881
69.44000 16469.262
69.45000 13984.548
69.46000 11511.158
69.47000 9547.729
69.48000 7859.592
69.49000 6238.952
69.50000 5144.325
69.51000 4300.620
69.52000 3496.598
69.53000 3065.007
69.54000 2725.011
69.55000 2407.155
69.56000 2216.407
69.57000 2045.916
69.58000 1908.752
69.59000 1784.505
69.60000 1684.727
69.61000 1591.071
69.62000 1512.924
69.63000 1435.538
69.64000 1375.044
69.65000 1343.528
69.66000 1312.510
69.67000 1296.016
69.68000 1253.710
69.69000 1224.849
69.70000 1187.593
69.71000 1144.188
69.72000 1101.290
69.73000 1075.770
69.74000 1058.790
69.75000 1042.627
69.76000 1014.341
69.77000 984.415
69.78000 956.898
69.79000 949.305
69.80000 946.146
69.81000 939.742
69.82000 916.587
69.83000 891.048
69.84000 870.950
69.85000 852.542
69.86000 837.909
69.87000 823.996
69.88000 811.748
69.89000 799.566
69.90000 788.846
69.91000 780.406
69.92000 771.992
69.93000 767.744
69.94000 749.356
69.95000 737.095
69.96000 728.478
69.97000 722.282
69.98000 716.305
69.99000 716.241
70.00000 718.823
