20.00000 553.431
20.01000 553.702
20.02000 554.012
20.03000 554.279
20.04000 554.374
20.05000 554.451
20.06000 554.509
20.07000 558.713
20.08000 562.134
20.09000 560.651
20.10000 550.425
20.11000 540.027
20.12000 537.393
20.13000 543.949
20.14000 550.504
20.15000 552.517
20.16000 551.073
20.17000 549.688
20.18000 550.542
20.19000 552.539
20.20000 554.485
20.21000 555.638
20.22000 556.517
20.23000 557.320
20.24000 557.232
20.25000 556.970
20.26000 557.092
20.27000 559.286
20.28000 561.789
20.29000 561.002
20.30000 548.543
20.31000 535.058
20.32000 525.424
20.33000 539.885
20.34000 551.721
20.35000 559.812
20.36000 561.832
20.37000 563.769
20.38000 563.475
20.39000 560.804
20.40000 558.147
20.41000 558.521
20.42000 560.962
20.43000 563.248
20.44000 560.925
20.45000 556.460
20.46000 552.220
20.47000 551.012
20.48000 550.760
20.49000 550.532
20.50000 547.617
20.51000 544.561
20.52000 542.963
20.53000 548.441
20.54000 554.857
20.55000 558.905
20.56000 555.319
20.57000 551.154
20.58000 548.266
20.59000 543.343
20.60000 539.583
20.61000 540.420
20.62000 548.017
20.63000 555.674
20.64000 555.111
20.65000 546.697
20.66000 538.348
20.67000 541.870
20.68000 552.640
20.69000 562.763
20.70000 557.563
20.71000 545.874
20.72000 535.553
20.73000 541.139
20.74000 551.281
20.75000 560.311
20.76000 555.448
20.77000 548.943
20.78000 543.372
20.79000 541.898
20.80000 540.906
20.81000 541.009
20.82000 544.325
20.83000 547.849
20.84000 550.216
20.85000 546.986
20.86000 544.474
20.87000 541.057
20.88000 536.434
20.89000 531.812
20.90000 532.094
20.91000 536.590
20.92000 541.034
20.93000 539.463
20.94000 534.587
20.95000 530.243
20.96000 536.248
20.97000 546.246
20.98000 555.109
20.99000 552.484
21.00000 546.873
21.01000 541.951
21.02000 544.035
21.03000 546.846
21.04000 547.538
21.05000 539.821
21.06000 531.237
21.07000 526.298
21.08000 531.098
21.09000 536.429
21.10000 539.887
21.11000 549.965
21.12000 557.444
21.13000 556.710
21.14000 546.094
21.15000 535.494
21.16000 534.511
21.17000 540.985
21.18000 547.354
21.19000 552.371
21.20000 556.550
21.21000 560.317
21.22000 557.393
21.23000 552.117
21.24000 546.633
21.25000 539.306
21.26000 531.544
21.27000 524.844
21.28000 526.568
21.29000 529.117
21.30000 531.355
21.31000 532.479
21.32000 533.503
21.33000 535.717
21.34000 540.830
21.35000 546.074
21.36000 549.354
21.37000 535.871
21.38000 525.963
21.39000 522.264
21.40000 525.294
21.41000 528.331
21.42000 531.897
21.43000 535.834
21.44000 539.686
21.45000 537.250
21.46000 532.064
21.47000 527.739
21.48000 535.333
21.49000 546.740
21.50000 557.095
21.51000 559.202
21.52000 559.551
21.53000 559.847
21.54000 544.425
21.55000 529.709
21.56000 520.264
21.57000 528.070
21.58000 537.219
21.59000 544.870
21.60000 549.200
21.61000 553.408
21.62000 555.939
21.63000 552.107
21.64000 549.338
21.65000 546.382
21.66000 543.245
21.67000 540.180
21.68000 543.156
21.69000 549.978
21.70000 556.610
21.71000 554.279
21.72000 548.398
21.73000 543.474
21.74000 549.947
21.75000 559.734
21.76000 569.294
21.77000 577.262
21.78000 584.925
21.79000 591.309
21.80000 594.849
21.81000 597.499
21.82000 600.337
21.83000 603.732
21.84000 607.164
21.85000 607.669
21.86000 602.263
21.87000 596.688
21.88000 593.474
21.89000 613.219
21.90000 627.124
21.91000 632.220
21.92000 629.619
21.93000 627.287
21.94000 640.253
21.95000 662.067
21.96000 683.128
21.97000 681.666
21.98000 671.981
21.99000 663.591
22.00000 668.607
22.01000 677.163
22.02000 685.071
22.03000 688.950
22.04000 692.134
22.05000 694.734
22.06000 690.363
22.07000 686.185
22.08000 684.440
22.09000 689.292
22.10000 694.515
22.11000 697.240
22.12000 695.374
22.13000 693.408
22.14000 692.326
22.15000 701.012
22.16000 706.997
22.17000 708.070
22.18000 705.272
22.19000 702.308
22.20000 692.422
22.21000 678.894
22.22000 665.936
22.23000 658.422
22.24000 653.224
22.25000 648.348
22.26000 646.385
22.27000 645.120
22.28000 644.018
22.29000 643.825
22.30000 643.771
22.31000 643.729
22.32000 618.638
22.33000 596.490
22.34000 584.480
22.35000 597.515
22.36000 611.714
22.37000 620.268
22.38000 619.387
22.39000 618.359
22.40000 617.820
22.41000 612.709
22.42000 609.199
22.43000 598.878
22.44000 583.700
22.45000 568.787
22.46000 562.322
22.47000 559.904
22.48000 557.609
22.49000 556.374
22.50000 555.553
22.51000 554.702
22.52000 553.609
22.53000 552.463
22.54000 551.061
22.55000 548.371
22.56000 545.503
22.57000 543.260
22.58000 549.776
22.59000 555.535
22.60000 558.207
22.61000 553.931
22.62000 549.393
22.63000 543.061
22.64000 534.006
22.65000 524.922
22.66000 519.865
22.67000 518.792
22.68000 517.725
22.69000 517.152
22.70000 516.899
22.71000 516.880
22.72000 522.814
22.73000 531.345
22.74000 539.368
22.75000 529.458
22.76000 515.568
22.77000 504.316
22.78000 511.785
22.79000 522.913
22.80000 531.135
22.81000 526.197
22.82000 519.652
22.83000 514.655
22.84000 517.667
22.85000 520.472
22.86000 521.199
22.87000 517.662
22.88000 513.999
22.89000 513.193
22.90000 516.321
22.91000 519.470
22.92000 519.387
22.93000 516.434
22.94000 513.533
22.95000 513.799
22.96000 515.925
22.97000 517.849
22.98000 515.577
22.99000 511.637
23.00000 507.971
23.01000 506.663
23.02000 506.053
23.03000 505.763
23.04000 507.503
23.05000 509.599
23.06000 510.648
23.07000 507.405
23.08000 503.700
23.09000 500.942
23.10000 503.665
23.11000 506.031
23.12000 507.981
23.13000 509.158
23.14000 510.317
23.15000 508.943
23.16000 504.420
23.17000 499.894
23.18000 501.001
23.19000 506.596
23.20000 512.115
23.21000 514.297
23.22000 514.696
23.23000 514.855
23.24000 510.873
23.25000 505.390
23.26000 500.346
23.27000 498.764
23.28000 498.103
23.29000 497.653
23.30000 498.405
23.31000 499.346
23.32000 500.487
23.33000 502.367
23.34000 504.317
23.35000 505.730
23.36000 504.282
23.37000 503.064
23.38000 501.095
23.39000 497.847
23.40000 494.579
23.41000 493.578
23.42000 495.121
23.43000 496.659
23.44000 494.298
23.45000 489.154
23.46000 484.085
23.47000 481.494
23.48000 480.107
23.49000 478.911
23.50000 480.493
23.51000 482.993
23.52000 485.264
23.53000 488.164
23.54000 490.850
23.55000 493.128
23.56000 493.326
23.57000 493.232
23.58000 490.486
23.59000 478.792
23.60000 466.366
23.61000 457.623
23.62000 475.649
23.63000 490.102
23.64000 495.988
23.65000 488.662
23.66000 481.189
23.67000 479.617
23.68000 483.990
23.69000 488.335
23.70000 490.397
23.71000 490.952
23.72000 491.352
23.73000 487.714
23.74000 482.287
23.75000 477.176
23.76000 476.022
23.77000 476.055
23.78000 476.085
23.79000 480.599
23.80000 485.322
23.81000 490.217
23.82000 495.902
23.83000 501.686
23.84000 504.805
23.85000 499.742
23.86000 494.106
23.87000 490.261
23.88000 488.198
23.89000 486.697
23.90000 486.001
23.91000 486.432
23.92000 486.870
23.93000 488.383
23.94000 490.867
23.95000 493.326
23.96000 491.908
23.97000 488.255
23.98000 484.565
23.99000 480.112
24.00000 475.349
24.01000 471.514
24.02000 477.701
24.03000 486.621
24.04000 494.502
24.05000 488.372
24.06000 480.915
24.07000 476.294
24.08000 483.488
24.09000 491.981
24.10000 497.700
24.11000 495.664
24.12000 493.168
24.13000 491.520
24.14000 486.336
24.15000 482.451
24.16000 485.559
24.17000 497.511
24.18000 509.466
24.19000 511.203
24.20000 504.615
24.21000 498.118
24.22000 494.065
24.23000 491.415
24.24000 488.838
24.25000 487.558
24.26000 486.757
24.27000 485.405
24.28000 478.864
24.29000 471.041
24.30000 464.233
24.31000 470.506
24.32000 477.651
24.33000 483.180
24.34000 482.615
24.35000 481.464
24.36000 483.286
24.37000 492.680
24.38000 502.449
24.39000 508.671
24.40000 493.009
24.41000 481.347
24.42000 476.947
24.43000 480.830
24.44000 484.682
24.45000 481.481
24.46000 473.087
24.47000 464.852
24.48000 470.681
24.49000 482.992
24.50000 494.184
24.51000 488.651
24.52000 477.518
24.53000 468.181
24.54000 473.786
24.55000 482.735
24.56000 490.393
24.57000 482.914
24.58000 474.777
24.59000 469.301
24.60000 472.942
24.61000 477.345
24.62000 480.719
24.63000 481.708
24.64000 482.600
24.65000 483.146
24.66000 483.047
24.67000 482.970
24.68000 483.741
24.69000 485.380
24.70000 486.980
24.71000 484.484
24.72000 479.255
24.73000 474.155
24.74000 474.952
24.75000 478.247
24.76000 481.987
24.77000 491.424
24.78000 502.597
24.79000 510.612
24.80000 495.364
24.81000 475.416
24.82000 458.647
24.83000 464.696
24.84000 472.154
24.85000 477.963
24.86000 478.631
24.87000 478.930
24.88000 478.938
24.89000 478.336
24.90000 477.713
24.91000 477.347
24.92000 482.666
24.93000 486.449
24.94000 489.237
24.95000 491.110
24.96000 492.864
24.97000 486.518
24.98000 475.265
24.99000 464.363
25.00000 459.495
25.01000 457.227
25.02000 455.409
25.03000 458.559
25.04000 463.084
25.05000 467.070
25.06000 467.521
25.07000 467.328
25.08000 467.170
25.09000 472.743
25.10000 477.861
25.11000 480.361
25.12000 475.432
25.13000 470.050
25.14000 463.023
25.15000 452.834
25.16000 442.566
25.17000 436.781
25.18000 446.634
25.19000 453.514
25.20000 458.873
25.21000 462.970
25.22000 467.092
25.23000 472.451
25.24000 478.490
25.25000 484.297
25.26000 476.713
25.27000 464.920
25.28000 454.324
25.29000 455.270
25.30000 459.115
25.31000 461.925
25.32000 458.656
25.33000 454.394
25.34000 450.950
25.35000 453.449
25.36000 455.957
25.37000 459.149
25.38000 464.109
25.39000 469.160
25.40000 475.682
25.41000 484.781
25.42000 493.927
25.43000 498.841
25.44000 477.315
25.45000 462.620
25.46000 454.817
25.47000 452.173
25.48000 449.667
25.49000 452.164
25.50000 457.171
25.51000 461.945
25.52000 452.817
25.53000 439.964
25.54000 429.360
25.55000 437.843
25.56000 450.666
25.57000 461.958
25.58000 465.166
25.59000 467.195
25.60000 468.799
25.61000 458.995
25.62000 450.335
25.63000 443.675
25.64000 441.721
25.65000 439.964
25.66000 441.351
25.67000 447.740
25.68000 454.193
25.69000 457.488
25.70000 463.667
25.71000 467.761
25.72000 465.791
25.73000 459.711
25.74000 453.818
25.75000 453.223
25.76000 455.046
25.77000 456.769
25.78000 453.267
25.79000 448.567
25.80000 444.981
25.81000 449.762
25.82000 456.262
25.83000 461.439
25.84000 460.317
25.85000 458.380
25.86000 456.883
25.87000 465.005
25.88000 472.010
25.89000 475.044
25.90000 469.562
25.91000 463.794
25.92000 457.608
25.93000 450.820
25.94000 444.028
25.95000 446.082
25.96000 456.410
25.97000 466.583
25.98000 465.638
25.99000 457.853
26.00000 450.560
26.01000 454.518
26.02000 463.156
26.03000 471.237
26.04000 465.126
26.05000 455.950
26.06000 448.066
26.07000 448.827
26.08000 451.187
26.09000 452.640
26.10000 450.187
26.11000 447.287
26.12000 445.101
26.13000 453.373
26.14000 460.364
26.15000 465.249
26.16000 466.018
26.17000 466.679
26.18000 467.217
26.19000 467.593
26.20000 467.968
26.21000 464.419
26.22000 457.582
26.23000 450.832
26.24000 448.448
26.25000 448.507
26.26000 448.551
26.27000 448.337
26.28000 448.025
26.29000 447.736
26.30000 442.565
26.31000 436.798
26.32000 432.436
26.33000 436.471
26.34000 441.900
26.35000 445.720
26.36000 443.276
26.37000 440.201
26.38000 437.944
26.39000 445.386
26.40000 451.532
26.41000 453.440
26.42000 447.814
26.43000 442.041
26.44000 441.350
26.45000 446.653
26.46000 451.953
26.47000 454.111
26.48000 453.881
26.49000 453.558
26.50000 449.746
26.51000 444.159
26.52000 439.259
26.53000 445.189
26.54000 454.858
26.55000 463.698
26.56000 453.540
26.57000 440.613
26.58000 430.216
26.59000 433.412
26.60000 438.627
26.61000 442.800
26.62000 443.286
26.63000 443.450
26.64000 443.566
26.65000 431.787
26.66000 422.409
26.67000 420.459
26.68000 430.511
26.69000 440.726
26.70000 446.979
26.71000 449.026
26.72000 451.063
26.73000 449.379
26.74000 445.181
26.75000 441.090
26.76000 440.122
26.77000 440.600
26.78000 440.842
26.79000 437.897
26.80000 433.951
26.81000 430.390
26.82000 437.029
26.83000 444.735
26.84000 449.446
26.85000 439.673
26.86000 427.987
26.87000 418.443
26.88000 415.789
26.89000 413.656
26.90000 412.178
26.91000 427.804
26.92000 440.013
26.93000 442.931
26.94000 432.226
26.95000 421.403
26.96000 418.414
26.97000 422.887
26.98000 427.323
26.99000 433.655
27.00000 441.038
27.01000 447.905
27.02000 442.605
27.03000 432.166
27.04000 422.423
27.05000 420.724
27.06000 421.323
27.07000 421.856
27.08000 425.580
27.09000 429.337
27.10000 432.637
27.11000 433.941
27.12000 435.012
27.13000 436.929
27.14000 441.323
27.15000 445.877
27.16000 448.931
27.17000 447.507
27.18000 446.359
27.19000 442.497
27.20000 435.033
27.21000 427.558
27.22000 424.619
27.23000 425.568
27.24000 426.505
27.25000 427.313
27.26000 428.029
27.27000 428.930
27.28000 433.397
27.29000 439.236
27.30000 443.898
27.31000 436.701
27.32000 426.430
27.33000 417.425
27.34000 420.606
27.35000 425.106
27.36000 428.848
27.37000 429.593
27.38000 430.029
27.39000 430.212
27.40000 429.720
27.41000 429.192
27.42000 428.849
27.43000 421.655
27.44000 416.287
27.45000 414.377
27.46000 416.613
27.47000 418.854
27.48000 420.151
27.49000 420.718
27.50000 421.275
27.51000 422.016
27.52000 422.825
27.53000 423.318
27.54000 418.690
27.55000 412.269
27.56000 406.697
27.57000 408.642
27.58000 412.352
27.59000 415.553
27.60000 413.029
27.61000 410.152
27.62000 409.381
27.63000 416.170
27.64000 423.638
27.65000 428.420
27.66000 426.687
27.67000 424.663
27.68000 423.398
27.69000 431.177
27.70000 436.883
27.71000 439.761
27.72000 439.585
27.73000 439.367
27.74000 433.900
27.75000 424.759
27.76000 415.818
27.77000 418.331
27.78000 425.915
27.79000 432.868
27.80000 431.149
27.81000 426.663
27.82000 422.859
27.83000 424.390
27.84000 427.054
27.85000 429.313
27.86000 425.524
27.87000 421.665
27.88000 417.814
27.89000 413.986
27.90000 410.159
27.91000 408.799
27.92000 412.891
27.93000 417.180
27.94000 419.756
27.95000 426.664
27.96000 431.603
27.97000 434.115
27.98000 434.276
27.99000 434.380
28.00000 429.847
28.01000 422.372
28.02000 415.105
28.03000 416.931
28.04000 422.372
28.05000 427.483
28.06000 428.678
28.07000 428.738
28.08000 429.371
28.09000 433.981
28.10000 439.353
28.11000 443.825
28.12000 436.753
28.13000 429.756
28.14000 426.191
28.15000 432.821
28.16000 440.125
28.17000 441.029
28.18000 429.042
28.19000 416.689
28.20000 409.577
28.21000 411.451
28.22000 412.803
28.23000 418.468
28.24000 427.891
28.25000 437.115
28.26000 435.121
28.27000 426.659
28.28000 418.490
28.29000 418.205
28.30000 420.835
28.31000 423.292
28.32000 423.959
28.33000 424.155
28.34000 424.846
28.35000 428.605
28.36000 432.891
28.37000 436.390
28.38000 436.505
28.39000 436.309
28.40000 436.304
28.41000 436.816
28.42000 437.357
28.43000 435.524
28.44000 429.340
28.45000 423.062
28.46000 419.609
28.47000 414.440
28.48000 410.892
28.49000 411.435
28.50000 415.194
28.51000 418.949
28.52000 422.585
28.53000 426.157
28.54000 429.578
28.55000 424.781
28.56000 417.584
28.57000 411.021
28.58000 410.186
28.59000 410.719
28.60000 411.224
28.61000 411.571
28.62000 411.894
28.63000 412.152
28.64000 423.214
28.65000 432.953
28.66000 436.658
28.67000 425.498
28.68000 413.651
28.69000 409.543
28.70000 418.335
28.71000 427.326
28.72000 432.034
28.73000 436.344
28.74000 439.206
28.75000 433.977
28.76000 422.994
28.77000 412.378
28.78000 413.441
28.79000 420.081
28.80000 426.385
28.81000 418.808
28.82000 407.666
28.83000 397.364
28.84000 393.751
28.85000 391.581
28.86000 390.504
28.87000 394.896
28.88000 400.038
28.89000 404.057
28.90000 414.715
28.91000 423.640
28.92000 426.664
28.93000 416.444
28.94000 405.727
28.95000 400.286
28.96000 402.828
28.97000 405.453
28.98000 409.484
28.99000 414.904
29.00000 420.242
29.01000 418.522
29.02000 412.251
29.03000 406.155
29.04000 404.465
29.05000 404.693
29.06000 404.907
29.07000 402.415
29.08000 399.412
29.09000 396.841
29.10000 397.331
29.11000 398.416
29.12000 400.263
29.13000 405.552
29.14000 411.259
29.15000 415.614
29.16000 413.267
29.17000 411.060
29.18000 408.457
29.19000 405.048
29.20000 401.616
29.21000 397.963
29.22000 394.009
29.23000 390.054
29.24000 391.193
29.25000 396.836
29.26000 402.358
29.27000 400.669
29.28000 394.758
29.29000 389.454
29.30000 396.653
29.31000 408.809
29.32000 420.117
29.33000 408.400
29.34000 392.251
29.35000 378.751
29.36000 381.962
29.37000 388.100
29.38000 394.163
29.39000 399.922
29.40000 405.648
29.41000 409.907
29.42000 403.889
29.43000 398.749
29.44000 394.934
29.45000 393.585
29.46000 392.292
29.47000 391.779
29.48000 392.235
29.49000 392.693
29.50000 392.337
29.51000 391.336
29.52000 390.404
29.53000 392.446
29.54000 396.074
29.55000 399.543
29.56000 400.309
29.57000 400.098
29.58000 399.904
29.59000 400.212
29.60000 400.595
29.61000 401.457
29.62000 405.029
29.63000 409.025
29.64000 409.072
29.65000 394.480
29.66000 378.515
29.67000 366.961
29.68000 387.431
29.69000 404.318
29.70000 413.055
29.71000 407.996
29.72000 402.712
29.73000 399.773
29.74000 399.456
29.75000 399.142
29.76000 405.157
29.77000 415.650
29.78000 425.680
29.79000 420.411
29.80000 407.722
29.81000 395.890
29.82000 396.492
29.83000 401.183
29.84000 405.443
29.85000 411.809
29.86000 417.841
29.87000 423.635
29.88000 428.218
29.89000 432.631
29.90000 434.719
29.91000 428.981
29.92000 422.607
29.93000 418.127
29.94000 420.241
29.95000 422.036
29.96000 423.880
29.97000 425.796
29.98000 427.714
29.99000 431.646
30.00000 437.600
30.01000 443.516
30.02000 441.103
30.03000 433.351
30.04000 425.905
30.05000 426.464
30.06000 430.560
30.07000 434.164
30.08000 431.643
30.09000 427.290
30.10000 423.389
30.11000 419.921
30.12000 416.968
30.13000 414.767
30.14000 416.024
30.15000 417.711
30.16000 420.814
30.17000 428.255
30.18000 435.999
30.19000 441.276
30.20000 434.251
30.21000 428.719
30.22000 422.842
30.23000 416.484
30.24000 410.127
30.25000 408.824
30.26000 412.075
30.27000 415.295
30.28000 408.709
30.29000 396.555
30.30000 385.088
30.31000 388.239
30.32000 397.273
30.33000 405.922
30.34000 410.420
30.35000 413.790
30.36000 416.767
30.37000 412.897
30.38000 408.502
30.39000 405.062
30.40000 405.583
30.41000 406.539
30.42000 405.104
30.43000 397.010
30.44000 388.523
30.45000 382.928
30.46000 396.320
30.47000 406.521
30.48000 409.572
30.49000 403.610
30.50000 397.636
30.51000 397.960
30.52000 403.401
30.53000 408.765
30.54000 409.756
30.55000 408.420
30.56000 407.047
30.57000 405.011
30.58000 402.731
30.59000 401.460
30.60000 409.673
30.61000 420.222
30.62000 429.397
30.63000 428.298
30.64000 425.959
30.65000 421.918
30.66000 411.468
30.67000 400.403
30.68000 395.259
30.69000 405.145
30.70000 415.770
30.71000 422.530
30.72000 417.820
30.73000 414.254
30.74000 414.528
30.75000 419.168
30.76000 423.795
30.77000 425.543
30.78000 425.178
30.79000 424.819
30.80000 421.787
30.81000 417.598
30.82000 414.185
30.83000 422.315
30.84000 434.300
30.85000 444.837
30.86000 443.375
30.87000 439.237
30.88000 435.698
30.89000 448.453
30.90000 461.167
30.91000 470.696
30.92000 469.336
30.93000 467.071
30.94000 469.954
30.95000 484.749
30.96000 500.022
30.97000 509.376
30.98000 519.205
30.99000 526.247
31.00000 536.934
31.01000 551.346
31.02000 565.835
31.03000 588.158
31.04000 615.693
31.05000 642.544
31.06000 663.527
31.07000 681.053
31.08000 699.462
31.09000 729.114
31.10000 762.179
31.11000 796.069
31.12000 836.005
31.13000 877.160
31.14000 911.737
31.15000 958.931
31.16000 999.580
31.17000 1046.383
31.18000 1112.317
31.19000 1179.619
31.20000 1242.926
31.21000 1297.814
31.22000 1352.431
31.23000 1384.540
31.24000 1474.931
31.25000 1538.968
31.26000 1600.298
31.27000 1659.144
31.28000 1718.118
31.29000 1785.654
31.30000 1858.362
31.31000 1928.791
31.32000 1955.730
31.33000 1964.405
31.34000 1973.765
31.35000 1990.673
31.36000 2009.665
31.37000 2026.264
31.38000 2027.206
31.39000 2025.309
31.40000 2023.745
31.41000 2024.088
31.42000 2024.545
31.43000 2013.459
31.44000 1969.708
31.45000 1923.974
31.46000 1876.950
31.47000 1827.452
31.48000 1777.893
31.49000 1750.010
31.50000 1695.213
31.51000 1657.076
31.52000 1605.336
31.53000 1542.362
31.54000 1479.390
31.55000 1416.502
31.56000 1353.661
31.57000 1293.244
31.58000 1227.663
31.59000 1164.416
31.60000 1103.130
31.61000 1060.703
31.62000 1022.998
31.63000 984.092
31.64000 938.153
31.65000 891.070
31.66000 853.044
31.67000 818.649
31.68000 790.977
31.69000 763.031
31.70000 734.376
31.71000 705.686
31.72000 675.573
31.73000 642.977
31.74000 610.335
31.75000 592.820
31.76000 577.815
31.77000 567.564
31.78000 555.599
31.79000 542.354
31.80000 529.234
31.81000 520.563
31.82000 514.117
31.83000 507.971
31.84000 495.118
31.85000 481.088
31.86000 468.542
31.87000 468.546
31.88000 471.394
31.89000 473.273
31.90000 470.050
31.91000 466.087
31.92000 462.954
31.93000 448.841
31.94000 436.759
31.95000 428.491
31.96000 429.178
31.97000 430.237
31.98000 428.840
31.99000 423.545
32.00000 418.201
32.01000 415.477
32.02000 421.033
32.03000 424.714
32.04000 423.270
32.05000 418.360
32.06000 413.694
32.07000 415.857
32.08000 421.130
32.09000 426.110
32.10000 417.298
32.11000 405.304
32.12000 394.697
32.13000 394.475
32.14000 396.380
32.15000 398.121
32.16000 399.086
32.17000 399.951
32.18000 400.620
32.19000 391.225
32.20000 383.192
32.21000 379.322
32.22000 384.357
32.23000 389.689
32.24000 393.224
32.25000 394.174
32.26000 395.103
32.27000 391.942
32.28000 384.970
32.29000 378.073
32.30000 376.526
32.31000 378.260
32.32000 379.921
32.33000 379.939
32.34000 379.274
32.35000 378.653
32.36000 383.130
32.37000 388.494
32.38000 392.824
32.39000 390.266
32.40000 386.437
32.41000 383.993
32.42000 387.487
32.43000 391.658
32.44000 394.801
32.45000 385.734
32.46000 378.041
32.47000 372.738
32.48000 372.092
32.49000 371.566
32.50000 371.086
32.51000 370.668
32.52000 370.251
32.53000 377.229
32.54000 390.381
32.55000 403.117
32.56000 395.037
32.57000 375.350
32.58000 356.577
32.59000 354.910
32.60000 359.708
32.61000 364.146
32.62000 370.708
32.63000 377.087
32.64000 382.172
32.65000 379.540
32.66000 375.631
32.67000 371.525
32.68000 366.652
32.69000 361.703
32.70000 358.072
32.71000 361.575
32.72000 364.570
32.73000 366.718
32.74000 367.365
32.75000 367.983
32.76000 369.867
32.77000 373.242
32.78000 376.610
32.79000 373.310
32.80000 365.006
32.81000 356.935
32.82000 357.565
32.83000 362.611
32.84000 367.591
32.85000 371.539
32.86000 375.131
32.87000 378.414
32.88000 376.225
32.89000 373.161
32.90000 370.524
32.91000 370.173
32.92000 370.161
32.93000 371.204
32.94000 375.974
32.95000 381.069
32.96000 384.702
32.97000 383.482
32.98000 382.392
32.99000 380.039
33.00000 375.649
33.01000 371.232
33.02000 367.489
33.03000 364.460
33.04000 361.447
33.05000 360.064
33.06000 359.804
33.07000 359.486
33.08000 357.440
33.09000 354.595
33.10000 351.702
33.11000 348.150
33.12000 344.391
33.13000 341.000
33.14000 343.387
33.15000 346.539
33.16000 348.856
33.17000 347.149
33.18000 344.912
33.19000 342.405
33.20000 339.035
33.21000 335.601
33.22000 333.224
33.23000 335.694
33.24000 337.678
33.25000 340.110
33.26000 343.195
33.27000 346.285
33.28000 347.915
33.29000 348.159
33.30000 348.402
33.31000 344.573
33.32000 338.320
33.33000 332.211
33.34000 329.457
33.35000 328.117
33.36000 326.937
33.37000 327.615
33.38000 328.821
33.39000 329.895
33.40000 331.885
33.41000 333.762
33.42000 335.575
33.43000 337.104
33.44000 338.601
33.45000 340.111
33.46000 341.656
33.47000 343.204
33.48000 344.242
33.49000 349.793
33.50000 354.003
33.51000 352.492
33.52000 343.407
33.53000 334.295
33.54000 331.904
33.55000 335.251
33.56000 338.559
33.57000 338.287
33.58000 336.047
33.59000 334.008
33.60000 335.830
33.61000 339.135
33.62000 341.822
33.63000 338.312
33.64000 333.200
33.65000 328.720
33.66000 328.309
33.67000 328.544
33.68000 328.841
33.69000 329.380
33.70000 329.943
33.71000 330.738
33.72000 332.148
33.73000 333.591
33.74000 334.525
33.75000 331.079
33.76000 328.493
33.77000 327.312
33.78000 327.811
33.79000 328.314
33.80000 329.141
33.81000 330.217
33.82000 331.275
33.83000 328.549
33.84000 324.026
33.85000 319.981
33.86000 323.660
33.87000 330.037
33.88000 335.814
33.89000 336.311
33.90000 335.572
33.91000 334.934
33.92000 331.511
33.93000 328.252
33.94000 326.759
33.95000 331.590
33.96000 336.985
33.97000 340.401
33.98000 339.024
33.99000 337.435
34.00000 336.443
34.01000 335.632
34.02000 335.048
34.03000 333.931
34.04000 332.238
34.05000 330.552
34.06000 329.646
34.07000 329.284
34.08000 328.930
34.09000 329.384
34.10000 330.183
34.11000 330.653
34.12000 326.607
34.13000 321.125
34.14000 316.618
34.15000 319.690
34.16000 324.367
34.17000 328.331
34.18000 325.880
34.19000 323.105
34.20000 320.712
34.21000 319.566
34.22000 318.515
34.23000 320.491
34.24000 329.139
34.25000 338.026
34.26000 343.357
34.27000 332.768
34.28000 325.141
34.29000 323.182
34.30000 326.699
34.31000 330.144
34.32000 327.849
34.33000 321.920
34.34000 316.158
34.35000 315.559
34.36000 317.087
34.37000 318.537
34.38000 319.074
34.39000 319.346
34.40000 319.136
34.41000 315.586
34.42000 311.398
34.43000 307.914
34.44000 310.768
34.45000 313.754
34.46000 316.915
34.47000 320.595
34.48000 324.309
34.49000 325.727
34.50000 322.536
34.51000 319.214
34.52000 317.304
34.53000 319.617
34.54000 321.248
34.55000 320.605
34.56000 317.987
34.57000 315.410
34.58000 315.099
34.59000 316.092
34.60000 317.050
34.61000 324.838
34.62000 334.676
34.63000 342.600
34.64000 330.901
34.65000 314.050
34.66000 300.238
34.67000 305.193
34.68000 313.367
34.69000 320.036
34.70000 323.569
34.71000 326.190
34.72000 327.882
34.73000 327.069
34.74000 326.117
34.75000 326.982
34.76000 331.169
34.77000 335.427
34.78000 337.766
34.79000 332.313
34.80000 328.548
34.81000 324.816
34.82000 321.112
34.83000 317.439
34.84000 315.044
34.85000 313.318
34.86000 311.665
34.87000 316.364
34.88000 322.845
34.89000 327.925
34.90000 320.411
34.91000 309.901
34.92000 301.291
34.93000 303.203
34.94000 306.730
34.95000 309.547
34.96000 311.070
34.97000 312.205
34.98000 313.339
34.99000 314.471
35.00000 315.603
35.01000 316.552
35.02000 317.195
35.03000 317.834
35.04000 318.168
35.05000 321.145
35.06000 323.111
35.07000 318.206
35.08000 308.430
35.09000 298.827
35.10000 294.671
35.11000 293.110
35.12000 291.629
35.13000 293.693
35.14000 296.654
35.15000 299.732
35.16000 303.734
35.17000 307.936
35.18000 311.115
35.19000 309.202
35.20000 306.592
35.21000 304.554
35.22000 304.399
35.23000 304.394
35.24000 307.758
35.25000 318.663
35.26000 329.850
35.27000 331.231
35.28000 317.817
35.29000 304.254
35.30000 298.328
35.31000 299.907
35.32000 301.510
35.33000 305.110
35.34000 309.994
35.35000 314.827
35.36000 318.363
35.37000 321.337
35.38000 324.131
35.39000 320.096
35.40000 314.582
35.41000 309.006
35.42000 302.999
35.43000 296.909
35.44000 292.576
35.45000 296.148
35.46000 300.679
35.47000 304.134
35.48000 307.680
35.49000 310.477
35.50000 311.670
35.51000 309.594
35.52000 307.422
35.53000 306.626
35.54000 307.711
35.55000 308.807
35.56000 309.246
35.57000 309.106
35.58000 308.974
35.59000 309.358
35.60000 310.042
35.61000 310.486
35.62000 306.003
35.63000 299.572
35.64000 293.592
35.65000 294.149
35.66000 296.227
35.67000 297.596
35.68000 294.506
35.69000 290.636
35.70000 288.194
35.71000 291.565
35.72000 295.557
35.73000 298.523
35.74000 303.494
35.75000 307.447
35.76000 308.990
35.77000 306.058
35.78000 303.027
35.79000 297.883
35.80000 290.128
35.81000 282.379
35.82000 280.754
35.83000 283.991
35.84000 287.295
35.85000 293.442
35.86000 301.099
35.87000 308.178
35.88000 305.390
35.89000 299.049
35.90000 293.219
35.91000 295.125
35.92000 298.497
35.93000 301.661
35.94000 303.652
35.95000 305.459
35.96000 306.569
35.97000 305.098
35.98000 303.386
35.99000 302.148
36.00000 298.753
36.01000 296.069
36.02000 295.108
36.03000 297.057
36.04000 299.053
36.05000 300.508
36.06000 301.359
36.07000 302.207
36.08000 304.234
36.09000 307.085
36.10000 309.725
36.11000 305.472
36.12000 297.886
36.13000 291.102
36.14000 295.909
36.15000 304.516
36.16000 312.331
36.17000 315.659
36.18000 317.731
36.19000 317.743
36.20000 307.305
36.21000 295.410
36.22000 286.908
36.23000 289.796
36.24000 293.605
36.25000 296.280
36.26000 299.293
36.27000 301.584
36.28000 303.018
36.29000 303.138
36.30000 303.244
36.31000 303.878
36.32000 305.040
36.33000 306.194
36.34000 305.602
36.35000 303.897
36.36000 302.207
36.37000 300.929
36.38000 299.834
36.39000 298.667
36.40000 296.620
36.41000 294.310
36.42000 292.241
36.43000 294.614
36.44000 297.450
36.45000 298.554
36.46000 291.728
36.47000 283.920
36.48000 279.468
36.49000 285.258
36.50000 291.758
36.51000 296.183
36.52000 293.424
36.53000 291.198
36.54000 290.719
36.55000 292.665
36.56000 294.628
36.57000 297.097
36.58000 300.021
36.59000 302.915
36.60000 298.526
36.61000 290.004
36.62000 281.682
36.63000 277.607
36.64000 275.236
36.65000 274.156
36.66000 286.923
36.67000 303.442
36.68000 318.027
36.69000 307.528
36.70000 294.623
36.71000 284.680
36.72000 286.999
36.73000 290.655
36.74000 293.686
36.75000 294.981
36.76000 296.173
36.77000 296.958
36.78000 298.320
36.79000 299.334
36.80000 299.732
36.81000 299.358
36.82000 298.975
36.83000 296.626
36.84000 292.686
36.85000 288.801
36.86000 292.263
36.87000 299.472
36.88000 305.990
36.89000 300.365
36.90000 290.301
36.91000 281.354
36.92000 282.878
36.93000 286.975
36.94000 290.536
36.95000 294.616
36.96000 298.167
36.97000 298.682
36.98000 287.805
36.99000 275.841
37.00000 269.026
37.01000 275.246
37.02000 282.105
37.03000 286.463
37.04000 288.532
37.05000 290.007
37.06000 294.050
37.07000 301.005
37.08000 307.895
37.09000 303.143
37.10000 289.869
37.11000 276.850
37.12000 278.389
37.13000 286.756
37.14000 294.555
37.15000 293.957
37.16000 290.564
37.17000 287.516
37.18000 287.326
37.19000 287.771
37.20000 288.152
37.21000 290.250
37.22000 292.225
37.23000 293.612
37.24000 292.994
37.25000 292.210
37.26000 291.401
37.27000 290.535
37.28000 289.666
37.29000 289.134
37.30000 295.955
37.31000 300.898
37.32000 301.787
37.33000 298.548
37.34000 295.287
37.35000 289.838
37.36000 282.936
37.37000 276.207
37.38000 280.526
37.39000 289.367
37.40000 297.418
37.41000 295.457
37.42000 290.464
37.43000 286.187
37.44000 287.152
37.45000 289.169
37.46000 290.863
37.47000 287.640
37.48000 284.441
37.49000 282.007
37.50000 281.947
37.51000 282.057
37.52000 284.264
37.53000 290.878
37.54000 297.633
37.55000 301.599
37.56000 284.992
37.57000 273.186
37.58000 267.865
37.59000 268.471
37.60000 269.136
37.61000 273.724
37.62000 280.676
37.63000 287.409
37.64000 288.449
37.65000 287.238
37.66000 285.987
37.67000 284.289
37.68000 282.468
37.69000 280.571
37.70000 278.184
37.71000 275.709
37.72000 273.669
37.73000 280.591
37.74000 287.106
37.75000 291.551
37.76000 290.150
37.77000 288.397
37.78000 285.055
37.79000 278.672
37.80000 272.214
37.81000 268.586
37.82000 279.609
37.83000 287.280
37.84000 288.933
37.85000 285.630
37.86000 282.407
37.87000 282.953
37.88000 285.562
37.89000 288.070
37.90000 285.973
37.91000 282.407
37.92000 279.172
37.93000 279.113
37.94000 279.845
37.95000 280.496
37.96000 280.667
37.97000 280.761
37.98000 280.836
37.99000 287.269
38.00000 293.001
38.01000 295.505
38.02000 289.713
38.03000 283.502
38.04000 281.063
38.05000 285.192
38.06000 289.439
38.07000 291.714
38.08000 287.368
38.09000 284.391
38.10000 280.431
38.11000 275.739
38.12000 271.191
38.13000 271.735
38.14000 274.817
38.15000 277.755
38.16000 278.356
38.17000 278.180
38.18000 278.774
38.19000 285.845
38.20000 294.381
38.21000 301.840
38.22000 303.655
38.23000 304.653
38.24000 305.441
38.25000 303.316
38.26000 301.412
38.27000 301.688
38.28000 307.068
38.29000 312.659
38.30000 314.325
38.31000 309.781
38.32000 305.160
38.33000 302.808
38.34000 322.105
38.35000 334.986
38.36000 341.324
38.37000 343.253
38.38000 345.447
38.39000 355.061
38.40000 368.043
38.41000 380.304
38.42000 385.438
38.43000 388.139
38.44000 392.211
38.45000 406.520
38.46000 422.918
38.47000 435.599
38.48000 430.703
38.49000 423.546
38.50000 418.023
38.51000 448.568
38.52000 474.862
38.53000 499.226
38.54000 519.474
38.55000 539.585
38.56000 557.972
38.57000 573.887
38.58000 589.780
38.59000 600.141
38.60000 605.356
38.61000 610.695
38.62000 624.746
38.63000 644.127
38.64000 663.060
38.65000 671.918
38.66000 676.608
38.67000 680.993
38.68000 688.185
38.69000 695.427
38.70000 700.083
38.71000 687.568
38.72000 671.897
38.73000 661.249
38.74000 672.075
38.75000 685.343
38.76000 695.328
38.77000 684.385
38.78000 674.807
38.79000 662.222
38.80000 643.798
38.81000 625.224
38.82000 609.175
38.83000 596.403
38.84000 583.657
38.85000 566.083
38.86000 544.526
38.87000 523.172
38.88000 511.870
38.89000 506.157
38.90000 499.883
38.91000 483.161
38.92000 462.503
38.93000 443.402
38.94000 434.184
38.95000 428.157
38.96000 420.520
38.97000 403.319
38.98000 384.540
38.99000 367.360
39.00000 356.379
39.01000 346.016
39.02000 338.421
39.03000 338.419
39.04000 338.723
39.05000 337.012
39.06000 331.739
39.07000 326.399
39.08000 320.143
39.09000 312.816
39.10000 305.506
39.11000 299.858
39.12000 295.494
39.13000 291.112
39.14000 286.047
39.15000 280.635
39.16000 275.706
39.17000 278.312
39.18000 283.505
39.19000 288.248
39.20000 289.576
39.21000 290.058
39.22000 289.537
39.23000 283.668
39.24000 277.010
39.25000 271.899
39.26000 272.230
39.27000 273.033
39.28000 273.606
39.29000 266.176
39.30000 260.252
39.31000 258.941
39.32000 265.042
39.33000 271.241
39.34000 273.735
39.35000 272.322
39.36000 270.915
39.37000 271.381
39.38000 273.109
39.39000 274.751
39.40000 273.922
39.41000 271.955
39.42000 270.543
39.43000 276.537
39.44000 284.844
39.45000 292.335
39.46000 286.288
39.47000 278.511
39.48000 271.501
39.49000 268.173
39.50000 265.328
39.51000 263.751
39.52000 266.224
39.53000 269.000
39.54000 270.919
39.55000 259.422
39.56000 250.430
39.57000 247.510
39.58000 253.440
39.59000 259.443
39.60000 259.533
39.61000 254.028
39.62000 248.568
39.63000 248.788
39.64000 252.470
39.65000 256.260
39.66000 262.558
39.67000 269.910
39.68000 276.435
39.69000 273.483
39.70000 267.839
39.71000 262.821
39.72000 259.641
39.73000 257.180
39.74000 254.905
39.75000 253.440
39.76000 252.069
39.77000 252.239
39.78000 256.896
39.79000 261.839
39.80000 265.148
39.81000 263.684
39.82000 262.504
39.83000 262.217
39.84000 263.107
39.85000 263.999
39.86000 261.821
39.87000 257.031
39.88000 252.299
39.89000 250.598
39.90000 250.608
39.91000 250.869
39.92000 255.923
39.93000 262.812
39.94000 268.716
39.95000 264.791
39.96000 258.332
39.97000 252.674
39.98000 251.656
39.99000 251.451
40.00000 251.182
40.01000 250.660
40.02000 250.112
40.03000 249.945
40.04000 250.788
40.05000 251.684
40.06000 252.264
40.07000 247.912
40.08000 244.657
40.09000 245.094
40.10000 249.933
40.11000 254.772
40.12000 257.463
40.13000 258.504
40.14000 259.528
40.15000 259.839
40.16000 259.785
40.17000 259.719
40.18000 259.442
40.19000 259.092
40.20000 258.523
40.21000 256.028
40.22000 253.084
40.23000 250.547
40.24000 249.550
40.25000 248.901
40.26000 248.846
40.27000 250.909
40.28000 253.160
40.29000 254.834
40.30000 255.116
40.31000 255.335
40.32000 255.472
40.33000 256.612
40.34000 257.443
40.35000 255.231
40.36000 249.754
40.37000 244.311
40.38000 243.473
40.39000 245.837
40.40000 248.149
40.41000 248.499
40.42000 247.953
40.43000 247.277
40.44000 244.821
40.45000 241.800
40.46000 239.499
40.47000 242.783
40.48000 247.246
40.49000 251.027
40.50000 247.672
40.51000 244.062
40.52000 241.963
40.53000 244.765
40.54000 247.943
40.55000 249.906
40.56000 249.197
40.57000 248.392
40.58000 247.910
40.59000 252.633
40.60000 256.021
40.61000 257.425
40.62000 256.917
40.63000 256.417
40.64000 256.537
40.65000 257.049
40.66000 257.547
40.67000 255.343
40.68000 252.154
40.69000 248.873
40.70000 244.504
40.71000 239.823
40.72000 236.281
40.73000 240.589
40.74000 246.391
40.75000 251.217
40.76000 247.769
40.77000 244.104
40.78000 242.343
40.79000 246.202
40.80000 250.430
40.81000 255.407
40.82000 261.885
40.83000 268.406
40.84000 272.150
40.85000 260.129
40.86000 251.666
40.87000 241.789
40.88000 230.689
40.89000 219.826
40.90000 222.016
40.91000 231.691
40.92000 241.026
40.93000 245.585
40.94000 248.131
40.95000 250.629
40.96000 252.645
40.97000 254.534
40.98000 256.186
40.99000 256.378
41.00000 256.320
41.01000 256.273
41.02000 253.057
41.03000 250.158
41.04000 248.339
41.05000 249.427
41.06000 250.676
41.07000 250.724
41.08000 248.585
41.09000 246.400
41.10000 245.202
41.11000 244.630
41.12000 244.240
41.13000 244.439
41.14000 245.099
41.15000 245.725
41.16000 244.981
41.17000 243.520
41.18000 242.123
41.19000 240.080
41.20000 237.964
41.21000 236.389
41.22000 239.662
41.23000 244.086
41.24000 247.994
41.25000 249.056
41.26000 249.683
41.27000 250.183
41.28000 246.818
41.29000 243.817
41.30000 241.906
41.31000 242.662
41.32000 243.541
41.33000 244.794
41.34000 246.669
41.35000 248.553
41.36000 249.536
41.37000 241.893
41.38000 236.741
41.39000 234.512
41.40000 234.347
41.41000 234.177
41.42000 233.835
41.43000 233.410
41.44000 233.007
41.45000 236.650
41.46000 241.212
41.47000 245.516
41.48000 247.787
41.49000 249.623
41.50000 250.016
41.51000 243.240
41.52000 235.487
41.53000 229.436
41.54000 229.857
41.55000 230.599
41.56000 231.969
41.57000 234.740
41.58000 237.564
41.59000 238.456
41.60000 236.445
41.61000 234.404
41.62000 234.565
41.63000 236.881
41.64000 239.141
41.65000 236.642
41.66000 231.093
41.67000 226.010
41.68000 232.545
41.69000 244.106
41.70000 254.969
41.71000 252.793
41.72000 247.323
41.73000 242.538
41.74000 242.564
41.75000 243.520
41.76000 243.907
41.77000 241.737
41.78000 239.258
41.79000 237.370
41.80000 232.963
41.81000 229.361
41.82000 228.522
41.83000 233.304
41.84000 238.249
41.85000 240.842
41.86000 240.227
41.87000 239.594
41.88000 234.229
41.89000 224.713
41.90000 215.358
41.91000 215.388
41.92000 220.883
41.93000 226.226
41.94000 228.463
41.95000 229.476
41.96000 230.418
41.97000 227.837
41.98000 224.661
41.99000 221.638
42.00000 219.572
42.01000 217.672
42.02000 216.553
42.03000 218.610
42.04000 221.005
42.05000 222.783
42.06000 227.827
42.07000 231.891
42.08000 234.108
42.09000 232.907
42.10000 231.631
42.11000 230.821
42.12000 230.587
42.13000 230.354
42.14000 229.814
42.15000 229.034
42.16000 228.285
42.17000 228.908
42.18000 230.257
42.19000 231.616
42.20000 233.134
42.21000 234.710
42.22000 236.158
42.23000 238.486
42.24000 240.753
42.25000 242.221
42.26000 239.194
42.27000 235.467
42.28000 232.864
42.29000 234.400
42.30000 236.321
42.31000 237.709
42.32000 236.094
42.33000 234.747
42.34000 233.296
42.35000 231.669
42.36000 230.040
42.37000 227.517
42.38000 224.001
42.39000 220.499
42.40000 223.025
42.41000 229.819
42.42000 236.401
42.43000 236.055
42.44000 232.369
42.45000 228.904
42.46000 228.601
42.47000 229.332
42.48000 229.996
42.49000 229.668
42.50000 229.187
42.51000 228.229
42.52000 224.859
42.53000 221.153
42.54000 219.355
42.55000 223.941
42.56000 229.042
42.57000 232.621
42.58000 234.380
42.59000 235.658
42.60000 236.742
42.61000 237.529
42.62000 238.313
42.63000 236.814
42.64000 233.041
42.65000 229.293
42.66000 229.735
42.67000 232.858
42.68000 235.838
42.69000 235.095
42.70000 232.717
42.71000 230.339
42.72000 227.947
42.73000 225.551
42.74000 223.406
42.75000 222.765
42.76000 222.465
42.77000 222.370
42.78000 223.214
42.79000 224.174
42.80000 226.524
42.81000 233.106
42.82000 239.980
42.83000 244.656
42.84000 235.356
42.85000 228.096
42.86000 224.710
42.87000 226.692
42.88000 228.707
42.89000 229.612
42.90000 229.521
42.91000 229.432
42.92000 227.834
42.93000 225.399
42.94000 223.194
42.95000 225.847
42.96000 230.443
42.97000 234.566
42.98000 233.631
42.99000 231.330
43.00000 229.299
43.01000 229.837
43.02000 230.693
43.03000 231.491
43.04000 232.047
43.05000 232.577
43.06000 232.251
43.07000 229.551
43.08000 226.712
43.09000 224.845
43.10000 227.262
43.11000 229.114
43.12000 230.077
43.13000 229.927
43.14000 229.771
43.15000 229.205
43.16000 228.309
43.17000 227.425
43.18000 229.899
43.19000 234.054
43.20000 237.666
43.21000 231.802
43.22000 222.485
43.23000 214.506
43.24000 219.026
43.25000 226.609
43.26000 233.197
43.27000 227.570
43.28000 221.121
43.29000 216.586
43.30000 219.218
43.31000 222.531
43.32000 223.506
43.33000 218.576
43.34000 213.358
43.35000 210.046
43.36000 219.816
43.37000 227.069
43.38000 230.709
43.39000 230.268
43.40000 229.819
43.41000 228.641
43.42000 226.931
43.43000 225.253
43.44000 226.652
43.45000 229.450
43.46000 231.694
43.47000 225.783
43.48000 217.165
43.49000 209.787
43.50000 212.606
43.51000 217.685
43.52000 222.025
43.53000 219.767
43.54000 217.077
43.55000 213.600
43.56000 207.446
43.57000 201.071
43.58000 200.053
43.59000 211.357
43.60000 223.150
43.61000 230.355
43.62000 226.079
43.63000 222.926
43.64000 221.561
43.65000 222.013
43.66000 222.448
43.67000 221.209
43.68000 218.863
43.69000 216.576
43.70000 215.314
43.71000 214.545
43.72000 213.959
43.73000 215.680
43.74000 218.097
43.75000 220.079
43.76000 218.882
43.77000 217.049
43.78000 215.511
43.79000 219.105
43.80000 222.633
43.81000 225.086
43.82000 224.213
43.83000 223.105
43.84000 222.384
43.85000 222.474
43.86000 222.589
43.87000 222.656
43.88000 223.140
43.89000 223.482
43.90000 222.757
43.91000 221.059
43.92000 219.359
43.93000 217.534
43.94000 215.633
43.95000 213.792
43.96000 215.633
43.97000 218.788
43.98000 221.045
43.99000 213.487
44.00000 203.237
44.01000 195.407
44.02000 203.307
44.03000 214.041
44.04000 222.878
44.05000 219.881
44.06000 216.337
44.07000 214.109
44.08000 215.583
44.09000 217.279
44.10000 217.148
44.11000 213.531
44.12000 209.828
44.13000 207.751
44.14000 213.690
44.15000 217.819
44.16000 218.299
44.17000 215.785
44.18000 213.329
44.19000 213.630
44.20000 215.436
44.21000 217.172
44.22000 219.925
44.23000 222.855
44.24000 225.619
44.25000 226.797
44.26000 227.580
44.27000 227.547
44.28000 222.766
44.29000 217.218
44.30000 212.742
44.31000 217.620
44.32000 222.320
44.33000 224.216
44.34000 218.924
44.35000 213.272
44.36000 210.491
44.37000 212.697
44.38000 214.991
44.39000 216.218
44.40000 210.498
44.41000 206.625
44.42000 209.019
44.43000 216.060
44.44000 223.088
44.45000 229.618
44.46000 235.900
44.47000 241.887
44.48000 239.901
44.49000 235.570
44.50000 231.340
44.51000 227.968
44.52000 224.788
44.53000 222.493
44.54000 224.819
44.55000 227.813
44.56000 230.175
44.57000 227.001
44.58000 224.079
44.59000 223.220
44.60000 227.181
44.61000 231.339
44.62000 232.638
44.63000 229.426
44.64000 226.159
44.65000 224.499
44.66000 242.819
44.67000 255.005
44.68000 257.270
44.69000 252.868
44.70000 248.547
44.71000 246.476
44.72000 245.423
44.73000 244.430
44.74000 248.296
44.75000 253.210
44.76000 257.173
44.77000 254.063
44.78000 249.514
44.79000 246.614
44.80000 251.486
44.81000 257.354
44.82000 261.879
44.83000 267.011
44.84000 271.112
44.85000 274.129
44.86000 274.840
44.87000 275.475
44.88000 276.249
44.89000 277.223
44.90000 278.197
44.91000 282.840
44.92000 290.879
44.93000 298.787
44.94000 297.643
44.95000 290.980
44.96000 284.711
44.97000 287.278
44.98000 293.489
44.99000 299.294
45.00000 305.612
45.01000 311.475
45.02000 317.367
45.03000 323.442
45.04000 329.551
45.05000 333.852
45.06000 330.445
45.07000 326.166
45.08000 322.948
45.09000 320.579
45.10000 318.768
45.11000 318.355
45.12000 320.651
45.13000 323.016
45.14000 322.228
45.15000 317.356
45.16000 312.473
45.17000 306.888
45.18000 300.733
45.19000 294.712
45.20000 295.233
45.21000 299.382
45.22000 303.228
45.23000 301.475
45.24000 297.618
45.25000 294.054
45.26000 290.459
45.27000 287.225
45.28000 284.639
45.29000 285.886
45.30000 287.762
45.31000 289.157
45.32000 288.692
45.33000 288.042
45.34000 287.565
45.35000 300.107
45.36000 310.309
45.37000 313.543
45.38000 304.498
45.39000 295.221
45.40000 288.960
45.41000 286.224
45.42000 283.500
45.43000 279.451
45.44000 274.436
45.45000 269.504
45.46000 267.571
45.47000 267.152
45.48000 266.803
45.49000 267.549
45.50000 268.669
45.51000 269.692
45.52000 274.260
45.53000 279.036
45.54000 282.277
45.55000 277.358
45.56000 271.240
45.57000 265.563
45.58000 261.432
45.59000 257.435
45.60000 254.589
45.61000 255.517
45.62000 256.346
45.63000 257.421
45.64000 258.892
45.65000 260.367
45.66000 261.945
45.67000 263.630
45.68000 265.306
45.69000 261.588
45.70000 254.278
45.71000 247.172
45.72000 245.941
45.73000 247.410
45.74000 248.520
45.75000 244.859
45.76000 239.713
45.77000 235.075
45.78000 238.190
45.79000 242.333
45.80000 243.959
45.81000 233.523
45.82000 221.511
45.83000 213.891
45.84000 220.267
45.85000 227.686
45.86000 232.811
45.87000 231.586
45.88000 230.502
45.89000 231.107
45.90000 234.168
45.91000 237.247
45.92000 234.885
45.93000 227.391
45.94000 219.960
45.95000 219.632
45.96000 223.631
45.97000 227.443
45.98000 226.919
45.99000 224.579
46.00000 222.521
46.01000 223.686
46.02000 225.763
46.03000 227.610
46.04000 221.964
46.05000 215.855
46.06000 211.001
46.07000 211.589
46.08000 212.805
46.09000 214.013
46.10000 215.193
46.11000 216.372
46.12000 217.160
46.13000 220.989
46.14000 223.888
46.15000 220.153
46.16000 207.691
46.17000 195.205
46.18000 193.016
46.19000 199.562
46.20000 206.029
46.21000 207.535
46.22000 206.282
46.23000 205.097
46.24000 205.212
46.25000 205.823
46.26000 206.354
46.27000 206.098
46.28000 205.639
46.29000 205.237
46.30000 205.045
46.31000 204.911
46.32000 205.289
46.33000 207.674
46.34000 210.264
46.35000 211.085
46.36000 207.237
46.37000 203.140
46.38000 200.494
46.39000 197.484
46.40000 195.278
46.41000 195.455
46.42000 198.464
46.43000 201.465
46.44000 201.309
46.45000 198.735
46.46000 196.204
46.47000 197.737
46.48000 201.231
46.49000 204.625
46.50000 206.411
46.51000 207.639
46.52000 209.056
46.53000 212.133
46.54000 215.597
46.55000 218.580
46.56000 210.859
46.57000 202.956
46.58000 197.593
46.59000 201.269
46.60000 205.745
46.61000 207.771
46.62000 203.901
46.63000 199.771
46.64000 197.200
46.65000 193.315
46.66000 190.503
46.67000 189.472
46.68000 190.346
46.69000 191.238
46.70000 194.251
46.71000 198.736
46.72000 203.120
46.73000 203.464
46.74000 201.988
46.75000 200.614
46.76000 200.642
46.77000 201.113
46.78000 201.452
46.79000 200.772
46.80000 199.876
46.81000 199.118
46.82000 192.204
46.83000 185.728
46.84000 183.065
46.85000 192.742
46.86000 203.362
46.87000 208.585
46.88000 201.976
46.89000 194.948
46.90000 190.743
46.91000 187.014
46.92000 184.370
46.93000 186.583
46.94000 193.457
46.95000 200.251
46.96000 200.856
46.97000 197.568
46.98000 194.373
46.99000 195.923
47.00000 199.311
47.01000 202.380
47.02000 201.717
47.03000 199.982
47.04000 198.591
47.05000 199.566
47.06000 200.989
47.07000 202.173
47.08000 198.494
47.09000 194.976
47.10000 193.201
47.11000 196.557
47.12000 200.248
47.13000 201.042
47.14000 196.050
47.15000 190.898
47.16000 187.944
47.17000 192.708
47.18000 196.058
47.19000 194.456
47.20000 188.581
47.21000 182.783
47.22000 181.253
47.23000 182.164
47.24000 183.041
47.25000 181.214
47.26000 178.508
47.27000 176.394
47.28000 180.290
47.29000 185.755
47.30000 190.238
47.31000 188.693
47.32000 186.121
47.33000 184.025
47.34000 183.195
47.35000 182.624
47.36000 183.519
47.37000 188.345
47.38000 193.386
47.39000 195.818
47.40000 193.506
47.41000 191.094
47.42000 189.774
47.43000 195.437
47.44000 199.320
47.45000 197.482
47.46000 191.188
47.47000 185.102
47.48000 187.362
47.49000 193.963
47.50000 200.280
47.51000 197.023
47.52000 190.844
47.53000 185.004
47.54000 182.189
47.55000 180.089
47.56000 178.980
47.57000 183.326
47.58000 188.504
47.59000 192.635
47.60000 188.305
47.61000 184.191
47.62000 183.290
47.63000 190.235
47.64000 197.536
47.65000 199.592
47.66000 192.983
47.67000 186.245
47.68000 182.732
47.69000 177.323
47.70000 173.718
47.71000 177.146
47.72000 185.530
47.73000 193.626
47.74000 192.755
47.75000 187.638
47.76000 182.784
47.77000 180.994
47.78000 180.249
47.79000 179.672
47.80000 180.405
47.81000 181.418
47.82000 182.510
47.83000 183.991
47.84000 185.526
47.85000 186.722
47.86000 178.666
47.87000 171.667
47.88000 169.091
47.89000 176.361
47.90000 183.992
47.91000 189.772
47.92000 192.774
47.93000 195.750
47.94000 194.345
47.95000 188.663
47.96000 183.004
47.97000 179.256
47.98000 176.728
47.99000 174.362
48.00000 175.967
48.01000 179.286
48.02000 182.404
48.03000 181.921
48.04000 180.521
48.05000 179.276
48.06000 179.114
48.07000 179.162
48.08000 179.647
48.09000 182.087
48.10000 184.763
48.11000 186.800
48.12000 188.468
48.13000 189.761
48.14000 189.122
48.15000 184.567
48.16000 179.899
48.17000 180.309
48.18000 187.622
48.19000 194.969
48.20000 192.601
48.21000 181.721
48.22000 171.046
48.23000 172.093
48.24000 179.947
48.25000 187.447
48.26000 187.792
48.27000 185.323
48.28000 183.030
48.29000 184.723
48.30000 187.206
48.31000 189.296
48.32000 188.934
48.33000 188.148
48.34000 186.328
48.35000 180.326
48.36000 173.880
48.37000 169.097
48.38000 176.098
48.39000 182.054
48.40000 186.887
48.41000 189.647
48.42000 192.362
48.43000 191.536
48.44000 186.359
48.45000 181.180
48.46000 181.031
48.47000 184.845
48.48000 188.542
48.49000 187.278
48.50000 183.393
48.51000 179.651
48.52000 178.313
48.53000 177.836
48.54000 177.397
48.55000 180.225
48.56000 183.450
48.57000 185.857
48.58000 183.686
48.59000 180.805
48.60000 177.380
48.61000 171.963
48.62000 166.360
48.63000 162.316
48.64000 163.801
48.65000 165.138
48.66000 168.662
48.67000 175.854
48.68000 183.105
48.69000 186.511
48.70000 185.661
48.71000 184.812
48.72000 182.230
48.73000 178.441
48.74000 174.785
48.75000 175.418
48.76000 178.112
48.77000 180.468
48.78000 177.989
48.79000 173.934
48.80000 170.255
48.81000 172.207
48.82000 175.010
48.83000 177.335
48.84000 177.247
48.85000 176.826
48.86000 176.757
48.87000 177.862
48.88000 179.062
48.89000 179.903
48.90000 177.559
48.91000 175.694
48.92000 176.489
48.93000 181.338
48.94000 186.229
48.95000 187.563
48.96000 185.361
48.97000 183.174
48.98000 178.987
48.99000 173.585
49.00000 168.386
49.01000 168.408
49.02000 170.717
49.03000 173.239
49.04000 178.384
49.05000 184.307
49.06000 189.607
49.07000 189.452
49.08000 188.383
49.09000 186.678
49.10000 182.080
49.11000 177.127
49.12000 173.300
49.13000 172.890
49.14000 172.716
49.15000 172.597
49.16000 169.449
49.17000 167.031
49.18000 167.704
49.19000 172.644
49.20000 177.607
49.21000 177.651
49.22000 173.304
49.23000 169.001
49.24000 169.851
49.25000 173.654
49.26000 177.103
49.27000 173.126
49.28000 166.187
49.29000 160.162
49.30000 163.866
49.31000 170.190
49.32000 175.768
49.33000 172.387
49.34000 168.107
49.35000 165.076
49.36000 167.182
49.37000 169.844
49.38000 172.752
49.39000 176.341
49.40000 179.969
49.41000 182.354
49.42000 175.807
49.43000 170.837
49.44000 168.209
49.45000 168.507
49.46000 168.822
49.47000 171.755
49.48000 176.797
49.49000 181.766
49.50000 183.299
49.51000 182.998
49.52000 182.829
49.53000 184.936
49.54000 187.871
49.55000 189.851
49.56000 182.951
49.57000 173.882
49.58000 166.007
49.59000 170.066
49.60000 175.134
49.61000 178.595
49.62000 176.060
49.63000 172.957
49.64000 170.767
49.65000 170.875
49.66000 171.094
49.67000 171.233
49.68000 171.493
49.69000 171.683
49.70000 170.645
49.71000 168.226
49.72000 165.835
49.73000 168.230
49.74000 174.109
49.75000 179.872
49.76000 180.784
49.77000 179.382
49.78000 178.050
49.79000 177.735
49.80000 177.758
49.81000 178.359
49.82000 183.701
49.83000 190.090
49.84000 195.546
49.85000 186.067
49.86000 176.308
49.87000 169.914
49.88000 174.925
49.89000 180.872
49.90000 184.013
49.91000 180.715
49.92000 177.162
49.93000 174.995
49.94000 189.426
49.95000 199.879
49.96000 198.124
49.97000 184.018
49.98000 170.029
49.99000 167.306
50.00000 172.011
50.01000 176.597
50.02000 177.613
50.03000 177.067
50.04000 176.862
50.05000 180.950
50.06000 186.330
50.07000 190.910
50.08000 189.681
50.09000 187.293
50.10000 185.290
50.11000 184.068
50.12000 183.132
50.13000 182.455
50.14000 182.579
50.15000 182.759
50.16000 182.481
50.17000 181.243
50.18000 179.976
50.19000 179.233
50.20000 178.668
50.21000 178.271
50.22000 177.979
50.23000 177.783
50.24000 177.587
50.25000 177.427
50.26000 177.287
50.27000 177.152
50.28000 176.280
50.29000 175.174
50.30000 174.250
50.31000 175.304
50.32000 176.899
50.33000 178.927
50.34000 183.762
50.35000 189.101
50.36000 193.494
50.37000 190.755
50.38000 187.856
50.39000 185.316
50.40000 183.786
50.41000 182.317
50.42000 182.931
50.43000 187.509
50.44000 192.183
50.45000 194.802
50.46000 197.792
50.47000 199.861
50.48000 200.383
50.49000 199.640
50.50000 198.929
50.51000 199.718
50.52000 201.323
50.53000 202.865
50.54000 207.166
50.55000 212.145
50.56000 216.783
50.57000 218.192
50.58000 218.799
50.59000 219.409
50.60000 220.033
50.61000 220.660
50.62000 221.165
50.63000 220.028
50.64000 218.975
50.65000 218.221
50.66000 218.229
50.67000 218.275
50.68000 218.090
50.69000 217.507
50.70000 216.917
50.71000 216.602
50.72000 220.668
50.73000 223.420
50.74000 221.838
50.75000 217.052
50.76000 212.362
50.77000 211.017
50.78000 211.330
50.79000 211.629
50.80000 212.722
50.81000 213.982
50.82000 214.625
50.83000 210.113
50.84000 204.443
50.85000 200.531
50.86000 205.786
50.87000 212.358
50.88000 217.541
50.89000 207.003
50.90000 197.492
50.91000 190.543
50.92000 189.560
50.93000 188.821
50.94000 189.235
50.95000 191.462
50.96000 193.711
50.97000 194.852
50.98000 191.788
50.99000 189.758
51.00000 190.049
51.01000 191.895
51.02000 193.662
51.03000 193.254
51.04000 191.864
51.05000 190.552
51.06000 186.706
51.07000 182.468
51.08000 178.861
51.09000 179.919
51.10000 181.925
51.11000 183.256
51.12000 181.415
51.13000 179.169
51.14000 177.439
51.15000 177.245
51.16000 177.179
51.17000 177.470
51.18000 178.518
51.19000 179.590
51.20000 178.415
51.21000 174.034
51.22000 169.630
51.23000 168.972
51.24000 171.773
51.25000 174.526
51.26000 174.022
51.27000 171.536
51.28000 169.185
51.29000 169.827
51.30000 171.699
51.31000 173.448
51.32000 169.549
51.33000 164.587
51.34000 160.353
51.35000 160.918
51.36000 162.360
51.37000 162.674
51.38000 158.201
51.39000 153.187
51.40000 149.420
51.41000 159.387
51.42000 167.840
51.43000 173.289
51.44000 172.935
51.45000 172.435
51.46000 169.727
51.47000 164.170
51.48000 158.608
51.49000 157.498
51.50000 160.083
51.51000 162.625
51.52000 163.040
51.53000 162.278
51.54000 161.627
51.55000 163.001
51.56000 165.134
51.57000 167.104
51.58000 166.637
51.59000 165.667
51.60000 164.840
51.61000 164.860
51.62000 165.018
51.63000 164.813
51.64000 163.203
51.65000 161.455
51.66000 160.176
51.67000 160.962
51.68000 161.650
51.69000 160.672
51.70000 156.766
51.71000 152.806
51.72000 153.228
51.73000 158.757
51.74000 164.278
51.75000 165.794
51.76000 164.312
51.77000 162.876
51.78000 163.097
51.79000 164.153
51.80000 165.037
51.81000 163.267
51.82000 160.591
51.83000 158.149
51.84000 159.755
51.85000 162.002
51.86000 163.290
51.87000 159.497
51.88000 154.960
51.89000 151.894
51.90000 153.973
51.91000 156.495
51.92000 158.288
51.93000 156.422
51.94000 154.884
51.95000 154.856
51.96000 157.242
51.97000 159.659
51.98000 159.521
51.99000 156.707
52.00000 153.908
52.01000 153.387
52.02000 154.405
52.03000 155.409
52.04000 155.999
52.05000 156.399
52.06000 156.492
52.07000 152.520
52.08000 147.285
52.09000 142.569
52.10000 144.888
52.11000 148.195
52.12000 150.960
52.13000 151.137
52.14000 150.977
52.15000 151.958
52.16000 156.566
52.17000 161.443
52.18000 164.808
52.19000 159.401
52.20000 155.116
52.21000 154.304
52.22000 158.525
52.23000 162.786
52.24000 162.067
52.25000 156.666
52.26000 151.310
52.27000 153.514
52.28000 160.259
52.29000 166.694
52.30000 165.985
52.31000 162.295
52.32000 158.785
52.33000 157.335
52.34000 156.466
52.35000 155.694
52.36000 156.915
52.37000 158.296
52.38000 159.191
52.39000 157.988
52.40000 156.544
52.41000 155.110
52.42000 153.707
52.43000 152.306
52.44000 151.370
52.45000 163.241
52.46000 172.288
52.47000 175.244
52.48000 170.208
52.49000 165.138
52.50000 161.380
52.51000 158.731
52.52000 156.115
52.53000 156.487
52.54000 158.484
52.55000 160.350
52.56000 159.740
52.57000 158.188
52.58000 156.554
52.59000 154.118
52.60000 151.477
52.61000 149.165
52.62000 146.958
52.63000 145.080
52.64000 144.571
52.65000 149.417
52.66000 154.805
52.67000 157.761
52.68000 154.311
52.69000 150.523
52.70000 148.078
52.71000 149.058
52.72000 149.823
52.73000 151.226
52.74000 153.384
52.75000 155.544
52.76000 157.837
52.77000 160.232
52.78000 162.585
52.79000 164.378
52.80000 165.833
52.81000 166.977
52.82000 163.187
52.83000 157.688
52.84000 152.602
52.85000 151.103
52.86000 150.437
52.87000 149.864
52.88000 148.897
52.89000 148.029
52.90000 147.850
52.91000 150.116
52.92000 152.598
52.93000 154.261
52.94000 153.956
52.95000 153.566
52.96000 153.323
52.97000 160.337
52.98000 165.461
52.99000 166.931
53.00000 164.507
53.01000 162.094
53.02000 161.111
53.03000 161.117
53.04000 161.123
53.05000 159.999
53.06000 158.419
53.07000 156.872
53.08000 155.790
53.09000 154.855
53.10000 154.500
53.11000 158.617
53.12000 163.671
53.13000 167.948
53.14000 161.943
53.15000 155.774
53.16000 150.814
53.17000 149.753
53.18000 148.990
53.19000 149.341
53.20000 152.132
53.21000 155.008
53.22000 156.726
53.23000 156.218
53.24000 155.844
53.25000 156.178
53.26000 157.189
53.27000 158.180
53.28000 157.575
53.29000 155.969
53.30000 154.409
53.31000 153.761
53.32000 153.512
53.33000 153.529
53.34000 156.641
53.35000 160.639
53.36000 164.399
53.37000 166.521
53.38000 168.333
53.39000 169.839
53.40000 164.584
53.41000 159.581
53.42000 157.198
53.43000 162.506
53.44000 168.313
53.45000 170.913
53.46000 167.128
53.47000 163.168
53.48000 160.900
53.49000 157.541
53.50000 155.191
53.51000 152.954
53.52000 150.813
53.53000 148.742
53.54000 150.381
53.55000 154.135
53.56000 157.756
53.57000 160.406
53.58000 162.547
53.59000 164.074
53.60000 159.385
53.61000 153.079
53.62000 147.689
53.63000 147.905
53.64000 149.072
53.65000 150.023
53.66000 149.481
53.67000 148.912
53.68000 149.988
53.69000 155.463
53.70000 161.178
53.71000 161.323
53.72000 151.377
53.73000 141.221
53.74000 135.667
53.75000 142.146
53.76000 146.611
53.77000 149.783
53.78000 151.950
53.79000 154.119
53.80000 156.338
53.81000 158.583
53.82000 160.731
53.83000 158.944
53.84000 155.992
53.85000 152.874
53.86000 148.279
53.87000 143.335
53.88000 139.692
53.89000 143.179
53.90000 147.750
53.91000 151.394
53.92000 155.901
53.93000 159.600
53.94000 160.960
53.95000 156.622
53.96000 152.026
53.97000 147.356
53.98000 142.562
53.99000 137.767
54.00000 135.271
54.01000 143.462
54.02000 148.989
54.03000 153.092
54.04000 156.194
54.05000 159.051
54.06000 154.331
54.07000 146.033
54.08000 138.165
54.09000 142.737
54.10000 150.622
54.11000 157.484
54.12000 156.327
54.13000 153.459
54.14000 150.696
54.15000 148.450
54.16000 146.275
54.17000 144.580
54.18000 149.222
54.19000 153.315
54.20000 156.189
54.21000 156.359
54.22000 156.431
54.23000 155.843
54.24000 154.269
54.25000 152.686
54.26000 151.381
54.27000 150.349
54.28000 149.361
54.29000 152.033
54.30000 157.038
54.31000 161.850
54.32000 161.889
54.33000 159.876
54.34000 157.985
54.35000 158.428
54.36000 159.453
54.37000 160.019
54.38000 157.394
54.39000 154.156
54.40000 151.683
54.41000 152.625
54.42000 153.976
54.43000 155.004
54.44000 152.211
54.45000 149.814
54.46000 148.712
54.47000 150.226
54.48000 151.816
54.49000 152.003
54.50000 150.288
54.51000 148.563
54.52000 148.075
54.53000 148.667
54.54000 149.279
54.55000 151.045
54.56000 153.477
54.57000 155.778
54.58000 155.424
54.59000 154.030
54.60000 152.735
54.61000 150.407
54.62000 148.060
54.63000 145.774
54.64000 143.868
54.65000 142.027
54.66000 141.600
54.67000 146.883
54.68000 152.768
54.69000 157.132
54.70000 155.271
54.71000 153.555
54.72000 152.496
54.73000 152.647
54.74000 152.824
54.75000 154.490
54.76000 157.979
54.77000 161.465
54.78000 161.505
54.79000 158.836
54.80000 156.201
54.81000 154.964
54.82000 154.463
54.83000 153.877
54.84000 151.860
54.85000 149.331
54.86000 147.009
54.87000 150.752
54.88000 155.389
54.89000 159.312
54.90000 159.246
54.91000 158.563
54.92000 157.432
54.93000 154.662
54.94000 151.740
54.95000 149.633
54.96000 151.990
54.97000 153.955
54.98000 156.392
54.99000 159.617
55.00000 162.853
55.01000 162.170
55.02000 157.160
55.03000 152.168
55.04000 154.716
55.05000 162.571
55.06000 170.125
55.07000 168.011
55.08000 161.262
55.09000 154.813
55.10000 152.638
55.11000 151.853
55.12000 151.142
55.13000 152.635
55.14000 154.375
55.15000 156.228
55.16000 158.651
55.17000 161.153
55.18000 162.469
55.19000 159.841
55.20000 156.897
55.21000 154.835
55.22000 157.365
55.23000 159.410
55.24000 158.407
55.25000 152.773
55.26000 147.090
55.27000 146.719
55.28000 151.609
55.29000 156.466
55.30000 159.691
55.31000 161.827
55.32000 163.964
55.33000 166.149
55.34000 168.355
55.35000 170.134
55.36000 166.714
55.37000 161.756
55.38000 157.320
55.39000 166.826
55.40000 177.495
55.41000 186.986
55.42000 191.135
55.43000 194.632
55.44000 195.043
55.45000 186.118
55.46000 176.555
55.47000 170.063
55.48000 184.543
55.49000 195.813
55.50000 202.647
55.51000 203.372
55.52000 204.059
55.53000 205.366
55.54000 207.223
55.55000 209.061
55.56000 212.803
55.57000 217.557
55.58000 222.402
55.59000 229.145
55.60000 236.644
55.61000 243.959
55.62000 249.321
55.63000 254.159
55.64000 258.425
55.65000 275.848
55.66000 292.864
55.67000 306.509
55.68000 306.324
55.69000 304.647
55.70000 302.717
55.71000 300.090
55.72000 297.421
55.73000 295.670
55.74000 327.918
55.75000 352.214
55.76000 364.326
55.77000 361.266
55.78000 358.197
55.79000 366.804
55.80000 384.780
55.81000 402.493
55.82000 408.103
55.83000 407.269
55.84000 406.556
55.85000 407.945
55.86000 410.096
55.87000 411.996
55.88000 411.568
55.89000 410.574
55.90000 409.711
55.91000 412.450
55.92000 415.268
55.93000 417.705
55.94000 418.727
55.95000 419.615
55.96000 419.182
55.97000 415.434
55.98000 411.527
55.99000 409.052
56.00000 401.300
56.01000 395.615
56.02000 390.605
56.03000 386.352
56.04000 382.097
56.05000 377.524
56.06000 372.719
56.07000 368.009
56.08000 358.657
56.09000 347.481
56.10000 336.597
56.11000 329.962
56.12000 324.729
56.13000 320.204
56.14000 321.452
56.15000 323.972
56.16000 326.123
56.17000 314.931
56.18000 303.929
56.19000 294.595
56.20000 290.895
56.21000 287.655
56.22000 283.846
56.23000 278.734
56.24000 273.572
56.25000 270.425
56.26000 252.339
56.27000 239.293
56.28000 232.953
56.29000 233.373
56.30000 233.731
56.31000 228.139
56.32000 218.635
56.33000 209.374
56.34000 209.506
56.35000 213.605
56.36000 216.761
56.37000 208.116
56.38000 195.928
56.39000 185.665
56.40000 189.337
56.41000 195.781
56.42000 201.182
56.43000 193.789
56.44000 186.311
56.45000 180.229
56.46000 178.441
56.47000 176.955
56.48000 176.903
56.49000 179.842
56.50000 182.873
56.51000 184.646
56.52000 169.530
56.53000 158.815
56.54000 156.144
56.55000 160.755
56.56000 165.351
56.57000 169.052
56.58000 172.219
56.59000 175.283
56.60000 175.655
56.61000 174.979
56.62000 174.112
56.63000 171.177
56.64000 167.677
56.65000 163.608
56.66000 155.863
56.67000 147.462
56.68000 140.553
56.69000 147.069
56.70000 153.639
56.71000 158.608
56.72000 159.099
56.73000 159.324
56.74000 158.620
56.75000 156.155
56.76000 153.648
56.77000 152.245
56.78000 146.394
56.79000 142.343
56.80000 143.243
56.81000 148.180
56.82000 152.988
56.83000 151.881
56.84000 147.562
56.85000 143.414
56.86000 143.184
56.87000 144.318
56.88000 145.786
56.89000 150.408
56.90000 155.810
56.91000 159.973
56.92000 156.971
56.93000 152.820
56.94000 149.476
56.95000 151.014
56.96000 152.646
56.97000 152.229
56.98000 146.593
56.99000 140.698
57.00000 138.475
57.01000 142.586
57.02000 146.808
57.03000 149.060
57.04000 147.140
57.05000 145.836
57.06000 145.797
57.07000 146.689
57.08000 147.493
57.09000 145.186
57.10000 141.343
57.11000 137.683
57.12000 139.537
57.13000 142.966
57.14000 146.490
57.15000 150.812
57.16000 155.312
57.17000 158.022
57.18000 151.435
57.19000 143.517
57.20000 137.276
57.21000 138.725
57.22000 140.403
57.23000 141.511
57.24000 141.295
57.25000 141.025
57.26000 140.772
57.27000 140.544
57.28000 140.316
57.29000 140.201
57.30000 140.348
57.31000 140.473
57.32000 143.225
57.33000 147.732
57.34000 152.020
57.35000 150.330
57.36000 145.948
57.37000 141.814
57.38000 140.909
57.39000 140.981
57.40000 140.849
57.41000 139.202
57.42000 137.248
57.43000 135.726
57.44000 136.224
57.45000 136.979
57.46000 137.560
57.47000 137.239
57.48000 136.933
57.49000 138.483
57.50000 143.956
57.51000 149.557
57.52000 150.056
57.53000 143.303
57.54000 136.498
57.55000 135.021
57.56000 138.449
57.57000 141.826
57.58000 141.809
57.59000 139.732
57.60000 137.812
57.61000 139.338
57.62000 142.278
57.63000 145.024
57.64000 145.522
57.65000 145.410
57.66000 145.288
57.67000 145.102
57.68000 144.904
57.69000 144.483
57.70000 143.117
57.71000 141.646
57.72000 140.541
57.73000 139.289
57.74000 138.303
57.75000 138.244
57.76000 139.970
57.77000 141.740
57.78000 143.428
57.79000 145.009
57.80000 146.587
57.81000 147.314
57.82000 147.335
57.83000 147.291
57.84000 144.125
57.85000 139.238
57.86000 134.623
57.87000 134.987
57.88000 137.210
57.89000 139.264
57.90000 143.778
57.91000 148.383
57.92000 152.049
57.93000 150.199
57.94000 147.448
57.95000 144.512
57.96000 140.865
57.97000 137.149
57.98000 134.432
57.99000 138.923
58.00000 142.672
58.01000 144.292
58.02000 142.181
58.03000 140.002
58.04000 141.795
58.05000 148.200
58.06000 154.592
58.07000 152.794
58.08000 144.917
58.09000 137.293
58.10000 138.873
58.11000 145.071
58.12000 151.001
58.13000 152.800
58.14000 153.192
58.15000 153.550
58.16000 150.042
58.17000 146.150
58.18000 142.641
58.19000 141.154
58.20000 139.962
58.21000 138.829
58.22000 137.905
58.23000 136.999
58.24000 136.354
58.25000 138.300
58.26000 139.864
58.27000 139.712
58.28000 136.830
58.29000 133.913
58.30000 131.219
58.31000 128.757
58.32000 126.309
58.33000 126.306
58.34000 127.942
58.35000 129.583
58.36000 131.353
58.37000 133.181
58.38000 134.748
58.39000 132.879
58.40000 129.945
58.41000 127.303
58.42000 131.365
58.43000 136.137
58.44000 139.655
58.45000 137.200
58.46000 133.971
58.47000 131.314
58.48000 130.473
58.49000 129.766
58.50000 129.278
58.51000 127.878
58.52000 126.803
58.53000 127.081
58.54000 129.312
58.55000 131.559
58.56000 131.972
58.57000 130.668
58.58000 129.375
58.59000 130.145
58.60000 132.148
58.61000 134.149
58.62000 136.117
58.63000 138.072
58.64000 139.936
58.65000 140.775
58.66000 141.325
58.67000 141.813
58.68000 140.268
58.69000 138.602
58.70000 137.601
58.71000 139.462
58.72000 141.651
58.73000 141.566
58.74000 134.925
58.75000 127.872
58.76000 123.165
58.77000 130.288
58.78000 135.794
58.79000 139.460
58.80000 140.718
58.81000 141.961
58.82000 140.585
58.83000 137.000
58.84000 133.461
58.85000 132.600
58.86000 133.223
58.87000 133.866
58.88000 134.897
58.89000 136.076
58.90000 137.080
58.91000 136.366
58.92000 135.214
58.93000 134.206
58.94000 135.352
58.95000 136.640
58.96000 137.236
58.97000 135.129
58.98000 132.749
58.99000 132.555
59.00000 138.097
59.01000 143.942
59.02000 147.710
59.03000 138.208
59.04000 131.079
59.05000 129.290
59.06000 133.807
59.07000 138.316
59.08000 138.637
59.09000 135.769
59.10000 132.951
59.11000 133.953
59.12000 136.802
59.13000 139.455
59.14000 139.022
59.15000 137.523
59.16000 136.096
59.17000 135.302
59.18000 134.654
59.19000 134.096
59.20000 131.030
59.21000 128.117
59.22000 127.119
59.23000 132.898
59.24000 139.271
59.25000 143.162
59.26000 141.115
59.27000 138.810
59.28000 137.378
59.29000 128.225
59.30000 121.561
59.31000 120.444
59.32000 125.223
59.33000 129.994
59.34000 133.514
59.35000 136.173
59.36000 138.772
59.37000 137.088
59.38000 133.571
59.39000 130.318
59.40000 130.614
59.41000 132.027
59.42000 133.502
59.43000 135.450
59.44000 137.496
59.45000 139.227
59.46000 136.729
59.47000 134.170
59.48000 132.353
59.49000 132.921
59.50000 133.671
59.51000 133.626
59.52000 131.848
59.53000 130.010
59.54000 128.912
59.55000 129.440
59.56000 129.824
59.57000 130.185
59.58000 130.522
59.59000 130.865
59.60000 131.639
59.61000 132.683
59.62000 133.697
59.63000 135.177
59.64000 136.770
59.65000 137.994
59.66000 134.941
59.67000 130.666
59.68000 127.050
59.69000 127.926
59.70000 129.648
59.71000 131.077
59.72000 136.297
59.73000 140.978
59.74000 143.488
59.75000 139.638
59.76000 135.379
59.77000 132.661
59.78000 133.007
59.79000 133.435
59.80000 133.681
59.81000 129.972
59.82000 127.374
59.83000 128.138
59.84000 131.785
59.85000 135.379
59.86000 136.136
59.87000 135.282
59.88000 134.458
59.89000 132.570
59.90000 130.410
59.91000 128.297
59.92000 126.654
59.93000 125.133
59.94000 124.391
59.95000 128.395
59.96000 133.202
59.97000 137.114
59.98000 136.273
59.99000 135.186
60.00000 134.850
60.01000 136.515
60.02000 138.288
60.03000 139.956
60.04000 141.435
60.05000 142.911
60.06000 143.716
60.07000 135.895
60.08000 130.522
60.09000 128.132
60.10000 128.050
60.11000 128.023
60.12000 130.212
60.13000 133.546
60.14000 136.735
60.15000 135.075
60.16000 131.945
60.17000 128.986
60.18000 127.533
60.19000 126.433
60.20000 125.459
60.21000 125.167
60.22000 124.979
60.23000 124.830
60.24000 128.578
60.25000 131.884
60.26000 133.011
60.27000 128.846
60.28000 124.444
60.29000 122.766
60.30000 125.562
60.31000 128.424
60.32000 129.910
60.33000 134.025
60.34000 136.783
60.35000 136.849
60.36000 135.029
60.37000 133.202
60.38000 131.159
60.39000 129.014
60.40000 126.981
60.41000 127.191
60.42000 128.043
60.43000 129.152
60.44000 132.266
60.45000 135.807
60.46000 137.978
60.47000 133.403
60.48000 127.918
60.49000 123.646
60.50000 124.279
60.51000 125.087
60.52000 126.273
60.53000 128.296
60.54000 130.349
60.55000 131.164
60.56000 130.130
60.57000 129.079
60.58000 129.294
60.59000 130.737
60.60000 132.174
60.61000 133.157
60.62000 133.852
60.63000 134.403
60.64000 131.452
60.65000 127.000
60.66000 122.820
60.67000 124.438
60.68000 127.447
60.69000 130.498
60.70000 133.828
60.71000 137.213
60.72000 139.910
60.73000 139.549
60.74000 138.823
60.75000 138.272
60.76000 132.217
60.77000 127.169
60.78000 124.684
60.79000 127.365
60.80000 130.194
60.81000 132.226
60.82000 133.182
60.83000 134.132
60.84000 133.610
60.85000 131.806
60.86000 130.060
60.87000 131.627
60.88000 135.105
60.89000 138.399
60.90000 138.017
60.91000 136.198
60.92000 134.509
60.93000 136.159
60.94000 138.441
60.95000 139.961
60.96000 136.750
60.97000 132.724
60.98000 129.676
60.99000 130.563
61.00000 131.863
61.01000 132.826
61.02000 138.069
61.03000 142.325
61.04000 143.645
61.05000 139.582
61.06000 135.402
61.07000 132.712
61.08000 131.839
61.09000 130.972
61.10000 131.777
61.11000 133.888
61.12000 135.995
61.13000 137.929
61.14000 139.771
61.15000 141.350
61.16000 138.528
61.17000 134.138
61.18000 130.108
61.19000 129.639
61.20000 129.979
61.21000 130.463
61.22000 131.741
61.23000 133.142
61.24000 134.622
61.25000 136.388
61.26000 138.181
61.27000 139.473
61.28000 134.418
61.29000 130.319
61.30000 128.279
61.31000 129.673
61.32000 131.120
61.33000 131.748
61.34000 131.476
61.35000 131.204
61.36000 134.169
61.37000 139.386
61.38000 144.393
61.39000 142.718
61.40000 137.847
61.41000 133.546
61.42000 137.314
61.43000 143.697
61.44000 149.484
61.45000 149.943
61.46000 149.332
61.47000 149.005
61.48000 150.097
61.49000 151.385
61.50000 154.108
61.51000 161.595
61.52000 169.460
61.53000 174.964
61.54000 185.143
61.55000 192.972
61.56000 202.373
61.57000 214.156
61.58000 225.964
61.59000 237.467
61.60000 248.671
61.61000 259.797
61.62000 263.195
61.63000 261.631
61.64000 260.368
61.65000 266.717
61.66000 276.382
61.67000 285.525
61.68000 288.330
61.69000 289.267
61.70000 290.106
61.71000 289.160
61.72000 288.032
61.73000 285.783
61.74000 278.470
61.75000 270.540
61.76000 260.525
61.77000 244.217
61.78000 227.480
61.79000 216.131
61.80000 211.869
61.81000 208.848
61.82000 201.407
61.83000 187.898
61.84000 174.355
61.85000 164.102
61.86000 156.765
61.87000 149.506
61.88000 144.559
61.89000 141.049
61.90000 137.893
61.91000 142.050
61.92000 149.109
61.93000 155.408
61.94000 153.688
61.95000 149.821
61.96000 146.413
61.97000 147.385
61.98000 148.885
61.99000 149.686
62.00000 147.631
62.01000 145.269
62.02000 143.589
62.03000 143.786
62.04000 144.090
62.05000 144.290
62.06000 148.305
62.07000 151.321
62.08000 151.137
62.09000 146.983
62.10000 142.825
62.11000 141.124
62.12000 141.387
62.13000 141.647
62.14000 140.517
62.15000 138.702
62.16000 136.923
62.17000 135.779
62.18000 134.863
62.19000 134.260
62.20000 136.531
62.21000 139.500
62.22000 142.076
62.23000 144.067
62.24000 145.685
62.25000 146.640
62.26000 145.136
62.27000 143.402
62.28000 141.766
62.29000 140.380
62.30000 139.006
62.31000 138.136
62.32000 139.330
62.33000 140.219
62.34000 142.305
62.35000 145.730
62.36000 149.135
62.37000 149.310
62.38000 147.150
62.39000 145.032
62.40000 142.982
62.41000 141.041
62.42000 139.095
62.43000 137.074
62.44000 135.028
62.45000 133.665
62.46000 137.854
62.47000 143.262
62.48000 147.875
62.49000 144.842
62.50000 141.387
62.51000 138.215
62.52000 136.000
62.53000 133.862
62.54000 133.135
62.55000 135.626
62.56000 138.242
62.57000 139.835
62.58000 142.212
62.59000 143.915
62.60000 144.979
62.61000 145.400
62.62000 145.809
62.63000 145.123
62.64000 143.718
62.65000 142.350
62.66000 143.870
62.67000 146.538
62.68000 148.896
62.69000 147.394
62.70000 144.736
62.71000 142.475
62.72000 143.078
62.73000 144.249
62.74000 145.230
62.75000 142.274
62.76000 139.408
62.77000 138.382
62.78000 142.995
62.79000 148.000
62.80000 150.696
62.81000 148.593
62.82000 146.341
62.83000 145.026
62.84000 146.642
62.85000 147.791
62.86000 147.679
62.87000 146.429
62.88000 145.186
62.89000 144.454
62.90000 144.026
62.91000 143.611
62.92000 143.019
62.93000 142.392
62.94000 141.778
62.95000 141.307
62.96000 140.874
62.97000 140.744
62.98000 142.560
62.99000 144.724
63.00000 146.502
63.01000 138.834
63.02000 131.684
63.03000 127.893
63.04000 133.474
63.05000 139.609
63.06000 143.713
63.07000 143.975
63.08000 144.146
63.09000 144.242
63.10000 150.534
63.11000 154.896
63.12000 155.739
63.13000 153.722
63.14000 151.689
63.15000 148.931
63.16000 145.782
63.17000 142.757
63.18000 145.379
63.19000 149.770
63.20000 153.631
63.21000 152.491
63.22000 150.117
63.23000 148.006
63.24000 147.410
63.25000 147.056
63.26000 146.771
63.27000 145.682
63.28000 144.735
63.29000 143.604
63.30000 142.005
63.31000 140.384
63.32000 139.384
63.33000 139.452
63.34000 139.539
63.35000 139.585
63.36000 141.901
63.37000 143.486
63.38000 146.095
63.39000 149.457
63.40000 152.687
63.41000 151.378
63.42000 147.832
63.43000 144.455
63.44000 147.759
63.45000 152.885
63.46000 157.353
63.47000 156.361
63.48000 154.149
63.49000 152.711
63.50000 155.276
63.51000 158.413
63.52000 160.884
63.53000 155.256
63.54000 150.205
63.55000 145.804
63.56000 142.907
63.57000 140.070
63.58000 140.132
63.59000 144.724
63.60000 149.370
63.61000 151.719
63.62000 155.432
63.63000 157.902
63.64000 158.975
63.65000 159.118
63.66000 159.221
63.67000 158.254
63.68000 156.807
63.69000 155.441
63.70000 150.515
63.71000 145.008
63.72000 140.525
63.73000 143.572
63.74000 148.137
63.75000 152.093
63.76000 153.209
63.77000 153.965
63.78000 154.546
63.79000 155.094
63.80000 155.526
63.81000 154.703
63.82000 151.233
63.83000 147.678
63.84000 148.454
63.85000 155.369
63.86000 162.327
63.87000 165.733
63.88000 165.879
63.89000 165.950
63.90000 161.059
63.91000 153.167
63.92000 145.509
63.93000 143.002
63.94000 142.602
63.95000 142.228
63.96000 142.450
63.97000 142.800
63.98000 143.581
63.99000 147.179
64.00000 151.289
64.01000 153.937
64.02000 150.411
64.03000 146.194
64.04000 143.030
64.05000 144.283
64.06000 145.471
64.07000 146.808
64.08000 148.432
64.09000 150.062
64.10000 152.605
64.11000 156.317
64.12000 160.030
64.13000 160.048
64.14000 157.023
64.15000 154.070
64.16000 154.594
64.17000 157.028
64.18000 159.368
64.19000 159.990
64.20000 159.971
64.21000 159.954
64.22000 162.081
64.23000 164.469
64.24000 166.825
64.25000 168.988
64.26000 171.119
64.27000 172.521
64.28000 171.130
64.29000 169.466
64.30000 168.249
64.31000 170.193
64.32000 171.815
64.33000 172.600
64.34000 171.924
64.35000 171.222
64.36000 169.556
64.37000 166.776
64.38000 164.003
64.39000 165.926
64.40000 171.319
64.41000 176.541
64.42000 175.648
64.43000 171.696
64.44000 167.852
64.45000 165.662
64.46000 164.033
64.47000 162.548
64.48000 161.097
64.49000 159.818
64.50000 158.938
64.51000 160.165
64.52000 161.698
64.53000 162.703
64.54000 161.871
64.55000 160.883
64.56000 160.181
64.57000 169.874
64.58000 177.579
64.59000 180.601
64.60000 176.189
64.61000 171.682
64.62000 169.298
64.63000 169.124
64.64000 168.951
64.65000 171.659
64.66000 176.258
64.67000 180.675
64.68000 179.926
64.69000 176.824
64.70000 173.864
64.71000 172.761
64.72000 172.233
64.73000 171.756
64.74000 178.485
64.75000 185.678
64.76000 190.757
64.77000 185.797
64.78000 179.539
64.79000 175.106
64.80000 176.437
64.81000 178.192
64.82000 179.401
64.83000 181.747
64.84000 183.536
64.85000 187.649
64.86000 195.109
64.87000 202.593
64.88000 202.156
64.89000 194.323
64.90000 186.557
64.91000 185.956
64.92000 189.683
64.93000 193.295
64.94000 194.278
64.95000 194.171
64.96000 193.949
64.97000 192.434
64.98000 190.556
64.99000 188.888
65.00000 198.317
65.01000 208.265
65.02000 215.646
65.03000 212.015
65.04000 207.126
65.05000 203.687
65.06000 204.419
65.07000 205.412
65.08000 206.074
65.09000 214.099
65.10000 220.182
65.11000 222.736
65.12000 220.686
65.13000 218.621
65.14000 218.426
65.15000 219.803
65.16000 221.164
65.17000 219.299
65.18000 215.730
65.19000 212.471
65.20000 215.023
65.21000 219.773
65.22000 224.837
65.23000 232.990
65.24000 241.930
65.25000 249.746
65.26000 244.050
65.27000 237.251
65.28000 233.139
65.29000 239.474
65.30000 246.857
65.31000 252.211
65.32000 252.252
65.33000 252.014
65.34000 251.860
65.35000 261.989
65.36000 269.529
65.37000 274.589
65.38000 276.733
65.39000 278.857
65.40000 277.637
65.41000 273.879
65.42000 270.187
65.43000 274.249
65.44000 281.981
65.45000 289.337
65.46000 290.793
65.47000 290.216
65.48000 290.172
65.49000 294.724
65.50000 300.337
65.51000 305.165
65.52000 309.370
65.53000 312.852
65.54000 315.850
65.55000 317.144
65.56000 318.289
65.57000 320.470
65.58000 325.126
65.59000 329.888
65.60000 332.842
65.61000 354.140
65.62000 369.643
65.63000 378.198
65.64000 379.396
65.65000 380.702
65.66000 395.116
65.67000 418.538
65.68000 441.426
65.69000 475.731
65.70000 513.651
65.71000 553.256
65.72000 615.449
65.73000 684.722
65.74000 752.606
65.75000 809.875
65.76000 864.931
65.77000 911.470
65.78000 971.664
65.79000 1023.521
65.80000 1068.231
65.81000 1090.014
65.82000 1110.070
65.83000 1128.441
65.84000 1143.149
65.85000 1157.730
65.86000 1166.423
65.87000 1170.038
65.88000 1172.569
65.89000 1175.677
65.90000 1179.332
65.91000 1182.741
65.92000 1167.518
65.93000 1140.676
65.94000 1114.614
65.95000 1053.460
65.96000 981.381
65.97000 909.152
65.98000 835.196
65.99000 760.747
66.00000 688.164
66.01000 628.262
66.02000 570.743
66.03000 523.022
66.04000 485.002
66.05000 454.518
66.06000 426.513
66.07000 405.745
66.08000 385.442
66.09000 368.589
66.10000 358.567
66.11000 348.729
66.12000 343.111
66.13000 331.198
66.14000 322.871
66.15000 319.187
66.16000 319.471
66.17000 319.766
66.18000 320.658
66.19000 321.887
66.20000 323.073
66.21000 319.012
66.22000 313.301
66.23000 308.945
66.24000 318.202
66.25000 330.979
66.26000 344.517
66.27000 362.673
66.28000 381.609
66.29000 397.009
66.30000 396.713
66.31000 395.158
66.32000 396.999
66.33000 407.870
66.34000 419.228
66.35000 430.514
66.36000 441.669
66.37000 452.821
66.38000 458.902
66.39000 472.502
66.40000 481.827
66.41000 485.694
66.42000 485.350
66.43000 485.021
66.44000 485.297
66.45000 485.883
66.46000 486.444
66.47000 482.563
66.48000 477.505
66.49000 471.554
66.50000 457.731
66.51000 442.063
66.52000 426.241
66.53000 409.576
66.54000 392.784
66.55000 379.415
66.56000 364.002
66.57000 351.429
66.58000 342.773
66.59000 343.607
66.60000 344.864
66.61000 342.591
66.62000 334.539
66.63000 326.404
66.64000 322.184
66.65000 316.314
66.66000 312.390
66.67000 313.341
66.68000 317.697
66.69000 322.039
66.70000 325.970
66.71000 329.707
66.72000 333.249
66.73000 334.957
66.74000 335.992
66.75000 336.799
66.76000 335.819
66.77000 334.462
66.78000 333.043
66.79000 331.326
66.80000 329.568
66.81000 328.200
66.82000 335.099
66.83000 341.100
66.84000 344.067
66.85000 340.342
66.86000 336.375
66.87000 334.784
66.88000 336.724
66.89000 338.698
66.90000 343.390
66.91000 350.710
66.92000 357.942
66.93000 357.992
66.94000 353.494
66.95000 349.107
66.96000 347.417
66.97000 346.880
66.98000 346.377
66.99000 349.752
67.00000 353.850
67.01000 357.808
67.02000 360.795
67.03000 363.597
67.04000 366.146
67.05000 367.578
67.06000 368.877
67.07000 369.864
67.08000 362.455
67.09000 356.197
67.10000 354.673
67.11000 362.666
67.12000 370.928
67.13000 377.570
67.14000 382.030
67.15000 386.475
67.16000 385.002
67.17000 378.397
67.18000 371.887
67.19000 370.750
67.20000 372.705
67.21000 374.726
67.22000 378.067
67.23000 381.924
67.24000 385.504
67.25000 391.695
67.26000 397.895
67.27000 403.068
67.28000 401.885
67.29000 399.610
67.30000 398.704
67.31000 403.289
67.32000 408.449
67.33000 412.268
67.34000 415.096
67.35000 417.248
67.36000 418.535
67.37000 418.242
67.38000 417.916
67.39000 419.225
67.40000 422.526
67.41000 425.825
67.42000 426.567
67.43000 425.309
67.44000 424.050
67.45000 422.752
67.46000 421.435
67.47000 420.461
67.48000 425.195
67.49000 431.956
67.50000 438.160
67.51000 432.876
67.52000 425.724
67.53000 419.718
67.54000 420.060
67.55000 421.378
67.56000 426.290
67.57000 444.286
67.58000 463.477
67.59000 477.296
67.60000 476.335
67.61000 475.078
67.62000 473.699
67.63000 472.118
67.64000 470.534
67.65000 466.826
67.66000 460.791
67.67000 454.780
67.68000 455.508
67.69000 460.965
67.70000 466.533
67.71000 475.579
67.72000 486.285
67.73000 496.377
67.74000 497.823
67.75000 496.474
67.76000 495.252
67.77000 496.145
67.78000 497.334
67.79000 498.073
67.80000 496.571
67.81000 494.761
67.82000 495.304
67.83000 503.628
67.84000 512.568
67.85000 518.818
67.86000 505.362
67.87000 494.637
67.88000 493.143
67.89000 505.590
67.90000 518.178
67.91000 526.222
67.92000 529.794
67.93000 533.342
67.94000 535.533
67.95000 536.830
67.96000 538.103
67.97000 538.760
67.98000 539.150
67.99000 539.847
68.00000 544.264
68.01000 549.773
68.02000 554.698
68.03000 557.163
68.04000 558.895
68.05000 561.686
68.06000 569.252
68.07000 577.398
68.08000 583.541
68.09000 583.658
68.10000 583.367
68.11000 583.170
68.12000 577.852
68.13000 573.775
68.14000 575.988
68.15000 586.809
68.16000 597.679
68.17000 605.264
68.18000 609.944
68.19000 614.575
68.20000 616.847
68.21000 617.719
68.22000 618.638
68.23000 620.508
68.24000 622.754
68.25000 626.014
68.26000 639.926
68.27000 656.682
68.28000 671.442
68.29000 661.264
68.30000 648.742
68.31000 641.865
68.32000 658.006
68.33000 676.610
68.34000 691.973
68.35000 698.456
68.36000 704.432
68.37000 708.346
68.38000 720.668
68.39000 729.864
68.40000 731.520
68.41000 723.845
68.42000 716.188
68.43000 722.488
68.44000 739.916
68.45000 757.082
68.46000 767.386
68.47000 773.841
68.48000 780.725
68.49000 794.926
68.50000 811.764
68.51000 828.334
68.52000 842.430
68.53000 855.927
68.54000 867.631
68.55000 886.473
68.56000 903.466
68.57000 923.995
68.58000 957.599
68.59000 992.426
68.60000 1025.891
68.61000 1055.961
68.62000 1085.869
68.63000 1104.768
68.64000 1173.268
68.65000 1223.487
68.66000 1281.452
68.67000 1348.056
68.68000 1414.604
68.69000 1471.502
68.70000 1521.443
68.71000 1570.380
68.72000 1623.263
68.73000 1675.972
68.74000 1729.556
68.75000 1795.795
68.76000 1866.188
68.77000 1934.616
68.78000 1987.131
68.79000 2036.162
68.80000 2077.965
68.81000 2184.241
68.82000 2281.229
68.83000 2381.123
68.84000 2490.777
68.85000 2601.222
68.86000 2739.930
68.87000 2942.908
68.88000 3148.372
68.89000 3273.294
68.90000 3959.378
68.91000 4453.615
68.92000 5398.819
68.93000 6795.713
68.94000 8203.485
68.95000 10621.400
68.96000 13699.573
68.97000 16697.795
68.98000 21104.125
68.99000 25897.059
69.00000 30692.660
69.01000 35521.313
69.02000 40359.828
69.03000 45039.359
69.04000 48576.117
69.05000 51887.035
69.06000 54659.348
69.07000 56350.992
69.08000 57645.949
69.09000 58694.555
69.10000 58990.434
69.11000 59234.000
69.12000 59552.785
69.13000 60027.387
69.14000 60506.766
69.15000 60786.402
69.16000 62053.230
69.17000 62948.059
69.18000 63100.723
69.19000 62585.914
69.20000 62047.914
69.21000 60064.391
69.22000 57222.801
69.23000 54473.855
69.24000 51144.156
69.25000 47779.008
69.26000 44470.902
69.27000 41775.242
69.28000 39245.656
69.29000 36815.109
69.30000 35019.379
69.31000 33336.520
69.32000 31954.383
69.33000 31079.754
69.34000 30407.029
69.35000 29710.348
69.36000 28947.018
69.37000 28179.766
69.38000 27096.527
69.39000 25417.326
69.40000 23724.129
69.41000 22779.471
69.42000 19127.053
69.43000 16593.770
69.44000 14241.895
69.45000 12037.059
69.46000 9843.544
69.47000 8159.838
69.48000 6751.342
69.49000 5399.162
69.50000 4469.906
69.51000 3745.579
69.52000 3054.032
69.53000 2670.125
69.54000 2361.879
69.55000 2077.226
69.56000 1928.030
69.57000 1800.422
69.58000 1697.758
69.59000 1608.210
69.60000 1536.593
69.61000 1469.749
69.62000 1414.998
69.63000 1360.841
69.64000 1313.986
69.65000 1279.658
69.66000 1245.546
69.67000 1227.407
69.68000 1150.111
69.69000 1097.555
69.70000 1061.434
69.71000 1037.355
69.72000 1013.349
69.73000 991.862
69.74000 971.614
69.75000 952.339
69.76000 932.870
69.77000 914.787
69.78000 897.116
69.79000 882.853
69.80000 869.350
69.81000 855.806
69.82000 842.060
69.83000 828.284
69.84000 817.443
69.85000 791.770
69.86000 770.219
69.87000 754.776
69.88000 753.434
69.89000 752.656
69.90000 747.187
69.91000 734.405
69.92000 721.538
69.93000 715.042
69.94000 708.425
69.95000 703.977
69.96000 697.215
69.97000 688.918
69.98000 680.880
69.99000 679.825
70.00000 681.896
