20.00000 563.651
20.01000 562.081
20.02000 560.285
20.03000 557.792
20.04000 552.568
20.05000 547.070
20.06000 543.029
20.07000 544.939
20.08000 546.659
20.09000 548.953
20.10000 552.268
20.11000 555.603
20.12000 557.216
20.13000 556.792
20.14000 556.366
20.15000 556.791
20.16000 557.860
20.17000 558.916
20.18000 559.512
20.19000 559.873
20.20000 559.977
20.21000 556.006
20.22000 550.625
20.23000 545.704
20.24000 552.785
20.25000 561.554
20.26000 569.451
20.27000 572.654
20.28000 575.157
20.29000 573.232
20.30000 555.602
20.31000 536.590
20.32000 523.007
20.33000 529.318
20.34000 534.796
20.35000 539.630
20.36000 543.422
20.37000 547.200
20.38000 547.387
20.39000 543.748
20.40000 540.127
20.41000 545.745
20.42000 557.610
20.43000 568.943
20.44000 564.514
20.45000 552.760
20.46000 541.889
20.47000 542.936
20.48000 547.737
20.49000 552.071
20.50000 546.769
20.51000 540.334
20.52000 537.130
20.53000 549.606
20.54000 564.161
20.55000 572.831
20.56000 562.531
20.57000 550.790
20.58000 542.650
20.59000 543.107
20.60000 543.678
20.61000 543.749
20.62000 543.082
20.63000 542.410
20.64000 545.151
20.65000 551.155
20.66000 557.111
20.67000 555.464
20.68000 549.162
20.69000 543.041
20.70000 541.195
20.71000 541.159
20.72000 541.597
20.73000 547.543
20.74000 555.067
20.75000 561.766
20.76000 564.223
20.77000 565.662
20.78000 565.565
20.79000 558.735
20.80000 551.115
20.81000 542.801
20.82000 532.451
20.83000 521.970
20.84000 514.932
20.85000 526.915
20.86000 536.202
20.87000 543.993
20.88000 549.789
20.89000 555.567
20.90000 554.992
20.91000 548.956
20.92000 542.991
20.93000 541.827
20.94000 543.357
20.95000 544.887
20.96000 546.386
20.97000 547.873
20.98000 549.180
20.99000 548.657
21.00000 547.658
21.01000 546.782
21.02000 551.129
21.03000 555.623
21.04000 559.712
21.05000 562.196
21.06000 564.514
21.07000 563.911
21.08000 555.507
21.09000 546.678
21.10000 540.949
21.11000 522.097
21.12000 508.094
21.13000 509.150
21.14000 528.325
21.15000 547.507
21.16000 558.583
21.17000 563.372
21.18000 568.083
21.19000 562.200
21.20000 551.191
21.21000 540.396
21.22000 533.092
21.23000 527.015
21.24000 521.947
21.25000 525.840
21.26000 531.844
21.27000 537.028
21.28000 541.671
21.29000 545.542
21.30000 546.946
21.31000 539.466
21.32000 531.185
21.33000 527.278
21.34000 534.018
21.35000 541.236
21.36000 545.751
21.37000 547.801
21.38000 549.254
21.39000 545.210
21.40000 535.210
21.41000 525.275
21.42000 524.362
21.43000 529.781
21.44000 535.083
21.45000 536.011
21.46000 534.921
21.47000 534.369
21.48000 541.269
21.49000 550.552
21.50000 558.590
21.51000 556.865
21.52000 553.061
21.53000 549.833
21.54000 547.951
21.55000 546.525
21.56000 545.729
21.57000 546.994
21.58000 548.419
21.59000 549.849
21.60000 551.288
21.61000 552.728
21.62000 553.594
21.63000 555.602
21.64000 557.038
21.65000 558.577
21.66000 560.217
21.67000 561.831
21.68000 561.267
21.69000 559.319
21.70000 557.424
21.71000 559.445
21.72000 562.968
21.73000 567.105
21.74000 578.560
21.75000 592.142
21.76000 603.238
21.77000 597.018
21.78000 587.473
21.79000 579.521
21.80000 580.602
21.81000 582.395
21.82000 587.184
21.83000 600.900
21.84000 615.210
21.85000 624.799
21.86000 624.854
21.87000 624.636
21.88000 624.510
21.89000 623.981
21.90000 623.613
21.91000 627.331
21.92000 634.621
21.93000 641.962
21.94000 652.235
21.95000 664.203
21.96000 675.758
21.97000 686.498
21.98000 696.314
21.99000 705.451
22.00000 707.569
22.01000 707.833
22.02000 708.428
22.03000 711.088
22.04000 714.103
22.05000 716.566
22.06000 716.330
22.07000 715.904
22.08000 714.287
22.09000 709.443
22.10000 704.417
22.11000 700.746
22.12000 699.566
22.13000 698.440
22.14000 697.820
22.15000 686.281
22.16000 678.332
22.17000 675.880
22.18000 677.763
22.19000 679.491
22.20000 674.798
22.21000 666.725
22.22000 658.993
22.23000 657.217
22.24000 657.544
22.25000 657.249
22.26000 651.323
22.27000 644.050
22.28000 637.013
22.29000 631.294
22.30000 625.780
22.31000 621.369
22.32000 623.769
22.33000 626.215
22.34000 624.204
22.35000 611.184
22.36000 597.651
22.37000 589.006
22.38000 588.530
22.39000 588.182
22.40000 588.000
22.41000 586.058
22.42000 584.713
22.43000 579.302
22.44000 570.991
22.45000 562.949
22.46000 563.525
22.47000 568.231
22.48000 572.699
22.49000 566.179
22.50000 556.866
22.51000 548.109
22.52000 543.796
22.53000 540.445
22.54000 537.304
22.55000 535.214
22.56000 533.269
22.57000 531.747
22.58000 536.661
22.59000 540.993
22.60000 538.932
22.61000 522.479
22.62000 505.484
22.63000 497.343
22.64000 502.643
22.65000 508.082
22.66000 513.009
22.67000 517.430
22.68000 521.775
22.69000 519.357
22.70000 512.566
22.71000 506.127
22.72000 508.632
22.73000 515.040
22.74000 521.066
22.75000 512.619
22.76000 500.998
22.77000 490.735
22.78000 490.115
22.79000 491.378
22.80000 492.935
22.81000 495.822
22.82000 498.870
22.83000 501.199
22.84000 504.581
22.85000 507.304
22.86000 508.848
22.87000 507.974
22.88000 507.029
22.89000 508.474
22.90000 513.210
22.91000 517.963
22.92000 518.618
22.93000 515.634
22.94000 512.714
22.95000 513.646
22.96000 516.840
22.97000 519.698
22.98000 515.578
22.99000 508.684
23.00000 502.269
23.01000 499.857
23.02000 498.648
23.03000 498.086
23.04000 501.613
23.05000 505.859
23.06000 508.133
23.07000 502.319
23.08000 495.636
23.09000 490.660
23.10000 499.372
23.11000 506.765
23.12000 509.276
23.13000 502.675
23.14000 495.867
23.15000 495.356
23.16000 502.677
23.17000 510.009
23.18000 508.500
23.19000 499.942
23.20000 491.602
23.21000 492.755
23.22000 498.981
23.23000 504.974
23.24000 506.953
23.25000 507.480
23.26000 507.964
23.27000 511.506
23.28000 515.336
23.29000 517.856
23.30000 512.941
23.31000 506.855
23.32000 502.157
23.33000 502.614
23.34000 503.556
23.35000 504.239
23.36000 499.905
23.37000 496.391
23.38000 495.626
23.39000 499.528
23.40000 503.507
23.41000 507.200
23.42000 510.572
23.43000 513.932
23.44000 514.718
23.45000 513.647
23.46000 512.555
23.47000 510.733
23.48000 508.557
23.49000 506.458
23.50000 505.475
23.51000 504.861
23.52000 504.303
23.53000 497.059
23.54000 489.357
23.55000 483.482
23.56000 486.932
23.57000 491.692
23.58000 494.868
23.59000 492.697
23.60000 490.089
23.61000 488.254
23.62000 487.044
23.63000 486.145
23.64000 487.143
23.65000 491.066
23.66000 495.022
23.67000 496.427
23.68000 495.264
23.69000 494.109
23.70000 494.312
23.71000 495.392
23.72000 496.454
23.73000 497.060
23.74000 497.463
23.75000 498.186
23.76000 502.904
23.77000 508.822
23.78000 514.127
23.79000 508.811
23.80000 502.323
23.81000 495.077
23.82000 484.343
23.83000 473.174
23.84000 468.048
23.85000 481.477
23.86000 496.206
23.87000 506.254
23.88000 497.664
23.89000 490.810
23.90000 487.116
23.91000 487.840
23.92000 488.591
23.93000 486.082
23.94000 480.624
23.95000 475.219
23.96000 474.326
23.97000 476.087
23.98000 477.956
23.99000 482.138
24.00000 487.254
24.01000 492.332
24.02000 497.009
24.03000 501.576
24.04000 505.612
24.05000 499.498
24.06000 492.649
24.07000 487.102
24.08000 486.974
24.09000 487.442
24.10000 485.884
24.11000 478.666
24.12000 471.111
24.13000 466.126
24.14000 474.761
24.15000 481.366
24.16000 481.654
24.17000 473.953
24.18000 466.245
24.19000 466.287
24.20000 472.645
24.21000 478.914
24.22000 482.801
24.23000 485.323
24.24000 487.724
24.25000 487.980
24.26000 487.448
24.27000 487.542
24.28000 493.557
24.29000 501.036
24.30000 507.544
24.31000 496.149
24.32000 483.974
24.33000 474.406
24.34000 474.684
24.35000 475.910
24.36000 478.057
24.37000 482.551
24.38000 487.160
24.39000 490.096
24.40000 474.196
24.41000 462.400
24.42000 453.796
24.43000 448.832
24.44000 443.936
24.45000 450.462
24.46000 465.400
24.47000 480.055
24.48000 477.865
24.49000 467.739
24.50000 458.380
24.51000 460.487
24.52000 466.433
24.53000 472.441
24.54000 478.955
24.55000 485.583
24.56000 491.255
24.57000 488.119
24.58000 484.411
24.59000 481.270
24.60000 480.071
24.61000 479.035
24.62000 477.316
24.63000 474.013
24.64000 470.645
24.65000 468.581
24.66000 470.542
24.67000 471.982
24.68000 476.468
24.69000 484.078
24.70000 491.593
24.71000 489.454
24.72000 480.873
24.73000 472.504
24.74000 469.094
24.75000 467.969
24.76000 467.149
24.77000 470.239
24.78000 474.521
24.79000 478.634
24.80000 481.505
24.81000 484.126
24.82000 486.329
24.83000 485.084
24.84000 483.682
24.85000 482.793
24.86000 483.506
24.87000 484.333
24.88000 484.564
24.89000 483.536
24.90000 482.467
24.91000 481.837
24.92000 474.866
24.93000 469.915
24.94000 465.495
24.95000 461.564
24.96000 457.815
24.97000 466.327
24.98000 482.267
24.99000 497.711
25.00000 498.995
25.01000 494.719
25.02000 490.238
25.03000 483.496
25.04000 476.129
25.05000 470.535
25.06000 476.580
25.07000 484.742
25.08000 491.474
25.09000 476.876
25.10000 462.885
25.11000 453.605
25.12000 457.691
25.13000 462.592
25.14000 465.826
25.15000 465.852
25.16000 465.799
25.17000 465.768
25.18000 470.156
25.19000 473.207
25.20000 472.661
25.21000 469.136
25.22000 465.633
25.23000 463.248
25.24000 461.477
25.25000 459.775
25.26000 460.226
25.27000 461.401
25.28000 462.304
25.29000 460.567
25.30000 458.167
25.31000 457.345
25.32000 465.788
25.33000 475.744
25.34000 483.789
25.35000 481.239
25.36000 478.317
25.37000 474.470
25.38000 468.233
25.39000 461.874
25.40000 458.241
25.41000 459.381
25.42000 460.609
25.43000 461.269
25.44000 458.656
25.45000 456.883
25.46000 458.134
25.47000 461.648
25.48000 465.099
25.49000 466.304
25.50000 466.384
25.51000 466.459
25.52000 467.093
25.53000 467.856
25.54000 468.184
25.55000 464.817
25.56000 460.610
25.57000 457.498
25.58000 460.171
25.59000 463.687
25.60000 466.468
25.61000 453.943
25.62000 442.831
25.63000 435.529
25.64000 437.197
25.65000 439.240
25.66000 443.712
25.67000 452.047
25.68000 460.431
25.69000 464.711
25.70000 459.129
25.71000 455.423
25.72000 456.465
25.73000 460.725
25.74000 464.806
25.75000 463.815
25.76000 460.507
25.77000 457.382
25.78000 455.611
25.79000 454.370
25.80000 452.636
25.81000 447.191
25.82000 440.983
25.83000 438.076
25.84000 450.869
25.85000 465.696
25.86000 477.153
25.87000 478.525
25.88000 479.024
25.89000 476.804
25.90000 468.753
25.91000 460.505
25.92000 453.830
25.93000 449.422
25.94000 445.034
25.95000 446.200
25.96000 452.562
25.97000 458.826
25.98000 458.002
25.99000 452.817
26.00000 447.853
26.01000 447.904
26.02000 450.041
26.03000 452.041
26.04000 452.423
26.05000 452.357
26.06000 452.082
26.07000 450.414
26.08000 448.488
26.09000 447.434
26.10000 450.126
26.11000 453.247
26.12000 455.600
26.13000 459.249
26.14000 462.170
26.15000 460.551
26.16000 450.060
26.17000 439.338
26.18000 436.168
26.19000 442.864
26.20000 449.596
26.21000 453.426
26.22000 454.810
26.23000 456.119
26.24000 453.670
26.25000 449.119
26.26000 444.642
26.27000 441.576
26.28000 439.045
26.29000 436.703
26.30000 436.635
26.31000 437.096
26.32000 437.420
26.33000 436.927
26.34000 436.298
26.35000 436.806
26.36000 441.745
26.37000 447.130
26.38000 451.083
26.39000 440.988
26.40000 432.615
26.41000 430.201
26.42000 438.382
26.43000 446.768
26.44000 452.273
26.45000 454.380
26.46000 456.475
26.47000 456.986
26.48000 456.297
26.49000 455.655
26.50000 456.802
26.51000 458.859
26.52000 460.810
26.53000 461.099
26.54000 460.813
26.55000 460.552
26.56000 459.044
26.57000 457.447
26.58000 454.967
26.59000 447.739
26.60000 439.807
26.61000 434.045
26.62000 435.958
26.63000 438.543
26.64000 440.388
26.65000 449.680
26.66000 457.014
26.67000 459.845
26.68000 455.399
26.69000 450.853
26.70000 446.919
26.71000 443.634
26.72000 440.366
26.73000 439.652
26.74000 440.687
26.75000 441.708
26.76000 442.324
26.77000 442.753
26.78000 442.923
26.79000 439.615
26.80000 435.213
26.81000 431.241
26.82000 435.587
26.83000 440.932
26.84000 445.305
26.85000 444.976
26.86000 444.025
26.87000 442.029
26.88000 436.669
26.89000 431.055
26.90000 427.167
26.91000 417.170
26.92000 409.486
26.93000 406.847
26.94000 411.608
26.95000 416.434
26.96000 423.433
26.97000 432.503
26.98000 441.500
26.99000 440.495
27.00000 433.368
27.01000 426.684
27.02000 430.438
27.03000 438.600
27.04000 446.279
27.05000 448.360
27.06000 448.842
27.07000 449.271
27.08000 445.043
27.09000 440.610
27.10000 438.654
27.11000 447.523
27.12000 457.658
27.13000 463.333
27.14000 455.963
27.15000 447.751
27.16000 442.244
27.17000 431.093
27.18000 422.702
27.19000 421.298
27.20000 429.173
27.21000 437.080
27.22000 436.451
27.23000 428.509
27.24000 420.661
27.25000 424.944
27.26000 435.841
27.27000 446.090
27.28000 443.762
27.29000 436.596
27.30000 430.038
27.31000 429.600
27.32000 430.748
27.33000 431.754
27.34000 428.177
27.35000 424.441
27.36000 421.761
27.37000 423.261
27.38000 425.190
27.39000 425.923
27.40000 423.470
27.41000 420.844
27.42000 419.142
27.43000 416.551
27.44000 414.641
27.45000 417.635
27.46000 426.511
27.47000 435.370
27.48000 437.074
27.49000 433.245
27.50000 429.480
27.51000 426.647
27.52000 424.373
27.53000 422.455
27.54000 426.323
27.55000 432.218
27.56000 437.405
27.57000 436.329
27.58000 433.782
27.59000 431.584
27.60000 435.849
27.61000 440.297
27.62000 442.975
27.63000 439.296
27.64000 435.046
27.65000 431.619
27.66000 430.189
27.67000 428.848
27.68000 428.010
27.69000 423.423
27.70000 420.074
27.71000 421.583
27.72000 428.339
27.73000 435.056
27.74000 436.442
27.75000 434.099
27.76000 431.806
27.77000 426.903
27.78000 421.021
27.79000 415.760
27.80000 419.069
27.81000 425.111
27.82000 429.774
27.83000 423.667
27.84000 415.273
27.85000 408.154
27.86000 418.420
27.87000 428.989
27.88000 435.151
27.89000 426.926
27.90000 417.587
27.91000 411.593
27.92000 412.993
27.93000 414.662
27.94000 415.664
27.95000 423.984
27.96000 429.946
27.97000 428.449
27.98000 419.724
27.99000 411.131
28.00000 413.350
28.01000 422.433
28.02000 431.262
28.03000 433.912
28.04000 433.914
28.05000 433.979
28.06000 434.808
28.07000 435.857
28.08000 436.851
28.09000 437.459
28.10000 437.994
28.11000 438.439
28.12000 435.705
28.13000 433.127
28.14000 430.903
28.15000 429.728
28.16000 428.623
28.17000 427.025
28.18000 424.433
28.19000 421.813
28.20000 420.305
28.21000 417.527
28.22000 415.585
28.23000 418.833
28.24000 426.602
28.25000 434.158
28.26000 429.728
28.27000 418.385
28.28000 407.436
28.29000 411.422
28.30000 420.668
28.31000 429.584
28.32000 435.096
28.33000 439.711
28.34000 442.715
28.35000 435.733
28.36000 427.032
28.37000 419.930
28.38000 413.564
28.39000 408.419
28.40000 406.465
28.41000 413.140
28.42000 420.296
28.43000 425.393
28.44000 426.714
28.45000 427.954
28.46000 428.636
28.47000 415.573
28.48000 406.582
28.49000 405.554
28.50000 410.786
28.51000 415.934
28.52000 417.651
28.53000 417.568
28.54000 417.488
28.55000 415.320
28.56000 412.607
28.57000 410.484
28.58000 413.685
28.59000 418.156
28.60000 422.513
28.61000 426.233
28.62000 429.855
28.63000 432.751
28.64000 430.581
28.65000 428.452
28.66000 426.127
28.67000 423.320
28.68000 420.491
28.69000 417.948
28.70000 415.879
28.71000 413.819
28.72000 412.740
28.73000 413.589
28.74000 414.156
28.75000 413.493
28.76000 411.956
28.77000 410.464
28.78000 410.423
28.79000 411.074
28.80000 411.692
28.81000 418.980
28.82000 427.699
28.83000 434.746
28.84000 428.469
28.85000 419.316
28.86000 411.442
28.87000 409.966
28.88000 409.368
28.89000 408.901
28.90000 417.592
28.91000 425.107
28.92000 427.850
28.93000 419.882
28.94000 411.511
28.95000 407.663
28.96000 410.658
28.97000 413.723
28.98000 412.802
28.99000 407.950
29.00000 403.168
29.01000 404.491
29.02000 409.751
29.03000 414.633
29.04000 409.983
29.05000 401.186
29.06000 392.915
29.07000 398.685
29.08000 407.730
29.09000 416.066
29.10000 419.385
29.11000 421.726
29.12000 422.479
29.13000 416.063
29.14000 408.773
29.15000 403.211
29.16000 402.187
29.17000 401.623
29.18000 399.684
29.19000 394.934
29.20000 390.101
29.21000 389.603
29.22000 395.049
29.23000 400.528
29.24000 401.054
29.25000 397.194
29.26000 393.430
29.27000 395.285
29.28000 400.432
29.29000 405.637
29.30000 412.045
29.31000 418.929
29.32000 425.333
29.33000 419.531
29.34000 411.339
29.35000 403.958
29.36000 401.687
29.37000 400.311
29.38000 400.181
29.39000 405.148
29.40000 410.661
29.41000 414.761
29.42000 408.321
29.43000 402.841
29.44000 402.499
29.45000 411.720
29.46000 421.156
29.47000 421.254
29.48000 409.772
29.49000 398.277
29.50000 393.860
29.51000 395.092
29.52000 396.446
29.53000 403.057
29.54000 412.469
29.55000 421.275
29.56000 419.692
29.57000 414.357
29.58000 409.450
29.59000 409.153
29.60000 409.888
29.61000 410.835
29.62000 412.990
29.63000 415.334
29.64000 417.305
29.65000 417.890
29.66000 418.345
29.67000 418.675
29.68000 405.695
29.69000 395.242
29.70000 392.865
29.71000 404.155
29.72000 415.669
29.73000 418.742
29.74000 412.379
29.75000 406.033
29.76000 398.632
29.77000 390.541
29.78000 382.851
29.79000 388.391
29.80000 400.348
29.81000 411.650
29.82000 413.437
29.83000 412.097
29.84000 410.879
29.85000 416.318
29.86000 422.412
29.87000 427.371
29.88000 426.551
29.89000 424.922
29.90000 423.368
29.91000 422.065
29.92000 420.783
29.93000 419.882
29.94000 417.021
29.95000 414.796
29.96000 415.226
29.97000 419.740
29.98000 424.299
29.99000 420.873
30.00000 409.432
30.01000 398.065
30.02000 402.051
30.03000 415.888
30.04000 429.378
30.05000 433.811
30.06000 434.242
30.07000 435.033
30.08000 440.297
30.09000 446.900
30.10000 452.817
30.11000 446.302
30.12000 438.460
30.13000 430.504
30.14000 422.021
30.15000 413.472
30.16000 407.599
30.17000 409.915
30.18000 412.803
30.19000 414.771
30.20000 418.536
30.21000 421.391
30.22000 420.793
30.23000 415.384
30.24000 409.946
30.25000 408.568
30.26000 410.852
30.27000 413.113
30.28000 410.945
30.29000 406.246
30.30000 401.761
30.31000 401.852
30.32000 403.785
30.33000 405.978
30.34000 410.975
30.35000 416.735
30.36000 421.822
30.37000 422.134
30.38000 421.668
30.39000 420.813
30.40000 418.335
30.41000 415.681
30.42000 412.471
30.43000 407.716
30.44000 402.870
30.45000 399.675
30.46000 405.514
30.47000 409.975
30.48000 410.859
30.49000 407.234
30.50000 403.603
30.51000 403.298
30.52000 405.694
30.53000 408.055
30.54000 404.813
30.55000 398.718
30.56000 393.466
30.57000 403.094
30.58000 418.177
30.59000 431.971
30.60000 433.622
30.61000 432.281
30.62000 431.114
30.63000 428.465
30.64000 426.002
30.65000 423.455
30.66000 420.592
30.67000 417.699
30.68000 416.658
30.69000 420.321
30.70000 424.214
30.71000 426.691
30.72000 423.066
30.73000 420.356
30.74000 419.276
30.75000 420.050
30.76000 420.824
30.77000 421.231
30.78000 421.370
30.79000 421.507
30.80000 428.466
30.81000 438.407
30.82000 447.484
30.83000 443.689
30.84000 435.597
30.85000 428.596
30.86000 430.634
30.87000 434.689
30.88000 438.156
30.89000 447.641
30.90000 456.361
30.91000 467.138
30.92000 484.943
30.93000 503.334
30.94000 514.662
30.95000 509.656
30.96000 503.993
30.97000 500.525
30.98000 516.425
30.99000 527.972
31.00000 541.236
31.01000 556.255
31.02000 571.275
31.03000 586.419
31.04000 601.646
31.05000 616.495
31.06000 649.962
31.07000 689.898
31.08000 728.674
31.09000 752.683
31.10000 772.208
31.11000 795.742
31.12000 848.728
31.13000 907.645
31.14000 957.146
31.15000 1001.413
31.16000 1037.741
31.17000 1079.818
31.18000 1139.763
31.19000 1200.987
31.20000 1262.893
31.21000 1326.237
31.22000 1389.626
31.23000 1426.892
31.24000 1472.173
31.25000 1504.160
31.26000 1569.346
31.27000 1664.972
31.28000 1760.111
31.29000 1822.809
31.30000 1865.912
31.31000 1907.664
31.32000 1946.792
31.33000 1982.797
31.34000 2017.303
31.35000 2035.291
31.36000 2048.719
31.37000 2061.243
31.38000 2067.850
31.39000 2073.385
31.40000 2077.947
31.41000 2063.998
31.42000 2050.815
31.43000 2031.863
31.44000 1996.588
31.45000 1960.323
31.46000 1918.748
31.47000 1866.986
31.48000 1814.972
31.49000 1785.709
31.50000 1722.181
31.51000 1677.999
31.52000 1635.000
31.53000 1592.978
31.54000 1550.383
31.55000 1480.561
31.56000 1395.785
31.57000 1314.279
31.58000 1262.382
31.59000 1224.083
31.60000 1183.755
31.61000 1123.905
31.62000 1059.167
31.63000 997.700
31.64000 955.384
31.65000 916.183
31.66000 884.522
31.67000 839.183
31.68000 801.234
31.69000 765.361
31.70000 734.837
31.71000 704.586
31.72000 678.219
31.73000 658.634
31.74000 639.173
31.75000 628.731
31.76000 607.317
31.77000 592.680
31.78000 576.902
31.79000 560.273
31.80000 543.813
31.81000 533.454
31.82000 526.145
31.83000 519.175
31.84000 510.146
31.85000 501.125
31.86000 491.476
31.87000 476.527
31.88000 460.377
31.89000 447.629
31.90000 452.785
31.91000 460.542
31.92000 466.672
31.93000 464.541
31.94000 462.265
31.95000 457.895
31.96000 448.609
31.97000 439.118
31.98000 430.422
31.99000 422.983
32.00000 415.561
32.01000 411.777
32.02000 418.422
32.03000 422.821
32.04000 420.703
32.05000 414.179
32.06000 407.798
32.07000 405.437
32.08000 404.907
32.09000 404.406
32.10000 397.776
32.11000 389.954
32.12000 382.515
32.13000 377.937
32.14000 373.946
32.15000 371.768
32.16000 378.191
32.17000 385.724
32.18000 391.541
32.19000 389.588
32.20000 387.588
32.21000 384.427
32.22000 378.783
32.23000 373.056
32.24000 368.335
32.25000 365.063
32.26000 361.802
32.27000 362.788
32.28000 367.732
32.29000 372.680
32.30000 377.890
32.31000 383.259
32.32000 388.516
32.33000 391.205
32.34000 392.830
32.35000 394.349
32.36000 395.144
32.37000 395.682
32.38000 395.052
32.39000 386.636
32.40000 376.784
32.41000 367.759
32.42000 362.279
32.43000 357.203
32.44000 353.380
32.45000 361.448
32.46000 368.343
32.47000 372.018
32.48000 369.423
32.49000 366.665
32.50000 366.237
32.51000 368.846
32.52000 371.464
32.53000 374.925
32.54000 379.081
32.55000 383.075
32.56000 378.943
32.57000 370.278
32.58000 362.027
32.59000 361.502
32.60000 363.897
32.61000 366.112
32.62000 359.581
32.63000 351.715
32.64000 345.735
32.65000 350.988
32.66000 358.101
32.67000 363.174
32.68000 360.325
32.69000 356.681
32.70000 354.008
32.71000 367.776
32.72000 379.077
32.73000 383.486
32.74000 375.678
32.75000 367.635
32.76000 364.701
32.77000 367.775
32.78000 370.849
32.79000 369.353
32.80000 364.421
32.81000 359.769
32.82000 365.582
32.83000 376.705
32.84000 386.954
32.85000 383.470
32.86000 375.258
32.87000 367.754
32.88000 369.149
32.89000 372.210
32.90000 375.245
32.91000 378.143
32.92000 381.020
32.93000 383.626
32.94000 385.276
32.95000 386.842
32.96000 387.960
32.97000 383.978
32.98000 380.774
32.99000 376.844
33.00000 371.741
33.01000 366.623
33.02000 366.118
33.03000 370.493
33.04000 374.848
33.05000 370.847
33.06000 361.223
33.07000 351.763
33.08000 347.104
33.09000 344.664
33.10000 342.133
33.11000 338.395
33.12000 334.278
33.13000 330.563
33.14000 334.223
33.15000 338.785
33.16000 342.728
33.17000 343.679
33.18000 344.237
33.19000 343.092
33.20000 336.489
33.21000 329.476
33.22000 324.622
33.23000 324.648
33.24000 324.794
33.25000 327.418
33.26000 333.664
33.27000 339.941
33.28000 342.403
33.29000 341.244
33.30000 340.094
33.31000 343.816
33.32000 350.452
33.33000 356.722
33.34000 354.417
33.35000 348.500
33.36000 342.793
33.37000 339.510
33.38000 336.917
33.39000 334.610
33.40000 340.564
33.41000 347.079
33.42000 351.381
33.43000 346.038
33.44000 339.572
33.45000 334.366
33.46000 332.840
33.47000 331.549
33.48000 330.684
33.49000 329.424
33.50000 328.482
33.51000 330.410
33.52000 336.135
33.53000 341.871
33.54000 341.977
33.55000 337.277
33.56000 332.633
33.57000 331.586
33.58000 332.551
33.59000 333.279
33.60000 329.447
33.61000 323.865
33.62000 318.652
33.63000 317.140
33.64000 316.584
33.65000 316.097
33.66000 320.551
33.67000 325.087
33.68000 329.833
33.69000 335.408
33.70000 341.067
33.71000 344.289
33.72000 341.033
33.73000 337.429
33.74000 335.095
33.75000 334.774
33.76000 334.569
33.77000 333.306
33.78000 330.779
33.79000 328.246
33.80000 325.107
33.81000 321.501
33.82000 317.955
33.83000 321.154
33.84000 327.610
33.85000 333.852
33.86000 336.647
33.87000 338.237
33.88000 339.629
33.89000 339.266
33.90000 338.492
33.91000 337.825
33.92000 338.583
33.93000 339.407
33.94000 339.758
33.95000 338.412
33.96000 336.915
33.97000 333.486
33.98000 325.385
33.99000 317.076
34.00000 311.891
34.01000 322.759
34.02000 330.763
34.03000 335.591
34.04000 337.000
34.05000 338.356
34.06000 332.998
34.07000 322.955
34.08000 313.133
34.09000 311.676
34.10000 314.043
34.11000 316.608
34.12000 321.888
34.13000 328.031
34.14000 332.899
34.15000 327.838
34.16000 320.675
34.17000 314.604
34.18000 323.407
34.19000 332.458
34.20000 337.324
34.21000 328.574
34.22000 318.774
34.23000 311.138
34.24000 308.271
34.25000 305.577
34.26000 303.960
34.27000 311.525
34.28000 316.960
34.29000 319.416
34.30000 318.995
34.31000 318.597
34.32000 320.142
34.33000 322.917
34.34000 325.613
34.35000 331.400
34.36000 338.155
34.37000 344.367
34.38000 344.176
34.39000 342.134
34.40000 339.907
34.41000 336.403
34.42000 332.654
34.43000 329.535
34.44000 325.793
34.45000 322.633
34.46000 321.255
34.47000 325.150
34.48000 329.392
34.49000 331.523
34.50000 329.412
34.51000 327.182
34.52000 325.900
34.53000 326.495
34.54000 326.917
34.55000 326.181
34.56000 324.440
34.57000 322.742
34.58000 323.447
34.59000 325.532
34.60000 327.545
34.61000 325.833
34.62000 322.856
34.63000 320.237
34.64000 321.288
34.65000 323.304
34.66000 325.154
34.67000 325.981
34.68000 326.632
34.69000 327.163
34.70000 334.114
34.71000 340.348
34.72000 342.214
34.73000 332.302
34.74000 321.737
34.75000 314.218
34.76000 312.268
34.77000 310.436
34.78000 309.429
34.79000 314.284
34.80000 317.626
34.81000 318.530
34.82000 317.522
34.83000 316.527
34.84000 316.055
34.85000 315.856
34.86000 315.666
34.87000 313.792
34.88000 311.489
34.89000 310.099
34.90000 316.918
34.91000 325.691
34.92000 332.390
34.93000 327.599
34.94000 321.044
34.95000 315.808
34.96000 315.918
34.97000 316.402
34.98000 316.334
34.99000 314.913
35.00000 313.430
35.01000 311.479
35.02000 308.753
35.03000 306.015
35.04000 304.583
35.05000 307.875
35.06000 310.087
35.07000 309.866
35.08000 307.919
35.09000 306.088
35.10000 307.925
35.11000 311.510
35.12000 314.912
35.13000 316.758
35.14000 317.996
35.15000 318.712
35.16000 315.279
35.17000 310.952
35.18000 308.937
35.19000 318.448
35.20000 329.535
35.21000 338.194
35.22000 335.595
35.23000 332.811
35.24000 328.345
35.25000 320.113
35.26000 311.740
35.27000 307.168
35.28000 308.332
35.29000 309.554
35.30000 310.505
35.31000 311.188
35.32000 311.900
35.33000 315.123
35.34000 319.959
35.35000 324.505
35.36000 321.777
35.37000 315.893
35.38000 310.362
35.39000 304.954
35.40000 300.050
35.41000 295.636
35.42000 294.668
35.43000 294.370
35.44000 295.015
35.45000 299.905
35.46000 305.310
35.47000 309.432
35.48000 307.323
35.49000 305.331
35.50000 304.871
35.51000 307.533
35.52000 310.288
35.53000 313.408
35.54000 317.030
35.55000 320.653
35.56000 315.027
35.57000 301.251
35.58000 287.708
35.59000 287.780
35.60000 295.804
35.61000 303.515
35.62000 304.834
35.63000 303.626
35.64000 302.503
35.65000 300.370
35.66000 298.201
35.67000 296.098
35.68000 294.412
35.69000 292.800
35.70000 292.588
35.71000 298.081
35.72000 304.183
35.73000 308.718
35.74000 311.776
35.75000 314.088
35.76000 313.746
35.77000 308.480
35.78000 303.103
35.79000 298.223
35.80000 293.956
35.81000 289.699
35.82000 292.235
35.83000 300.146
35.84000 307.898
35.85000 308.865
35.86000 306.228
35.87000 303.643
35.88000 301.948
35.89000 300.575
35.90000 299.312
35.91000 301.350
35.92000 303.883
35.93000 305.733
35.94000 303.735
35.95000 301.136
35.96000 299.817
35.97000 303.228
35.98000 307.080
35.99000 309.867
36.00000 308.726
36.01000 307.707
36.02000 305.571
36.03000 301.548
36.04000 297.496
36.05000 297.694
36.06000 302.631
36.07000 307.552
36.08000 305.951
36.09000 299.709
36.10000 293.693
36.11000 295.085
36.12000 300.058
36.13000 304.576
36.14000 302.516
36.15000 298.300
36.16000 294.471
36.17000 289.925
36.18000 285.771
36.19000 282.826
36.20000 286.008
36.21000 290.045
36.22000 293.081
36.23000 292.756
36.24000 292.158
36.25000 291.739
36.26000 292.292
36.27000 292.740
36.28000 292.756
36.29000 292.112
36.30000 291.461
36.31000 295.044
36.32000 302.864
36.33000 310.632
36.34000 310.137
36.35000 304.331
36.36000 298.503
36.37000 292.077
36.38000 285.388
36.39000 279.541
36.40000 284.118
36.41000 291.803
36.42000 298.687
36.43000 293.358
36.44000 286.601
36.45000 281.474
36.46000 283.811
36.47000 287.070
36.48000 290.276
36.49000 293.316
36.50000 296.346
36.51000 298.408
36.52000 295.462
36.53000 293.147
36.54000 294.151
36.55000 299.766
36.56000 305.409
36.57000 307.409
36.58000 306.135
36.59000 304.875
36.60000 304.093
36.61000 303.605
36.62000 303.270
36.63000 306.157
36.64000 310.336
36.65000 313.411
36.66000 304.639
36.67000 292.657
36.68000 282.078
36.69000 290.427
36.70000 300.535
36.71000 307.702
36.72000 302.701
36.73000 296.372
36.74000 293.309
36.75000 299.326
36.76000 305.876
36.77000 310.189
36.78000 306.744
36.79000 304.072
36.80000 298.796
36.81000 290.248
36.82000 281.710
36.83000 280.392
36.84000 284.920
36.85000 289.385
36.86000 293.497
36.87000 297.307
36.88000 300.463
36.89000 292.137
36.90000 279.612
36.91000 268.592
36.92000 271.677
36.93000 278.228
36.94000 283.922
36.95000 289.089
36.96000 293.425
36.97000 297.217
36.98000 298.968
36.99000 300.524
37.00000 301.478
37.01000 300.912
37.02000 300.270
37.03000 299.863
37.04000 297.548
37.05000 295.844
37.06000 294.816
37.07000 294.553
37.08000 294.299
37.09000 295.479
37.10000 297.708
37.11000 299.894
37.12000 298.983
37.13000 296.641
37.14000 294.575
37.15000 296.600
37.16000 299.986
37.17000 302.874
37.18000 301.641
37.19000 299.492
37.20000 297.656
37.21000 293.607
37.22000 289.929
37.23000 288.259
37.24000 293.435
37.25000 299.179
37.26000 303.128
37.27000 302.938
37.28000 302.583
37.29000 302.365
37.30000 290.548
37.31000 281.995
37.32000 279.547
37.33000 283.317
37.34000 287.060
37.35000 288.179
37.36000 287.559
37.37000 286.954
37.38000 289.556
37.39000 293.410
37.40000 296.427
37.41000 288.834
37.42000 278.026
37.43000 269.503
37.44000 277.695
37.45000 289.243
37.46000 298.939
37.47000 291.427
37.48000 283.363
37.49000 277.117
37.50000 276.506
37.51000 276.296
37.52000 276.913
37.53000 279.267
37.54000 281.676
37.55000 283.090
37.56000 283.141
37.57000 283.168
37.58000 279.817
37.59000 273.378
37.60000 267.052
37.61000 268.133
37.62000 273.674
37.63000 279.040
37.64000 277.091
37.65000 272.428
37.66000 268.702
37.67000 275.253
37.68000 284.632
37.69000 292.432
37.70000 289.941
37.71000 285.591
37.72000 282.007
37.73000 277.162
37.74000 273.060
37.75000 271.645
37.76000 277.813
37.77000 284.439
37.78000 289.021
37.79000 289.692
37.80000 290.269
37.81000 290.592
37.82000 286.071
37.83000 282.922
37.84000 279.664
37.85000 276.318
37.86000 273.085
37.87000 275.161
37.88000 280.146
37.89000 284.937
37.90000 285.405
37.91000 284.339
37.92000 283.465
37.93000 284.429
37.94000 285.851
37.95000 286.787
37.96000 284.888
37.97000 282.530
37.98000 280.626
37.99000 285.224
38.00000 289.477
38.01000 291.732
38.02000 288.856
38.03000 285.721
38.04000 283.395
38.05000 282.479
38.06000 281.588
38.07000 281.110
38.08000 277.605
38.09000 275.228
38.10000 276.138
38.11000 279.493
38.12000 282.860
38.13000 286.655
38.14000 290.664
38.15000 294.485
38.16000 297.667
38.17000 300.418
38.18000 302.597
38.19000 299.963
38.20000 296.241
38.21000 292.686
38.22000 290.010
38.23000 287.461
38.24000 285.447
38.25000 288.444
38.26000 291.190
38.27000 294.439
38.28000 298.866
38.29000 303.342
38.30000 307.257
38.31000 310.283
38.32000 313.298
38.33000 314.832
38.34000 323.956
38.35000 330.056
38.36000 334.203
38.37000 337.033
38.38000 339.939
38.39000 344.966
38.40000 350.954
38.41000 356.610
38.42000 360.676
38.43000 363.959
38.44000 368.132
38.45000 378.952
38.46000 391.129
38.47000 404.648
38.48000 424.510
38.49000 445.188
38.50000 461.142
38.51000 469.836
38.52000 476.305
38.53000 483.752
38.54000 493.283
38.55000 502.883
38.56000 520.455
38.57000 549.464
38.58000 578.557
38.59000 595.827
38.60000 602.099
38.61000 608.326
38.62000 611.369
38.63000 612.466
38.64000 613.806
38.65000 620.627
38.66000 629.714
38.67000 638.211
38.68000 651.380
38.69000 664.522
38.70000 675.797
38.71000 674.672
38.72000 671.267
38.73000 667.955
38.74000 665.046
38.75000 662.182
38.76000 660.026
38.77000 648.263
38.78000 638.592
38.79000 628.759
38.80000 618.610
38.81000 608.452
38.82000 602.800
38.83000 602.997
38.84000 603.218
38.85000 588.332
38.86000 560.876
38.87000 533.522
38.88000 511.230
38.89000 491.753
38.90000 472.660
38.91000 460.709
38.92000 451.450
38.93000 442.889
38.94000 422.972
38.95000 402.501
38.96000 384.689
38.97000 382.670
38.98000 383.256
38.99000 381.821
39.00000 372.560
39.01000 362.519
39.02000 355.159
39.03000 349.236
39.04000 344.719
39.05000 336.387
39.06000 321.312
39.07000 306.109
39.08000 297.348
39.09000 296.138
39.10000 294.944
39.11000 295.223
39.12000 296.607
39.13000 297.995
39.14000 299.513
39.15000 301.097
39.16000 302.235
39.17000 296.412
39.18000 288.200
39.19000 280.698
39.20000 277.650
39.21000 275.852
39.22000 274.107
39.23000 272.646
39.24000 271.226
39.25000 270.066
39.26000 269.822
39.27000 269.657
39.28000 269.540
39.29000 282.635
39.30000 293.047
39.31000 294.499
39.32000 281.558
39.33000 268.426
39.34000 263.464
39.35000 267.120
39.36000 270.760
39.37000 269.353
39.38000 264.548
39.39000 259.920
39.40000 260.419
39.41000 263.280
39.42000 265.743
39.43000 262.910
39.44000 258.423
39.45000 254.377
39.46000 257.981
39.47000 262.539
39.48000 265.950
39.49000 263.846
39.50000 261.019
39.51000 260.276
39.52000 266.194
39.53000 272.610
39.54000 277.046
39.55000 263.116
39.56000 252.166
39.57000 247.723
39.58000 252.765
39.59000 257.887
39.60000 261.962
39.61000 265.046
39.62000 268.104
39.63000 266.543
39.64000 262.192
39.65000 258.075
39.66000 259.395
39.67000 262.999
39.68000 266.196
39.69000 264.735
39.70000 261.952
39.71000 259.477
39.72000 261.426
39.73000 263.836
39.74000 265.354
39.75000 262.995
39.76000 260.187
39.77000 258.886
39.78000 261.972
39.79000 265.338
39.80000 267.591
39.81000 271.830
39.82000 275.014
39.83000 274.190
39.84000 268.078
39.85000 261.945
39.86000 258.236
39.87000 256.589
39.88000 254.963
39.89000 257.580
39.90000 262.467
39.91000 267.255
39.92000 270.133
39.93000 272.281
39.94000 273.667
39.95000 267.440
39.96000 259.252
39.97000 252.079
39.98000 260.175
39.99000 269.320
40.00000 275.021
40.01000 267.168
40.02000 257.933
40.03000 251.897
40.04000 254.331
40.05000 257.219
40.06000 259.086
40.07000 253.772
40.08000 249.781
40.09000 249.681
40.10000 254.220
40.11000 258.756
40.12000 260.606
40.13000 260.392
40.14000 260.182
40.15000 263.617
40.16000 268.752
40.17000 273.370
40.18000 269.703
40.19000 263.149
40.20000 257.357
40.21000 258.240
40.22000 260.681
40.23000 262.786
40.24000 259.978
40.25000 256.972
40.26000 254.637
40.27000 254.694
40.28000 254.964
40.29000 254.754
40.30000 253.388
40.31000 251.971
40.32000 251.087
40.33000 249.921
40.34000 249.077
40.35000 251.864
40.36000 258.547
40.37000 265.172
40.38000 264.237
40.39000 258.043
40.40000 251.986
40.41000 252.512
40.42000 255.970
40.43000 259.084
40.44000 257.504
40.45000 254.436
40.46000 252.333
40.47000 257.702
40.48000 264.649
40.49000 270.534
40.50000 255.246
40.51000 240.067
40.52000 230.536
40.53000 239.336
40.54000 249.542
40.55000 254.593
40.56000 248.311
40.57000 241.625
40.58000 237.619
40.59000 241.728
40.60000 244.700
40.61000 248.594
40.62000 253.375
40.63000 258.039
40.64000 253.293
40.65000 242.610
40.66000 232.229
40.67000 231.189
40.68000 233.985
40.69000 236.909
40.70000 241.339
40.71000 246.203
40.72000 249.636
40.73000 243.202
40.74000 234.891
40.75000 227.980
40.76000 236.812
40.77000 245.664
40.78000 250.153
40.79000 241.761
40.80000 232.525
40.81000 226.794
40.82000 228.083
40.83000 229.568
40.84000 230.421
40.85000 231.254
40.86000 231.840
40.87000 235.285
40.88000 241.205
40.89000 247.022
40.90000 247.224
40.91000 244.206
40.92000 241.295
40.93000 241.262
40.94000 242.284
40.95000 243.700
40.96000 249.150
40.97000 255.656
40.98000 261.126
40.99000 260.219
41.00000 258.222
41.01000 256.594
41.02000 244.460
41.03000 233.646
41.04000 227.375
41.05000 233.319
41.06000 239.938
41.07000 242.631
41.08000 238.173
41.09000 233.564
41.10000 231.036
41.11000 241.767
41.12000 249.150
41.13000 250.690
41.14000 247.666
41.15000 244.690
41.16000 243.644
41.17000 243.605
41.18000 243.567
41.19000 243.079
41.20000 242.477
41.21000 242.060
41.22000 243.306
41.23000 244.947
41.24000 245.650
41.25000 241.174
41.26000 235.906
41.27000 231.700
41.28000 237.467
41.29000 242.856
41.30000 246.291
41.31000 244.938
41.32000 243.366
41.33000 241.758
41.34000 240.089
41.35000 238.418
41.36000 237.547
41.37000 240.465
41.38000 242.421
41.39000 241.631
41.40000 238.901
41.41000 236.278
41.42000 236.971
41.43000 239.241
41.44000 241.394
41.45000 246.584
41.46000 252.273
41.47000 256.680
41.48000 250.943
41.49000 243.031
41.50000 235.993
41.51000 233.299
41.52000 231.197
41.53000 229.556
41.54000 229.927
41.55000 230.349
41.56000 231.869
41.57000 235.839
41.58000 239.901
41.59000 240.802
41.60000 236.948
41.61000 233.047
41.62000 233.400
41.63000 237.921
41.64000 242.416
41.65000 244.718
41.66000 245.614
41.67000 246.474
41.68000 246.434
41.69000 246.004
41.70000 245.600
41.71000 240.955
41.72000 235.583
41.73000 230.791
41.74000 230.069
41.75000 230.135
41.76000 230.155
41.77000 229.965
41.78000 229.750
41.79000 229.586
41.80000 234.017
41.81000 237.749
41.82000 239.682
41.83000 237.961
41.84000 236.134
41.85000 237.390
41.86000 242.851
41.87000 248.334
41.88000 247.321
41.89000 240.597
41.90000 233.973
41.91000 233.091
41.92000 235.552
41.93000 237.722
41.94000 233.945
41.95000 227.824
41.96000 222.133
41.97000 222.353
41.98000 223.971
41.99000 224.893
42.00000 221.456
42.01000 217.260
42.02000 215.567
42.03000 224.038
42.04000 233.589
42.05000 240.682
42.06000 240.747
42.07000 240.488
42.08000 236.364
42.09000 225.086
42.10000 213.650
42.11000 210.312
42.12000 216.955
42.13000 223.613
42.14000 230.499
42.15000 237.536
42.16000 244.365
42.17000 242.408
42.18000 235.798
42.19000 229.512
42.20000 228.732
42.21000 229.929
42.22000 231.029
42.23000 233.331
42.24000 235.645
42.25000 237.125
42.26000 233.920
42.27000 229.986
42.28000 226.806
42.29000 226.400
42.30000 226.254
42.31000 226.147
42.32000 229.435
42.33000 232.079
42.34000 235.485
42.35000 240.174
42.36000 244.882
42.37000 246.164
42.38000 243.639
42.39000 241.122
42.40000 235.428
42.41000 227.527
42.42000 219.916
42.43000 221.724
42.44000 228.074
42.45000 234.077
42.46000 235.088
42.47000 234.467
42.48000 233.903
42.49000 232.478
42.50000 231.053
42.51000 230.091
42.52000 231.466
42.53000 233.166
42.54000 234.433
42.55000 234.252
42.56000 233.954
42.57000 233.745
42.58000 228.869
42.59000 225.044
42.60000 221.395
42.61000 218.015
42.62000 214.638
42.63000 216.814
42.64000 224.526
42.65000 232.188
42.66000 233.734
42.67000 231.334
42.68000 228.769
42.69000 221.939
42.70000 213.235
42.71000 205.695
42.72000 212.493
42.73000 223.553
42.74000 233.458
42.75000 233.548
42.76000 231.941
42.77000 230.673
42.78000 230.949
42.79000 231.415
42.80000 231.754
42.81000 231.706
42.82000 231.631
42.83000 231.580
42.84000 227.473
42.85000 224.315
42.86000 222.693
42.87000 223.201
42.88000 223.724
42.89000 225.390
42.90000 228.080
42.91000 230.743
42.92000 229.301
42.93000 225.515
42.94000 222.131
42.95000 227.181
42.96000 235.606
42.97000 243.023
42.98000 239.668
42.99000 233.404
43.00000 227.875
43.01000 226.067
43.02000 225.075
43.03000 224.996
43.04000 228.681
43.05000 232.775
43.06000 235.019
43.07000 232.134
43.08000 228.950
43.09000 226.855
43.10000 223.932
43.11000 221.765
43.12000 221.144
43.13000 222.461
43.14000 223.785
43.15000 225.957
43.16000 228.812
43.17000 231.625
43.18000 229.022
43.19000 223.667
43.20000 218.930
43.21000 224.991
43.22000 234.988
43.23000 242.887
43.24000 231.188
43.25000 214.688
43.26000 200.353
43.27000 206.519
43.28000 214.550
43.29000 220.551
43.30000 218.953
43.31000 216.633
43.32000 216.766
43.33000 223.096
43.34000 229.727
43.35000 233.935
43.36000 226.020
43.37000 220.126
43.38000 218.013
43.39000 220.172
43.40000 222.323
43.41000 222.457
43.42000 221.119
43.43000 219.807
43.44000 219.611
43.45000 219.949
43.46000 220.406
43.47000 222.611
43.48000 225.396
43.49000 227.746
43.50000 226.515
43.51000 224.491
43.52000 222.761
43.53000 223.185
43.54000 223.800
43.55000 223.764
43.56000 221.518
43.57000 219.089
43.58000 218.775
43.59000 223.321
43.60000 228.061
43.61000 230.957
43.62000 230.268
43.63000 229.745
43.64000 228.909
43.65000 227.754
43.66000 226.590
43.67000 224.509
43.68000 221.821
43.69000 219.201
43.70000 215.008
43.71000 210.338
43.72000 206.465
43.73000 212.654
43.74000 221.881
43.75000 229.550
43.76000 225.858
43.77000 219.892
43.78000 214.885
43.79000 212.282
43.80000 210.367
43.81000 209.701
43.82000 212.897
43.83000 216.367
43.84000 220.474
43.85000 225.919
43.86000 231.405
43.87000 234.622
43.88000 224.545
43.89000 217.381
43.90000 212.521
43.91000 209.760
43.92000 207.088
43.93000 210.221
43.94000 216.840
43.95000 223.248
43.96000 228.355
43.97000 232.684
43.98000 236.157
43.99000 230.288
44.00000 221.854
44.01000 214.006
44.02000 209.957
44.03000 206.593
44.04000 203.823
44.05000 211.894
44.06000 219.521
44.07000 224.858
44.08000 223.751
44.09000 222.257
44.10000 220.430
44.11000 217.971
44.12000 215.497
44.13000 214.108
44.14000 223.611
44.15000 230.209
44.16000 229.126
44.17000 221.739
44.18000 214.427
44.19000 210.609
44.20000 208.697
44.21000 206.861
44.22000 211.335
44.23000 217.712
44.24000 223.290
44.25000 221.259
44.26000 217.333
44.27000 213.862
44.28000 213.036
44.29000 212.636
44.30000 212.314
44.31000 219.311
44.32000 225.572
44.33000 229.502
44.34000 227.458
44.35000 225.113
44.36000 223.205
44.37000 222.054
44.38000 220.916
44.39000 220.307
44.40000 222.235
44.41000 223.537
44.42000 222.029
44.43000 218.437
44.44000 214.988
44.45000 216.555
44.46000 220.615
44.47000 224.484
44.48000 224.978
44.49000 224.382
44.50000 223.770
44.51000 223.024
44.52000 222.249
44.53000 221.982
44.54000 224.372
44.55000 227.146
44.56000 229.335
44.57000 229.567
44.58000 229.619
44.59000 229.603
44.60000 229.424
44.61000 229.238
44.62000 230.987
44.63000 235.788
44.64000 240.626
44.65000 243.085
44.66000 251.028
44.67000 256.279
44.68000 253.820
44.69000 246.180
44.70000 238.840
44.71000 239.832
44.72000 244.595
44.73000 249.092
44.74000 253.154
44.75000 256.758
44.76000 260.170
44.77000 262.159
44.78000 263.858
44.79000 265.740
44.80000 268.485
44.81000 271.341
44.82000 273.542
44.83000 275.638
44.84000 277.291
44.85000 279.956
44.86000 284.772
44.87000 289.658
44.88000 295.754
44.89000 303.579
44.90000 311.416
44.91000 316.673
44.92000 319.536
44.93000 322.359
44.94000 322.398
44.95000 320.739
44.96000 319.196
44.97000 320.269
44.98000 322.421
44.99000 324.433
45.00000 322.294
45.01000 319.304
45.02000 316.964
45.03000 318.923
45.04000 321.671
45.05000 325.333
45.06000 332.893
45.07000 340.895
45.08000 346.913
45.09000 332.642
45.10000 320.501
45.11000 313.193
45.12000 315.247
45.13000 317.540
45.14000 315.302
45.15000 307.198
45.16000 299.080
45.17000 299.109
45.18000 305.917
45.19000 312.750
45.20000 320.795
45.21000 329.512
45.22000 337.432
45.23000 330.608
45.24000 318.243
45.25000 306.815
45.26000 301.094
45.27000 297.254
45.28000 293.978
45.29000 294.040
45.30000 294.651
45.31000 295.380
45.32000 296.564
45.33000 297.792
45.34000 298.692
45.35000 292.678
45.36000 287.760
45.37000 283.917
45.38000 281.970
45.39000 280.059
45.40000 277.773
45.41000 275.050
45.42000 272.333
45.43000 272.243
45.44000 274.118
45.45000 275.918
45.46000 274.913
45.47000 272.493
45.48000 270.012
45.49000 266.595
45.50000 262.856
45.51000 259.442
45.52000 263.479
45.53000 268.577
45.54000 271.770
45.55000 264.836
45.56000 256.413
45.57000 248.877
45.58000 244.447
45.59000 240.285
45.60000 237.323
45.61000 249.985
45.62000 260.138
45.63000 265.736
45.64000 264.039
45.65000 262.246
45.66000 261.238
45.67000 261.055
45.68000 260.873
45.69000 258.874
45.70000 255.674
45.71000 252.457
45.72000 248.742
45.73000 244.800
45.74000 241.388
45.75000 245.016
45.76000 250.835
45.77000 256.081
45.78000 249.337
45.79000 241.241
45.80000 233.992
45.81000 230.809
45.82000 228.157
45.83000 224.891
45.84000 219.667
45.85000 214.298
45.86000 210.589
45.87000 206.453
45.88000 203.333
45.89000 203.868
45.90000 209.713
45.91000 215.603
45.92000 220.233
45.93000 223.675
45.94000 227.089
45.95000 229.256
45.96000 230.625
45.97000 231.839
45.98000 229.458
45.99000 225.571
46.00000 222.063
46.01000 222.875
46.02000 224.910
46.03000 226.719
46.04000 224.563
46.05000 222.051
46.06000 219.600
46.07000 217.408
46.08000 215.246
46.09000 212.870
46.10000 209.871
46.11000 206.833
46.12000 204.801
46.13000 208.891
46.14000 212.044
46.15000 214.724
46.16000 216.779
46.17000 218.827
46.18000 218.354
46.19000 215.740
46.20000 213.159
46.21000 213.524
46.22000 215.496
46.23000 217.121
46.24000 212.142
46.25000 204.644
46.26000 198.104
46.27000 201.105
46.28000 206.558
46.29000 211.331
46.30000 209.787
46.31000 207.556
46.32000 204.290
46.33000 196.960
46.34000 189.219
46.35000 185.284
46.36000 191.405
46.37000 198.062
46.38000 202.362
46.39000 203.841
46.40000 204.881
46.41000 203.455
46.42000 199.099
46.43000 194.751
46.44000 193.549
46.45000 194.756
46.46000 195.943
46.47000 196.973
46.48000 197.891
46.49000 199.015
46.50000 203.408
46.51000 208.936
46.52000 213.906
46.53000 213.988
46.54000 212.933
46.55000 212.024
46.56000 208.817
46.57000 205.808
46.58000 203.192
46.59000 201.975
46.60000 200.882
46.61000 199.852
46.62000 198.975
46.63000 198.104
46.64000 197.562
46.65000 195.874
46.66000 194.646
46.67000 196.232
46.68000 200.827
46.69000 205.371
46.70000 203.502
46.71000 197.185
46.72000 191.009
46.73000 189.507
46.74000 190.157
46.75000 190.872
46.76000 192.467
46.77000 194.341
46.78000 195.908
46.79000 195.095
46.80000 193.781
46.81000 192.669
46.82000 193.511
46.83000 194.434
46.84000 195.669
46.85000 197.912
46.86000 200.232
46.87000 201.207
46.88000 199.235
46.89000 197.159
46.90000 195.916
46.91000 190.223
46.92000 186.154
46.93000 188.145
46.94000 195.952
46.95000 203.689
46.96000 205.965
46.97000 204.805
46.98000 203.678
46.99000 197.129
47.00000 188.720
47.01000 181.124
47.02000 183.049
47.03000 187.710
47.04000 191.638
47.05000 190.530
47.06000 188.467
47.07000 186.752
47.08000 187.492
47.09000 188.344
47.10000 189.951
47.11000 193.782
47.12000 197.757
47.13000 198.954
47.14000 194.602
47.15000 190.096
47.16000 187.512
47.17000 191.439
47.18000 194.198
47.19000 191.271
47.20000 183.437
47.21000 175.710
47.22000 173.836
47.23000 175.309
47.24000 176.730
47.25000 182.229
47.26000 188.888
47.27000 195.187
47.28000 197.824
47.29000 199.504
47.30000 200.249
47.31000 195.261
47.32000 189.297
47.33000 184.437
47.34000 186.738
47.35000 189.227
47.36000 189.939
47.37000 185.887
47.38000 181.575
47.39000 180.316
47.40000 184.608
47.41000 189.015
47.42000 191.429
47.43000 195.248
47.44000 197.866
47.45000 197.597
47.46000 195.079
47.47000 192.608
47.48000 192.043
47.49000 192.469
47.50000 192.877
47.51000 186.869
47.52000 179.164
47.53000 172.758
47.54000 177.936
47.55000 185.854
47.56000 192.388
47.57000 191.303
47.58000 189.057
47.59000 187.265
47.60000 185.169
47.61000 183.454
47.62000 182.754
47.63000 184.531
47.64000 186.421
47.65000 187.493
47.66000 187.216
47.67000 186.918
47.68000 186.763
47.69000 181.171
47.70000 177.429
47.71000 179.064
47.72000 184.488
47.73000 189.690
47.74000 188.012
47.75000 183.076
47.76000 178.394
47.77000 179.536
47.78000 182.313
47.79000 184.720
47.80000 184.215
47.81000 183.088
47.82000 181.896
47.83000 180.388
47.84000 178.836
47.85000 177.626
47.86000 185.654
47.87000 192.630
47.88000 196.813
47.89000 194.782
47.90000 192.523
47.91000 189.483
47.92000 185.273
47.93000 181.052
47.94000 180.315
47.95000 182.979
47.96000 185.632
47.97000 187.281
47.98000 188.290
47.99000 189.145
48.00000 186.220
48.01000 181.662
48.02000 177.381
48.03000 180.671
48.04000 185.688
48.05000 189.924
48.06000 188.703
48.07000 186.428
48.08000 184.711
48.09000 185.485
48.10000 186.559
48.11000 187.377
48.12000 185.973
48.13000 184.751
48.14000 185.309
48.15000 189.476
48.16000 193.747
48.17000 195.766
48.18000 194.725
48.19000 193.668
48.20000 191.472
48.21000 188.280
48.22000 185.123
48.23000 183.915
48.24000 183.838
48.25000 183.795
48.26000 184.435
48.27000 185.344
48.28000 186.188
48.29000 186.301
48.30000 186.227
48.31000 186.442
48.32000 188.452
48.33000 190.774
48.34000 192.806
48.35000 193.660
48.36000 194.390
48.37000 194.931
48.38000 192.814
48.39000 191.052
48.40000 189.286
48.41000 187.512
48.42000 185.739
48.43000 184.334
48.44000 183.383
48.45000 182.434
48.46000 179.059
48.47000 173.788
48.48000 168.677
48.49000 170.290
48.50000 175.454
48.51000 180.369
48.52000 181.077
48.53000 180.278
48.54000 179.545
48.55000 182.284
48.56000 185.474
48.57000 187.742
48.58000 184.848
48.59000 181.152
48.60000 177.830
48.61000 175.881
48.62000 174.059
48.63000 172.743
48.64000 176.680
48.65000 179.887
48.66000 181.739
48.67000 181.315
48.68000 180.856
48.69000 179.755
48.70000 177.944
48.71000 176.140
48.72000 178.484
48.73000 183.748
48.74000 188.928
48.75000 191.370
48.76000 192.496
48.77000 193.267
48.78000 188.973
48.79000 183.027
48.80000 177.633
48.81000 179.183
48.82000 181.882
48.83000 183.788
48.84000 181.691
48.85000 179.039
48.86000 178.631
48.87000 185.707
48.88000 193.384
48.89000 198.766
48.90000 185.959
48.91000 175.746
48.92000 170.627
48.93000 173.272
48.94000 175.999
48.95000 178.211
48.96000 179.913
48.97000 181.603
48.98000 180.889
48.99000 178.649
49.00000 176.425
49.01000 174.595
49.02000 172.938
49.03000 171.483
49.04000 172.499
49.05000 174.247
49.06000 175.811
49.07000 177.397
49.08000 178.784
49.09000 179.482
49.10000 177.051
49.11000 174.236
49.12000 172.072
49.13000 171.890
49.14000 171.843
49.15000 171.811
49.16000 173.671
49.17000 175.101
49.18000 174.546
49.19000 171.248
49.20000 167.936
49.21000 168.558
49.22000 172.690
49.23000 176.780
49.24000 177.341
49.25000 175.855
49.26000 174.475
49.27000 175.306
49.28000 177.019
49.29000 178.578
49.30000 178.486
49.31000 177.949
49.32000 177.475
49.33000 178.085
49.34000 178.776
49.35000 179.097
49.36000 177.894
49.37000 176.527
49.38000 175.759
49.39000 176.643
49.40000 177.623
49.41000 178.267
49.42000 181.617
49.43000 184.128
49.44000 182.659
49.45000 176.219
49.46000 169.778
49.47000 168.439
49.48000 171.206
49.49000 173.933
49.50000 175.253
49.51000 175.803
49.52000 176.380
49.53000 177.438
49.54000 178.671
49.55000 179.697
49.56000 178.796
49.57000 177.424
49.58000 176.233
49.59000 180.625
49.60000 185.120
49.61000 187.880
49.62000 184.161
49.63000 179.830
49.64000 175.270
49.65000 170.137
49.66000 164.976
49.67000 161.704
49.68000 165.683
49.69000 168.659
49.70000 170.997
49.71000 172.617
49.72000 174.233
49.73000 175.282
49.74000 175.917
49.75000 176.541
49.76000 177.744
49.77000 179.174
49.78000 180.399
49.79000 178.597
49.80000 175.793
49.81000 173.216
49.82000 172.497
49.83000 172.190
49.84000 171.927
49.85000 172.852
49.86000 173.773
49.87000 174.413
49.88000 174.103
49.89000 173.714
49.90000 172.538
49.91000 169.555
49.92000 166.501
49.93000 164.637
49.94000 167.601
49.95000 169.759
49.96000 173.657
49.97000 179.314
49.98000 184.941
49.99000 187.605
50.00000 188.314
50.01000 189.006
50.02000 183.529
50.03000 175.685
50.04000 168.394
50.05000 168.054
50.06000 169.807
50.07000 171.763
50.08000 175.192
50.09000 178.916
50.10000 182.040
50.11000 181.898
50.12000 181.439
50.13000 179.606
50.14000 173.534
50.15000 167.163
50.16000 163.579
50.17000 165.820
50.18000 168.243
50.19000 169.662
50.20000 177.349
50.21000 182.789
50.22000 182.168
50.23000 176.041
50.24000 170.006
50.25000 169.852
50.26000 173.219
50.27000 176.478
50.28000 178.031
50.29000 178.846
50.30000 179.499
50.31000 178.403
50.32000 176.827
50.33000 175.885
50.34000 179.045
50.35000 182.941
50.36000 186.147
50.37000 192.428
50.38000 197.870
50.39000 200.652
50.40000 195.967
50.41000 190.836
50.42000 188.193
50.43000 190.284
50.44000 192.489
50.45000 193.724
50.46000 190.562
50.47000 188.373
50.48000 191.418
50.49000 198.746
50.50000 206.032
50.51000 211.385
50.52000 215.686
50.53000 219.819
50.54000 215.154
50.55000 207.748
50.56000 201.615
50.57000 207.571
50.58000 216.526
50.59000 224.252
50.60000 224.844
50.61000 224.289
50.62000 223.840
50.63000 221.324
50.64000 219.118
50.65000 218.265
50.66000 220.869
50.67000 223.646
50.68000 224.904
50.69000 223.536
50.70000 222.120
50.71000 221.364
50.72000 225.302
50.73000 227.976
50.74000 228.136
50.75000 226.436
50.76000 224.747
50.77000 223.441
50.78000 222.324
50.79000 221.261
50.80000 215.268
50.81000 208.179
50.82000 202.341
50.83000 206.955
50.84000 213.917
50.85000 219.334
50.86000 216.698
50.87000 212.905
50.88000 209.914
50.89000 203.322
50.90000 197.792
50.91000 193.473
50.92000 191.971
50.93000 190.584
50.94000 190.420
50.95000 192.179
50.96000 193.961
50.97000 194.865
50.98000 184.414
50.99000 177.483
51.00000 177.820
51.01000 183.027
51.02000 188.002
51.03000 186.601
51.04000 182.321
51.05000 178.281
51.06000 180.152
51.07000 183.526
51.08000 186.556
51.09000 187.043
51.10000 187.015
51.11000 186.722
51.12000 185.191
51.13000 183.501
51.14000 182.199
51.15000 177.170
51.16000 172.974
51.17000 169.900
51.18000 169.204
51.19000 168.586
51.20000 170.510
51.21000 176.060
51.22000 181.636
51.23000 182.470
51.24000 178.926
51.25000 175.399
51.26000 173.049
51.27000 171.415
51.28000 169.869
51.29000 170.293
51.30000 171.528
51.31000 172.682
51.32000 172.952
51.33000 172.973
51.34000 172.824
51.35000 171.548
51.36000 170.066
51.37000 169.787
51.38000 174.621
51.39000 180.033
51.40000 184.099
51.41000 174.897
51.42000 167.065
51.43000 162.342
51.44000 163.620
51.45000 165.050
51.46000 164.545
51.47000 161.542
51.48000 158.533
51.49000 159.589
51.50000 164.012
51.51000 168.385
51.52000 170.297
51.53000 170.849
51.54000 171.370
51.55000 171.329
51.56000 171.077
51.57000 170.845
51.58000 170.037
51.59000 169.183
51.60000 168.844
51.61000 171.549
51.62000 174.753
51.63000 176.792
51.64000 174.350
51.65000 171.463
51.66000 169.351
51.67000 164.123
51.68000 159.964
51.69000 157.175
51.70000 156.793
51.71000 156.456
51.72000 158.297
51.73000 162.673
51.74000 167.042
51.75000 168.061
51.76000 166.575
51.77000 165.136
51.78000 165.432
51.79000 166.601
51.80000 167.751
51.81000 168.625
51.82000 169.404
51.83000 170.116
51.84000 169.246
51.85000 168.155
51.86000 166.672
51.87000 163.112
51.88000 159.248
51.89000 155.987
51.90000 154.835
51.91000 153.864
51.92000 153.174
51.93000 158.586
51.94000 162.904
51.95000 167.353
51.96000 172.013
51.97000 176.675
51.98000 176.478
51.99000 171.189
52.00000 165.928
52.01000 165.132
52.02000 167.347
52.03000 169.487
52.04000 169.494
52.05000 168.523
52.06000 167.588
52.07000 167.138
52.08000 166.839
52.09000 166.569
52.10000 157.662
52.11000 148.283
52.12000 141.383
52.13000 146.331
52.14000 152.821
52.15000 157.289
52.16000 155.335
52.17000 152.905
52.18000 151.228
52.19000 155.984
52.20000 159.721
52.21000 160.874
52.22000 158.282
52.23000 155.660
52.24000 155.076
52.25000 156.407
52.26000 157.728
52.27000 158.436
52.28000 158.760
52.29000 158.979
52.30000 156.763
52.31000 153.531
52.32000 150.780
52.33000 153.514
52.34000 157.796
52.35000 161.601
52.36000 160.032
52.37000 157.806
52.38000 156.037
52.39000 156.240
52.40000 156.671
52.41000 157.145
52.42000 157.743
52.43000 158.349
52.44000 158.754
52.45000 163.537
52.46000 167.167
52.47000 168.000
52.48000 165.165
52.49000 162.314
52.50000 159.962
52.51000 158.031
52.52000 156.125
52.53000 157.711
52.54000 161.167
52.55000 164.463
52.56000 164.710
52.57000 163.797
52.58000 162.852
52.59000 161.583
52.60000 160.231
52.61000 159.047
52.62000 150.872
52.63000 142.864
52.64000 137.093
52.65000 140.074
52.66000 143.939
52.67000 147.623
52.68000 150.830
52.69000 154.011
52.70000 156.064
52.71000 158.182
52.72000 159.731
52.73000 161.225
52.74000 162.655
52.75000 164.079
52.76000 164.298
52.77000 163.595
52.78000 162.905
52.79000 162.597
52.80000 162.488
52.81000 162.386
52.82000 162.403
52.83000 162.461
52.84000 162.542
52.85000 162.827
52.86000 163.159
52.87000 163.445
52.88000 160.311
52.89000 157.222
52.90000 154.285
52.91000 151.886
52.92000 149.534
52.93000 150.564
52.94000 159.709
52.95000 169.208
52.96000 175.115
52.97000 170.614
52.98000 167.270
52.99000 166.106
53.00000 167.268
53.01000 168.400
53.02000 165.618
53.03000 160.132
53.04000 154.770
53.05000 152.451
53.06000 151.587
53.07000 150.737
53.08000 150.077
53.09000 149.478
53.10000 149.113
53.11000 150.547
53.12000 152.358
53.13000 153.890
53.14000 151.923
53.15000 149.888
53.16000 148.949
53.17000 151.548
53.18000 154.416
53.19000 156.878
53.20000 158.453
53.21000 159.997
53.22000 160.919
53.23000 156.610
53.24000 153.521
53.25000 154.371
53.26000 158.990
53.27000 163.541
53.28000 162.871
53.29000 158.925
53.30000 155.092
53.31000 153.576
53.32000 153.069
53.33000 152.896
53.34000 156.612
53.35000 161.443
53.36000 165.456
53.37000 163.867
53.38000 161.219
53.39000 159.020
53.40000 163.369
53.41000 167.602
53.42000 170.548
53.43000 169.713
53.44000 168.632
53.45000 167.078
53.46000 164.579
53.47000 162.054
53.48000 160.609
53.49000 159.580
53.50000 158.862
53.51000 157.773
53.52000 156.365
53.53000 154.998
53.54000 155.875
53.55000 158.031
53.56000 160.110
53.57000 159.976
53.58000 159.046
53.59000 158.201
53.60000 158.221
53.61000 158.466
53.62000 158.404
53.63000 156.464
53.64000 154.205
53.65000 152.365
53.66000 153.939
53.67000 155.512
53.68000 155.594
53.69000 151.686
53.70000 147.561
53.71000 144.919
53.72000 144.965
53.73000 145.066
53.74000 145.121
53.75000 148.327
53.76000 150.537
53.77000 153.372
53.78000 156.692
53.79000 159.928
53.80000 159.843
53.81000 158.034
53.82000 156.304
53.83000 155.885
53.84000 155.924
53.85000 155.536
53.86000 151.355
53.87000 146.281
53.88000 142.358
53.89000 144.758
53.90000 148.118
53.91000 150.796
53.92000 149.049
53.93000 147.316
53.94000 146.018
53.95000 145.778
53.96000 145.585
53.97000 144.925
53.98000 143.496
53.99000 142.055
54.00000 141.306
54.01000 145.966
54.02000 149.103
54.03000 150.348
54.04000 150.263
54.05000 150.189
54.06000 150.447
54.07000 150.861
54.08000 151.254
54.09000 151.995
54.10000 152.780
54.11000 153.324
54.12000 151.971
54.13000 150.213
54.14000 149.145
54.15000 151.478
54.16000 154.272
54.17000 156.449
54.18000 155.994
54.19000 155.467
54.20000 152.768
54.21000 145.249
54.22000 137.554
54.23000 136.188
54.24000 144.286
54.25000 152.476
54.26000 156.625
54.27000 156.842
54.28000 157.065
54.29000 157.795
54.30000 158.849
54.31000 159.907
54.32000 161.077
54.33000 162.293
54.34000 163.436
54.35000 158.892
54.36000 153.239
54.37000 147.886
54.38000 144.627
54.39000 141.770
54.40000 140.292
54.41000 144.962
54.42000 150.370
54.43000 154.483
54.44000 152.626
54.45000 150.851
54.46000 150.598
54.47000 153.421
54.48000 156.332
54.49000 156.815
54.50000 154.010
54.51000 151.188
54.52000 150.667
54.53000 152.156
54.54000 153.638
54.55000 154.783
54.56000 155.732
54.57000 156.495
54.58000 153.519
54.59000 149.077
54.60000 144.950
54.61000 146.492
54.62000 149.236
54.63000 151.629
54.64000 151.838
54.65000 151.670
54.66000 151.437
54.67000 150.942
54.68000 150.420
54.69000 150.033
54.70000 148.825
54.71000 147.852
54.72000 148.236
54.73000 151.120
54.74000 154.058
54.75000 155.850
54.76000 156.237
54.77000 156.621
54.78000 156.297
54.79000 155.420
54.80000 154.566
54.81000 154.685
54.82000 155.318
54.83000 155.822
54.84000 154.171
54.85000 151.751
54.86000 149.528
54.87000 147.562
54.88000 145.862
54.89000 144.654
54.90000 146.187
54.91000 148.144
54.92000 149.418
54.93000 148.189
54.94000 146.730
54.95000 145.677
54.96000 145.264
54.97000 144.970
54.98000 145.615
54.99000 147.830
55.00000 150.069
55.01000 150.278
55.02000 148.246
55.03000 146.221
55.04000 148.199
55.05000 152.988
55.06000 157.596
55.07000 156.356
55.08000 152.314
55.09000 148.796
55.10000 152.744
55.11000 159.120
55.12000 164.901
55.13000 162.463
55.14000 158.741
55.15000 155.479
55.16000 154.531
55.17000 153.902
55.18000 153.334
55.19000 152.969
55.20000 152.620
55.21000 152.376
55.22000 156.459
55.23000 159.670
55.24000 159.995
55.25000 155.935
55.26000 151.830
55.27000 153.703
55.28000 161.498
55.29000 169.240
55.30000 167.643
55.31000 160.119
55.32000 152.876
55.33000 152.829
55.34000 155.924
55.35000 159.049
55.36000 162.539
55.37000 166.136
55.38000 169.354
55.39000 168.429
55.40000 166.916
55.41000 167.055
55.42000 174.685
55.43000 183.232
55.44000 188.977
55.45000 186.238
55.46000 182.920
55.47000 180.667
55.48000 192.910
55.49000 202.368
55.50000 204.152
55.51000 195.370
55.52000 186.534
55.53000 191.190
55.54000 207.851
55.55000 224.340
55.56000 232.109
55.57000 234.692
55.58000 237.465
55.59000 244.160
55.60000 252.417
55.61000 260.408
55.62000 265.580
55.63000 269.995
55.64000 273.888
55.65000 281.597
55.66000 288.822
55.67000 295.522
55.68000 300.066
55.69000 304.378
55.70000 310.132
55.71000 319.859
55.72000 329.816
55.73000 336.353
55.74000 341.350
55.75000 345.002
55.76000 349.489
55.77000 355.017
55.78000 360.550
55.79000 366.938
55.80000 374.011
55.81000 380.980
55.82000 388.602
55.83000 396.339
55.84000 404.099
55.85000 412.274
55.86000 420.598
55.87000 428.690
55.88000 434.628
55.89000 440.041
55.90000 444.739
55.91000 435.910
55.92000 426.570
55.93000 418.395
55.94000 414.554
55.95000 411.122
55.96000 408.384
55.97000 407.387
55.98000 406.473
55.99000 405.895
56.00000 400.464
56.01000 396.468
56.02000 392.753
56.03000 389.354
56.04000 385.953
56.05000 382.147
56.06000 378.048
56.07000 374.030
56.08000 366.583
56.09000 357.809
56.10000 349.033
56.11000 340.234
56.12000 331.427
56.13000 322.848
56.14000 316.120
56.15000 309.802
56.16000 304.408
56.17000 299.477
56.18000 295.379
56.19000 290.267
56.20000 281.724
56.21000 272.901
56.22000 265.511
56.23000 261.399
56.24000 257.416
56.25000 254.988
56.26000 248.364
56.27000 243.597
56.28000 237.997
56.29000 231.560
56.30000 225.144
56.31000 220.825
56.32000 217.886
56.33000 215.023
56.34000 210.978
56.35000 206.620
56.36000 202.767
56.37000 205.235
56.38000 209.601
56.39000 212.937
56.40000 208.815
56.41000 203.211
56.42000 198.513
56.43000 194.416
56.44000 191.069
56.45000 188.396
56.46000 187.791
56.47000 187.331
56.48000 185.758
56.49000 181.867
56.50000 177.903
56.51000 175.585
56.52000 170.575
56.53000 167.040
56.54000 168.765
56.55000 175.253
56.56000 181.566
56.57000 176.826
56.58000 165.486
56.59000 154.511
56.60000 155.782
56.61000 161.658
56.62000 166.770
56.63000 163.605
56.64000 158.181
56.65000 154.258
56.66000 160.016
56.67000 167.507
56.68000 173.666
56.69000 171.001
56.70000 168.013
56.71000 164.788
56.72000 160.902
56.73000 156.976
56.74000 153.695
56.75000 151.636
56.76000 149.607
56.77000 148.472
56.78000 149.381
56.79000 150.014
56.80000 150.200
56.81000 150.022
56.82000 149.824
56.83000 148.696
56.84000 147.063
56.85000 145.494
56.86000 146.103
56.87000 147.422
56.88000 148.801
56.89000 150.754
56.90000 152.849
56.91000 154.107
56.92000 150.523
56.93000 146.162
56.94000 142.650
56.95000 139.136
56.96000 136.284
56.97000 134.057
56.98000 133.422
56.99000 132.866
57.00000 133.707
57.01000 136.958
57.02000 140.251
57.03000 142.007
57.04000 144.265
57.05000 145.799
57.06000 146.410
57.07000 146.342
57.08000 146.209
57.09000 143.842
57.10000 140.371
57.11000 137.065
57.12000 140.567
57.13000 145.924
57.14000 150.566
57.15000 149.250
57.16000 146.599
57.17000 144.599
57.18000 145.980
57.19000 147.845
57.20000 149.315
57.21000 149.611
57.22000 149.769
57.23000 149.235
57.24000 147.094
57.25000 144.887
57.26000 143.077
57.27000 141.886
57.28000 140.704
57.29000 140.105
57.30000 141.717
57.31000 142.781
57.32000 142.227
57.33000 140.592
57.34000 139.006
57.35000 138.728
57.36000 139.039
57.37000 139.333
57.38000 142.589
57.39000 146.401
57.40000 149.585
57.41000 148.134
57.42000 145.745
57.43000 143.391
57.44000 141.200
57.45000 139.030
57.46000 137.359
57.47000 136.669
57.48000 136.179
57.49000 136.545
57.50000 138.722
57.51000 140.958
57.52000 140.272
57.53000 135.434
57.54000 130.565
57.55000 131.109
57.56000 136.633
57.57000 142.088
57.58000 142.878
57.59000 140.840
57.60000 139.029
57.61000 142.241
57.62000 147.514
57.63000 152.439
57.64000 149.856
57.65000 145.627
57.66000 142.024
57.67000 142.533
57.68000 143.790
57.69000 144.681
57.70000 144.015
57.71000 143.175
57.72000 142.544
57.73000 141.874
57.74000 141.348
57.75000 140.777
57.76000 140.116
57.77000 139.454
57.78000 139.525
57.79000 140.540
57.80000 141.558
57.81000 140.598
57.82000 138.006
57.83000 135.446
57.84000 134.432
57.85000 134.270
57.86000 134.261
57.87000 137.056
57.88000 140.899
57.89000 144.447
57.90000 141.466
57.91000 137.319
57.92000 134.561
57.93000 139.975
57.94000 146.724
57.95000 152.042
57.96000 151.864
57.97000 151.145
57.98000 150.620
57.99000 149.737
58.00000 149.042
58.01000 148.744
58.02000 149.141
58.03000 149.551
58.04000 148.960
58.05000 147.205
58.06000 145.453
58.07000 143.795
58.08000 142.217
58.09000 140.702
58.10000 141.466
58.11000 143.374
58.12000 145.036
58.13000 142.924
58.14000 139.529
58.15000 136.430
58.16000 139.232
58.17000 142.910
58.18000 145.429
58.19000 141.831
58.20000 137.339
58.21000 134.023
58.22000 134.800
58.23000 135.929
58.24000 136.731
58.25000 142.937
58.26000 147.834
58.27000 149.847
58.28000 147.266
58.29000 144.626
58.30000 142.332
58.31000 140.397
58.32000 138.472
58.33000 134.440
58.34000 129.045
58.35000 123.963
58.36000 127.741
58.37000 135.567
58.38000 142.546
58.39000 138.403
58.40000 130.817
58.41000 123.985
58.42000 126.028
58.43000 129.422
58.44000 132.452
58.45000 133.753
58.46000 134.830
58.47000 134.601
58.48000 130.234
58.49000 125.561
58.50000 122.339
58.51000 130.158
58.52000 136.308
58.53000 142.170
58.54000 147.614
58.55000 153.053
58.56000 153.875
58.57000 150.370
58.58000 146.895
58.59000 140.707
58.60000 132.995
58.61000 125.632
58.62000 126.242
58.63000 130.173
58.64000 133.932
58.65000 135.751
58.66000 137.024
58.67000 138.154
58.68000 136.509
58.69000 134.637
58.70000 133.092
58.71000 132.954
58.72000 132.979
58.73000 133.122
58.74000 133.606
58.75000 134.113
58.76000 134.451
58.77000 129.898
58.78000 126.430
58.79000 126.789
58.80000 132.150
58.81000 137.525
58.82000 138.586
58.83000 136.010
58.84000 133.466
58.85000 133.262
58.86000 134.339
58.87000 135.350
58.88000 135.099
58.89000 134.369
58.90000 133.867
58.91000 135.600
58.92000 137.905
58.93000 139.921
58.94000 136.932
58.95000 133.658
58.96000 130.746
58.97000 129.247
58.98000 127.891
58.99000 127.464
59.00000 129.480
59.01000 131.625
59.02000 133.008
59.03000 133.065
59.04000 133.088
59.05000 131.796
59.06000 128.949
59.07000 126.105
59.08000 124.303
59.09000 123.294
59.10000 122.303
59.11000 124.918
59.12000 129.221
59.13000 133.406
59.14000 135.737
59.15000 137.428
59.16000 138.594
59.17000 135.214
59.18000 130.781
59.19000 126.967
59.20000 129.973
59.21000 133.377
59.22000 135.892
59.23000 135.260
59.24000 134.351
59.25000 134.235
59.26000 136.014
59.27000 137.875
59.28000 139.031
59.29000 136.374
59.30000 134.425
59.31000 133.482
59.32000 133.609
59.33000 133.757
59.34000 136.399
59.35000 140.759
59.36000 145.021
59.37000 142.303
59.38000 136.596
59.39000 131.274
59.40000 131.143
59.41000 132.644
59.42000 133.737
59.43000 131.705
59.44000 129.019
59.45000 126.748
59.46000 129.115
59.47000 131.609
59.48000 133.901
59.49000 135.540
59.50000 137.130
59.51000 137.206
59.52000 133.981
59.53000 130.641
59.54000 128.647
59.55000 131.311
59.56000 133.229
59.57000 134.972
59.58000 136.549
59.59000 138.115
59.60000 138.792
59.61000 138.913
59.62000 139.030
59.63000 136.823
59.64000 133.796
59.65000 130.797
59.66000 128.133
59.67000 125.564
59.68000 123.533
59.69000 125.173
59.70000 127.504
59.71000 129.440
59.72000 128.023
59.73000 126.527
59.74000 126.486
59.75000 130.707
59.76000 135.203
59.77000 135.837
59.78000 128.803
59.79000 121.559
59.80000 117.417
59.81000 119.873
59.82000 121.611
59.83000 123.754
59.84000 126.243
59.85000 128.724
59.86000 130.750
59.87000 132.517
59.88000 134.220
59.89000 134.917
59.90000 135.209
59.91000 135.270
59.92000 133.015
59.93000 130.158
59.94000 127.586
59.95000 126.744
59.96000 126.194
59.97000 125.748
59.98000 130.457
59.99000 134.737
60.00000 137.558
60.01000 136.491
60.02000 135.212
60.03000 135.447
60.04000 138.418
60.05000 141.444
60.06000 143.097
60.07000 139.026
60.08000 136.219
60.09000 132.953
60.10000 129.333
60.11000 125.897
60.12000 129.795
60.13000 137.486
60.14000 144.842
60.15000 145.202
60.16000 143.253
60.17000 140.879
60.18000 134.741
60.19000 127.719
60.20000 122.842
60.21000 129.702
60.22000 138.338
60.23000 145.219
60.24000 137.907
60.25000 130.983
60.26000 125.376
60.27000 122.969
60.28000 120.706
60.29000 120.410
60.30000 123.347
60.31000 126.330
60.32000 127.881
60.33000 133.907
60.34000 137.941
60.35000 137.191
60.36000 133.088
60.37000 129.118
60.38000 129.197
60.39000 131.181
60.40000 133.062
60.41000 133.405
60.42000 133.268
60.43000 132.988
60.44000 131.586
60.45000 129.945
60.46000 128.126
60.47000 125.427
60.48000 122.609
60.49000 120.415
60.50000 123.966
60.51000 127.149
60.52000 129.281
60.53000 129.087
60.54000 128.809
60.55000 129.441
60.56000 131.429
60.57000 133.430
60.58000 134.252
60.59000 133.930
60.60000 133.608
60.61000 133.299
60.62000 132.999
60.63000 132.693
60.64000 132.268
60.65000 131.791
60.66000 131.344
60.67000 128.954
60.68000 126.262
60.69000 124.430
60.70000 128.582
60.71000 133.881
60.72000 137.332
60.73000 132.569
60.74000 126.826
60.75000 122.459
60.76000 127.095
60.77000 131.210
60.78000 133.235
60.79000 131.047
60.80000 128.738
60.81000 127.794
60.82000 128.691
60.83000 129.598
60.84000 129.493
60.85000 128.507
60.86000 127.539
60.87000 127.604
60.88000 128.265
60.89000 128.946
60.90000 130.009
60.91000 131.221
60.92000 132.348
60.93000 135.032
60.94000 137.823
60.95000 140.161
60.96000 139.695
60.97000 138.746
60.98000 138.188
60.99000 139.207
61.00000 140.392
61.01000 141.270
61.02000 136.287
61.03000 132.165
61.04000 129.017
61.05000 127.654
61.06000 126.330
61.07000 126.383
61.08000 128.118
61.09000 129.853
61.10000 131.784
61.11000 133.858
61.12000 135.922
61.13000 137.561
61.14000 138.976
61.15000 140.158
61.16000 137.463
61.17000 133.386
61.18000 129.644
61.19000 128.820
61.20000 128.707
61.21000 129.443
61.22000 134.904
61.23000 141.094
61.24000 145.011
61.25000 140.627
61.26000 135.481
61.27000 131.772
61.28000 135.953
61.29000 139.436
61.30000 140.921
61.31000 139.071
61.32000 137.169
61.33000 137.167
61.34000 139.254
61.35000 141.334
61.36000 140.590
61.37000 137.863
61.38000 135.237
61.39000 135.798
61.40000 137.883
61.41000 139.853
61.42000 140.206
61.43000 140.034
61.44000 139.879
61.45000 141.108
61.46000 142.456
61.47000 143.445
61.48000 142.634
61.49000 141.576
61.50000 142.793
61.51000 151.557
61.52000 160.921
61.53000 167.474
61.54000 180.906
61.55000 191.256
61.56000 200.046
61.57000 206.473
61.58000 212.876
61.59000 221.521
61.60000 232.382
61.61000 243.167
61.62000 252.725
61.63000 261.355
61.64000 270.030
61.65000 279.861
61.66000 290.195
61.67000 299.609
61.68000 297.848
61.69000 292.793
61.70000 288.272
61.71000 284.322
61.72000 280.975
61.73000 278.357
61.74000 279.032
61.75000 280.109
61.76000 278.805
61.77000 270.311
61.78000 261.328
61.79000 255.237
61.80000 231.685
61.81000 213.735
61.82000 200.389
61.83000 193.364
61.84000 186.375
61.85000 177.736
61.86000 167.634
61.87000 157.638
61.88000 155.768
61.89000 158.599
61.90000 161.217
61.91000 159.457
61.92000 155.959
61.93000 152.681
61.94000 151.721
61.95000 151.382
61.96000 151.083
61.97000 150.043
61.98000 149.034
61.99000 147.542
62.00000 144.067
62.01000 140.380
62.02000 136.882
62.03000 133.902
62.04000 130.952
62.05000 129.017
62.06000 134.303
62.07000 138.310
62.08000 140.659
62.09000 140.950
62.10000 141.237
62.11000 142.138
62.12000 143.530
62.13000 144.901
62.14000 144.275
62.15000 142.635
62.16000 141.081
62.17000 141.008
62.18000 141.471
62.19000 141.884
62.20000 141.845
62.21000 141.697
62.22000 141.568
62.23000 139.458
62.24000 137.396
62.25000 135.802
62.26000 135.944
62.27000 136.249
62.28000 137.834
62.29000 142.622
62.30000 147.563
62.31000 150.688
62.32000 143.684
62.33000 138.485
62.34000 135.156
62.35000 133.919
62.36000 132.705
62.37000 134.996
62.38000 139.821
62.39000 144.550
62.40000 143.927
62.41000 140.827
62.42000 137.874
62.43000 137.042
62.44000 136.908
62.45000 136.906
62.46000 137.973
62.47000 139.276
62.48000 140.387
62.49000 141.154
62.50000 141.759
62.51000 143.374
62.52000 148.391
62.53000 153.685
62.54000 155.500
62.55000 149.378
62.56000 142.947
62.57000 139.033
62.58000 135.004
62.59000 132.126
62.60000 133.371
62.61000 138.759
62.62000 144.114
62.63000 146.237
62.64000 146.243
62.65000 146.248
62.66000 146.132
62.67000 145.969
62.68000 145.564
62.69000 142.134
62.70000 137.799
62.71000 134.236
62.72000 136.247
62.73000 139.362
62.74000 141.973
62.75000 140.384
62.76000 138.628
62.77000 137.617
62.78000 138.884
62.79000 140.310
62.80000 140.485
62.81000 138.057
62.82000 135.550
62.83000 134.085
62.84000 137.429
62.85000 139.803
62.86000 140.405
62.87000 139.409
62.88000 138.423
62.89000 138.061
62.90000 138.071
62.91000 138.081
62.92000 141.483
62.93000 145.988
62.94000 149.958
62.95000 148.158
62.96000 144.789
62.97000 142.051
62.98000 143.375
62.99000 145.422
63.00000 147.105
63.01000 147.001
63.02000 146.754
63.03000 145.902
63.04000 143.363
63.05000 140.724
63.06000 140.118
63.07000 143.359
63.08000 146.692
63.09000 148.553
63.10000 146.933
63.11000 145.802
63.12000 144.515
63.13000 143.100
63.14000 141.766
63.15000 144.106
63.16000 148.434
63.17000 152.589
63.18000 152.583
63.19000 151.149
63.20000 149.467
63.21000 145.452
63.22000 140.862
63.23000 137.437
63.24000 140.721
63.25000 145.077
63.26000 148.585
63.27000 146.007
63.28000 143.441
63.29000 142.422
63.30000 145.333
63.31000 148.437
63.32000 150.627
63.33000 151.243
63.34000 151.832
63.35000 152.146
63.36000 148.590
63.37000 146.162
63.38000 142.939
63.39000 139.132
63.40000 135.497
63.41000 137.819
63.42000 143.077
63.43000 148.082
63.44000 147.019
63.45000 144.156
63.46000 141.671
63.47000 142.319
63.48000 143.667
63.49000 145.127
63.50000 147.165
63.51000 149.286
63.52000 150.956
63.53000 152.571
63.54000 153.863
63.55000 155.187
63.56000 156.587
63.57000 157.990
63.58000 158.847
63.59000 158.850
63.60000 158.843
63.61000 158.840
63.62000 148.838
63.63000 142.175
63.64000 138.502
63.65000 136.820
63.66000 135.304
63.67000 138.278
63.68000 143.269
63.69000 147.976
63.70000 146.508
63.71000 143.442
63.72000 140.942
63.73000 142.601
63.74000 145.098
63.75000 146.987
63.76000 146.034
63.77000 144.721
63.78000 143.711
63.79000 145.451
63.80000 146.983
63.81000 147.998
63.82000 147.922
63.83000 147.811
63.84000 148.562
63.85000 150.534
63.86000 152.515
63.87000 154.886
63.88000 157.614
63.89000 160.286
63.90000 159.219
63.91000 155.890
63.92000 152.646
63.93000 151.246
63.94000 150.601
63.95000 149.999
63.96000 149.899
63.97000 149.934
63.98000 149.888
63.99000 149.306
64.00000 148.627
64.01000 148.383
64.02000 149.978
64.03000 151.779
64.04000 153.130
64.05000 155.728
64.06000 157.816
64.07000 161.295
64.08000 167.444
64.09000 173.659
64.10000 173.615
64.11000 165.541
64.12000 157.447
64.13000 156.168
64.14000 160.508
64.15000 164.763
64.16000 164.948
64.17000 162.894
64.18000 160.861
64.19000 159.188
64.20000 157.649
64.21000 156.229
64.22000 159.176
64.23000 162.801
64.24000 165.866
64.25000 165.651
64.26000 164.902
64.27000 163.841
64.28000 161.585
64.29000 159.212
64.30000 157.479
64.31000 159.957
64.32000 162.034
64.33000 162.790
64.34000 161.242
64.35000 159.651
64.36000 159.667
64.37000 161.542
64.38000 163.414
64.39000 165.014
64.40000 166.402
64.41000 167.767
64.42000 168.292
64.43000 168.398
64.44000 168.362
64.45000 166.158
64.46000 163.219
64.47000 160.537
64.48000 164.244
64.49000 168.817
64.50000 172.056
64.51000 168.273
64.52000 163.468
64.53000 159.902
64.54000 160.637
64.55000 161.740
64.56000 162.523
64.57000 166.949
64.58000 170.433
64.59000 172.483
64.60000 172.258
64.61000 172.004
64.62000 172.994
64.63000 175.280
64.64000 177.554
64.65000 177.985
64.66000 177.179
64.67000 176.467
64.68000 178.424
64.69000 181.596
64.70000 184.481
64.71000 183.610
64.72000 181.579
64.73000 179.751
64.74000 175.362
64.75000 171.054
64.76000 167.936
64.77000 170.471
64.78000 173.737
64.79000 175.848
64.80000 174.311
64.81000 172.507
64.82000 171.264
64.83000 176.105
64.84000 179.892
64.85000 182.098
64.86000 182.027
64.87000 181.937
64.88000 181.553
64.89000 180.893
64.90000 180.239
64.91000 180.890
64.92000 182.315
64.93000 183.775
64.94000 186.035
64.95000 188.628
64.96000 191.329
64.97000 195.256
64.98000 199.527
64.99000 203.318
65.00000 201.422
65.01000 198.868
65.02000 196.095
65.03000 192.376
65.04000 188.548
65.05000 188.258
65.06000 198.137
65.07000 208.651
65.08000 215.661
65.09000 215.834
65.10000 215.830
65.11000 214.560
65.12000 211.640
65.13000 208.719
65.14000 209.307
65.15000 212.845
65.16000 216.337
65.17000 218.214
65.18000 219.163
65.19000 220.250
65.20000 223.901
65.21000 228.523
65.22000 232.910
65.23000 234.987
65.24000 236.477
65.25000 237.779
65.26000 240.220
65.27000 242.473
65.28000 245.476
65.29000 251.397
65.30000 257.611
65.31000 260.993
65.32000 256.957
65.33000 252.532
65.34000 249.683
65.35000 259.964
65.36000 267.655
65.37000 269.207
65.38000 263.534
65.39000 257.896
65.40000 262.293
65.41000 274.310
65.42000 286.118
65.43000 293.933
65.44000 299.525
65.45000 304.530
65.46000 300.315
65.47000 292.923
65.48000 286.668
65.49000 290.219
65.50000 296.033
65.51000 301.034
65.52000 308.051
65.53000 314.244
65.54000 318.863
65.55000 317.922
65.56000 316.495
65.57000 319.057
65.58000 331.133
65.59000 343.619
65.60000 351.366
65.61000 359.406
65.62000 365.194
65.63000 373.188
65.64000 383.519
65.65000 393.907
65.66000 411.100
65.67000 432.971
65.68000 454.342
65.69000 483.330
65.70000 514.472
65.71000 546.745
65.72000 594.158
65.73000 646.317
65.74000 700.407
65.75000 769.251
65.76000 841.170
65.77000 901.962
65.78000 969.180
65.79000 1026.115
65.80000 1075.720
65.81000 1101.812
65.82000 1126.133
65.83000 1147.231
65.84000 1161.325
65.85000 1175.176
65.86000 1183.433
65.87000 1196.044
65.88000 1205.007
65.89000 1205.166
65.90000 1196.959
65.91000 1188.494
65.92000 1160.533
65.93000 1120.414
65.94000 1081.462
65.95000 1036.855
65.96000 992.256
65.97000 944.696
65.98000 862.956
65.99000 771.475
66.00000 685.105
66.01000 633.472
66.02000 588.364
66.03000 550.940
66.04000 502.919
66.05000 462.213
66.06000 426.358
66.07000 404.664
66.08000 383.879
66.09000 365.600
66.10000 352.280
66.11000 339.095
66.12000 331.565
66.13000 325.721
66.14000 321.657
66.15000 322.562
66.16000 327.716
66.17000 332.696
66.18000 328.510
66.19000 319.129
66.20000 310.087
66.21000 310.883
66.22000 315.182
66.23000 319.737
66.24000 326.855
66.25000 334.635
66.26000 343.602
66.27000 359.771
66.28000 377.155
66.29000 391.292
66.30000 402.745
66.31000 411.869
66.32000 419.480
66.33000 423.070
66.34000 426.443
66.35000 433.391
66.36000 446.783
66.37000 460.306
66.38000 467.680
66.39000 467.155
66.40000 466.787
66.41000 467.153
66.42000 468.086
66.43000 468.928
66.44000 466.208
66.45000 461.650
66.46000 457.291
66.47000 459.427
66.48000 463.529
66.49000 466.463
66.50000 459.105
66.51000 449.334
66.52000 439.134
66.53000 426.599
66.54000 413.711
66.55000 403.451
66.56000 387.627
66.57000 374.468
66.58000 362.948
66.59000 355.396
66.60000 348.021
66.61000 343.704
66.62000 344.398
66.63000 345.164
66.64000 345.561
66.65000 334.636
66.66000 327.294
66.67000 324.481
66.68000 324.831
66.69000 325.158
66.70000 324.782
66.71000 324.075
66.72000 323.405
66.73000 324.180
66.74000 325.317
66.75000 326.325
66.76000 326.332
66.77000 326.126
66.78000 326.734
66.79000 331.337
66.80000 336.478
66.81000 340.478
66.82000 338.519
66.83000 336.593
66.84000 335.703
66.85000 337.098
66.86000 338.575
66.87000 339.834
66.88000 340.770
66.89000 341.704
66.90000 342.851
66.91000 344.205
66.92000 345.546
66.93000 345.817
66.94000 345.411
66.95000 345.077
66.96000 346.523
66.97000 348.731
66.98000 350.802
66.99000 353.768
67.00000 356.708
67.01000 359.496
67.02000 361.233
67.03000 362.769
67.04000 364.814
67.05000 369.109
67.06000 373.672
67.07000 377.138
67.08000 369.795
67.09000 363.463
67.10000 361.313
67.11000 367.567
67.12000 374.059
67.13000 379.105
67.14000 382.201
67.15000 385.285
67.16000 384.031
67.17000 379.016
67.18000 374.034
67.19000 370.943
67.20000 368.940
67.21000 367.231
67.22000 371.368
67.23000 377.784
67.24000 383.740
67.25000 385.988
67.26000 387.135
67.27000 388.292
67.28000 389.500
67.29000 390.718
67.30000 393.053
67.31000 399.873
67.32000 407.163
67.33000 412.558
67.34000 423.584
67.35000 432.383
67.36000 435.041
67.37000 426.467
67.38000 417.653
67.39000 415.607
67.40000 421.799
67.41000 427.997
67.42000 427.536
67.43000 421.881
67.44000 416.426
67.45000 419.151
67.46000 426.160
67.47000 432.714
67.48000 431.698
67.49000 427.994
67.50000 424.595
67.51000 439.049
67.52000 455.729
67.53000 469.121
67.54000 464.283
67.55000 456.642
67.56000 451.011
67.57000 452.700
67.58000 455.058
67.59000 456.756
67.60000 457.491
67.61000 458.020
67.62000 458.821
67.63000 460.077
67.64000 461.339
67.65000 463.383
67.66000 466.284
67.67000 469.173
67.68000 467.104
67.69000 461.572
67.70000 456.340
67.71000 460.602
67.72000 469.390
67.73000 477.951
67.74000 483.306
67.75000 487.625
67.76000 491.539
67.77000 490.535
67.78000 488.716
67.79000 488.649
67.80000 497.329
67.81000 507.208
67.82000 514.471
67.83000 513.083
67.84000 511.011
67.85000 509.562
67.86000 523.586
67.87000 534.619
67.88000 541.423
67.89000 541.840
67.90000 542.192
67.91000 540.521
67.92000 536.859
67.93000 533.222
67.94000 527.832
67.95000 521.415
67.96000 515.629
67.97000 525.698
67.98000 542.653
67.99000 558.409
68.00000 559.658
68.01000 556.644
68.02000 553.950
68.03000 550.673
68.04000 547.718
68.05000 547.481
68.06000 559.492
68.07000 572.990
68.08000 583.964
68.09000 587.341
68.10000 590.203
68.11000 592.143
68.12000 588.600
68.13000 585.839
68.14000 586.060
68.15000 590.363
68.16000 594.690
68.17000 599.984
68.18000 606.131
68.19000 612.213
68.20000 612.867
68.21000 610.405
68.22000 608.388
68.23000 615.510
68.24000 626.247
68.25000 635.650
68.26000 631.036
68.27000 622.680
68.28000 615.319
68.29000 626.745
68.30000 639.417
68.31000 652.474
68.32000 667.105
68.33000 681.904
68.34000 693.732
68.35000 697.419
68.36000 700.640
68.37000 702.750
68.38000 709.784
68.39000 715.035
68.40000 722.248
68.41000 731.889
68.42000 741.523
68.43000 746.786
68.44000 748.564
68.45000 750.315
68.46000 761.022
68.47000 776.027
68.48000 790.838
68.49000 802.336
68.50000 812.641
68.51000 822.751
68.52000 831.079
68.53000 838.975
68.54000 845.821
68.55000 869.491
68.56000 891.887
68.57000 914.594
68.58000 938.450
68.59000 962.414
68.60000 990.523
68.61000 1028.979
68.62000 1067.927
68.63000 1092.538
68.64000 1150.946
68.65000 1193.666
68.66000 1246.352
68.67000 1310.151
68.68000 1373.924
68.69000 1432.367
68.70000 1486.967
68.71000 1540.469
68.72000 1605.819
68.73000 1674.200
68.74000 1741.389
68.75000 1791.347
68.76000 1835.650
68.77000 1883.441
68.78000 1959.496
68.79000 2041.740
68.80000 2111.862
68.81000 2196.785
68.82000 2269.975
68.83000 2350.240
68.84000 2454.271
68.85000 2560.229
68.86000 2697.229
68.87000 2904.822
68.88000 3115.144
68.89000 3243.020
68.90000 3836.475
68.91000 4263.830
68.92000 5130.629
68.93000 6437.573
68.94000 7755.181
68.95000 10062.891
68.96000 13017.757
68.97000 15895.875
68.98000 20204.449
68.99000 24913.576
69.00000 29638.244
69.01000 34555.480
69.02000 39530.195
69.03000 44349.004
69.04000 48047.164
69.05000 51523.859
69.06000 54434.977
69.07000 56382.266
69.08000 57901.758
69.09000 59135.613
69.10000 59496.699
69.11000 59797.133
69.12000 60097.613
69.13000 60398.199
69.14000 60698.789
69.15000 60874.133
69.16000 62062.887
69.17000 62903.063
69.18000 63178.484
69.19000 62945.992
69.20000 62690.430
69.21000 60997.109
69.22000 58450.344
69.23000 55986.605
69.24000 52625.828
69.25000 49111.320
69.26000 45650.316
69.27000 42763.719
69.28000 40032.879
69.29000 37427.117
69.30000 35623.055
69.31000 33961.531
69.32000 32596.920
69.33000 31714.787
69.34000 31033.656
69.35000 30324.801
69.36000 29538.818
69.37000 28748.299
69.38000 27675.375
69.39000 26069.818
69.40000 24451.756
69.41000 23549.016
69.42000 19998.859
69.43000 17536.219
69.44000 15156.596
69.45000 12844.263
69.46000 10543.356
69.47000 8756.959
69.48000 7248.311
69.49000 5799.982
69.50000 4773.967
69.51000 3958.940
69.52000 3182.728
69.53000 2770.802
69.54000 2448.469
69.55000 2149.197
69.56000 1982.325
69.57000 1836.554
69.58000 1719.277
69.59000 1637.656
69.60000 1574.216
69.61000 1512.023
69.62000 1452.987
69.63000 1394.106
69.64000 1340.607
69.65000 1296.341
69.66000 1252.234
69.67000 1228.780
69.68000 1159.135
69.69000 1111.795
69.70000 1080.727
69.71000 1061.583
69.72000 1042.200
69.73000 1014.670
69.74000 983.135
69.75000 953.118
69.76000 940.950
69.77000 935.191
69.78000 927.817
69.79000 907.091
69.80000 883.393
69.81000 861.284
69.82000 847.383
69.83000 834.648
69.84000 824.626
69.85000 801.601
69.86000 782.292
69.87000 767.604
69.88000 763.586
69.89000 759.996
69.90000 755.207
69.91000 748.551
69.92000 741.874
69.93000 738.503
69.94000 721.968
69.95000 710.996
69.96000 708.685
69.97000 712.125
69.98000 715.100
69.99000 705.502
70.00000 690.278
