20.00000 566.304
20.01000 566.555
20.02000 566.842
20.03000 566.120
20.04000 561.454
20.05000 556.391
20.06000 552.671
20.07000 542.855
20.08000 535.015
20.09000 532.574
20.10000 539.755
20.11000 547.125
20.12000 548.800
20.13000 543.735
20.14000 538.671
20.15000 540.429
20.16000 547.348
20.17000 554.282
20.18000 561.797
20.19000 569.608
20.20000 576.939
20.21000 576.644
20.22000 573.709
20.23000 571.025
20.24000 561.075
20.25000 550.733
20.26000 542.487
20.27000 545.529
20.28000 550.254
20.29000 552.292
20.30000 544.798
20.31000 536.466
20.32000 530.514
20.33000 545.593
20.34000 557.798
20.35000 561.913
20.36000 552.914
20.37000 543.734
20.38000 542.362
20.39000 549.306
20.40000 556.218
20.41000 562.552
20.42000 568.417
20.43000 573.930
20.44000 568.999
20.45000 559.214
20.46000 550.156
20.47000 550.916
20.48000 554.768
20.49000 558.247
20.50000 551.131
20.51000 542.926
20.52000 536.327
20.53000 537.522
20.54000 539.752
20.55000 543.334
20.56000 551.277
20.57000 559.551
20.58000 565.287
20.59000 565.904
20.60000 566.232
20.61000 565.882
20.62000 564.532
20.63000 563.174
20.64000 561.304
20.65000 558.945
20.66000 556.604
20.67000 558.074
20.68000 561.863
20.69000 565.306
20.70000 560.518
20.71000 552.245
20.72000 544.386
20.73000 541.333
20.74000 539.658
20.75000 538.166
20.76000 536.237
20.77000 534.489
20.78000 533.240
20.79000 534.180
20.80000 535.377
20.81000 538.596
20.82000 547.749
20.83000 557.285
20.84000 563.689
20.85000 557.826
20.86000 553.222
20.87000 552.082
20.88000 555.556
20.89000 559.046
20.90000 558.327
20.91000 553.988
20.92000 549.701
20.93000 545.557
20.94000 541.595
20.95000 537.848
20.96000 538.291
20.97000 540.352
20.98000 542.613
20.99000 546.914
21.00000 551.744
21.01000 555.981
21.02000 549.200
21.03000 541.770
21.04000 535.361
21.05000 532.997
21.06000 531.051
21.07000 529.412
21.08000 528.591
21.09000 527.815
21.10000 527.311
21.11000 536.936
21.12000 544.136
21.13000 545.794
21.14000 540.782
21.15000 535.765
21.16000 532.837
21.17000 531.529
21.18000 530.243
21.19000 528.601
21.20000 526.834
21.21000 525.413
21.22000 529.652
21.23000 535.880
21.24000 541.441
21.25000 541.091
21.26000 539.348
21.27000 537.844
21.28000 538.862
21.29000 540.051
21.30000 539.572
21.31000 533.087
21.32000 526.061
21.33000 522.389
21.34000 526.882
21.35000 531.743
21.36000 534.783
21.37000 545.381
21.38000 553.110
21.39000 551.632
21.40000 540.179
21.41000 528.791
21.42000 526.779
21.43000 531.347
21.44000 535.817
21.45000 538.830
21.46000 541.063
21.47000 543.721
21.48000 552.270
21.49000 562.704
21.50000 570.465
21.51000 557.280
21.52000 539.633
21.53000 524.659
21.54000 532.908
21.55000 542.459
21.56000 550.597
21.57000 554.110
21.58000 557.262
21.59000 555.900
21.60000 544.527
21.61000 532.790
21.62000 525.732
21.63000 530.203
21.64000 533.461
21.65000 532.408
21.66000 527.164
21.67000 522.027
21.68000 525.639
21.69000 534.822
21.70000 543.751
21.71000 551.898
21.72000 559.326
21.73000 566.392
21.74000 569.139
21.75000 570.630
21.76000 572.686
21.77000 578.681
21.78000 585.431
21.79000 591.055
21.80000 589.146
21.81000 586.817
21.82000 586.079
21.83000 590.079
21.84000 594.394
21.85000 598.017
21.86000 600.245
21.87000 602.432
21.88000 603.693
21.89000 597.207
21.90000 592.650
21.91000 601.871
21.92000 623.131
21.93000 644.082
21.94000 647.495
21.95000 640.764
21.96000 634.266
21.97000 633.049
21.98000 633.851
21.99000 634.783
22.00000 637.067
22.01000 639.708
22.02000 643.287
22.03000 652.705
22.04000 663.131
22.05000 671.647
22.06000 675.168
22.07000 677.618
22.08000 678.826
22.09000 676.663
22.10000 674.311
22.11000 672.260
22.12000 670.760
22.13000 669.272
22.14000 668.453
22.15000 669.028
22.16000 669.414
22.17000 665.995
22.18000 659.577
22.19000 653.260
22.20000 651.145
22.21000 651.241
22.22000 651.332
22.23000 654.665
22.24000 658.851
22.25000 661.131
22.26000 646.133
22.27000 626.999
22.28000 610.633
22.29000 609.703
22.30000 611.159
22.31000 612.323
22.32000 614.586
22.33000 616.498
22.34000 618.652
22.35000 621.407
22.36000 624.190
22.37000 617.944
22.38000 596.607
22.39000 575.035
22.40000 563.720
22.41000 575.631
22.42000 583.667
22.43000 585.357
22.44000 582.521
22.45000 579.557
22.46000 572.474
22.47000 563.418
22.48000 554.819
22.49000 554.085
22.50000 555.766
22.51000 557.380
22.52000 558.452
22.53000 559.408
22.54000 560.476
22.55000 562.106
22.56000 563.814
22.57000 565.149
22.58000 559.511
22.59000 554.566
22.60000 551.038
22.61000 550.697
22.62000 550.477
22.63000 549.040
22.64000 545.756
22.65000 542.453
22.66000 538.403
22.67000 533.612
22.68000 528.864
22.69000 527.976
22.70000 529.583
22.71000 531.085
22.72000 529.922
22.73000 527.596
22.74000 525.409
22.75000 522.355
22.76000 519.331
22.77000 515.993
22.78000 510.425
22.79000 504.422
22.80000 500.601
22.81000 506.663
22.82000 513.932
22.83000 519.482
22.84000 520.376
22.85000 520.829
22.86000 518.569
22.87000 510.745
22.88000 502.755
22.89000 499.562
22.90000 502.968
22.91000 506.412
22.92000 509.520
22.93000 512.325
22.94000 515.023
22.95000 511.387
22.96000 504.029
22.97000 497.085
22.98000 498.715
22.99000 503.755
23.00000 508.445
23.01000 514.487
23.02000 520.275
23.03000 524.718
23.04000 520.647
23.05000 515.081
23.06000 508.999
23.07000 500.801
23.08000 492.375
23.09000 486.104
23.10000 491.869
23.11000 496.895
23.12000 500.072
23.13000 499.797
23.14000 499.443
23.15000 500.567
23.16000 503.529
23.17000 506.491
23.18000 507.384
23.19000 506.623
23.20000 505.835
23.21000 503.912
23.22000 501.382
23.23000 499.199
23.24000 502.993
23.25000 508.952
23.26000 514.435
23.27000 513.726
23.28000 511.747
23.29000 508.297
23.30000 496.507
23.31000 483.403
23.32000 473.956
23.33000 478.095
23.34000 483.514
23.35000 487.439
23.36000 490.071
23.37000 492.044
23.38000 492.502
23.39000 490.387
23.40000 488.231
23.41000 487.119
23.42000 487.179
23.43000 487.239
23.44000 490.952
23.45000 497.256
23.46000 503.503
23.47000 507.871
23.48000 511.325
23.49000 514.394
23.50000 511.862
23.51000 507.482
23.52000 503.502
23.53000 497.577
23.54000 491.962
23.55000 487.801
23.56000 491.059
23.57000 495.359
23.58000 497.542
23.59000 492.579
23.60000 487.032
23.61000 483.130
23.62000 499.909
23.63000 513.239
23.64000 516.159
23.65000 503.031
23.66000 489.724
23.67000 488.303
23.68000 498.854
23.69000 509.338
23.70000 508.101
23.71000 499.292
23.72000 490.747
23.73000 489.146
23.74000 490.620
23.75000 491.890
23.76000 490.607
23.77000 488.558
23.78000 486.721
23.79000 486.925
23.80000 487.458
23.81000 488.516
23.82000 491.994
23.83000 495.774
23.84000 499.039
23.85000 500.723
23.86000 502.297
23.87000 503.371
23.88000 489.467
23.89000 478.724
23.90000 475.257
23.91000 481.963
23.92000 488.733
23.93000 490.350
23.94000 487.305
23.95000 484.290
23.96000 480.578
23.97000 476.537
23.98000 472.825
23.99000 476.147
24.00000 482.308
24.01000 488.026
24.02000 488.960
24.03000 488.591
24.04000 488.264
24.05000 492.855
24.06000 497.579
24.07000 499.837
24.08000 491.828
24.09000 482.689
24.10000 476.023
24.11000 476.268
24.12000 476.922
24.13000 477.354
24.14000 482.347
24.15000 486.108
24.16000 488.120
24.17000 487.918
24.18000 487.702
24.19000 485.140
24.20000 480.665
24.21000 476.253
24.22000 477.917
24.23000 482.736
24.24000 487.123
24.25000 483.855
24.26000 477.773
24.27000 472.612
24.28000 476.158
24.29000 481.857
24.30000 486.815
24.31000 481.294
24.32000 475.148
24.33000 468.653
24.34000 460.843
24.35000 452.906
24.36000 451.952
24.37000 468.774
24.38000 486.477
24.39000 497.751
24.40000 496.487
24.41000 495.409
24.42000 494.698
24.43000 494.406
24.44000 494.105
24.45000 491.965
24.46000 488.472
24.47000 485.045
24.48000 483.018
24.49000 481.730
24.50000 479.977
24.51000 471.273
24.52000 460.242
24.53000 450.819
24.54000 454.777
24.55000 461.729
24.56000 467.678
24.57000 468.367
24.58000 468.313
24.59000 467.798
24.60000 465.706
24.61000 463.481
24.62000 464.743
24.63000 474.094
24.64000 483.773
24.65000 489.707
24.66000 477.319
24.67000 468.288
24.68000 461.469
24.69000 456.918
24.70000 452.398
24.71000 451.080
24.72000 451.898
24.73000 452.696
24.74000 458.801
24.75000 466.911
24.76000 474.825
24.77000 480.215
24.78000 484.835
24.79000 488.997
24.80000 489.776
24.81000 489.872
24.82000 489.952
24.83000 483.530
24.84000 477.489
24.85000 473.829
24.86000 477.594
24.87000 481.894
24.88000 482.712
24.89000 476.176
24.90000 469.403
24.91000 465.416
24.92000 461.292
24.93000 458.383
24.94000 459.495
24.95000 464.305
24.96000 469.017
24.97000 467.113
24.98000 461.202
24.99000 455.474
25.00000 454.966
25.01000 456.510
25.02000 458.563
25.03000 466.244
25.04000 475.484
25.05000 482.973
25.06000 478.978
25.07000 472.893
25.08000 467.874
25.09000 467.694
25.10000 467.992
25.11000 467.534
25.12000 464.934
25.13000 462.203
25.14000 459.536
25.15000 456.994
25.16000 454.455
25.17000 453.025
25.18000 452.879
25.19000 452.791
25.20000 457.760
25.21000 466.917
25.22000 475.887
25.23000 475.898
25.24000 470.974
25.25000 466.239
25.26000 471.030
25.27000 478.854
25.28000 485.083
25.29000 475.913
25.30000 462.877
25.31000 451.831
25.32000 452.484
25.33000 455.045
25.34000 457.114
25.35000 459.448
25.36000 461.366
25.37000 462.410
25.38000 461.191
25.39000 459.857
25.40000 459.051
25.41000 459.170
25.42000 459.305
25.43000 459.378
25.44000 457.464
25.45000 456.145
25.46000 453.178
25.47000 448.975
25.48000 444.888
25.49000 444.943
25.50000 447.076
25.51000 449.110
25.52000 455.442
25.53000 462.673
25.54000 469.392
25.55000 471.771
25.56000 473.162
25.57000 473.943
25.58000 471.496
25.59000 468.578
25.60000 466.271
25.61000 467.011
25.62000 467.815
25.63000 467.532
25.64000 464.693
25.65000 461.746
25.66000 455.795
25.67000 445.067
25.68000 434.278
25.69000 428.769
25.70000 443.286
25.71000 452.956
25.72000 453.992
25.73000 449.174
25.74000 444.632
25.75000 447.896
25.76000 454.723
25.77000 461.174
25.78000 459.697
25.79000 456.088
25.80000 452.726
25.81000 451.209
25.82000 450.072
25.83000 449.753
25.84000 453.326
25.85000 457.404
25.86000 460.554
25.87000 471.656
25.88000 480.926
25.89000 483.202
25.90000 470.477
25.91000 457.249
25.92000 453.164
25.93000 462.275
25.94000 471.492
25.95000 475.061
25.96000 473.344
25.97000 471.605
25.98000 468.278
25.99000 463.974
26.00000 459.853
26.01000 459.901
26.02000 461.683
26.03000 463.350
26.04000 457.150
26.05000 449.509
26.06000 443.267
26.07000 446.383
26.08000 451.231
26.09000 454.806
26.10000 452.910
26.11000 450.387
26.12000 448.486
26.13000 446.233
26.14000 444.452
26.15000 445.112
26.16000 450.541
26.17000 456.095
26.18000 460.129
26.19000 462.177
26.20000 464.215
26.21000 461.577
26.22000 455.015
26.23000 448.534
26.24000 446.081
26.25000 445.881
26.26000 445.684
26.27000 445.538
26.28000 445.411
26.29000 445.293
26.30000 446.825
26.31000 448.579
26.32000 449.199
26.33000 443.031
26.34000 435.736
26.35000 430.991
26.36000 436.179
26.37000 442.366
26.38000 446.908
26.39000 438.023
26.40000 430.610
26.41000 428.584
26.42000 436.135
26.43000 443.871
26.44000 448.221
26.45000 448.576
26.46000 448.923
26.47000 445.130
26.48000 438.233
26.49000 431.565
26.50000 433.505
26.51000 439.826
26.52000 446.002
26.53000 449.865
26.54000 452.932
26.55000 455.735
26.56000 450.971
26.57000 445.183
26.58000 439.931
26.59000 437.556
26.60000 435.608
26.61000 434.422
26.62000 435.930
26.63000 437.673
26.64000 438.917
26.65000 443.122
26.66000 446.428
26.67000 446.524
26.68000 441.434
26.69000 436.273
26.70000 435.033
26.71000 437.955
26.72000 440.864
26.73000 438.421
26.74000 432.364
26.75000 426.590
26.76000 429.104
26.77000 435.461
26.78000 441.586
26.79000 444.593
26.80000 446.621
26.81000 448.451
26.82000 444.462
26.83000 439.889
26.84000 436.905
26.85000 441.608
26.86000 447.328
26.87000 449.639
26.88000 440.998
26.89000 431.528
26.90000 424.969
26.91000 433.595
26.92000 440.485
26.93000 445.654
26.94000 448.301
26.95000 450.924
26.96000 447.377
26.97000 437.953
26.98000 428.604
26.99000 424.097
27.00000 422.641
27.01000 421.707
27.02000 433.085
27.03000 449.661
27.04000 464.428
27.05000 458.243
27.06000 446.075
27.07000 435.245
27.08000 435.936
27.09000 438.421
27.10000 441.079
27.11000 444.499
27.12000 448.008
27.13000 450.770
27.14000 451.346
27.15000 451.781
27.16000 452.073
27.17000 449.867
27.18000 448.180
27.19000 445.317
27.20000 440.893
27.21000 436.463
27.22000 433.168
27.23000 430.844
27.24000 428.547
27.25000 429.290
27.26000 431.700
27.27000 433.876
27.28000 431.539
27.29000 427.466
27.30000 423.521
27.31000 420.862
27.32000 418.537
27.33000 416.499
27.34000 419.851
27.35000 423.512
27.36000 427.271
27.37000 431.421
27.38000 435.610
27.39000 438.128
27.40000 436.192
27.41000 434.016
27.42000 432.605
27.43000 418.261
27.44000 407.569
27.45000 406.716
27.46000 417.665
27.47000 428.581
27.48000 425.486
27.49000 411.557
27.50000 397.857
27.51000 405.409
27.52000 423.344
27.53000 440.208
27.54000 439.707
27.55000 433.122
27.56000 427.718
27.57000 432.764
27.58000 440.264
27.59000 446.735
27.60000 439.212
27.61000 431.033
27.62000 423.863
27.63000 420.317
27.64000 417.097
27.65000 415.452
27.66000 417.630
27.67000 419.979
27.68000 421.446
27.69000 432.176
27.70000 440.014
27.71000 438.613
27.72000 427.232
27.73000 415.880
27.74000 408.873
27.75000 404.907
27.76000 401.027
27.77000 407.270
27.78000 417.829
27.79000 428.155
27.80000 435.279
27.81000 441.381
27.82000 445.739
27.83000 436.467
27.84000 424.302
27.85000 413.985
27.86000 420.662
27.87000 428.178
27.88000 434.852
27.89000 438.778
27.90000 442.491
27.91000 441.533
27.92000 430.250
27.93000 418.594
27.94000 411.593
27.95000 416.624
27.96000 420.281
27.97000 422.823
27.98000 424.284
27.99000 425.788
28.00000 430.790
28.01000 438.012
28.02000 445.033
28.03000 445.258
28.04000 442.701
28.05000 439.492
28.06000 428.543
28.07000 415.349
28.08000 404.985
28.09000 414.260
28.10000 427.296
28.11000 438.149
28.12000 429.705
28.13000 420.805
28.14000 414.332
28.15000 415.066
28.16000 416.277
28.17000 417.297
28.18000 417.931
28.19000 418.554
28.20000 418.913
28.21000 418.690
28.22000 418.533
28.23000 419.511
28.24000 421.478
28.25000 423.443
28.26000 425.316
28.27000 427.136
28.28000 428.892
28.29000 422.811
28.30000 414.203
28.31000 406.245
28.32000 404.993
28.33000 405.506
28.34000 406.489
28.35000 410.383
28.36000 414.777
28.37000 418.365
28.38000 421.810
28.39000 424.616
28.40000 426.711
28.41000 426.883
28.42000 426.948
28.43000 423.282
28.44000 412.777
28.45000 402.125
28.46000 396.266
28.47000 399.409
28.48000 401.600
28.49000 407.148
28.50000 415.335
28.51000 423.284
28.52000 421.423
28.53000 414.416
28.54000 407.706
28.55000 406.655
28.56000 407.554
28.57000 408.487
28.58000 409.736
28.59000 411.061
28.60000 412.383
28.61000 413.693
28.62000 415.001
28.63000 416.046
28.64000 416.509
28.65000 416.840
28.66000 417.958
28.67000 421.017
28.68000 424.165
28.69000 422.794
28.70000 413.892
28.71000 404.874
28.72000 400.152
28.73000 398.121
28.74000 396.779
28.75000 400.104
28.76000 406.746
28.77000 413.213
28.78000 414.082
28.79000 412.278
28.80000 410.565
28.81000 408.363
28.82000 406.185
28.83000 404.983
28.84000 411.555
28.85000 419.804
28.86000 426.257
28.87000 423.722
28.88000 419.953
28.89000 417.007
28.90000 413.528
28.91000 410.718
28.92000 410.644
28.93000 416.710
28.94000 423.006
28.95000 425.700
28.96000 422.944
28.97000 420.133
28.98000 421.225
28.99000 426.167
29.00000 431.046
29.01000 430.407
29.02000 426.209
29.03000 421.967
29.04000 416.586
29.05000 410.711
29.06000 405.187
29.07000 404.876
29.08000 405.994
29.09000 406.354
29.10000 401.355
29.11000 395.313
29.12000 390.989
29.13000 394.424
29.14000 398.803
29.15000 402.145
29.16000 404.038
29.17000 405.452
29.18000 405.503
29.19000 402.767
29.20000 399.950
29.21000 398.160
29.22000 397.779
29.23000 397.408
29.24000 397.282
29.25000 397.373
29.26000 397.523
29.27000 401.200
29.28000 406.941
29.29000 412.414
29.30000 412.339
29.31000 410.064
29.32000 407.949
29.33000 396.537
29.34000 383.983
29.35000 374.119
29.36000 381.232
29.37000 391.318
29.38000 399.193
29.39000 398.037
29.40000 395.912
29.41000 394.331
29.42000 400.183
29.43000 405.067
29.44000 409.445
29.45000 412.880
29.46000 416.294
29.47000 416.529
29.48000 412.823
29.49000 409.111
29.50000 405.056
29.51000 400.745
29.52000 396.496
29.53000 394.899
29.54000 394.715
29.55000 394.443
29.56000 392.651
29.57000 390.311
29.58000 388.158
29.59000 390.436
29.60000 393.432
29.61000 395.833
29.62000 394.875
29.63000 393.390
29.64000 393.264
29.65000 398.174
29.66000 403.557
29.67000 407.452
29.68000 406.530
29.69000 405.645
29.70000 406.215
29.71000 409.248
29.72000 412.321
29.73000 414.341
29.74000 415.184
29.75000 416.023
29.76000 412.901
29.77000 406.970
29.78000 401.382
29.79000 407.132
29.80000 418.381
29.81000 428.737
29.82000 426.138
29.83000 419.279
29.84000 413.050
29.85000 414.787
29.86000 417.867
29.87000 420.425
29.88000 420.331
29.89000 419.867
29.90000 419.529
29.91000 419.620
29.92000 419.745
29.93000 419.834
29.94000 416.861
29.95000 414.519
29.96000 412.937
29.97000 412.525
29.98000 412.127
29.99000 411.931
30.00000 411.939
30.01000 411.947
30.02000 418.262
30.03000 428.556
30.04000 438.269
30.05000 432.780
30.06000 420.575
30.07000 409.159
30.08000 407.530
30.09000 408.829
30.10000 409.993
30.11000 411.941
30.12000 413.777
30.13000 415.731
30.14000 418.227
30.15000 420.790
30.16000 423.221
30.17000 425.248
30.18000 427.246
30.19000 428.608
30.20000 419.606
30.21000 412.641
30.22000 408.085
30.23000 406.889
30.24000 405.717
30.25000 407.792
30.26000 412.795
30.27000 417.749
30.28000 414.683
30.29000 407.013
30.30000 399.510
30.31000 395.544
30.32000 393.001
30.33000 391.226
30.34000 397.718
30.35000 406.456
30.36000 414.174
30.37000 409.259
30.38000 403.072
30.39000 397.710
30.40000 395.773
30.41000 394.211
30.42000 395.748
30.43000 405.922
30.44000 416.607
30.45000 423.650
30.46000 412.303
30.47000 403.620
30.48000 398.511
30.49000 397.907
30.50000 397.329
30.51000 401.009
30.52000 408.146
30.53000 415.183
30.54000 414.514
30.55000 409.815
30.56000 405.213
30.57000 402.329
30.58000 400.076
30.59000 397.881
30.60000 396.239
30.61000 394.733
30.62000 393.424
30.63000 397.847
30.64000 402.403
30.65000 405.557
30.66000 403.432
30.67000 400.801
30.68000 402.129
30.69000 413.506
30.70000 425.379
30.71000 432.932
30.72000 425.251
30.73000 419.480
30.74000 417.770
30.75000 420.678
30.76000 423.584
30.77000 425.434
30.78000 426.508
30.79000 427.561
30.80000 427.168
30.81000 426.102
30.82000 425.597
30.83000 433.426
30.84000 444.039
30.85000 453.735
30.86000 455.845
30.87000 456.263
30.88000 456.620
30.89000 456.583
30.90000 456.504
30.91000 456.630
30.92000 457.458
30.93000 458.345
30.94000 463.591
30.95000 478.922
30.96000 494.659
30.97000 504.297
30.98000 514.754
30.99000 522.248
31.00000 530.358
31.01000 539.097
31.02000 547.931
31.03000 566.319
31.04000 591.064
31.05000 615.194
31.06000 642.535
31.07000 670.022
31.08000 697.076
31.09000 718.630
31.10000 738.514
31.11000 760.015
31.12000 793.391
31.13000 829.160
31.14000 859.211
31.15000 918.839
31.16000 971.636
31.17000 1022.982
31.18000 1069.821
31.19000 1116.337
31.20000 1168.141
31.21000 1231.087
31.22000 1294.390
31.23000 1331.605
31.24000 1397.149
31.25000 1443.517
31.26000 1496.420
31.27000 1555.317
31.28000 1614.131
31.29000 1667.482
31.30000 1717.531
31.31000 1766.013
31.32000 1804.235
31.33000 1836.432
31.34000 1868.485
31.35000 1898.956
31.36000 1928.990
31.37000 1953.779
31.38000 1944.250
31.39000 1928.498
31.40000 1915.514
31.41000 1928.779
31.42000 1942.112
31.43000 1942.187
31.44000 1904.745
31.45000 1865.026
31.46000 1821.665
31.47000 1771.313
31.48000 1720.790
31.49000 1692.365
31.50000 1637.820
31.51000 1599.867
31.52000 1551.242
31.53000 1493.802
31.54000 1436.237
31.55000 1372.759
31.56000 1306.034
31.57000 1241.883
31.58000 1187.909
31.59000 1140.888
31.60000 1092.816
31.61000 1034.628
31.62000 973.907
31.63000 916.093
31.64000 875.301
31.65000 837.277
31.66000 806.567
31.67000 773.139
31.68000 745.748
31.69000 719.056
31.70000 694.168
31.71000 669.371
31.72000 649.137
31.73000 636.868
31.74000 624.744
31.75000 618.238
31.76000 586.742
31.77000 565.246
31.78000 549.842
31.79000 538.984
31.80000 528.128
31.81000 517.395
31.82000 506.723
31.83000 496.547
31.84000 491.770
31.85000 489.035
31.86000 485.726
31.87000 477.558
31.88000 468.289
31.89000 461.005
31.90000 464.169
31.91000 468.852
31.92000 472.552
31.93000 469.335
31.94000 466.279
31.95000 460.691
31.96000 449.157
31.97000 437.376
31.98000 428.080
31.99000 422.728
32.00000 417.425
32.01000 414.722
32.02000 420.920
32.03000 424.986
32.04000 418.886
32.05000 405.914
32.06000 393.477
32.07000 396.033
32.08000 405.417
32.09000 414.282
32.10000 413.293
32.11000 409.595
32.12000 405.569
32.13000 399.080
32.14000 392.086
32.15000 387.551
32.16000 394.676
32.17000 403.308
32.18000 409.972
32.19000 395.687
32.20000 383.142
32.21000 376.774
32.22000 383.617
32.23000 390.901
32.24000 394.950
32.25000 394.343
32.26000 393.700
32.27000 387.983
32.28000 377.538
32.29000 367.238
32.30000 367.277
32.31000 373.658
32.32000 379.838
32.33000 381.456
32.34000 381.182
32.35000 380.926
32.36000 379.040
32.37000 376.912
32.38000 375.073
32.39000 375.158
32.40000 375.599
32.41000 375.566
32.42000 373.501
32.43000 371.204
32.44000 369.474
32.45000 375.004
32.46000 379.686
32.47000 383.266
32.48000 384.698
32.49000 386.075
32.50000 384.251
32.51000 378.261
32.52000 372.258
32.53000 365.654
32.54000 358.563
32.55000 351.682
32.56000 355.275
32.57000 364.711
32.58000 373.785
32.59000 376.106
32.60000 375.876
32.61000 375.662
32.62000 369.439
32.63000 362.476
32.64000 357.041
32.65000 360.711
32.66000 365.889
32.67000 368.815
32.68000 362.999
32.69000 356.307
32.70000 351.399
32.71000 346.314
32.72000 342.379
32.73000 341.350
32.74000 345.472
32.75000 349.693
32.76000 356.035
32.77000 364.872
32.78000 373.689
32.79000 374.873
32.80000 370.298
32.81000 365.888
32.82000 367.652
32.83000 372.551
32.84000 377.291
32.85000 379.557
32.86000 380.970
32.87000 382.262
32.88000 375.095
32.89000 366.997
32.90000 361.843
32.91000 372.440
32.92000 385.370
32.93000 393.843
32.94000 386.609
32.95000 378.005
32.96000 371.868
32.97000 370.566
32.98000 369.731
32.99000 365.426
33.00000 355.529
33.01000 345.557
33.02000 346.681
33.03000 359.544
33.04000 372.345
33.05000 373.211
33.06000 365.967
33.07000 358.735
33.08000 351.844
33.09000 345.110
33.10000 338.825
33.11000 338.544
33.12000 340.144
33.13000 341.587
33.14000 344.482
33.15000 347.290
33.16000 348.671
33.17000 343.170
33.18000 336.763
33.19000 333.423
33.20000 339.916
33.21000 347.149
33.22000 352.154
33.23000 351.360
33.24000 350.612
33.25000 348.771
33.26000 345.334
33.27000 341.884
33.28000 342.127
33.29000 345.875
33.30000 349.594
33.31000 350.415
33.32000 349.448
33.33000 348.275
33.34000 342.262
33.35000 334.212
33.36000 326.862
33.37000 327.596
33.38000 330.632
33.39000 333.332
33.40000 335.947
33.41000 338.203
33.42000 340.471
33.43000 342.793
33.44000 345.122
33.45000 347.538
33.46000 350.211
33.47000 352.900
33.48000 354.702
33.49000 343.447
33.50000 334.835
33.51000 331.219
33.52000 334.215
33.53000 337.240
33.54000 337.808
33.55000 336.280
33.56000 334.769
33.57000 332.557
33.58000 330.012
33.59000 327.614
33.60000 328.044
33.61000 329.559
33.62000 331.024
33.63000 331.983
33.64000 332.811
33.65000 333.538
33.66000 331.176
33.67000 328.703
33.68000 327.682
33.69000 332.391
33.70000 337.686
33.71000 342.253
33.72000 344.888
33.73000 347.419
33.74000 349.057
33.75000 338.623
33.76000 330.811
33.77000 327.949
33.78000 331.006
33.79000 334.079
33.80000 338.196
33.81000 343.116
33.82000 347.956
33.83000 345.625
33.84000 339.797
33.85000 334.306
33.86000 334.256
33.87000 336.107
33.88000 337.387
33.89000 333.628
33.90000 328.690
33.91000 324.431
33.92000 328.975
33.93000 333.954
33.94000 337.637
33.95000 336.681
33.96000 335.311
33.97000 331.719
33.98000 322.751
33.99000 313.545
34.00000 307.799
34.01000 316.418
34.02000 322.782
34.03000 325.848
34.04000 325.363
34.05000 324.873
34.06000 323.996
34.07000 322.848
34.08000 321.726
34.09000 317.371
34.10000 311.741
34.11000 306.535
34.12000 307.167
34.13000 309.655
34.14000 312.652
34.15000 319.611
34.16000 327.410
34.17000 334.019
34.18000 328.867
34.19000 323.226
34.20000 321.086
34.21000 330.342
34.22000 340.476
34.23000 344.729
34.24000 336.017
34.25000 326.839
34.26000 321.334
34.27000 314.464
34.28000 309.575
34.29000 310.506
34.30000 317.060
34.31000 323.602
34.32000 329.192
34.33000 334.180
34.34000 339.028
34.35000 336.599
34.36000 331.334
34.37000 326.328
34.38000 324.379
34.39000 323.314
34.40000 322.597
34.41000 324.277
34.42000 326.416
34.43000 328.195
34.44000 331.907
34.45000 335.169
34.46000 336.293
34.47000 331.083
34.48000 325.456
34.49000 320.085
34.50000 315.228
34.51000 310.386
34.52000 307.602
34.53000 314.713
34.54000 319.722
34.55000 322.386
34.56000 323.016
34.57000 323.595
34.58000 321.350
34.59000 317.482
34.60000 313.750
34.61000 313.674
34.62000 314.945
34.63000 316.130
34.64000 316.434
34.65000 316.508
34.66000 315.533
34.67000 308.077
34.68000 299.509
34.69000 292.520
34.70000 309.165
34.71000 324.799
34.72000 335.751
34.73000 334.079
34.74000 331.706
34.75000 327.727
34.76000 320.811
34.77000 313.833
34.78000 310.000
34.79000 310.253
34.80000 310.442
34.81000 312.953
34.82000 317.284
34.83000 321.504
34.84000 321.174
34.85000 318.463
34.86000 315.868
34.87000 315.564
34.88000 316.037
34.89000 316.087
34.90000 312.328
34.91000 307.663
34.92000 304.274
34.93000 307.946
34.94000 312.704
34.95000 316.503
34.96000 317.698
34.97000 318.470
34.98000 319.483
34.99000 321.087
35.00000 322.719
35.01000 324.770
35.02000 327.518
35.03000 330.276
35.04000 331.718
35.05000 314.512
35.06000 302.919
35.07000 299.408
35.08000 301.628
35.09000 303.948
35.10000 309.453
35.11000 316.476
35.12000 323.140
35.13000 317.518
35.14000 308.671
35.15000 301.247
35.16000 305.105
35.17000 311.392
35.18000 315.852
35.19000 311.202
35.20000 305.307
35.21000 300.702
35.22000 299.482
35.23000 298.722
35.24000 301.069
35.25000 310.369
35.26000 319.929
35.27000 321.170
35.28000 309.860
35.29000 298.424
35.30000 293.712
35.31000 295.612
35.32000 297.518
35.33000 300.045
35.34000 302.972
35.35000 305.756
35.36000 304.986
35.37000 302.674
35.38000 300.500
35.39000 303.642
35.40000 307.934
35.41000 311.183
35.42000 307.074
35.43000 301.536
35.44000 296.825
35.45000 295.834
35.46000 295.294
35.47000 294.882
35.48000 301.502
35.49000 307.090
35.50000 310.347
35.51000 308.853
35.52000 307.219
35.53000 306.783
35.54000 307.983
35.55000 309.193
35.56000 309.829
35.57000 309.959
35.58000 310.046
35.59000 307.600
35.60000 303.674
35.61000 299.883
35.62000 298.829
35.63000 298.857
35.64000 298.884
35.65000 305.244
35.66000 312.513
35.67000 318.110
35.68000 313.198
35.69000 306.451
35.70000 301.010
35.71000 300.887
35.72000 301.333
35.73000 301.664
35.74000 307.190
35.75000 311.716
35.76000 313.299
35.77000 309.417
35.78000 305.413
35.79000 305.348
35.80000 310.152
35.81000 314.962
35.82000 316.083
35.83000 314.275
35.84000 312.376
35.85000 306.546
35.86000 298.629
35.87000 291.127
35.88000 290.706
35.89000 292.835
35.90000 294.792
35.91000 296.538
35.92000 298.052
35.93000 299.700
35.94000 302.109
35.95000 304.638
35.96000 306.398
35.97000 305.321
35.98000 303.979
35.99000 303.009
36.00000 303.837
36.01000 304.537
36.02000 303.987
36.03000 301.323
36.04000 298.626
36.05000 296.455
36.06000 294.870
36.07000 293.292
36.08000 297.145
36.09000 304.841
36.10000 312.195
36.11000 308.312
36.12000 298.996
36.13000 290.106
36.14000 287.382
36.15000 286.679
36.16000 286.040
36.17000 287.781
36.18000 289.779
36.19000 292.536
36.20000 299.150
36.21000 306.302
36.22000 309.770
36.23000 300.879
36.24000 290.987
36.25000 284.039
36.26000 282.449
36.27000 281.402
36.28000 283.914
36.29000 291.883
36.30000 299.910
36.31000 302.991
36.32000 301.120
36.33000 299.262
36.34000 294.521
36.35000 287.994
36.36000 281.751
36.37000 282.844
36.38000 287.171
36.39000 291.472
36.40000 295.458
36.41000 299.351
36.42000 302.838
36.43000 293.303
36.44000 282.733
36.45000 274.809
36.46000 278.993
36.47000 284.674
36.48000 288.500
36.49000 286.663
36.50000 284.432
36.51000 282.914
36.52000 296.322
36.53000 306.678
36.54000 310.144
36.55000 304.036
36.56000 297.865
36.57000 292.216
36.58000 287.036
36.59000 281.907
36.60000 282.545
36.61000 286.516
36.62000 290.378
36.63000 291.917
36.64000 292.525
36.65000 292.952
36.66000 291.441
36.67000 289.405
36.68000 287.608
36.69000 286.799
36.70000 286.254
36.71000 286.742
36.72000 291.512
36.73000 296.748
36.74000 298.184
36.75000 289.057
36.76000 279.310
36.77000 272.891
36.78000 291.443
36.79000 305.541
36.80000 310.810
36.81000 304.985
36.82000 299.131
36.83000 295.953
36.84000 294.941
36.85000 293.944
36.86000 294.448
36.87000 295.723
36.88000 296.762
36.89000 293.662
36.90000 289.049
36.91000 285.100
36.92000 287.387
36.93000 291.207
36.94000 294.526
36.95000 294.945
36.96000 294.907
36.97000 293.689
36.98000 288.036
36.99000 281.960
37.00000 278.088
37.01000 279.794
37.02000 281.773
37.03000 283.031
37.04000 290.913
37.05000 296.720
37.06000 302.750
37.07000 309.031
37.08000 315.242
37.09000 309.176
37.10000 294.124
37.11000 279.362
37.12000 272.877
37.13000 270.546
37.14000 268.795
37.15000 275.649
37.16000 285.367
37.17000 293.514
37.18000 288.698
37.19000 280.998
37.20000 274.416
37.21000 280.236
37.22000 286.626
37.23000 292.194
37.24000 294.963
37.25000 297.500
37.26000 297.738
37.27000 292.674
37.28000 287.399
37.29000 284.173
37.30000 280.193
37.31000 277.339
37.32000 276.436
37.33000 277.519
37.34000 278.605
37.35000 280.017
37.36000 281.646
37.37000 283.234
37.38000 285.018
37.39000 286.805
37.40000 288.075
37.41000 282.780
37.42000 275.498
37.43000 269.320
37.44000 271.225
37.45000 274.754
37.46000 277.716
37.47000 284.462
37.48000 290.477
37.49000 294.471
37.50000 292.202
37.51000 289.487
37.52000 287.333
37.53000 286.356
37.54000 285.417
37.55000 284.865
37.56000 282.169
37.57000 280.260
37.58000 282.490
37.59000 288.503
37.60000 294.389
37.61000 291.926
37.62000 284.436
37.63000 277.182
37.64000 278.857
37.65000 283.882
37.66000 288.373
37.67000 287.007
37.68000 284.028
37.69000 281.597
37.70000 282.742
37.71000 284.533
37.72000 286.008
37.73000 287.890
37.74000 289.475
37.75000 290.587
37.76000 290.366
37.77000 290.065
37.78000 287.902
37.79000 282.179
37.80000 276.368
37.81000 273.103
37.82000 276.248
37.83000 278.443
37.84000 279.407
37.85000 279.358
37.86000 279.361
37.87000 281.793
37.88000 285.555
37.89000 289.172
37.90000 283.454
37.91000 274.853
37.92000 267.664
37.93000 273.992
37.94000 283.694
37.95000 291.767
37.96000 290.329
37.97000 287.349
37.98000 284.944
37.99000 289.044
38.00000 292.891
38.01000 295.125
38.02000 293.212
38.03000 291.089
38.04000 288.696
38.05000 285.833
38.06000 282.961
38.07000 281.422
38.08000 287.651
38.09000 291.877
38.10000 290.110
38.11000 283.886
38.12000 277.811
38.13000 277.050
38.14000 278.939
38.15000 280.739
38.16000 282.597
38.17000 284.338
38.18000 286.349
38.19000 290.633
38.20000 295.430
38.21000 299.516
38.22000 299.870
38.23000 299.683
38.24000 299.536
38.25000 296.754
38.26000 294.342
38.27000 292.345
38.28000 291.320
38.29000 290.337
38.30000 291.922
38.31000 297.572
38.32000 303.272
38.33000 306.173
38.34000 328.724
38.35000 343.793
38.36000 352.952
38.37000 358.130
38.38000 363.334
38.39000 369.303
38.40000 375.619
38.41000 381.584
38.42000 391.414
38.43000 401.524
38.44000 410.412
38.45000 410.178
38.46000 408.082
38.47000 408.361
38.48000 419.875
38.49000 432.834
38.50000 442.833
38.51000 485.414
38.52000 521.045
38.53000 544.108
38.54000 540.363
38.55000 535.732
38.56000 541.921
38.57000 563.634
38.58000 585.465
38.59000 604.196
38.60000 620.037
38.61000 635.888
38.62000 652.484
38.63000 669.536
38.64000 686.440
38.65000 700.010
38.66000 712.201
38.67000 723.597
38.68000 724.311
38.69000 722.248
38.70000 721.298
38.71000 727.732
38.72000 735.524
38.73000 740.450
38.74000 733.121
38.75000 724.400
38.76000 717.836
38.77000 698.040
38.78000 681.910
38.79000 669.268
38.80000 663.404
38.81000 657.714
38.82000 648.021
38.83000 633.131
38.84000 618.236
38.85000 604.465
38.86000 591.671
38.87000 578.781
38.88000 561.106
38.89000 540.769
38.90000 520.372
38.91000 498.841
38.92000 476.883
38.93000 456.581
38.94000 444.063
38.95000 434.595
38.96000 424.678
38.97000 412.091
38.98000 399.064
38.99000 385.726
39.00000 371.187
39.01000 356.528
39.02000 345.784
39.03000 338.575
39.04000 333.151
39.05000 328.039
39.06000 323.483
39.07000 318.937
39.08000 313.734
39.09000 307.761
39.10000 301.803
39.11000 298.966
39.12000 298.493
39.13000 297.903
39.14000 293.003
39.15000 285.921
39.16000 279.433
39.17000 282.232
39.18000 288.218
39.19000 293.686
39.20000 287.365
39.21000 279.347
39.22000 271.957
39.23000 267.921
39.24000 264.380
39.25000 263.081
39.26000 269.665
39.27000 276.935
39.28000 282.115
39.29000 279.489
39.30000 277.234
39.31000 273.681
39.32000 268.045
39.33000 262.381
39.34000 259.012
39.35000 258.065
39.36000 257.122
39.37000 260.511
39.38000 266.789
39.39000 272.792
39.40000 270.795
39.41000 265.112
39.42000 260.012
39.43000 262.683
39.44000 267.782
39.45000 272.379
39.46000 267.621
39.47000 261.739
39.48000 257.470
39.49000 260.956
39.50000 265.460
39.51000 268.742
39.52000 268.121
39.53000 267.208
39.54000 266.577
39.55000 258.867
39.56000 252.886
39.57000 252.794
39.58000 261.283
39.59000 269.844
39.60000 271.630
39.61000 267.005
39.62000 262.419
39.63000 263.351
39.64000 267.633
39.65000 271.603
39.66000 268.319
39.67000 261.989
39.68000 255.926
39.69000 252.932
39.70000 250.809
39.71000 248.922
39.72000 249.785
39.73000 250.980
39.74000 253.457
39.75000 261.500
39.76000 270.189
39.77000 275.325
39.78000 270.131
39.79000 264.277
39.80000 260.359
39.81000 254.933
39.82000 250.879
39.83000 249.006
39.84000 250.012
39.85000 251.026
39.86000 248.997
39.87000 244.378
39.88000 239.814
39.89000 239.172
39.90000 240.704
39.91000 242.220
39.92000 243.430
39.93000 244.522
39.94000 245.949
39.95000 250.729
39.96000 256.372
39.97000 261.315
39.98000 263.879
39.99000 265.735
40.00000 266.139
40.01000 260.827
40.02000 254.932
40.03000 249.611
40.04000 245.812
40.05000 242.095
40.06000 239.691
40.07000 236.179
40.08000 233.594
40.09000 237.534
40.10000 249.251
40.11000 260.950
40.12000 264.742
40.13000 262.459
40.14000 260.214
40.15000 256.893
40.16000 253.146
40.17000 249.522
40.18000 247.878
40.19000 246.924
40.20000 246.394
40.21000 249.584
40.22000 253.643
40.23000 257.141
40.24000 247.527
40.25000 237.707
40.26000 231.977
40.27000 240.851
40.28000 251.023
40.29000 257.246
40.30000 253.940
40.31000 250.214
40.32000 247.891
40.33000 243.568
40.34000 240.432
40.35000 241.878
40.36000 248.241
40.37000 254.573
40.38000 256.781
40.39000 256.120
40.40000 255.473
40.41000 255.335
40.42000 255.431
40.43000 255.344
40.44000 252.764
40.45000 249.393
40.46000 246.524
40.47000 247.538
40.48000 249.372
40.49000 250.925
40.50000 253.273
40.51000 255.329
40.52000 256.356
40.53000 254.043
40.54000 251.473
40.55000 250.790
40.56000 254.253
40.57000 257.865
40.58000 260.028
40.59000 246.074
40.60000 236.060
40.61000 234.025
40.62000 239.672
40.63000 245.245
40.64000 245.020
40.65000 241.136
40.66000 237.361
40.67000 237.093
40.68000 238.258
40.69000 239.509
40.70000 241.774
40.71000 244.330
40.72000 246.275
40.73000 244.000
40.74000 240.923
40.75000 238.364
40.76000 239.827
40.77000 241.433
40.78000 242.672
40.79000 242.829
40.80000 242.916
40.81000 243.355
40.82000 244.500
40.83000 245.665
40.84000 246.334
40.85000 240.372
40.86000 236.185
40.87000 236.676
40.88000 241.217
40.89000 245.742
40.90000 249.375
40.91000 252.497
40.92000 255.509
40.93000 253.142
40.94000 248.947
40.95000 244.482
40.96000 237.243
40.97000 229.278
40.98000 223.692
40.99000 232.742
41.00000 244.295
41.01000 253.714
41.02000 246.840
41.03000 239.833
41.04000 235.932
41.05000 240.384
41.06000 245.297
41.07000 248.708
41.08000 249.380
41.09000 249.995
41.10000 250.332
41.11000 250.454
41.12000 250.535
41.13000 250.066
41.14000 249.167
41.15000 248.225
41.16000 245.576
41.17000 242.035
41.18000 238.645
41.19000 242.542
41.20000 248.574
41.21000 253.773
41.22000 251.511
41.23000 247.479
41.24000 244.286
41.25000 245.726
41.26000 247.876
41.27000 249.591
41.28000 239.535
41.29000 230.550
41.30000 224.017
41.31000 223.490
41.32000 223.236
41.33000 225.188
41.34000 230.794
41.35000 236.456
41.36000 239.411
41.37000 239.913
41.38000 240.246
41.39000 239.896
41.40000 239.062
41.41000 238.390
41.42000 242.782
41.43000 249.579
41.44000 256.028
41.45000 254.586
41.46000 250.913
41.47000 246.948
41.48000 240.666
41.49000 233.888
41.50000 227.899
41.51000 225.833
41.52000 224.303
41.53000 223.108
41.54000 231.197
41.55000 238.229
41.56000 240.885
41.57000 233.774
41.58000 226.302
41.59000 224.178
41.60000 230.101
41.61000 236.103
41.62000 239.928
41.63000 241.620
41.64000 243.290
41.65000 243.163
41.66000 241.884
41.67000 240.457
41.68000 235.342
41.69000 228.631
41.70000 222.326
41.71000 224.991
41.72000 229.821
41.73000 234.549
41.74000 238.563
41.75000 242.440
41.76000 245.014
41.77000 241.744
41.78000 237.768
41.79000 234.739
41.80000 242.006
41.81000 248.273
41.82000 252.350
41.83000 251.973
41.84000 251.466
41.85000 248.608
41.86000 242.544
41.87000 236.466
41.88000 232.622
41.89000 230.748
41.90000 228.894
41.91000 228.159
41.92000 228.076
41.93000 228.135
41.94000 231.077
41.95000 235.155
41.96000 238.947
41.97000 241.342
41.98000 243.168
41.99000 244.757
42.00000 244.858
42.01000 244.700
42.02000 244.800
42.03000 245.944
42.04000 247.199
42.05000 248.132
42.06000 248.986
42.07000 249.646
42.08000 247.773
42.09000 241.210
42.10000 234.544
42.11000 231.942
42.12000 234.348
42.13000 236.763
42.14000 236.943
42.15000 235.357
42.16000 233.815
42.17000 234.152
42.18000 235.484
42.19000 236.556
42.20000 233.197
42.21000 228.247
42.22000 223.698
42.23000 220.713
42.24000 218.385
42.25000 216.632
42.26000 218.113
42.27000 220.098
42.28000 222.561
42.29000 226.788
42.30000 231.178
42.31000 234.351
42.32000 234.739
42.33000 234.937
42.34000 234.156
42.35000 231.731
42.36000 229.279
42.37000 230.539
42.38000 235.921
42.39000 241.285
42.40000 241.069
42.41000 236.884
42.42000 232.689
42.43000 228.168
42.44000 223.491
42.45000 219.363
42.46000 223.108
42.47000 229.429
42.48000 235.165
42.49000 226.871
42.50000 216.847
42.51000 209.183
42.52000 213.446
42.53000 219.367
42.54000 224.871
42.55000 228.981
42.56000 232.978
42.57000 235.783
42.58000 230.282
42.59000 225.878
42.60000 223.222
42.61000 223.239
42.62000 223.284
42.63000 224.998
42.64000 228.375
42.65000 231.730
42.66000 228.544
42.67000 221.210
42.68000 214.155
42.69000 214.313
42.70000 217.639
42.71000 220.966
42.72000 224.302
42.73000 227.640
42.74000 230.630
42.75000 228.314
42.76000 225.381
42.77000 222.914
42.78000 222.564
42.79000 222.476
42.80000 222.490
42.81000 222.813
42.82000 223.159
42.83000 223.394
42.84000 219.567
42.85000 216.617
42.86000 215.688
42.87000 217.558
42.88000 219.444
42.89000 220.146
42.90000 219.785
42.91000 219.428
42.92000 221.178
42.93000 224.110
42.94000 227.184
42.95000 233.257
42.96000 240.530
42.97000 246.773
42.98000 242.024
42.99000 234.306
43.00000 227.495
43.01000 224.166
43.02000 221.826
43.03000 221.036
43.04000 226.642
43.05000 232.943
43.06000 236.798
43.07000 233.877
43.08000 230.560
43.09000 228.378
43.10000 230.195
43.11000 231.602
43.12000 233.064
43.13000 234.594
43.14000 236.115
43.15000 234.210
43.16000 229.540
43.17000 224.936
43.18000 220.338
43.19000 215.876
43.20000 211.828
43.21000 215.003
43.22000 220.812
43.23000 226.262
43.24000 228.367
43.25000 229.652
43.26000 230.768
43.27000 229.818
43.28000 228.729
43.29000 227.102
43.30000 223.460
43.31000 219.627
43.32000 218.063
43.33000 222.225
43.34000 226.665
43.35000 229.484
43.36000 225.559
43.37000 222.627
43.38000 221.502
43.39000 222.419
43.40000 223.339
43.41000 224.552
43.42000 225.979
43.43000 227.378
43.44000 226.398
43.45000 224.333
43.46000 222.489
43.47000 223.899
43.48000 226.389
43.49000 227.949
43.50000 221.853
43.51000 214.059
43.52000 207.400
43.53000 207.858
43.54000 209.093
43.55000 210.435
43.56000 212.143
43.57000 213.881
43.58000 216.335
43.59000 220.436
43.60000 224.603
43.61000 227.148
43.62000 225.523
43.63000 224.326
43.64000 224.346
43.65000 225.603
43.66000 226.835
43.67000 225.695
43.68000 222.986
43.69000 220.345
43.70000 221.224
43.71000 223.563
43.72000 225.473
43.73000 221.984
43.74000 216.863
43.75000 212.765
43.76000 216.111
43.77000 220.948
43.78000 225.008
43.79000 222.475
43.80000 219.677
43.81000 216.950
43.82000 214.446
43.83000 211.958
43.84000 211.881
43.85000 216.857
43.86000 221.992
43.87000 225.002
43.88000 222.512
43.89000 220.729
43.90000 216.986
43.91000 211.458
43.92000 206.034
43.93000 207.400
43.94000 212.845
43.95000 218.117
43.96000 219.493
43.97000 219.297
43.98000 219.184
43.99000 219.968
44.00000 220.997
44.01000 222.461
44.02000 226.746
44.03000 231.539
44.04000 235.485
44.05000 231.747
44.06000 227.971
44.07000 224.545
44.08000 222.102
44.09000 219.718
44.10000 217.757
44.11000 216.604
44.12000 215.470
44.13000 214.834
44.14000 216.460
44.15000 217.590
44.16000 217.439
44.17000 216.236
44.18000 215.045
44.19000 214.441
44.20000 214.157
44.21000 213.884
44.22000 216.746
44.23000 220.513
44.24000 223.772
44.25000 222.193
44.26000 219.410
44.27000 217.212
44.28000 218.423
44.29000 220.185
44.30000 221.606
44.31000 219.344
44.32000 217.215
44.33000 216.467
44.34000 219.257
44.35000 222.225
44.36000 223.727
44.37000 222.686
44.38000 221.599
44.39000 221.018
44.40000 223.674
44.41000 225.478
44.42000 225.479
44.43000 224.143
44.44000 222.785
44.45000 220.694
44.46000 218.239
44.47000 215.899
44.48000 219.546
44.49000 224.797
44.50000 229.047
44.51000 224.897
44.52000 218.853
44.53000 215.006
44.54000 222.645
44.55000 231.942
44.56000 239.278
44.57000 231.288
44.58000 223.838
44.59000 219.414
44.60000 222.051
44.61000 224.979
44.62000 228.154
44.63000 231.720
44.64000 235.291
44.65000 237.106
44.66000 236.294
44.67000 235.765
44.68000 236.859
44.69000 239.041
44.70000 241.179
44.71000 242.058
44.72000 242.368
44.73000 242.661
44.74000 243.969
44.75000 245.455
44.76000 246.972
44.77000 248.727
44.78000 250.529
44.79000 252.049
44.80000 252.242
44.81000 252.264
44.82000 252.281
44.83000 254.385
44.84000 256.173
44.85000 260.019
44.86000 268.244
44.87000 276.613
44.88000 278.124
44.89000 269.826
44.90000 261.455
44.91000 257.648
44.92000 258.070
44.93000 258.564
44.94000 263.981
44.95000 272.401
44.96000 280.664
44.97000 285.402
44.98000 288.687
44.99000 291.756
45.00000 289.689
45.01000 286.515
45.02000 283.959
45.03000 285.502
45.04000 287.796
45.05000 290.443
45.06000 294.597
45.07000 298.921
45.08000 302.173
45.09000 298.327
45.10000 294.976
45.11000 294.906
45.12000 301.189
45.13000 307.633
45.14000 311.742
45.15000 312.825
45.16000 313.896
45.17000 312.625
45.18000 309.410
45.19000 306.160
45.20000 301.213
45.21000 295.324
45.22000 289.861
45.23000 292.275
45.24000 297.648
45.25000 302.614
45.26000 295.501
45.27000 286.374
45.28000 278.970
45.29000 281.769
45.30000 286.247
45.31000 288.217
45.32000 280.506
45.33000 271.833
45.34000 265.481
45.35000 280.934
45.36000 293.733
45.37000 298.084
45.38000 287.542
45.39000 276.720
45.40000 269.195
45.41000 265.523
45.42000 261.867
45.43000 265.908
45.44000 275.684
45.45000 285.175
45.46000 284.171
45.47000 277.873
45.48000 271.786
45.49000 268.984
45.50000 267.306
45.51000 265.773
45.52000 261.351
45.53000 256.837
45.54000 253.284
45.55000 254.837
45.56000 257.142
45.57000 257.955
45.58000 253.542
45.59000 248.677
45.60000 245.213
45.61000 252.850
45.62000 259.027
45.63000 262.189
45.64000 260.519
45.65000 258.786
45.66000 252.919
45.67000 242.705
45.68000 232.543
45.69000 232.059
45.70000 238.108
45.71000 243.953
45.72000 243.969
45.73000 241.306
45.74000 238.669
45.75000 236.369
45.76000 234.174
45.77000 232.196
45.78000 238.523
45.79000 245.585
45.80000 250.692
45.81000 246.432
45.82000 240.948
45.83000 236.776
45.84000 236.789
45.85000 237.114
45.86000 237.339
45.87000 237.843
45.88000 238.229
45.89000 238.535
45.90000 238.725
45.91000 238.913
45.92000 238.760
45.93000 238.285
45.94000 237.814
45.95000 233.719
45.96000 227.496
45.97000 221.638
45.98000 224.200
45.99000 230.288
46.00000 235.768
46.01000 234.308
46.02000 230.884
46.03000 227.840
46.04000 227.842
46.05000 228.336
46.06000 228.343
46.07000 226.238
46.08000 223.888
46.09000 221.186
46.10000 217.463
46.11000 213.674
46.12000 211.141
46.13000 210.953
46.14000 210.859
46.15000 211.230
46.16000 212.212
46.17000 213.199
46.18000 215.258
46.19000 218.229
46.20000 221.163
46.21000 219.209
46.22000 214.622
46.23000 210.313
46.24000 211.288
46.25000 214.280
46.26000 216.577
46.27000 211.964
46.28000 205.574
46.29000 199.980
46.30000 198.530
46.31000 197.880
46.32000 197.391
46.33000 197.526
46.34000 197.725
46.35000 197.213
46.36000 194.824
46.37000 192.334
46.38000 190.726
46.39000 193.665
46.40000 195.880
46.41000 198.937
46.42000 202.996
46.43000 207.042
46.44000 207.454
46.45000 205.082
46.46000 202.750
46.47000 200.584
46.48000 198.572
46.49000 196.632
46.50000 195.847
46.51000 195.463
46.52000 195.383
46.53000 197.953
46.54000 201.140
46.55000 203.886
46.56000 202.425
46.57000 200.654
46.58000 198.544
46.59000 195.225
46.60000 191.799
46.61000 189.748
46.62000 191.002
46.63000 192.402
46.64000 193.274
46.65000 191.130
46.66000 189.555
46.67000 190.182
46.68000 193.166
46.69000 196.121
46.70000 195.312
46.71000 191.894
46.72000 188.552
46.73000 188.371
46.74000 189.612
46.75000 190.953
46.76000 193.658
46.77000 196.795
46.78000 199.760
46.79000 201.400
46.80000 202.761
46.81000 203.913
46.82000 202.786
46.83000 201.588
46.84000 200.981
46.85000 202.287
46.86000 203.740
46.87000 204.376
46.88000 203.224
46.89000 202.009
46.90000 201.281
46.91000 194.592
46.92000 189.806
46.93000 188.865
46.94000 191.612
46.95000 194.308
46.96000 193.003
46.97000 189.179
46.98000 185.465
46.99000 188.948
47.00000 195.163
47.01000 200.796
47.02000 199.627
47.03000 196.502
47.04000 193.577
47.05000 192.023
47.06000 190.728
47.07000 189.653
47.08000 190.355
47.09000 191.110
47.10000 190.834
47.11000 187.523
47.12000 184.015
47.13000 182.454
47.14000 184.784
47.15000 187.221
47.16000 188.619
47.17000 194.588
47.18000 198.771
47.19000 198.894
47.20000 195.514
47.21000 192.185
47.22000 191.638
47.23000 192.682
47.24000 193.689
47.25000 194.846
47.26000 195.989
47.27000 196.923
47.28000 195.724
47.29000 193.968
47.30000 192.425
47.31000 192.190
47.32000 192.178
47.33000 192.168
47.34000 194.904
47.35000 197.372
47.36000 197.450
47.37000 191.121
47.38000 184.440
47.39000 180.969
47.40000 183.332
47.41000 185.817
47.42000 187.178
47.43000 184.286
47.44000 182.305
47.45000 184.095
47.46000 188.820
47.47000 193.496
47.48000 196.157
47.49000 197.770
47.50000 199.314
47.51000 193.924
47.52000 186.625
47.53000 180.131
47.54000 180.826
47.55000 183.222
47.56000 184.924
47.57000 182.816
47.58000 180.127
47.59000 177.981
47.60000 182.355
47.61000 186.361
47.62000 189.031
47.63000 188.434
47.64000 187.689
47.65000 186.521
47.66000 184.654
47.67000 182.776
47.68000 181.797
47.69000 183.006
47.70000 183.840
47.71000 186.889
47.72000 191.498
47.73000 195.904
47.74000 193.989
47.75000 189.081
47.76000 184.425
47.77000 184.644
47.78000 186.289
47.79000 187.566
47.80000 185.940
47.81000 183.693
47.82000 181.005
47.83000 176.136
47.84000 170.970
47.85000 166.941
47.86000 178.569
47.87000 188.814
47.88000 194.195
47.89000 188.750
47.90000 182.908
47.91000 178.078
47.92000 174.768
47.93000 171.473
47.94000 170.436
47.95000 171.604
47.96000 172.802
47.97000 176.579
47.98000 182.005
47.99000 187.227
48.00000 187.420
48.01000 185.443
48.02000 183.586
48.03000 181.031
48.04000 178.514
48.05000 176.206
48.06000 175.353
48.07000 174.782
48.08000 175.168
48.09000 179.839
48.10000 185.026
48.11000 188.975
48.12000 189.323
48.13000 189.407
48.14000 188.969
48.15000 187.476
48.16000 185.952
48.17000 184.155
48.18000 181.987
48.19000 179.819
48.20000 180.515
48.21000 183.721
48.22000 186.903
48.23000 188.748
48.24000 189.817
48.25000 190.661
48.26000 186.967
48.27000 181.488
48.28000 176.396
48.29000 177.753
48.30000 180.521
48.31000 182.485
48.32000 179.425
48.33000 175.494
48.34000 173.134
48.35000 177.139
48.36000 181.817
48.37000 185.289
48.38000 182.640
48.39000 180.313
48.40000 179.053
48.41000 179.763
48.42000 180.517
48.43000 183.075
48.44000 187.851
48.45000 192.624
48.46000 192.887
48.47000 189.595
48.48000 186.333
48.49000 184.276
48.50000 182.857
48.51000 181.407
48.52000 179.425
48.53000 177.253
48.54000 175.258
48.55000 178.042
48.56000 181.553
48.57000 184.681
48.58000 185.668
48.59000 186.322
48.60000 186.761
48.61000 186.414
48.62000 185.994
48.63000 185.691
48.64000 187.624
48.65000 189.187
48.66000 188.495
48.67000 184.022
48.68000 179.489
48.69000 178.130
48.70000 180.286
48.71000 182.435
48.72000 178.533
48.73000 170.376
48.74000 162.529
48.75000 164.714
48.76000 171.722
48.77000 178.293
48.78000 178.613
48.79000 176.895
48.80000 175.336
48.81000 182.468
48.82000 190.430
48.83000 196.121
48.84000 190.370
48.85000 183.034
48.86000 177.768
48.87000 179.409
48.88000 181.604
48.89000 183.143
48.90000 177.762
48.91000 173.491
48.92000 171.889
48.93000 174.353
48.94000 176.860
48.95000 178.019
48.96000 177.839
48.97000 177.659
48.98000 176.161
48.99000 173.843
49.00000 171.685
49.01000 173.627
49.02000 177.367
49.03000 180.757
49.04000 179.871
49.05000 177.717
49.06000 175.790
49.07000 174.744
49.08000 173.982
49.09000 174.032
49.10000 177.768
49.11000 181.957
49.12000 185.567
49.13000 187.422
49.14000 189.156
49.15000 190.335
49.16000 181.560
49.17000 174.787
49.18000 170.042
49.19000 168.099
49.20000 166.175
49.21000 165.933
49.22000 167.193
49.23000 168.441
49.24000 168.649
49.25000 168.252
49.26000 168.053
49.27000 171.957
49.28000 177.499
49.29000 182.527
49.30000 182.090
49.31000 180.181
49.32000 178.496
49.33000 174.830
49.34000 171.366
49.35000 168.809
49.36000 169.984
49.37000 171.564
49.38000 172.722
49.39000 172.716
49.40000 172.643
49.41000 172.594
49.42000 172.237
49.43000 171.968
49.44000 172.379
49.45000 173.638
49.46000 174.898
49.47000 175.524
49.48000 175.639
49.49000 175.752
49.50000 176.777
49.51000 178.248
49.52000 179.562
49.53000 178.166
49.54000 175.786
49.55000 173.751
49.56000 174.940
49.57000 176.915
49.58000 178.631
49.59000 177.033
49.60000 175.224
49.61000 173.851
49.62000 174.105
49.63000 174.512
49.64000 175.312
49.65000 177.100
49.66000 178.935
49.67000 180.099
49.68000 175.770
49.69000 172.563
49.70000 171.596
49.71000 173.151
49.72000 174.709
49.73000 176.243
49.74000 177.760
49.75000 179.247
49.76000 180.469
49.77000 181.520
49.78000 182.500
49.79000 182.442
49.80000 182.039
49.81000 181.494
49.82000 179.776
49.83000 177.800
49.84000 176.113
49.85000 174.661
49.86000 173.466
49.87000 172.907
49.88000 174.502
49.89000 176.273
49.90000 176.676
49.91000 173.939
49.92000 171.079
49.93000 169.333
49.94000 163.424
49.95000 159.165
49.96000 159.835
49.97000 165.489
49.98000 171.109
49.99000 173.328
50.00000 173.305
50.01000 173.282
50.02000 175.146
50.03000 177.724
50.04000 179.982
50.05000 178.215
50.06000 175.237
50.07000 172.847
50.08000 174.726
50.09000 177.457
50.10000 179.748
50.11000 180.229
50.12000 180.441
50.13000 180.477
50.14000 179.970
50.15000 179.425
50.16000 177.778
50.17000 173.830
50.18000 169.809
50.19000 167.454
50.20000 169.856
50.21000 171.569
50.22000 171.619
50.23000 170.159
50.24000 168.736
50.25000 169.687
50.26000 172.060
50.27000 174.357
50.28000 175.268
50.29000 175.600
50.30000 175.986
50.31000 176.966
50.32000 178.108
50.33000 179.655
50.34000 183.823
50.35000 188.461
50.36000 192.277
50.37000 189.844
50.38000 187.275
50.39000 186.514
50.40000 190.825
50.41000 195.439
50.42000 199.174
50.43000 201.241
50.44000 203.267
50.45000 204.402
50.46000 203.644
50.47000 203.125
50.48000 206.774
50.49000 213.832
50.50000 220.756
50.51000 221.434
50.52000 218.713
50.53000 216.098
50.54000 213.671
50.55000 211.464
50.56000 210.139
50.57000 217.185
50.58000 226.309
50.59000 233.127
50.60000 226.578
50.61000 217.878
50.62000 210.865
50.63000 207.534
50.64000 205.119
50.65000 203.989
50.66000 206.141
50.67000 208.457
50.68000 211.211
50.69000 214.724
50.70000 218.250
50.71000 220.134
50.72000 217.056
50.73000 214.965
50.74000 214.753
50.75000 215.932
50.76000 217.014
50.77000 214.712
50.78000 210.734
50.79000 206.944
50.80000 207.349
50.81000 209.030
50.82000 210.355
50.83000 208.690
50.84000 206.353
50.85000 204.277
50.86000 203.557
50.87000 203.031
50.88000 202.617
50.89000 207.029
50.90000 210.892
50.91000 212.010
50.92000 206.733
50.93000 201.196
50.94000 197.155
50.95000 195.467
50.96000 193.807
50.97000 192.965
50.98000 192.277
50.99000 191.815
51.00000 191.250
51.01000 190.617
51.02000 189.924
51.03000 187.583
51.04000 184.499
51.05000 181.589
51.06000 183.328
51.07000 186.226
51.08000 188.390
51.09000 185.115
51.10000 180.737
51.11000 176.464
51.12000 172.685
51.13000 168.969
51.14000 166.105
51.15000 168.765
51.16000 171.187
51.17000 173.468
51.18000 175.448
51.19000 177.419
51.20000 177.901
51.21000 176.262
51.22000 174.607
51.23000 173.567
51.24000 173.097
51.25000 172.682
51.26000 176.055
51.27000 181.732
51.28000 187.131
51.29000 186.344
51.30000 183.015
51.31000 179.904
51.32000 175.586
51.33000 171.365
51.34000 168.315
51.35000 172.993
51.36000 179.083
51.37000 183.325
51.38000 179.714
51.39000 175.218
51.40000 171.839
51.41000 169.787
51.42000 168.246
51.43000 168.113
51.44000 170.701
51.45000 173.357
51.46000 173.636
51.47000 170.848
51.48000 168.051
51.49000 167.623
51.50000 169.162
51.51000 170.617
51.52000 168.028
51.53000 163.205
51.54000 158.754
51.55000 161.171
51.56000 166.161
51.57000 170.771
51.58000 171.712
51.59000 171.725
51.60000 171.849
51.61000 172.623
51.62000 173.504
51.63000 173.352
51.64000 169.221
51.65000 164.697
51.66000 161.386
51.67000 160.675
51.68000 160.230
51.69000 160.763
51.70000 163.015
51.71000 165.299
51.72000 165.541
51.73000 163.405
51.74000 161.272
51.75000 162.547
51.76000 166.356
51.77000 170.083
51.78000 170.814
51.79000 170.036
51.80000 169.198
51.81000 167.447
51.82000 165.383
51.83000 163.500
51.84000 157.538
51.85000 151.421
51.86000 146.695
51.87000 149.345
51.88000 153.074
51.89000 156.826
51.90000 160.659
51.91000 164.499
51.92000 167.230
51.93000 163.803
51.94000 160.994
51.95000 159.980
51.96000 161.831
51.97000 163.719
51.98000 162.859
51.99000 159.121
52.00000 155.401
52.01000 154.599
52.02000 155.767
52.03000 156.908
52.04000 157.286
52.05000 157.314
52.06000 157.582
52.07000 161.030
52.08000 165.465
52.09000 169.461
52.10000 167.696
52.11000 165.104
52.12000 162.964
52.13000 162.981
52.14000 163.280
52.15000 164.246
52.16000 167.332
52.17000 170.575
52.18000 172.813
52.19000 158.178
52.20000 146.752
52.21000 140.104
52.22000 140.381
52.23000 140.715
52.24000 145.017
52.25000 153.047
52.26000 161.010
52.27000 166.862
52.28000 171.325
52.29000 175.463
52.30000 172.118
52.31000 165.649
52.32000 159.724
52.33000 159.988
52.34000 161.998
52.35000 163.784
52.36000 163.165
52.37000 162.240
52.38000 160.929
52.39000 157.951
52.40000 154.780
52.41000 152.053
52.42000 150.608
52.43000 149.245
52.44000 148.334
52.45000 151.108
52.46000 153.236
52.47000 155.366
52.48000 157.498
52.49000 159.624
52.50000 157.598
52.51000 152.060
52.52000 146.590
52.53000 148.476
52.54000 154.340
52.55000 160.013
52.56000 162.101
52.57000 162.825
52.58000 163.218
52.59000 160.325
52.60000 156.590
52.61000 153.322
52.62000 153.889
52.63000 154.923
52.64000 155.587
52.65000 154.806
52.66000 153.878
52.67000 154.256
52.68000 158.073
52.69000 162.073
52.70000 164.654
52.71000 159.081
52.72000 154.892
52.73000 152.458
52.74000 152.104
52.75000 151.770
52.76000 155.384
52.77000 162.014
52.78000 168.530
52.79000 165.269
52.80000 157.289
52.81000 149.617
52.82000 146.853
52.83000 145.789
52.84000 144.771
52.85000 144.161
52.86000 143.645
52.87000 143.201
52.88000 145.488
52.89000 147.771
52.90000 150.634
52.91000 155.557
52.92000 160.662
52.93000 162.362
52.94000 155.892
52.95000 149.066
52.96000 144.821
52.97000 146.697
52.98000 148.110
52.99000 151.567
53.00000 157.203
53.01000 162.799
53.02000 163.335
53.03000 160.372
53.04000 157.476
53.05000 157.889
53.06000 159.761
53.07000 161.357
53.08000 159.225
53.09000 155.918
53.10000 152.682
53.11000 149.984
53.12000 147.399
53.13000 145.211
53.14000 149.658
53.15000 154.117
53.16000 157.463
53.17000 157.215
53.18000 156.693
53.19000 155.993
53.20000 154.903
53.21000 153.800
53.22000 153.140
53.23000 152.940
53.24000 152.801
53.25000 151.996
53.26000 150.555
53.27000 149.111
53.28000 147.460
53.29000 145.680
53.30000 143.950
53.31000 146.875
53.32000 151.526
53.33000 155.753
53.34000 155.046
53.35000 152.924
53.36000 151.071
53.37000 151.055
53.38000 151.387
53.39000 151.662
53.40000 151.654
53.41000 151.619
53.42000 151.560
53.43000 151.429
53.44000 151.293
53.45000 152.468
53.46000 156.253
53.47000 160.109
53.48000 162.317
53.49000 149.601
53.50000 140.677
53.51000 139.627
53.52000 145.351
53.53000 151.017
53.54000 153.590
53.55000 154.399
53.56000 155.180
53.57000 153.798
53.58000 151.713
53.59000 149.837
53.60000 150.080
53.61000 150.873
53.62000 151.364
53.63000 150.004
53.64000 148.329
53.65000 146.966
53.66000 150.682
53.67000 154.147
53.68000 156.136
53.69000 154.180
53.70000 152.008
53.71000 152.109
53.72000 156.330
53.73000 160.637
53.74000 162.992
53.75000 160.826
53.76000 159.329
53.77000 157.538
53.78000 155.517
53.79000 153.497
53.80000 151.479
53.81000 149.463
53.82000 147.534
53.83000 151.711
53.84000 157.600
53.85000 162.688
53.86000 160.664
53.87000 156.963
53.88000 153.737
53.89000 153.124
53.90000 152.908
53.91000 152.736
53.92000 148.942
53.93000 145.617
53.94000 142.721
53.95000 140.866
53.96000 139.058
53.97000 139.618
53.98000 144.078
53.99000 148.595
54.00000 150.946
54.01000 150.565
54.02000 150.308
54.03000 150.142
54.04000 150.040
54.05000 150.009
54.06000 152.143
54.07000 155.301
54.08000 158.295
54.09000 156.548
54.10000 153.541
54.11000 150.662
54.12000 148.797
54.13000 147.148
54.14000 146.289
54.15000 149.326
54.16000 152.892
54.17000 155.671
54.18000 159.776
54.19000 163.129
54.20000 164.589
54.21000 161.847
54.22000 158.952
54.23000 155.490
54.24000 151.179
54.25000 146.860
54.26000 146.688
54.27000 150.550
54.28000 154.397
54.29000 156.958
54.30000 158.700
54.31000 160.259
54.32000 157.356
54.33000 152.533
54.34000 148.003
54.35000 148.931
54.36000 151.225
54.37000 152.987
54.38000 151.033
54.39000 148.365
54.40000 146.217
54.41000 146.387
54.42000 146.835
54.43000 147.176
54.44000 152.253
54.45000 156.496
54.46000 159.308
54.47000 159.230
54.48000 159.069
54.49000 157.315
54.50000 153.403
54.51000 149.482
54.52000 147.974
54.53000 148.577
54.54000 149.172
54.55000 149.359
54.56000 149.310
54.57000 149.319
54.58000 150.504
54.59000 152.149
54.60000 153.677
54.61000 158.966
54.62000 164.633
54.63000 168.561
54.64000 161.660
54.65000 152.887
54.66000 145.243
54.67000 142.160
54.68000 139.558
54.69000 137.629
54.70000 140.857
54.71000 143.589
54.72000 145.842
54.73000 147.215
54.74000 148.570
54.75000 151.174
54.76000 155.309
54.77000 159.440
54.78000 158.459
54.79000 153.469
54.80000 148.603
54.81000 148.900
54.82000 151.914
54.83000 154.737
54.84000 154.338
54.85000 152.788
54.86000 151.364
54.87000 150.130
54.88000 149.069
54.89000 148.059
54.90000 147.325
54.91000 146.634
54.92000 146.070
54.93000 145.973
54.94000 145.920
54.95000 145.881
54.96000 150.884
54.97000 154.899
54.98000 157.214
54.99000 156.687
55.00000 156.115
55.01000 154.300
55.02000 151.114
55.03000 147.940
55.04000 148.663
55.05000 152.136
55.06000 155.581
55.07000 158.113
55.08000 160.209
55.09000 162.119
55.10000 161.389
55.11000 159.802
55.12000 158.362
55.13000 156.036
55.14000 153.815
55.15000 152.441
55.16000 155.321
55.17000 158.789
55.18000 161.347
55.19000 160.882
55.20000 160.174
55.21000 159.679
55.22000 162.838
55.23000 165.332
55.24000 164.766
55.25000 159.552
55.26000 154.289
55.27000 154.610
55.28000 160.463
55.29000 166.276
55.30000 167.317
55.31000 165.301
55.32000 163.497
55.33000 167.094
55.34000 173.051
55.35000 178.601
55.36000 179.178
55.37000 178.284
55.38000 177.485
55.39000 174.602
55.40000 171.732
55.41000 169.889
55.42000 172.701
55.43000 176.083
55.44000 177.713
55.45000 174.038
55.46000 170.000
55.47000 167.259
55.48000 172.313
55.49000 176.257
55.50000 180.230
55.51000 184.243
55.52000 188.255
55.53000 192.177
55.54000 196.017
55.55000 199.817
55.56000 203.482
55.57000 206.988
55.58000 210.660
55.59000 217.751
55.60000 226.204
55.61000 234.604
55.62000 242.439
55.63000 250.122
55.64000 256.896
55.65000 262.897
55.66000 267.953
55.67000 273.600
55.68000 281.666
55.69000 289.993
55.70000 298.928
55.71000 309.539
55.72000 320.247
55.73000 327.277
55.74000 335.508
55.75000 341.585
55.76000 346.182
55.77000 348.938
55.78000 351.717
55.79000 364.296
55.80000 384.735
55.81000 404.874
55.82000 419.447
55.83000 430.703
55.84000 441.446
55.85000 443.334
55.86000 442.011
55.87000 440.234
55.88000 434.240
55.89000 427.219
55.90000 421.125
55.91000 423.931
55.92000 427.516
55.93000 431.296
55.94000 435.798
55.95000 440.368
55.96000 442.361
55.97000 437.887
55.98000 433.101
55.99000 430.070
56.00000 435.224
56.01000 439.060
56.02000 432.005
56.03000 412.725
56.04000 393.486
56.05000 382.331
56.06000 377.042
56.07000 371.857
56.08000 367.922
56.09000 364.720
56.10000 361.330
56.11000 355.199
56.12000 348.163
56.13000 341.192
56.14000 334.755
56.15000 328.436
56.16000 323.042
56.17000 316.566
56.18000 310.985
56.19000 304.647
56.20000 295.750
56.21000 286.644
56.22000 279.527
56.23000 276.959
56.24000 274.570
56.25000 273.114
56.26000 263.790
56.27000 257.064
56.28000 249.641
56.29000 241.514
56.30000 233.390
56.31000 225.400
56.32000 217.499
56.33000 209.800
56.34000 207.968
56.35000 208.704
56.36000 208.955
56.37000 203.154
56.38000 195.537
56.39000 189.449
56.40000 194.435
56.41000 201.623
56.42000 207.649
56.43000 199.429
56.44000 191.112
56.45000 185.759
56.46000 189.516
56.47000 193.912
56.48000 193.237
56.49000 181.998
56.50000 170.430
56.51000 163.665
56.52000 170.830
56.53000 175.936
56.54000 175.871
56.55000 171.125
56.56000 166.465
56.57000 167.269
56.58000 171.336
56.59000 175.271
56.60000 170.560
56.61000 162.807
56.62000 155.711
56.63000 155.729
56.64000 157.688
56.65000 159.266
56.66000 158.380
56.67000 157.053
56.68000 155.961
56.69000 155.590
56.70000 155.349
56.71000 155.126
56.72000 154.948
56.73000 154.773
56.74000 154.960
56.75000 155.834
56.76000 156.725
56.77000 157.223
56.78000 150.575
56.79000 145.964
56.80000 146.035
56.81000 149.925
56.82000 153.695
56.83000 152.025
56.84000 147.400
56.85000 142.958
56.86000 146.137
56.87000 151.737
56.88000 156.720
56.89000 155.872
56.90000 153.582
56.91000 151.411
56.92000 149.935
56.93000 148.569
56.94000 147.469
56.95000 146.130
56.96000 145.023
56.97000 143.913
56.98000 142.795
56.99000 141.676
57.00000 143.302
57.01000 149.663
57.02000 156.108
57.03000 159.545
57.04000 150.799
57.05000 144.850
57.06000 142.206
57.07000 142.000
57.08000 141.886
57.09000 144.994
57.10000 149.695
57.11000 154.171
57.12000 153.014
57.13000 150.193
57.14000 147.272
57.15000 143.521
57.16000 139.584
57.17000 136.664
57.18000 139.028
57.19000 142.148
57.20000 144.608
57.21000 144.626
57.22000 144.477
57.23000 144.402
57.24000 144.498
57.25000 144.601
57.26000 143.536
57.27000 140.640
57.28000 137.722
57.29000 136.244
57.30000 142.745
57.31000 147.068
57.32000 148.335
57.33000 147.561
57.34000 146.726
57.35000 144.233
57.36000 140.994
57.37000 137.938
57.38000 141.369
57.39000 146.328
57.40000 150.808
57.41000 151.752
57.42000 151.981
57.43000 151.233
57.44000 145.908
57.45000 140.001
57.46000 135.453
57.47000 133.924
57.48000 132.885
57.49000 131.453
57.50000 129.189
57.51000 126.899
57.52000 126.977
57.53000 130.423
57.54000 133.894
57.55000 134.210
57.56000 131.623
57.57000 129.112
57.58000 131.728
57.59000 137.452
57.60000 142.969
57.61000 143.882
57.62000 142.906
57.63000 141.995
57.64000 146.706
57.65000 152.390
57.66000 156.548
57.67000 150.677
57.68000 142.980
57.69000 136.853
57.70000 137.380
57.71000 138.654
57.72000 139.610
57.73000 136.338
57.74000 133.578
57.75000 133.536
57.76000 138.729
57.77000 144.051
57.78000 145.014
57.79000 140.366
57.80000 135.702
57.81000 134.241
57.82000 135.432
57.83000 136.607
57.84000 137.022
57.85000 137.018
57.86000 137.014
57.87000 136.993
57.88000 136.966
57.89000 136.941
57.90000 137.308
57.91000 137.726
57.92000 137.515
57.93000 133.604
57.94000 129.089
57.95000 126.989
57.96000 134.160
57.97000 142.245
57.98000 148.156
57.99000 146.428
58.00000 144.794
58.01000 143.849
58.02000 144.112
58.03000 144.398
58.04000 142.728
58.05000 138.786
58.06000 134.851
58.07000 133.545
58.08000 134.202
58.09000 134.866
58.10000 135.788
58.11000 136.840
58.12000 137.760
58.13000 136.642
58.14000 134.830
58.15000 133.178
58.16000 133.027
58.17000 133.196
58.18000 133.127
58.19000 131.797
58.20000 130.282
58.21000 130.029
58.22000 134.172
58.23000 138.691
58.24000 141.903
58.25000 135.924
58.26000 131.079
58.27000 130.085
58.28000 135.225
58.29000 140.443
58.30000 142.713
58.31000 141.905
58.32000 141.100
58.33000 143.487
58.34000 147.983
58.35000 152.242
58.36000 149.754
58.37000 144.183
58.38000 138.785
58.39000 135.653
58.40000 133.223
58.41000 131.035
58.42000 134.598
58.43000 138.761
58.44000 141.803
58.45000 139.509
58.46000 136.522
58.47000 134.137
58.48000 133.662
58.49000 133.327
58.50000 133.097
58.51000 131.200
58.52000 129.733
58.53000 130.066
58.54000 132.998
58.55000 135.951
58.56000 137.498
58.57000 137.729
58.58000 137.958
58.59000 137.176
58.60000 135.798
58.61000 134.519
58.62000 135.503
58.63000 137.428
58.64000 139.113
58.65000 138.079
58.66000 136.280
58.67000 134.683
58.68000 134.381
58.69000 134.327
58.70000 134.986
58.71000 138.715
58.72000 142.796
58.73000 145.395
58.74000 143.719
58.75000 141.774
58.76000 140.477
58.77000 137.312
58.78000 134.932
58.79000 133.805
58.80000 134.317
58.81000 134.837
58.82000 135.411
58.83000 136.032
58.84000 136.645
58.85000 137.192
58.86000 137.688
58.87000 138.191
58.88000 138.799
58.89000 139.448
58.90000 139.967
58.91000 139.209
58.92000 138.124
58.93000 137.176
58.94000 132.520
58.95000 128.001
58.96000 125.243
58.97000 129.350
58.98000 134.149
58.99000 137.434
59.00000 136.741
59.01000 135.839
59.02000 135.257
59.03000 135.625
59.04000 135.908
59.05000 134.462
59.06000 130.975
59.07000 127.496
59.08000 126.549
59.09000 127.531
59.10000 128.496
59.11000 129.796
59.12000 131.217
59.13000 132.771
59.14000 136.410
59.15000 140.770
59.16000 144.529
59.17000 143.082
59.18000 140.430
59.19000 138.148
59.20000 137.022
59.21000 136.215
59.22000 134.556
59.23000 129.884
59.24000 124.947
59.25000 121.796
59.26000 122.919
59.27000 124.228
59.28000 125.040
59.29000 130.475
59.30000 134.433
59.31000 133.853
59.32000 128.452
59.33000 123.105
59.34000 124.322
59.35000 130.067
59.36000 135.680
59.37000 136.503
59.38000 135.161
59.39000 133.806
59.40000 132.271
59.41000 130.678
59.42000 129.406
59.43000 130.596
59.44000 132.300
59.45000 133.742
59.46000 131.938
59.47000 130.069
59.48000 127.978
59.49000 125.168
59.50000 122.305
59.51000 122.526
59.52000 129.469
59.53000 136.648
59.54000 140.933
59.55000 139.095
59.56000 137.754
59.57000 137.543
59.58000 138.410
59.59000 139.225
59.60000 136.047
59.61000 130.372
59.62000 124.860
59.63000 128.958
59.64000 136.705
59.65000 143.918
59.66000 144.941
59.67000 144.196
59.68000 143.296
59.69000 141.347
59.70000 139.199
59.71000 137.417
59.72000 134.930
59.73000 132.806
59.74000 131.990
59.75000 135.001
59.76000 138.260
59.77000 140.095
59.78000 139.104
59.79000 138.036
59.80000 137.425
59.81000 135.642
59.82000 134.393
59.83000 133.680
59.84000 133.426
59.85000 133.146
59.86000 131.462
59.87000 128.980
59.88000 126.588
59.89000 128.335
59.90000 131.476
59.91000 134.306
59.92000 133.994
59.93000 132.866
59.94000 132.039
59.95000 133.045
59.96000 134.360
59.97000 135.431
59.98000 133.935
59.99000 132.498
60.00000 131.566
60.01000 131.979
60.02000 132.466
60.03000 132.513
60.04000 131.766
60.05000 131.002
60.06000 130.585
60.07000 129.938
60.08000 129.499
60.09000 130.252
60.10000 131.930
60.11000 133.601
60.12000 135.019
60.13000 136.307
60.14000 137.538
60.15000 135.261
60.16000 131.995
60.17000 129.193
60.18000 130.486
60.19000 132.742
60.20000 134.996
60.21000 137.233
60.22000 139.468
60.23000 141.249
60.24000 133.202
60.25000 126.000
60.26000 122.299
60.27000 127.101
60.28000 132.284
60.29000 135.744
60.30000 136.374
60.31000 136.962
60.32000 137.268
60.33000 133.570
60.34000 131.090
60.35000 130.990
60.36000 132.558
60.37000 134.048
60.38000 133.192
60.39000 131.231
60.40000 129.373
60.41000 127.848
60.42000 126.541
60.43000 125.573
60.44000 127.254
60.45000 129.497
60.46000 131.499
60.47000 132.311
60.48000 132.963
60.49000 133.470
60.50000 133.589
60.51000 133.659
60.52000 134.130
60.53000 135.490
60.54000 136.881
60.55000 137.907
60.56000 138.389
60.57000 138.865
60.58000 137.803
60.59000 135.249
60.60000 132.735
60.61000 133.441
60.62000 136.192
60.63000 138.707
60.64000 135.424
60.65000 129.654
60.66000 124.238
60.67000 127.334
60.68000 132.409
60.69000 136.695
60.70000 135.494
60.71000 133.242
60.72000 131.142
60.73000 129.718
60.74000 128.375
60.75000 127.354
60.76000 126.128
60.77000 125.154
60.78000 126.629
60.79000 133.043
60.80000 139.596
60.81000 144.300
60.82000 146.505
60.83000 148.695
60.84000 145.953
60.85000 138.923
60.86000 131.973
60.87000 129.567
60.88000 129.784
60.89000 130.067
60.90000 131.692
60.91000 133.840
60.92000 135.835
60.93000 136.815
60.94000 137.457
60.95000 137.611
60.96000 134.734
60.97000 131.334
60.98000 128.273
60.99000 126.571
61.00000 125.013
61.01000 123.858
61.02000 128.340
61.03000 132.063
61.04000 133.938
61.05000 132.422
61.06000 130.833
61.07000 131.306
61.08000 134.297
61.09000 137.289
61.10000 137.259
61.11000 134.864
61.12000 132.519
61.13000 132.271
61.14000 133.124
61.15000 134.035
61.16000 135.904
61.17000 138.114
61.18000 140.143
61.19000 139.134
61.20000 137.585
61.21000 136.586
61.22000 138.642
61.23000 141.170
61.24000 142.456
61.25000 139.209
61.26000 135.547
61.27000 132.908
61.28000 131.392
61.29000 130.271
61.30000 130.022
61.31000 131.229
61.32000 132.458
61.33000 133.338
61.34000 133.833
61.35000 134.326
61.36000 133.452
61.37000 131.624
61.38000 129.935
61.39000 132.651
61.40000 137.472
61.41000 142.064
61.42000 143.404
61.43000 143.690
61.44000 143.949
61.45000 142.202
61.46000 140.278
61.47000 139.672
61.48000 145.665
61.49000 152.565
61.50000 157.720
61.51000 157.085
61.52000 155.990
61.53000 155.224
61.54000 171.684
61.55000 184.617
61.56000 197.675
61.57000 210.920
61.58000 224.167
61.59000 236.145
61.60000 246.871
61.61000 257.522
61.62000 261.480
61.63000 261.122
61.64000 260.830
61.65000 262.207
61.66000 264.310
61.67000 266.528
61.68000 270.145
61.69000 274.176
61.70000 277.780
61.71000 277.617
61.72000 276.835
61.73000 275.847
61.74000 273.925
61.75000 271.890
61.76000 266.556
61.77000 251.265
61.78000 235.297
61.79000 224.469
61.80000 218.083
61.81000 213.419
61.82000 202.088
61.83000 181.605
61.84000 161.073
61.85000 148.345
61.86000 142.541
61.87000 136.797
61.88000 140.804
61.89000 150.310
61.90000 159.096
61.91000 152.996
61.92000 140.990
61.93000 129.985
61.94000 129.543
61.95000 131.929
61.96000 134.031
61.97000 133.365
61.98000 132.372
61.99000 133.011
62.00000 140.325
62.01000 148.354
62.02000 153.833
62.03000 152.301
62.04000 150.365
62.05000 149.096
62.06000 141.748
62.07000 136.243
62.08000 133.450
62.09000 134.025
62.10000 134.615
62.11000 136.883
62.12000 140.493
62.13000 144.051
62.14000 142.541
62.15000 138.456
62.16000 134.610
62.17000 134.873
62.18000 136.623
62.19000 138.219
62.20000 138.404
62.21000 138.247
62.22000 138.110
62.23000 136.446
62.24000 134.825
62.25000 133.957
62.26000 135.884
62.27000 138.073
62.28000 140.678
62.29000 144.323
62.30000 148.018
62.31000 150.355
62.32000 148.990
62.33000 147.956
62.34000 146.036
62.35000 143.123
62.36000 140.199
62.37000 135.553
62.38000 129.663
62.39000 123.890
62.40000 129.720
62.41000 140.750
62.42000 151.008
62.43000 150.043
62.44000 145.385
62.45000 141.315
62.46000 142.034
62.47000 143.804
62.48000 145.315
62.49000 145.372
62.50000 145.249
62.51000 144.390
62.52000 141.048
62.53000 137.504
62.54000 136.149
62.55000 139.784
62.56000 143.614
62.57000 145.945
62.58000 139.961
62.59000 135.621
62.60000 134.388
62.61000 136.278
62.62000 138.145
62.63000 137.873
62.64000 136.199
62.65000 134.567
62.66000 135.475
62.67000 137.410
62.68000 139.369
62.69000 141.612
62.70000 143.940
62.71000 146.027
62.72000 146.373
62.73000 146.374
62.74000 146.375
62.75000 147.471
62.76000 148.496
62.77000 149.514
62.78000 150.509
62.79000 151.502
62.80000 152.247
62.81000 152.473
62.82000 152.684
62.83000 152.807
62.84000 153.208
62.85000 153.491
62.86000 153.630
62.87000 153.640
62.88000 153.597
62.89000 150.216
62.90000 144.849
62.91000 139.656
62.92000 139.820
62.93000 142.014
62.94000 143.854
62.95000 141.880
62.96000 138.869
62.97000 136.976
62.98000 142.272
62.99000 148.850
63.00000 154.256
63.01000 146.090
63.02000 138.159
63.03000 133.583
63.04000 138.364
63.05000 143.699
63.06000 146.192
63.07000 143.307
63.08000 140.295
63.09000 138.612
63.10000 145.882
63.11000 150.929
63.12000 153.613
63.13000 154.374
63.14000 155.099
63.15000 154.209
63.16000 152.444
63.17000 150.750
63.18000 149.215
63.19000 147.834
63.20000 146.866
63.21000 149.781
63.22000 153.653
63.23000 156.442
63.24000 152.985
63.25000 148.530
63.26000 144.944
63.27000 148.219
63.28000 151.412
63.29000 152.729
63.30000 149.282
63.31000 145.600
63.32000 143.275
63.33000 143.283
63.34000 143.333
63.35000 143.359
63.36000 145.640
63.37000 147.201
63.38000 149.652
63.39000 152.758
63.40000 155.691
63.41000 152.638
63.42000 146.635
63.43000 140.919
63.44000 140.920
63.45000 142.689
63.46000 144.318
63.47000 144.775
63.48000 144.971
63.49000 145.334
63.50000 146.558
63.51000 147.906
63.52000 148.967
63.53000 146.148
63.54000 143.630
63.55000 142.902
63.56000 146.317
63.57000 149.900
63.58000 150.580
63.59000 146.721
63.60000 142.809
63.61000 140.830
63.62000 147.474
63.63000 151.870
63.64000 151.272
63.65000 147.348
63.66000 143.617
63.67000 145.141
63.68000 149.023
63.69000 152.685
63.70000 151.129
63.71000 148.249
63.72000 146.010
63.73000 148.473
63.74000 151.886
63.75000 154.910
63.76000 156.121
63.77000 157.103
63.78000 157.858
63.79000 158.041
63.80000 158.153
63.81000 158.253
63.82000 158.329
63.83000 158.404
63.84000 158.889
63.85000 159.953
63.86000 161.021
63.87000 158.295
63.88000 152.088
63.89000 145.942
63.90000 143.794
63.91000 144.064
63.92000 144.384
63.93000 145.790
63.94000 147.641
63.95000 149.370
63.96000 154.830
63.97000 160.716
63.98000 165.737
63.99000 165.097
64.00000 163.429
64.01000 161.873
64.02000 160.794
64.03000 159.767
64.04000 158.997
64.05000 155.233
64.06000 152.150
64.07000 150.788
64.08000 152.731
64.09000 154.755
64.10000 157.709
64.11000 161.853
64.12000 165.998
64.13000 165.606
64.14000 161.478
64.15000 157.408
64.16000 156.146
64.17000 156.426
64.18000 156.825
64.19000 159.383
64.20000 162.745
64.21000 165.849
64.22000 163.518
64.23000 160.206
64.24000 157.890
64.25000 161.419
64.26000 165.899
64.27000 168.362
64.28000 163.105
64.29000 157.090
64.30000 152.696
64.31000 152.969
64.32000 153.363
64.33000 154.699
64.34000 157.680
64.35000 160.690
64.36000 161.269
64.37000 159.034
64.38000 156.801
64.39000 158.215
64.40000 162.323
64.41000 166.263
64.42000 164.147
64.43000 159.000
64.44000 154.019
64.45000 151.563
64.46000 149.963
64.47000 148.505
64.48000 154.554
64.49000 161.429
64.50000 167.742
64.51000 171.093
64.52000 174.012
64.53000 175.529
64.54000 172.169
64.55000 168.394
64.56000 165.713
64.57000 170.364
64.58000 174.136
64.59000 174.574
64.60000 169.719
64.61000 164.797
64.62000 164.865
64.63000 170.128
64.64000 175.362
64.65000 175.461
64.66000 172.126
64.67000 168.969
64.68000 170.801
64.69000 174.907
64.70000 178.818
64.71000 180.174
64.72000 180.742
64.73000 181.253
64.74000 180.692
64.75000 180.007
64.76000 179.304
64.77000 178.519
64.78000 177.723
64.79000 177.090
64.80000 176.971
64.81000 176.890
64.82000 176.835
64.83000 177.536
64.84000 178.082
64.85000 178.974
64.86000 180.364
64.87000 181.758
64.88000 184.432
64.89000 188.302
64.90000 192.138
64.91000 186.239
64.92000 174.586
64.93000 163.410
64.94000 163.046
64.95000 167.172
64.96000 171.372
64.97000 176.418
64.98000 181.700
64.99000 186.390
65.00000 182.106
65.01000 176.957
65.02000 175.013
65.03000 186.822
65.04000 200.204
65.05000 209.677
65.06000 207.912
65.07000 205.445
65.08000 203.800
65.09000 196.705
65.10000 191.347
65.11000 192.134
65.12000 200.932
65.13000 209.758
65.14000 215.007
65.15000 217.249
65.16000 219.463
65.17000 221.179
65.18000 222.582
65.19000 223.949
65.20000 224.669
65.21000 225.144
65.22000 225.852
65.23000 228.852
65.24000 232.436
65.25000 235.569
65.26000 236.336
65.27000 236.656
65.28000 236.885
65.29000 236.753
65.30000 236.586
65.31000 237.751
65.32000 242.403
65.33000 247.238
65.34000 250.351
65.35000 250.042
65.36000 249.768
65.37000 253.285
65.38000 261.264
65.39000 269.227
65.40000 272.153
65.41000 271.256
65.42000 270.374
65.43000 274.729
65.44000 281.507
65.45000 288.250
65.46000 294.432
65.47000 300.421
65.48000 306.170
65.49000 309.850
65.50000 313.052
65.51000 315.806
65.52000 314.673
65.53000 313.225
65.54000 311.797
65.55000 310.433
65.56000 309.075
65.57000 309.595
65.58000 314.593
65.59000 319.785
65.60000 323.006
65.61000 334.681
65.62000 343.163
65.63000 353.109
65.64000 364.605
65.65000 376.167
65.66000 395.507
65.67000 420.194
65.68000 444.317
65.69000 483.113
65.70000 526.776
65.71000 570.533
65.72000 615.556
65.73000 660.977
65.74000 708.840
65.75000 775.365
65.76000 845.779
65.77000 905.298
65.78000 944.305
65.79000 974.672
65.80000 1007.401
65.81000 1047.709
65.82000 1088.589
65.83000 1120.930
65.84000 1134.712
65.85000 1147.850
65.86000 1155.682
65.87000 1166.160
65.88000 1173.601
65.89000 1163.858
65.90000 1137.787
65.91000 1111.737
65.92000 1087.227
65.93000 1063.677
65.94000 1040.813
65.95000 987.932
65.96000 925.735
65.97000 863.793
65.98000 804.792
65.99000 746.630
66.00000 688.519
66.01000 630.755
66.02000 573.056
66.03000 525.187
66.04000 486.856
66.05000 456.100
66.06000 426.223
66.07000 398.913
66.08000 371.768
66.09000 350.984
66.10000 342.793
66.11000 334.942
66.12000 330.459
66.13000 328.489
66.14000 327.119
66.15000 322.871
66.16000 316.165
66.17000 309.615
66.18000 311.262
66.19000 317.557
66.20000 323.624
66.21000 324.969
66.22000 324.529
66.23000 324.280
66.24000 325.947
66.25000 328.108
66.26000 332.084
66.27000 347.077
66.28000 363.928
66.29000 377.632
66.30000 388.497
66.31000 397.129
66.32000 406.819
66.33000 419.323
66.34000 431.978
66.35000 440.130
66.36000 440.166
66.37000 440.037
66.38000 439.967
66.39000 456.003
66.40000 467.002
66.41000 469.677
66.42000 465.930
66.43000 462.205
66.44000 459.359
66.45000 456.965
66.46000 454.676
66.47000 456.607
66.48000 459.777
66.49000 461.394
66.50000 449.308
66.51000 434.009
66.52000 420.069
66.53000 413.527
66.54000 408.102
66.55000 403.783
66.56000 386.050
66.57000 370.787
66.58000 357.120
66.59000 347.319
66.60000 337.690
66.61000 331.560
66.62000 331.160
66.63000 330.842
66.64000 330.678
66.65000 328.987
66.66000 327.831
66.67000 324.624
66.68000 319.987
66.69000 315.480
66.70000 314.919
66.71000 316.211
66.72000 317.435
66.73000 321.450
66.74000 325.967
66.75000 329.439
66.76000 324.768
66.77000 318.373
66.78000 314.116
66.79000 320.361
66.80000 328.016
66.81000 333.974
66.82000 338.945
66.83000 342.843
66.84000 345.264
66.85000 344.426
66.86000 343.471
66.87000 342.708
66.88000 342.228
66.89000 341.751
66.90000 340.775
66.91000 339.315
66.92000 337.858
66.93000 336.529
66.94000 335.281
66.95000 334.264
66.96000 338.864
66.97000 345.867
66.98000 352.439
66.99000 350.279
67.00000 346.009
67.01000 343.050
67.02000 349.178
67.03000 357.042
67.04000 363.306
67.05000 362.480
67.06000 360.811
67.07000 359.543
67.08000 357.932
67.09000 356.648
67.10000 359.315
67.11000 369.924
67.12000 380.757
67.13000 386.870
67.14000 386.625
67.15000 386.347
67.16000 387.283
67.17000 389.272
67.18000 391.215
67.19000 390.645
67.20000 388.628
67.21000 386.686
67.22000 386.230
67.23000 386.353
67.24000 386.467
67.25000 390.019
67.26000 394.036
67.27000 397.475
67.28000 397.344
67.29000 396.600
67.30000 395.569
67.31000 393.385
67.32000 391.080
67.33000 389.374
67.34000 404.173
67.35000 416.369
67.36000 423.701
67.37000 422.136
67.38000 420.382
67.39000 418.270
67.40000 415.725
67.41000 413.183
67.42000 413.249
67.43000 415.348
67.44000 417.445
67.45000 419.405
67.46000 421.295
67.47000 423.430
67.48000 429.641
67.49000 437.300
67.50000 444.328
67.51000 440.204
67.52000 434.157
67.53000 429.643
67.54000 433.622
67.55000 438.907
67.56000 441.799
67.57000 435.977
67.58000 429.358
67.59000 424.592
67.60000 434.614
67.61000 442.811
67.62000 445.745
67.63000 439.926
67.64000 433.972
67.65000 433.675
67.66000 439.579
67.67000 445.461
67.68000 446.649
67.69000 444.525
67.70000 442.738
67.71000 451.550
67.72000 465.417
67.73000 478.543
67.74000 481.242
67.75000 480.570
67.76000 479.961
67.77000 479.738
67.78000 479.615
67.79000 480.134
67.80000 483.853
67.81000 488.011
67.82000 492.354
67.83000 497.308
67.84000 502.312
67.85000 505.809
67.86000 511.864
67.87000 516.512
67.88000 520.599
67.89000 523.840
67.90000 527.073
67.91000 526.164
67.92000 521.179
67.93000 516.229
67.94000 519.847
67.95000 528.835
67.96000 537.507
67.97000 538.229
67.98000 535.498
67.99000 533.193
68.00000 536.046
68.01000 540.415
68.02000 544.321
68.03000 543.509
68.04000 542.002
68.05000 543.020
68.06000 555.409
68.07000 569.179
68.08000 579.583
68.09000 579.859
68.10000 579.450
68.11000 579.172
68.12000 582.108
68.13000 584.367
68.14000 585.876
68.15000 586.358
68.16000 586.839
68.17000 592.995
68.18000 604.170
68.19000 615.227
68.20000 617.347
68.21000 614.314
68.22000 611.474
68.23000 612.620
68.24000 615.342
68.25000 618.986
68.26000 632.314
68.27000 648.226
68.28000 662.244
68.29000 661.567
68.30000 658.773
68.31000 657.850
68.32000 664.555
68.33000 672.077
68.34000 677.861
68.35000 678.883
68.36000 679.632
68.37000 680.123
68.38000 695.841
68.39000 707.645
68.40000 713.909
68.41000 713.318
68.42000 712.722
68.43000 716.653
68.44000 724.193
68.45000 731.620
68.46000 741.636
68.47000 752.687
68.48000 764.294
68.49000 785.395
68.50000 809.918
68.51000 832.065
68.52000 832.373
68.53000 827.394
68.54000 823.077
68.55000 846.631
68.56000 870.400
68.57000 896.032
68.58000 928.556
68.59000 961.725
68.60000 994.430
68.61000 1025.978
68.62000 1057.472
68.63000 1077.373
68.64000 1137.259
68.65000 1181.123
68.66000 1233.358
68.67000 1294.930
68.68000 1356.460
68.69000 1410.363
68.70000 1458.765
68.71000 1506.195
68.72000 1574.446
68.73000 1649.795
68.74000 1723.999
68.75000 1781.632
68.76000 1833.827
68.77000 1887.363
68.78000 1951.760
68.79000 2018.537
68.80000 2075.469
68.81000 2154.362
68.82000 2223.318
68.83000 2304.906
68.84000 2428.929
68.85000 2556.392
68.86000 2702.660
68.87000 2891.694
68.88000 3082.381
68.89000 3198.318
68.90000 3810.254
68.91000 4251.042
68.92000 5117.664
68.93000 6410.799
68.94000 7715.303
68.95000 10075.350
68.96000 13125.327
68.97000 16096.086
68.98000 20359.051
68.99000 24966.576
69.00000 29584.705
69.01000 34334.227
69.02000 39122.965
69.03000 43738.730
69.04000 47111.184
69.05000 50237.930
69.06000 52856.031
69.07000 54603.652
69.08000 55966.785
69.09000 57065.566
69.10000 57356.629
69.11000 57591.555
69.12000 57920.871
69.13000 58445.715
69.14000 58976.551
69.15000 59286.207
69.16000 60263.336
69.17000 60953.176
69.18000 61172.598
69.19000 60968.949
69.20000 60738.707
69.21000 58850.828
69.22000 55978.980
69.23000 53200.762
69.24000 49959.051
69.25000 46721.500
69.26000 43531.957
69.27000 40857.848
69.28000 38323.512
69.29000 35903.320
69.30000 34214.801
69.31000 32656.367
69.32000 31376.424
69.33000 30395.188
69.34000 29616.191
69.35000 28865.537
69.36000 28193.715
69.37000 27526.529
69.38000 26538.621
69.39000 24945.807
69.40000 23338.791
69.41000 22442.215
69.42000 18910.127
69.43000 16460.172
69.44000 14150.723
69.45000 11955.161
69.46000 9771.157
69.47000 8107.620
69.48000 6725.046
69.49000 5397.751
69.50000 4456.893
69.51000 3709.227
69.52000 2997.169
69.53000 2619.303
69.54000 2323.626
69.55000 2052.195
69.56000 1919.967
69.57000 1809.924
69.58000 1721.392
69.59000 1607.885
69.60000 1513.879
69.61000 1430.850
69.62000 1375.634
69.63000 1321.781
69.64000 1277.159
69.65000 1248.371
69.66000 1219.855
69.67000 1204.692
69.68000 1140.687
69.69000 1097.152
69.70000 1064.529
69.71000 1039.901
69.72000 1015.312
69.73000 992.058
69.74000 969.462
69.75000 947.953
69.76000 929.504
69.77000 913.370
69.78000 897.159
69.79000 880.313
69.80000 863.327
69.81000 847.533
69.82000 837.890
69.83000 829.122
69.84000 822.221
69.85000 794.577
69.86000 771.054
69.87000 756.138
69.88000 761.093
69.89000 766.845
69.90000 761.919
69.91000 740.354
69.92000 718.594
69.93000 707.609
69.94000 705.182
69.95000 703.583
69.96000 704.481
69.97000 707.036
69.98000 709.277
69.99000 703.027
70.00000 692.976
