20.00000 555.143
20.01000 554.299
20.02000 553.334
20.03000 552.801
20.04000 553.958
20.05000 555.284
20.06000 556.259
20.07000 554.901
20.08000 553.754
20.09000 554.209
20.10000 557.518
20.11000 560.882
20.12000 557.264
20.13000 545.383
20.14000 533.518
20.15000 532.173
20.16000 538.816
20.17000 545.439
20.18000 551.358
20.19000 556.917
20.20000 562.100
20.21000 561.327
20.22000 558.492
20.23000 555.900
20.24000 554.791
20.25000 554.112
20.26000 553.887
20.27000 556.112
20.28000 558.702
20.29000 559.960
20.30000 556.495
20.31000 552.614
20.32000 549.841
20.33000 548.563
20.34000 547.637
20.35000 548.991
20.36000 554.038
20.37000 559.136
20.38000 562.320
20.39000 563.467
20.40000 564.607
20.41000 564.415
20.42000 563.315
20.43000 562.187
20.44000 560.247
20.45000 557.930
20.46000 556.011
20.47000 559.458
20.48000 564.597
20.49000 569.236
20.50000 573.023
20.51000 576.194
20.52000 577.067
20.53000 566.786
20.54000 555.026
20.55000 547.142
20.56000 551.753
20.57000 557.313
20.58000 561.168
20.59000 565.483
20.60000 568.743
20.61000 566.214
20.62000 555.168
20.63000 544.047
20.64000 539.179
20.65000 540.287
20.66000 541.385
20.67000 544.721
20.68000 549.375
20.69000 553.976
20.70000 557.309
20.71000 560.106
20.72000 562.188
20.73000 555.959
20.74000 547.349
20.75000 539.684
20.76000 538.954
20.77000 539.457
20.78000 540.111
20.79000 541.424
20.80000 542.814
20.81000 542.806
20.82000 538.699
20.83000 534.326
20.84000 531.390
20.85000 543.020
20.86000 551.953
20.87000 558.419
20.88000 561.597
20.89000 564.755
20.90000 565.659
20.91000 564.626
20.92000 563.605
20.93000 559.046
20.94000 552.632
20.95000 546.545
20.96000 546.818
20.97000 549.545
20.98000 552.583
20.99000 558.763
21.00000 565.760
21.01000 571.898
21.02000 572.027
21.03000 571.263
21.04000 568.371
21.05000 557.030
21.06000 544.816
21.07000 536.867
21.08000 540.306
21.09000 544.365
21.10000 546.999
21.11000 547.104
21.12000 547.142
21.13000 548.681
21.14000 552.023
21.15000 555.351
21.16000 553.747
21.17000 548.320
21.18000 542.981
21.19000 542.812
21.20000 545.243
21.21000 547.592
21.22000 548.613
21.23000 549.167
21.24000 549.092
21.25000 543.422
21.26000 536.435
21.27000 530.404
21.28000 535.048
21.29000 540.365
21.30000 545.256
21.31000 548.614
21.32000 551.833
21.33000 550.783
21.34000 539.345
21.35000 527.438
21.36000 519.991
21.37000 523.663
21.38000 526.431
21.39000 528.823
21.40000 530.808
21.41000 532.795
21.42000 535.111
21.43000 537.656
21.44000 540.147
21.45000 540.086
21.46000 538.872
21.47000 537.646
21.48000 536.244
21.49000 534.787
21.50000 533.745
21.51000 535.959
21.52000 538.867
21.53000 541.335
21.54000 552.968
21.55000 563.763
21.56000 570.336
21.57000 563.089
21.58000 554.767
21.59000 549.772
21.60000 552.155
21.61000 554.807
21.62000 556.401
21.63000 566.370
21.64000 573.516
21.65000 579.041
21.66000 582.992
21.67000 586.896
21.68000 586.985
21.69000 584.646
21.70000 582.373
21.71000 591.868
21.72000 605.710
21.73000 619.421
21.74000 631.583
21.75000 643.293
21.76000 654.692
21.77000 663.918
21.78000 672.727
21.79000 680.065
21.80000 685.430
21.81000 689.680
21.82000 693.691
21.83000 696.996
21.84000 700.253
21.85000 706.388
21.86000 718.334
21.87000 730.446
21.88000 737.429
21.89000 760.217
21.90000 776.231
21.91000 790.121
21.92000 802.154
21.93000 814.178
21.94000 825.662
21.95000 836.835
21.96000 847.622
21.97000 854.035
21.98000 858.462
21.99000 863.302
22.00000 872.415
22.01000 882.656
22.02000 891.484
22.03000 891.532
22.04000 890.063
22.05000 888.863
22.06000 855.589
22.07000 825.589
22.08000 804.595
22.09000 808.025
22.10000 812.824
22.11000 813.040
22.12000 804.831
22.13000 796.439
22.14000 791.817
22.15000 793.237
22.16000 794.194
22.17000 785.805
22.18000 770.047
22.19000 754.239
22.20000 736.349
22.21000 717.362
22.22000 699.175
22.23000 695.843
22.24000 697.679
22.25000 697.844
22.26000 682.887
22.27000 664.308
22.28000 648.166
22.29000 645.603
22.30000 645.140
22.31000 644.769
22.32000 639.576
22.33000 635.018
22.34000 629.869
22.35000 623.259
22.36000 616.580
22.37000 609.456
22.38000 601.586
22.39000 593.705
22.40000 589.571
22.41000 582.176
22.42000 577.156
22.43000 570.956
22.44000 563.915
22.45000 557.069
22.46000 556.472
22.47000 558.868
22.48000 561.144
22.49000 558.954
22.50000 555.594
22.51000 552.227
22.52000 548.795
22.53000 545.350
22.54000 542.211
22.55000 540.606
22.56000 539.213
22.57000 538.124
22.58000 538.695
22.59000 539.257
22.60000 538.817
22.61000 536.125
22.62000 533.348
22.63000 534.875
22.64000 542.937
22.65000 551.067
22.66000 551.800
22.67000 545.214
22.68000 538.628
22.69000 532.096
22.70000 525.597
22.71000 519.134
22.72000 513.577
22.73000 508.415
22.74000 503.560
22.75000 509.144
22.76000 517.061
22.77000 523.897
22.78000 523.066
22.79000 520.737
22.80000 518.619
22.81000 517.462
22.82000 516.421
22.83000 515.626
22.84000 508.246
22.85000 502.074
22.86000 498.120
22.87000 498.711
22.88000 499.439
22.89000 500.852
22.90000 503.210
22.91000 505.572
22.92000 509.687
22.93000 515.355
22.94000 520.868
22.95000 517.125
22.96000 507.947
22.97000 499.299
22.98000 501.619
22.99000 508.302
23.00000 514.521
23.01000 510.883
23.02000 505.207
23.03000 500.186
23.04000 499.321
23.05000 499.185
23.06000 499.313
23.07000 500.520
23.08000 501.844
23.09000 502.829
23.10000 508.993
23.11000 514.022
23.12000 517.522
23.13000 518.166
23.14000 518.746
23.15000 517.079
23.16000 512.616
23.17000 508.153
23.18000 508.689
23.19000 513.212
23.20000 517.576
23.21000 515.022
23.22000 508.772
23.23000 502.895
23.24000 503.437
23.25000 506.304
23.26000 508.943
23.27000 507.705
23.28000 505.755
23.29000 504.174
23.30000 504.676
23.31000 505.506
23.32000 507.101
23.33000 511.537
23.34000 516.241
23.35000 519.649
23.36000 510.449
23.37000 502.919
23.38000 499.546
23.39000 503.230
23.40000 507.031
23.41000 510.027
23.42000 512.121
23.43000 514.208
23.44000 510.634
23.45000 503.025
23.46000 495.563
23.47000 492.978
23.48000 492.764
23.49000 492.313
23.50000 488.413
23.51000 483.375
23.52000 478.797
23.53000 481.643
23.54000 485.601
23.55000 490.025
23.56000 496.823
23.57000 503.954
23.58000 508.181
23.59000 502.606
23.60000 496.230
23.61000 491.743
23.62000 499.699
23.63000 506.098
23.64000 510.343
23.65000 511.270
23.66000 512.160
23.67000 510.126
23.68000 505.148
23.69000 500.201
23.70000 499.738
23.71000 502.184
23.72000 504.339
23.73000 498.803
23.74000 489.861
23.75000 481.886
23.76000 486.005
23.77000 493.750
23.78000 500.695
23.79000 496.632
23.80000 491.172
23.81000 488.484
23.82000 498.560
23.83000 510.226
23.84000 517.358
23.85000 510.568
23.86000 502.803
23.87000 497.506
23.88000 494.807
23.89000 492.850
23.90000 490.922
23.91000 489.033
23.92000 487.146
23.93000 486.752
23.94000 487.707
23.95000 488.653
23.96000 488.978
23.97000 488.935
23.98000 489.044
23.99000 492.406
24.00000 497.082
24.01000 501.364
24.02000 501.386
24.03000 500.247
24.04000 499.241
24.05000 498.719
24.06000 498.344
24.07000 498.060
24.08000 498.157
24.09000 498.296
24.10000 496.459
24.11000 489.100
24.12000 481.412
24.13000 476.339
24.14000 478.127
24.15000 479.565
24.16000 478.817
24.17000 475.302
24.18000 471.781
24.19000 469.563
24.20000 468.406
24.21000 467.265
24.22000 466.810
24.23000 466.729
24.24000 466.727
24.25000 468.136
24.26000 470.063
24.27000 471.976
24.28000 473.747
24.29000 475.483
24.30000 476.994
24.31000 475.300
24.32000 473.416
24.33000 472.804
24.34000 476.994
24.35000 481.646
24.36000 484.137
24.37000 481.123
24.38000 477.838
24.39000 475.745
24.40000 476.625
24.41000 477.303
24.42000 478.386
24.43000 479.933
24.44000 481.482
24.45000 483.388
24.46000 485.558
24.47000 487.686
24.48000 488.482
24.49000 488.614
24.50000 488.458
24.51000 483.984
24.52000 478.064
24.53000 472.679
24.54000 471.748
24.55000 471.813
24.56000 471.869
24.57000 474.001
24.58000 476.051
24.59000 477.368
24.60000 476.175
24.61000 474.771
24.62000 474.906
24.63000 478.612
24.64000 482.462
24.65000 484.823
24.66000 491.458
24.67000 496.247
24.68000 489.087
24.69000 469.678
24.70000 450.462
24.71000 451.158
24.72000 465.140
24.73000 478.778
24.74000 483.545
24.75000 484.289
24.76000 484.824
24.77000 482.695
24.78000 479.756
24.79000 476.977
24.80000 475.381
24.81000 474.025
24.82000 472.885
24.83000 471.780
24.84000 470.862
24.85000 470.761
24.86000 473.205
24.87000 475.831
24.88000 476.226
24.89000 471.902
24.90000 467.426
24.91000 464.791
24.92000 463.616
24.93000 462.795
24.94000 463.651
24.95000 466.048
24.96000 468.450
24.97000 471.245
24.98000 474.276
24.99000 477.213
25.00000 479.300
25.01000 480.945
25.02000 481.949
25.03000 475.855
25.04000 467.797
25.05000 461.337
25.06000 465.376
25.07000 471.325
25.08000 476.231
25.09000 477.549
25.10000 478.302
25.11000 478.546
25.12000 477.345
25.13000 476.056
25.14000 474.200
25.15000 471.254
25.16000 468.281
25.17000 466.605
25.18000 473.978
25.19000 479.113
25.20000 479.724
25.21000 476.590
25.22000 473.426
25.23000 468.896
25.24000 463.612
25.25000 458.531
25.26000 460.747
25.27000 465.377
25.28000 469.685
25.29000 470.882
25.30000 471.299
25.31000 471.241
25.32000 468.397
25.33000 465.098
25.34000 462.432
25.35000 467.180
25.36000 471.634
25.37000 475.435
25.38000 477.548
25.39000 479.575
25.40000 478.569
25.41000 472.257
25.42000 465.846
25.43000 462.401
25.44000 464.685
25.45000 466.239
25.46000 465.370
25.47000 462.689
25.48000 460.087
25.49000 460.346
25.50000 462.040
25.51000 463.655
25.52000 458.245
25.53000 451.009
25.54000 444.447
25.55000 443.594
25.56000 444.040
25.57000 445.419
25.58000 451.722
25.59000 458.743
25.60000 464.295
25.61000 465.477
25.62000 466.127
25.63000 464.501
25.64000 457.516
25.65000 450.307
25.66000 447.763
25.67000 452.641
25.68000 457.613
25.69000 460.152
25.70000 455.605
25.71000 452.638
25.72000 459.203
25.73000 472.231
25.74000 484.803
25.75000 484.464
25.76000 478.230
25.77000 472.340
25.78000 459.718
25.79000 446.217
25.80000 434.867
25.81000 439.673
25.82000 447.797
25.83000 454.181
25.84000 452.283
25.85000 449.312
25.86000 447.016
25.87000 451.987
25.88000 456.355
25.89000 456.543
25.90000 447.765
25.91000 438.686
25.92000 438.908
25.93000 452.556
25.94000 466.309
25.95000 470.746
25.96000 466.464
25.97000 462.233
25.98000 461.573
25.99000 463.112
26.00000 464.661
26.01000 466.461
26.02000 468.365
26.03000 470.145
26.04000 463.273
26.05000 454.821
26.06000 448.981
26.07000 460.609
26.08000 475.470
26.09000 486.138
26.10000 478.777
26.11000 469.350
26.12000 462.245
26.13000 454.186
26.14000 447.828
26.15000 446.167
26.16000 453.678
26.17000 461.429
26.18000 462.344
26.19000 454.328
26.20000 446.282
26.21000 440.211
26.22000 435.817
26.23000 431.557
26.24000 434.105
26.25000 440.459
26.26000 446.711
26.27000 451.053
26.28000 454.672
26.29000 458.020
26.30000 457.820
26.31000 456.826
26.32000 456.565
26.33000 460.692
26.34000 465.547
26.35000 466.977
26.36000 455.060
26.37000 441.800
26.38000 432.065
26.39000 436.034
26.40000 439.658
26.41000 441.526
26.42000 440.272
26.43000 438.958
26.44000 438.442
26.45000 438.868
26.46000 439.294
26.47000 436.286
26.48000 430.701
26.49000 425.451
26.50000 432.861
26.51000 446.715
26.52000 459.630
26.53000 457.738
26.54000 450.735
26.55000 444.332
26.56000 445.885
26.57000 448.899
26.58000 451.794
26.59000 454.053
26.60000 456.218
26.61000 457.727
26.62000 456.922
26.63000 455.915
26.64000 455.195
26.65000 453.116
26.66000 451.485
26.67000 450.013
26.68000 448.798
26.69000 447.587
26.70000 446.180
26.71000 444.564
26.72000 442.956
26.73000 446.945
26.74000 454.697
26.75000 462.109
26.76000 459.534
26.77000 452.329
26.78000 445.744
26.79000 447.481
26.80000 451.832
26.81000 455.759
26.82000 447.561
26.83000 438.134
26.84000 429.998
26.85000 428.111
26.86000 427.050
26.87000 427.722
26.88000 433.968
26.89000 440.634
26.90000 445.252
26.91000 448.378
26.92000 450.692
26.93000 448.624
26.94000 440.129
26.95000 431.579
26.96000 429.572
26.97000 433.796
26.98000 437.986
26.99000 434.118
27.00000 425.372
27.01000 417.037
27.02000 418.381
27.03000 423.812
27.04000 429.348
27.05000 436.099
27.06000 443.196
27.07000 449.513
27.08000 444.159
27.09000 437.601
27.10000 431.073
27.11000 424.674
27.12000 418.291
27.13000 414.666
27.14000 419.109
27.15000 424.071
27.16000 427.400
27.17000 430.894
27.18000 433.491
27.19000 432.372
27.20000 426.317
27.21000 420.252
27.22000 423.576
27.23000 434.944
27.24000 446.176
27.25000 450.574
27.26000 451.076
27.27000 451.360
27.28000 447.403
27.29000 441.814
27.30000 436.941
27.31000 439.283
27.32000 443.496
27.33000 447.189
27.34000 442.222
27.35000 436.701
27.36000 432.059
27.37000 430.892
27.38000 430.083
27.39000 431.210
27.40000 437.491
27.41000 444.052
27.42000 448.304
27.43000 451.798
27.44000 454.344
27.45000 452.741
27.46000 446.162
27.47000 439.587
27.48000 436.656
27.49000 436.541
27.50000 436.429
27.51000 436.151
27.52000 435.799
27.53000 435.334
27.54000 433.048
27.55000 430.124
27.56000 427.682
27.57000 429.515
27.58000 432.353
27.59000 434.800
27.60000 430.621
27.61000 426.226
27.62000 422.632
27.63000 421.922
27.64000 421.469
27.65000 423.330
27.66000 430.803
27.67000 438.528
27.68000 443.354
27.69000 430.636
27.70000 421.277
27.71000 414.943
27.72000 411.876
27.73000 408.877
27.74000 414.577
27.75000 426.363
27.76000 437.892
27.77000 435.868
27.78000 427.807
27.79000 420.693
27.80000 426.621
27.81000 436.708
27.82000 445.398
27.83000 443.170
27.84000 438.625
27.85000 434.770
27.86000 433.229
27.87000 432.197
27.88000 429.770
27.89000 422.782
27.90000 415.442
27.91000 410.082
27.92000 409.102
27.93000 408.281
27.94000 407.787
27.95000 423.245
27.96000 434.338
27.97000 436.368
27.98000 429.614
27.99000 422.913
28.00000 420.417
28.01000 420.590
28.02000 420.758
28.03000 420.553
28.04000 420.207
28.05000 420.417
28.06000 427.229
28.07000 435.956
28.08000 442.417
28.09000 433.150
28.10000 420.872
28.11000 410.650
28.12000 413.442
28.13000 417.040
28.14000 420.484
28.15000 423.470
28.16000 426.426
28.17000 427.549
28.18000 424.983
28.19000 422.312
28.20000 420.774
28.21000 427.692
28.22000 432.563
28.23000 435.227
28.24000 435.968
28.25000 436.697
28.26000 436.787
28.27000 436.508
28.28000 436.239
28.29000 432.704
28.30000 428.174
28.31000 423.337
28.32000 415.332
28.33000 406.493
28.34000 400.459
28.35000 411.804
28.36000 426.140
28.37000 437.843
28.38000 436.549
28.39000 434.373
28.40000 431.804
28.41000 428.170
28.42000 424.476
28.43000 421.139
28.44000 418.457
28.45000 415.789
28.46000 414.321
28.47000 419.687
28.48000 423.394
28.49000 427.382
28.50000 431.590
28.51000 435.604
28.52000 431.635
28.53000 423.478
28.54000 415.667
28.55000 417.345
28.56000 422.056
28.57000 425.829
28.58000 421.128
28.59000 414.404
28.60000 408.522
28.61000 407.312
28.62000 406.822
28.63000 406.430
28.64000 411.126
28.65000 415.298
28.66000 417.680
28.67000 415.652
28.68000 413.421
28.69000 412.502
28.70000 413.772
28.71000 415.075
28.72000 415.758
28.73000 414.824
28.74000 414.206
28.75000 415.676
28.76000 418.630
28.77000 421.380
28.78000 417.616
28.79000 410.741
28.80000 404.216
28.81000 405.308
28.82000 408.592
28.83000 411.196
28.84000 408.379
28.85000 404.392
28.86000 401.646
28.87000 405.114
28.88000 409.434
28.89000 412.811
28.90000 415.861
28.91000 418.274
28.92000 419.518
28.93000 418.136
28.94000 416.655
28.95000 412.875
28.96000 405.617
28.97000 398.323
28.98000 399.209
28.99000 408.163
29.00000 417.034
29.01000 418.621
29.02000 415.514
29.03000 412.427
29.04000 409.870
29.05000 407.544
29.06000 405.357
29.07000 400.510
29.08000 395.368
29.09000 390.808
29.10000 390.360
29.11000 390.713
29.12000 391.220
29.13000 392.428
29.14000 393.720
29.15000 394.706
29.16000 414.433
29.17000 430.980
29.18000 436.989
29.19000 421.452
29.20000 405.278
29.21000 398.138
29.22000 403.391
29.23000 408.715
29.24000 411.133
29.25000 410.977
29.26000 410.801
29.27000 409.503
29.28000 407.546
29.29000 405.635
29.30000 404.655
29.31000 404.043
29.32000 403.474
29.33000 406.218
29.34000 409.498
29.35000 411.978
29.36000 409.413
29.37000 405.966
29.38000 403.984
29.39000 407.988
29.40000 412.635
29.41000 416.091
29.42000 410.335
29.43000 405.446
29.44000 402.677
29.45000 403.853
29.46000 405.118
29.47000 405.681
29.48000 405.375
29.49000 405.067
29.50000 407.216
29.51000 411.309
29.52000 415.178
29.53000 409.355
29.54000 398.369
29.55000 388.257
29.56000 393.146
29.57000 403.452
29.58000 412.930
29.59000 410.329
29.60000 405.388
29.61000 401.632
29.62000 404.577
29.63000 408.574
29.64000 410.487
29.65000 404.678
29.66000 398.146
29.67000 393.418
29.68000 396.262
29.69000 398.722
29.70000 403.163
29.71000 410.955
29.72000 418.802
29.73000 422.219
29.74000 420.684
29.75000 419.150
29.76000 415.386
29.77000 410.058
29.78000 405.089
29.79000 412.015
29.80000 424.709
29.81000 436.403
29.82000 433.578
29.83000 425.981
29.84000 419.080
29.85000 423.733
29.86000 430.085
29.87000 435.585
29.88000 436.761
29.89000 437.330
29.90000 437.995
29.91000 438.980
29.92000 439.991
29.93000 440.702
29.94000 441.324
29.95000 441.793
29.96000 442.759
29.97000 444.490
29.98000 446.230
29.99000 447.261
30.00000 447.580
30.01000 447.897
30.02000 443.120
30.03000 435.124
30.04000 427.716
30.05000 435.650
30.06000 450.362
30.07000 463.415
30.08000 455.844
30.09000 442.105
30.10000 429.793
30.11000 430.000
30.12000 432.346
30.13000 433.854
30.14000 431.513
30.15000 428.694
30.16000 428.718
30.17000 437.446
30.18000 446.781
30.19000 453.142
30.20000 451.722
30.21000 450.481
30.22000 448.872
30.23000 446.750
30.24000 444.621
30.25000 436.287
30.26000 422.362
30.27000 408.574
30.28000 402.410
30.29000 400.814
30.30000 399.556
30.31000 405.456
30.32000 414.237
30.33000 422.811
30.34000 429.154
30.35000 434.891
30.36000 439.959
30.37000 438.451
30.38000 436.139
30.39000 432.524
30.40000 423.502
30.41000 413.888
30.42000 408.329
30.43000 414.075
30.44000 420.488
30.45000 424.716
30.46000 430.558
30.47000 434.891
30.48000 437.010
30.49000 436.337
30.50000 435.647
30.51000 431.772
30.52000 425.312
30.53000 418.942
30.54000 419.088
30.55000 422.653
30.56000 426.177
30.57000 428.981
30.58000 431.520
30.59000 434.572
30.60000 442.446
30.61000 451.508
30.62000 459.389
30.63000 447.930
30.64000 435.516
30.65000 424.956
30.66000 421.378
30.67000 418.470
30.68000 420.734
30.69000 436.129
30.70000 452.171
30.71000 462.376
30.72000 454.609
30.73000 448.740
30.74000 444.746
30.75000 442.885
30.76000 441.054
30.77000 444.325
30.78000 451.340
30.79000 458.221
30.80000 466.928
30.81000 476.184
30.82000 485.309
30.83000 492.487
30.84000 499.016
30.85000 504.656
30.86000 502.935
30.87000 499.572
30.88000 496.695
30.89000 506.397
30.90000 516.090
30.91000 526.267
30.92000 538.095
30.93000 550.062
30.94000 561.222
30.95000 570.518
30.96000 579.740
30.97000 585.387
30.98000 615.019
30.99000 636.437
31.00000 659.339
31.01000 683.758
31.02000 708.231
31.03000 738.063
31.04000 771.462
31.05000 804.031
31.06000 852.329
31.07000 905.190
31.08000 958.555
31.09000 1018.324
31.10000 1080.039
31.11000 1141.656
31.12000 1202.551
31.13000 1263.302
31.14000 1314.343
31.15000 1415.769
31.16000 1505.583
31.17000 1594.974
31.18000 1683.043
31.19000 1771.017
31.20000 1856.020
31.21000 1934.762
31.22000 2013.303
31.23000 2059.476
31.24000 2217.113
31.25000 2328.836
31.26000 2422.675
31.27000 2500.115
31.28000 2577.579
31.29000 2656.603
31.30000 2736.568
31.31000 2814.028
31.32000 2838.614
31.33000 2841.436
31.34000 2844.661
31.35000 2852.331
31.36000 2861.227
31.37000 2870.626
31.38000 2883.319
31.39000 2896.608
31.40000 2907.563
31.41000 2836.935
31.42000 2771.298
31.43000 2705.505
31.44000 2639.272
31.45000 2573.012
31.46000 2497.963
31.47000 2406.049
31.48000 2313.717
31.49000 2261.771
31.50000 2174.499
31.51000 2113.791
31.52000 2036.225
31.53000 1944.735
31.54000 1853.423
31.55000 1770.588
31.56000 1692.408
31.57000 1617.245
31.58000 1530.793
31.59000 1445.856
31.60000 1363.392
31.61000 1304.709
31.62000 1251.981
31.63000 1200.676
31.64000 1157.706
31.65000 1116.092
31.66000 1082.483
31.67000 1021.974
31.68000 970.638
31.69000 925.239
31.70000 895.140
31.71000 865.817
31.72000 830.975
31.73000 786.499
31.74000 741.848
31.75000 717.889
31.76000 701.836
31.77000 690.857
31.78000 674.721
31.79000 654.739
31.80000 634.813
31.81000 616.903
31.82000 600.000
31.83000 583.884
31.84000 571.421
31.85000 561.010
31.86000 550.281
31.87000 536.867
31.88000 522.843
31.89000 510.300
31.90000 505.546
31.91000 501.924
31.92000 499.062
31.93000 492.238
31.94000 486.488
31.95000 479.257
31.96000 468.547
31.97000 457.693
31.98000 450.369
31.99000 448.645
32.00000 446.992
32.01000 446.149
32.02000 438.170
32.03000 432.867
32.04000 433.236
32.05000 437.437
32.06000 441.162
32.07000 431.488
32.08000 415.713
32.09000 400.810
32.10000 394.564
32.11000 391.282
32.12000 388.877
32.13000 393.038
32.14000 398.545
32.15000 403.088
32.16000 403.067
32.17000 402.455
32.18000 401.984
32.19000 400.480
32.20000 399.229
32.21000 396.252
32.22000 389.583
32.23000 382.792
32.24000 381.343
32.25000 387.580
32.26000 393.877
32.27000 394.633
32.28000 390.222
32.29000 385.862
32.30000 385.078
32.31000 386.488
32.32000 387.587
32.33000 381.623
32.34000 372.730
32.35000 364.413
32.36000 361.798
32.37000 360.875
32.38000 361.652
32.39000 373.766
32.40000 387.972
32.41000 398.762
32.42000 394.911
32.43000 389.388
32.44000 385.229
32.45000 378.551
32.46000 373.201
32.47000 368.937
32.48000 366.787
32.49000 364.692
32.50000 365.632
32.51000 370.527
32.52000 375.433
32.53000 373.524
32.54000 365.914
32.55000 358.500
32.56000 360.923
32.57000 368.831
32.58000 376.411
32.59000 377.852
32.60000 376.975
32.61000 376.163
32.62000 382.855
32.63000 390.582
32.64000 396.010
32.65000 387.746
32.66000 377.214
32.67000 369.458
32.68000 372.482
32.69000 376.586
32.70000 379.596
32.71000 373.855
32.72000 369.065
32.73000 363.429
32.74000 356.291
32.75000 349.125
32.76000 352.238
32.77000 367.439
32.78000 382.620
32.79000 387.364
32.80000 384.214
32.81000 381.164
32.82000 381.846
32.83000 384.422
32.84000 387.111
32.85000 391.565
32.86000 396.628
32.87000 401.254
32.88000 400.934
32.89000 399.638
32.90000 399.030
32.91000 402.110
32.92000 405.736
32.93000 407.598
32.94000 403.242
32.95000 398.344
32.96000 394.851
32.97000 393.616
32.98000 392.749
32.99000 392.382
33.00000 392.823
33.01000 393.274
33.02000 390.627
33.03000 384.703
33.04000 378.807
33.05000 373.835
33.06000 369.548
33.07000 365.280
33.08000 361.556
33.09000 358.084
33.10000 354.523
33.11000 349.758
33.12000 344.617
33.13000 339.979
33.14000 343.170
33.15000 347.403
33.16000 351.466
33.17000 354.703
33.18000 357.831
33.19000 358.932
33.20000 353.536
33.21000 347.651
33.22000 343.579
33.23000 343.110
33.24000 342.851
33.25000 342.589
33.26000 342.323
33.27000 342.058
33.28000 342.611
33.29000 343.941
33.30000 345.260
33.31000 344.532
33.32000 342.565
33.33000 340.858
33.34000 345.252
33.35000 352.215
33.36000 358.448
33.37000 356.247
33.38000 351.646
33.39000 347.553
33.40000 350.224
33.41000 353.646
33.42000 355.714
33.43000 351.888
33.44000 347.374
33.45000 342.930
33.46000 338.688
33.47000 334.459
33.48000 331.626
33.49000 335.999
33.50000 339.388
33.51000 342.198
33.52000 344.240
33.53000 346.279
33.54000 348.760
33.55000 351.619
33.56000 354.443
33.57000 351.586
33.58000 345.663
33.59000 340.029
33.60000 339.960
33.61000 342.026
33.62000 343.911
33.63000 343.973
33.64000 343.563
33.65000 343.205
33.66000 343.792
33.67000 344.433
33.68000 345.107
33.69000 345.910
33.70000 346.727
33.71000 346.673
33.72000 344.305
33.73000 341.812
33.74000 340.198
33.75000 337.850
33.76000 336.121
33.77000 335.011
33.78000 334.641
33.79000 334.298
33.80000 339.944
33.81000 350.207
33.82000 360.300
33.83000 360.215
33.84000 355.059
33.85000 349.951
33.86000 345.616
33.87000 341.552
33.88000 337.776
33.89000 336.538
33.90000 335.894
33.91000 335.338
33.92000 334.821
33.93000 334.387
33.94000 334.285
33.95000 335.372
33.96000 336.565
33.97000 338.004
33.98000 340.042
33.99000 342.106
34.00000 343.394
34.01000 336.836
34.02000 332.026
34.03000 330.687
34.04000 333.084
34.05000 335.430
34.06000 331.062
34.07000 322.011
34.08000 313.159
34.09000 317.364
34.10000 327.273
34.11000 336.652
34.12000 338.772
34.13000 338.582
34.14000 337.737
34.15000 331.790
34.16000 324.763
34.17000 318.808
34.18000 319.566
34.19000 320.957
34.20000 322.041
34.21000 322.129
34.22000 322.139
34.23000 323.659
34.24000 328.505
34.25000 333.471
34.26000 336.449
34.27000 330.207
34.28000 325.711
34.29000 322.746
34.30000 321.261
34.31000 319.810
34.32000 321.059
34.33000 324.018
34.34000 326.893
34.35000 325.640
34.36000 322.772
34.37000 320.049
34.38000 319.039
34.39000 318.524
34.40000 318.118
34.41000 318.468
34.42000 318.961
34.43000 319.372
34.44000 323.828
34.45000 327.916
34.46000 329.834
34.47000 325.331
34.48000 320.405
34.49000 315.985
34.50000 312.583
34.51000 309.211
34.52000 307.271
34.53000 316.041
34.54000 322.213
34.55000 325.918
34.56000 327.483
34.57000 329.017
34.58000 328.936
34.59000 327.925
34.60000 326.950
34.61000 321.170
34.62000 313.967
34.63000 307.384
34.64000 307.150
34.65000 308.583
34.66000 310.324
34.67000 313.961
34.68000 317.923
34.69000 321.155
34.70000 320.287
34.71000 319.227
34.72000 318.699
34.73000 319.606
34.74000 320.592
34.75000 321.418
34.76000 321.949
34.77000 322.474
34.78000 322.763
34.79000 319.222
34.80000 316.783
34.81000 315.443
34.82000 314.966
34.83000 314.396
34.84000 310.084
34.85000 303.813
34.86000 297.809
34.87000 296.632
34.88000 297.131
34.89000 298.040
34.90000 302.638
34.91000 308.114
34.92000 312.520
34.93000 311.000
34.94000 308.571
34.95000 306.630
34.96000 301.006
34.97000 296.191
34.98000 293.535
34.99000 296.180
35.00000 299.069
35.01000 302.366
35.02000 306.341
35.03000 310.326
35.04000 312.410
35.05000 316.704
35.06000 319.596
35.07000 320.378
35.08000 319.665
35.09000 318.849
35.10000 314.827
35.11000 309.278
35.12000 304.012
35.13000 304.460
35.14000 306.575
35.15000 308.837
35.16000 312.262
35.17000 315.937
35.18000 318.721
35.19000 317.068
35.20000 314.807
35.21000 313.041
35.22000 313.595
35.23000 314.184
35.24000 312.731
35.25000 306.710
35.26000 300.519
35.27000 298.684
35.28000 303.424
35.29000 308.230
35.30000 309.306
35.31000 306.718
35.32000 304.166
35.33000 304.788
35.34000 307.451
35.35000 309.866
35.36000 306.091
35.37000 299.629
35.38000 293.556
35.39000 297.763
35.40000 304.360
35.41000 309.583
35.42000 305.129
35.43000 298.795
35.44000 293.950
35.45000 295.803
35.46000 298.469
35.47000 300.502
35.48000 298.922
35.49000 297.486
35.50000 297.837
35.51000 301.834
35.52000 305.938
35.53000 307.330
35.54000 305.012
35.55000 302.674
35.56000 302.534
35.57000 304.335
35.58000 306.078
35.59000 304.465
35.60000 300.891
35.61000 297.580
35.62000 299.648
35.63000 303.842
35.64000 307.743
35.65000 307.929
35.66000 307.203
35.67000 307.001
35.68000 310.094
35.69000 313.761
35.70000 315.753
35.71000 310.921
35.72000 305.359
35.73000 301.226
35.74000 306.331
35.75000 310.711
35.76000 312.413
35.77000 309.144
35.78000 305.765
35.79000 300.709
35.80000 293.581
35.81000 286.461
35.82000 284.581
35.83000 286.866
35.84000 289.115
35.85000 289.817
35.86000 289.698
35.87000 289.710
35.88000 291.969
35.89000 295.039
35.90000 297.861
35.91000 297.708
35.92000 296.929
35.93000 296.108
35.94000 295.051
35.95000 293.958
35.96000 294.500
35.97000 301.088
35.98000 308.241
35.99000 313.413
36.00000 316.294
36.01000 318.422
36.02000 316.932
36.03000 309.336
36.04000 301.642
36.05000 298.482
36.06000 300.373
36.07000 302.261
36.08000 303.424
36.09000 304.059
36.10000 304.671
36.11000 304.526
36.12000 304.015
36.13000 303.622
36.14000 304.922
36.15000 306.777
36.16000 308.462
36.17000 301.770
36.18000 294.241
36.19000 289.434
36.20000 298.420
36.21000 309.331
36.22000 316.369
36.23000 310.412
36.24000 303.404
36.25000 298.482
36.26000 296.809
36.27000 295.638
36.28000 293.601
36.29000 290.238
36.30000 286.861
36.31000 288.865
36.32000 296.254
36.33000 303.595
36.34000 306.907
36.35000 307.578
36.36000 308.041
36.37000 303.099
36.38000 295.776
36.39000 289.229
36.40000 292.282
36.41000 298.198
36.42000 303.497
36.43000 299.024
36.44000 293.434
36.45000 288.854
36.46000 288.897
36.47000 289.512
36.48000 291.547
36.49000 297.912
36.50000 304.579
36.51000 309.117
36.52000 308.565
36.53000 308.036
36.54000 307.220
36.55000 306.004
36.56000 304.786
36.57000 303.080
36.58000 300.935
36.59000 298.812
36.60000 301.650
36.61000 307.306
36.62000 312.429
36.63000 306.286
36.64000 295.622
36.65000 286.233
36.66000 290.515
36.67000 298.500
36.68000 305.551
36.69000 302.873
36.70000 299.071
36.71000 294.626
36.72000 287.525
36.73000 280.134
36.74000 276.822
36.75000 284.846
36.76000 293.536
36.77000 299.258
36.78000 301.904
36.79000 303.801
36.80000 302.251
36.81000 296.371
36.82000 290.495
36.83000 291.070
36.84000 296.869
36.85000 302.585
36.86000 299.615
36.87000 292.180
36.88000 284.972
36.89000 281.741
36.90000 279.965
36.91000 279.247
36.92000 288.451
36.93000 300.094
36.94000 310.214
36.95000 310.613
36.96000 309.634
36.97000 308.412
36.98000 306.278
36.99000 304.057
37.00000 301.004
37.01000 295.846
37.02000 290.585
37.03000 287.242
37.04000 289.675
37.05000 291.514
37.06000 292.870
37.07000 293.681
37.08000 294.461
37.09000 290.271
37.10000 282.443
37.11000 274.765
37.12000 276.546
37.13000 282.733
37.14000 288.822
37.15000 293.455
37.16000 297.604
37.17000 301.139
37.18000 299.607
37.19000 296.949
37.20000 294.676
37.21000 290.821
37.22000 287.381
37.23000 284.683
37.24000 284.508
37.25000 284.543
37.26000 284.540
37.27000 284.450
37.28000 284.356
37.29000 284.299
37.30000 296.251
37.31000 304.904
37.32000 305.611
37.33000 298.226
37.34000 290.909
37.35000 290.325
37.36000 294.207
37.37000 297.993
37.38000 295.750
37.39000 291.035
37.40000 286.523
37.41000 284.589
37.42000 283.436
37.43000 282.930
37.44000 287.163
37.45000 292.346
37.46000 296.699
37.47000 298.920
37.48000 300.546
37.49000 300.132
37.50000 293.398
37.51000 286.213
37.52000 282.332
37.53000 285.395
37.54000 288.679
37.55000 290.608
37.56000 286.737
37.57000 283.981
37.58000 283.208
37.59000 284.246
37.60000 285.257
37.61000 284.493
37.62000 282.660
37.63000 280.884
37.64000 280.533
37.65000 280.750
37.66000 280.934
37.67000 280.754
37.68000 280.474
37.69000 279.882
37.70000 277.259
37.71000 274.268
37.72000 271.804
37.73000 274.195
37.74000 276.607
37.75000 278.742
37.76000 280.097
37.77000 281.404
37.78000 281.723
37.79000 280.151
37.80000 278.533
37.81000 277.624
37.82000 281.669
37.83000 284.485
37.84000 286.094
37.85000 286.710
37.86000 287.293
37.87000 286.336
37.88000 284.536
37.89000 282.805
37.90000 283.771
37.91000 285.612
37.92000 286.893
37.93000 282.802
37.94000 277.371
37.95000 273.580
37.96000 279.370
37.97000 286.712
37.98000 292.638
37.99000 281.352
38.00000 270.814
38.01000 267.511
38.02000 282.797
38.03000 299.022
38.04000 305.563
38.05000 295.251
38.06000 284.634
38.07000 278.945
38.08000 283.136
38.09000 286.007
38.10000 289.266
38.11000 292.813
38.12000 296.111
38.13000 290.540
38.14000 280.548
38.15000 271.024
38.16000 282.347
38.17000 299.379
38.18000 313.917
38.19000 307.444
38.20000 296.222
38.21000 287.503
38.22000 291.913
38.23000 298.223
38.24000 303.206
38.25000 307.165
38.26000 310.272
38.27000 311.455
38.28000 308.130
38.29000 304.619
38.30000 307.915
38.31000 321.976
38.32000 336.171
38.33000 343.396
38.34000 337.825
38.35000 334.123
38.36000 334.116
38.37000 336.599
38.38000 339.331
38.39000 349.013
38.40000 361.850
38.41000 373.973
38.42000 380.239
38.43000 384.334
38.44000 388.310
38.45000 391.388
38.46000 394.284
38.47000 398.325
38.48000 407.786
38.49000 417.945
38.50000 425.782
38.51000 436.077
38.52000 444.377
38.53000 451.556
38.54000 456.341
38.55000 461.047
38.56000 468.069
38.57000 478.413
38.58000 488.782
38.59000 492.347
38.60000 489.588
38.61000 486.844
38.62000 485.216
38.63000 484.270
38.64000 483.662
38.65000 490.697
38.66000 500.892
38.67000 510.424
38.68000 507.418
38.69000 501.509
38.70000 495.823
38.71000 491.621
38.72000 487.692
38.73000 483.356
38.74000 477.281
38.75000 471.008
38.76000 466.286
38.77000 465.615
38.78000 465.286
38.79000 462.058
38.80000 453.198
38.81000 444.193
38.82000 435.985
38.83000 428.814
38.84000 421.654
38.85000 414.766
38.86000 408.125
38.87000 401.388
38.88000 389.886
38.89000 375.735
38.90000 362.090
38.91000 357.859
38.92000 357.176
38.93000 356.545
38.94000 346.989
38.95000 336.376
38.96000 327.370
38.97000 327.911
38.98000 330.028
38.99000 330.224
39.00000 322.981
39.01000 314.997
39.02000 309.145
39.03000 310.965
39.04000 312.678
39.05000 310.294
39.06000 300.667
39.07000 290.903
39.08000 285.514
39.09000 285.254
39.10000 285.003
39.11000 286.037
39.12000 288.030
39.13000 289.924
39.14000 288.184
39.15000 284.604
39.16000 281.116
39.17000 279.068
39.18000 277.515
39.19000 276.096
39.20000 272.338
39.21000 268.524
39.22000 265.913
39.23000 269.719
39.24000 274.472
39.25000 279.148
39.26000 283.553
39.27000 287.935
39.28000 291.057
39.29000 273.959
39.30000 260.268
39.31000 255.963
39.32000 266.735
39.33000 277.708
39.34000 281.934
39.35000 279.044
39.36000 276.167
39.37000 274.611
39.38000 273.967
39.39000 273.304
39.40000 272.097
39.41000 270.639
39.42000 268.866
39.43000 262.911
39.44000 255.650
39.45000 249.101
39.46000 250.688
39.47000 253.564
39.48000 255.413
39.49000 252.319
39.50000 248.576
39.51000 246.749
39.52000 251.044
39.53000 255.797
39.54000 259.083
39.55000 266.481
39.56000 272.151
39.57000 274.589
39.58000 272.317
39.59000 270.004
39.60000 267.690
39.61000 265.373
39.62000 263.076
39.63000 263.865
39.64000 266.524
39.65000 269.027
39.66000 267.900
39.67000 265.248
39.68000 262.689
39.69000 261.194
39.70000 260.001
39.71000 258.941
39.72000 260.166
39.73000 261.600
39.74000 261.933
39.75000 257.483
39.76000 252.477
39.77000 249.367
39.78000 251.772
39.79000 254.528
39.80000 256.374
39.81000 264.344
39.82000 270.377
39.83000 274.193
39.84000 275.083
39.85000 275.952
39.86000 272.669
39.87000 265.850
39.88000 259.114
39.89000 258.612
39.90000 261.553
39.91000 264.231
39.92000 261.865
39.93000 257.570
39.94000 254.118
39.95000 259.104
39.96000 266.263
39.97000 272.534
39.98000 266.376
39.99000 259.302
40.00000 253.471
40.01000 252.529
40.02000 252.085
40.03000 252.900
40.04000 257.051
40.05000 261.381
40.06000 264.181
40.07000 265.032
40.08000 265.625
40.09000 266.721
40.10000 268.413
40.11000 270.083
40.12000 266.054
40.13000 257.646
40.14000 249.378
40.15000 251.838
40.16000 259.548
40.17000 266.684
40.18000 264.596
40.19000 259.295
40.20000 254.113
40.21000 249.978
40.22000 246.087
40.23000 242.734
40.24000 249.501
40.25000 256.526
40.26000 261.881
40.27000 261.273
40.28000 260.135
40.29000 258.529
40.30000 255.793
40.31000 253.006
40.32000 251.270
40.33000 249.491
40.34000 248.209
40.35000 249.706
40.36000 254.186
40.37000 258.634
40.38000 258.996
40.39000 256.517
40.40000 254.092
40.41000 252.902
40.42000 252.316
40.43000 251.853
40.44000 253.084
40.45000 254.853
40.46000 256.308
40.47000 255.336
40.48000 253.852
40.49000 252.595
40.50000 255.171
40.51000 257.759
40.52000 259.585
40.53000 258.940
40.54000 258.104
40.55000 256.376
40.56000 252.685
40.57000 248.924
40.58000 246.670
40.59000 244.745
40.60000 243.380
40.61000 242.604
40.62000 242.395
40.63000 242.186
40.64000 242.015
40.65000 241.867
40.66000 241.723
40.67000 249.672
40.68000 260.503
40.69000 270.282
40.70000 267.709
40.71000 261.575
40.72000 256.086
40.73000 255.040
40.74000 254.839
40.75000 254.672
40.76000 256.671
40.77000 258.538
40.78000 257.367
40.79000 247.224
40.80000 236.493
40.81000 234.073
40.82000 248.296
40.83000 262.983
40.84000 271.417
40.85000 259.568
40.86000 251.218
40.87000 249.150
40.88000 252.520
40.89000 255.819
40.90000 255.170
40.91000 252.258
40.92000 249.448
40.93000 246.529
40.94000 243.743
40.95000 240.865
40.96000 237.060
40.97000 233.012
40.98000 230.196
40.99000 234.961
41.00000 241.021
41.01000 245.963
41.02000 243.145
41.03000 240.181
41.04000 240.458
41.05000 249.450
41.06000 258.924
41.07000 260.010
41.08000 245.810
41.09000 231.288
41.10000 223.323
41.11000 232.859
41.12000 239.426
41.13000 240.495
41.14000 237.269
41.15000 234.122
41.16000 234.170
41.17000 235.885
41.18000 237.526
41.19000 241.508
41.20000 245.991
41.21000 250.085
41.22000 250.696
41.23000 250.481
41.24000 249.908
41.25000 247.356
41.26000 244.500
41.27000 242.221
41.28000 245.763
41.29000 249.050
41.30000 250.176
41.31000 246.009
41.32000 241.601
41.33000 238.357
41.34000 237.045
41.35000 235.762
41.36000 235.092
41.37000 229.305
41.38000 225.424
41.39000 226.401
41.40000 230.812
41.41000 235.206
41.42000 239.047
41.43000 242.625
41.44000 246.020
41.45000 242.431
41.46000 237.046
41.47000 232.138
41.48000 231.002
41.49000 230.675
41.50000 231.383
41.51000 237.233
41.52000 243.784
41.53000 248.896
41.54000 248.418
41.55000 247.686
41.56000 247.201
41.57000 247.264
41.58000 247.347
41.59000 248.795
41.60000 252.296
41.61000 255.817
41.62000 252.530
41.63000 242.572
41.64000 232.703
41.65000 230.313
41.66000 232.719
41.67000 235.020
41.68000 234.723
41.69000 233.302
41.70000 231.966
41.71000 231.453
41.72000 231.204
41.73000 231.299
41.74000 233.817
41.75000 236.803
41.76000 239.199
41.77000 238.946
41.78000 238.373
41.79000 237.936
41.80000 231.773
41.81000 226.617
41.82000 225.032
41.83000 230.707
41.84000 236.594
41.85000 239.802
41.86000 239.357
41.87000 238.892
41.88000 238.511
41.89000 238.203
41.90000 237.823
41.91000 233.259
41.92000 226.259
41.93000 219.723
41.94000 222.606
41.95000 229.203
41.96000 235.336
41.97000 236.775
41.98000 236.948
41.99000 237.465
42.00000 240.134
42.01000 243.178
42.02000 245.923
42.03000 247.450
42.04000 248.847
42.05000 249.885
42.06000 246.056
42.07000 242.866
42.08000 239.512
42.09000 235.854
42.10000 232.189
42.11000 230.156
42.12000 230.134
42.13000 230.118
42.14000 230.542
42.15000 231.314
42.16000 232.119
42.17000 234.380
42.18000 237.412
42.19000 240.209
42.20000 239.040
42.21000 236.446
42.22000 234.061
42.23000 232.903
42.24000 232.133
42.25000 231.215
42.26000 229.463
42.27000 227.582
42.28000 226.535
42.29000 228.561
42.30000 230.873
42.31000 232.543
42.32000 231.079
42.33000 229.842
42.34000 231.225
42.35000 237.017
42.36000 242.880
42.37000 243.028
42.38000 236.831
42.39000 230.653
42.40000 228.317
42.41000 228.736
42.42000 229.085
42.43000 227.132
42.44000 224.070
42.45000 221.334
42.46000 223.291
42.47000 226.782
42.48000 229.951
42.49000 234.784
42.50000 239.372
42.51000 242.416
42.52000 237.663
42.53000 231.827
42.54000 227.771
42.55000 229.677
42.56000 232.063
42.57000 233.738
42.58000 229.305
42.59000 225.773
42.60000 222.636
42.61000 220.101
42.62000 217.573
42.63000 218.679
42.64000 223.408
42.65000 228.106
42.66000 230.965
42.67000 232.601
42.68000 234.157
42.69000 233.642
42.70000 232.217
42.71000 230.651
42.72000 227.356
42.73000 223.546
42.74000 220.134
42.75000 220.706
42.76000 221.890
42.77000 223.193
42.78000 225.040
42.79000 226.955
42.80000 228.647
42.81000 229.661
42.82000 230.628
42.83000 231.285
42.84000 224.546
42.85000 219.346
42.86000 217.536
42.87000 220.424
42.88000 223.343
42.89000 227.628
42.90000 233.136
42.91000 238.589
42.92000 240.186
42.93000 239.517
42.94000 238.823
42.95000 237.589
42.96000 236.138
42.97000 234.972
42.98000 236.840
42.99000 239.527
43.00000 241.898
43.01000 239.353
43.02000 236.407
43.03000 234.695
43.04000 238.076
43.05000 242.011
43.06000 244.592
43.07000 243.422
43.08000 242.033
43.09000 241.119
43.10000 239.504
43.11000 238.302
43.12000 235.407
43.13000 230.389
43.14000 225.380
43.15000 225.601
43.16000 230.046
43.17000 234.427
43.18000 235.876
43.19000 235.751
43.20000 235.483
43.21000 232.699
43.22000 228.998
43.23000 225.376
43.24000 222.495
43.25000 219.795
43.26000 217.449
43.27000 218.738
43.28000 220.329
43.29000 221.623
43.30000 221.806
43.31000 221.883
43.32000 223.182
43.33000 227.566
43.34000 232.099
43.35000 234.977
43.36000 232.132
43.37000 229.996
43.38000 226.704
43.39000 222.106
43.40000 217.527
43.41000 216.279
43.42000 217.462
43.43000 218.622
43.44000 219.958
43.45000 221.328
43.46000 222.874
43.47000 227.004
43.48000 231.994
43.49000 236.720
43.50000 239.287
43.51000 241.375
43.52000 243.158
43.53000 237.452
43.54000 231.751
43.55000 227.966
43.56000 230.697
43.57000 233.966
43.58000 236.101
43.59000 235.631
43.60000 235.057
43.61000 234.706
43.62000 226.626
43.63000 220.782
43.64000 215.580
43.65000 211.028
43.66000 206.534
43.67000 207.699
43.68000 212.609
43.69000 217.394
43.70000 220.810
43.71000 223.486
43.72000 225.953
43.73000 225.773
43.74000 224.793
43.75000 223.594
43.76000 220.786
43.77000 217.656
43.78000 215.030
43.79000 218.847
43.80000 222.699
43.81000 226.935
43.82000 232.356
43.83000 237.862
43.84000 239.700
43.85000 233.855
43.86000 227.767
43.87000 224.197
43.88000 231.276
43.89000 236.310
43.90000 232.511
43.91000 220.664
43.92000 208.964
43.93000 206.864
43.94000 210.529
43.95000 214.078
43.96000 218.497
43.97000 223.009
43.98000 226.786
43.99000 222.533
44.00000 216.077
44.01000 210.969
44.02000 214.617
44.03000 219.843
44.04000 224.145
44.05000 228.298
44.06000 231.700
44.07000 233.421
44.08000 230.413
44.09000 227.121
44.10000 224.044
44.11000 221.379
44.12000 218.723
44.13000 217.233
44.14000 223.471
44.15000 227.812
44.16000 231.136
44.17000 233.624
44.18000 236.016
44.19000 233.905
44.20000 229.335
44.21000 224.944
44.22000 230.090
44.23000 238.214
44.24000 244.727
44.25000 235.881
44.26000 223.212
44.27000 212.866
44.28000 216.031
44.29000 221.379
44.30000 225.692
44.31000 227.650
44.32000 229.054
44.33000 229.984
44.34000 229.703
44.35000 229.360
44.36000 229.519
44.37000 230.549
44.38000 231.594
44.39000 232.153
44.40000 230.882
44.41000 230.041
44.42000 234.461
44.43000 242.782
44.44000 250.819
44.45000 248.812
44.46000 241.812
44.47000 235.141
44.48000 245.477
44.49000 260.369
44.50000 273.059
44.51000 267.268
44.52000 257.311
44.53000 250.279
44.54000 258.530
44.55000 268.987
44.56000 277.239
44.57000 277.123
44.58000 276.464
44.59000 278.096
44.60000 285.078
44.61000 292.281
44.62000 298.655
44.63000 303.722
44.64000 308.774
44.65000 311.340
44.66000 313.595
44.67000 315.133
44.68000 319.541
44.69000 325.877
44.70000 332.123
44.71000 335.886
44.72000 338.525
44.73000 341.017
44.74000 361.675
44.75000 385.736
44.76000 406.466
44.77000 402.441
44.78000 393.378
44.79000 387.084
44.80000 393.843
44.81000 402.276
44.82000 408.777
44.83000 411.181
44.84000 412.850
44.85000 418.922
44.86000 434.363
44.87000 450.110
44.88000 458.654
44.89000 456.894
44.90000 455.054
44.91000 450.549
44.92000 443.577
44.93000 436.713
44.94000 437.349
44.95000 442.559
44.96000 447.806
44.97000 453.898
44.98000 460.337
44.99000 466.356
45.00000 465.324
45.01000 462.604
45.02000 459.202
45.03000 451.284
45.04000 442.539
45.05000 434.519
45.06000 429.585
45.07000 425.001
45.08000 421.554
45.09000 426.906
45.10000 431.517
45.11000 431.066
45.12000 420.809
45.13000 410.302
45.14000 400.885
45.15000 392.879
45.16000 384.888
45.17000 383.535
45.18000 387.709
45.19000 391.645
45.20000 383.882
45.21000 369.633
45.22000 355.838
45.23000 350.436
45.24000 348.188
45.25000 346.110
45.26000 345.013
45.27000 344.251
45.28000 343.379
45.29000 341.854
45.30000 340.222
45.31000 337.291
45.32000 329.344
45.33000 320.899
45.34000 314.715
45.35000 307.180
45.36000 301.309
45.37000 297.172
45.38000 296.089
45.39000 295.064
45.40000 294.283
45.41000 293.789
45.42000 293.296
45.43000 294.070
45.44000 295.787
45.45000 297.411
45.46000 295.625
45.47000 292.119
45.48000 288.363
45.49000 280.709
45.50000 271.722
45.51000 263.515
45.52000 263.263
45.53000 264.656
45.54000 265.549
45.55000 263.783
45.56000 261.626
45.57000 260.698
45.58000 264.082
45.59000 267.840
45.60000 270.514
45.61000 268.166
45.62000 266.214
45.63000 262.703
45.64000 256.695
45.65000 250.655
45.66000 245.654
45.67000 241.746
45.68000 237.858
45.69000 236.968
45.70000 238.110
45.71000 239.353
45.72000 243.515
45.73000 249.019
45.74000 253.776
45.75000 248.645
45.76000 240.435
45.77000 233.035
45.78000 232.706
45.79000 233.703
45.80000 234.904
45.81000 237.086
45.82000 239.396
45.83000 240.079
45.84000 235.577
45.85000 230.689
45.86000 227.312
45.87000 225.483
45.88000 224.148
45.89000 222.174
45.90000 219.274
45.91000 216.367
45.92000 217.980
45.93000 223.857
45.94000 229.684
45.95000 229.080
45.96000 224.577
45.97000 220.132
45.98000 217.064
45.99000 214.571
46.00000 212.330
46.01000 212.959
46.02000 214.400
46.03000 215.681
46.04000 219.342
46.05000 222.904
46.06000 224.805
46.07000 219.514
46.08000 213.392
46.09000 207.688
46.10000 203.199
46.11000 198.786
46.12000 195.836
46.13000 212.633
46.14000 225.475
46.15000 229.476
46.16000 221.843
46.17000 214.159
46.18000 207.080
46.19000 200.514
46.20000 194.028
46.21000 194.894
46.22000 199.772
46.23000 204.477
46.24000 205.897
46.25000 206.064
46.26000 206.212
46.27000 206.174
46.28000 206.088
46.29000 206.013
46.30000 203.825
46.31000 201.645
46.32000 200.611
46.33000 204.075
46.34000 207.995
46.35000 210.276
46.36000 208.227
46.37000 205.948
46.38000 204.475
46.39000 202.075
46.40000 200.308
46.41000 200.090
46.42000 201.715
46.43000 203.345
46.44000 205.420
46.45000 207.834
46.46000 210.208
46.47000 206.062
46.48000 198.823
46.49000 192.093
46.50000 193.473
46.51000 197.671
46.52000 201.735
46.53000 204.619
46.54000 207.230
46.55000 209.478
46.56000 205.064
46.57000 200.478
46.58000 198.239
46.59000 204.354
46.60000 211.208
46.61000 213.804
46.62000 206.152
46.63000 198.050
46.64000 193.006
46.65000 195.143
46.66000 196.755
46.67000 197.441
46.68000 197.138
46.69000 196.824
46.70000 195.280
46.71000 192.884
46.72000 190.540
46.73000 191.956
46.74000 194.994
46.75000 197.576
46.76000 193.954
46.77000 188.369
46.78000 183.423
46.79000 183.410
46.80000 184.433
46.81000 185.300
46.82000 189.643
46.83000 193.668
46.84000 195.664
46.85000 191.095
46.86000 186.024
46.87000 184.243
46.88000 189.673
46.89000 195.359
46.90000 198.761
46.91000 190.955
46.92000 185.343
46.93000 185.358
46.94000 190.772
46.95000 196.092
46.96000 194.053
46.97000 187.385
46.98000 180.906
46.99000 182.387
47.00000 187.007
47.01000 191.197
47.02000 190.362
47.03000 188.081
47.04000 185.787
47.05000 183.397
47.06000 180.990
47.07000 178.988
47.08000 184.486
47.09000 189.765
47.10000 193.476
47.11000 192.567
47.12000 191.357
47.13000 191.885
47.14000 195.884
47.15000 199.978
47.16000 202.326
47.17000 200.444
47.18000 199.114
47.19000 198.785
47.20000 199.319
47.21000 199.819
47.22000 198.431
47.23000 195.965
47.24000 193.586
47.25000 192.804
47.26000 192.652
47.27000 192.614
47.28000 193.746
47.29000 195.183
47.30000 196.027
47.31000 193.225
47.32000 189.803
47.33000 187.015
47.34000 188.242
47.35000 189.585
47.36000 190.473
47.37000 190.136
47.38000 189.733
47.39000 189.166
47.40000 188.302
47.41000 187.432
47.42000 186.955
47.43000 183.237
47.44000 180.695
47.45000 183.579
47.46000 190.687
47.47000 197.603
47.48000 196.810
47.49000 192.006
47.50000 187.409
47.51000 184.993
47.52000 183.459
47.53000 182.172
47.54000 183.096
47.55000 184.543
47.56000 186.743
47.57000 193.083
47.58000 200.054
47.59000 205.615
47.60000 200.931
47.61000 196.401
47.62000 193.261
47.63000 193.517
47.64000 193.926
47.65000 190.430
47.66000 180.482
47.67000 170.438
47.68000 165.203
47.69000 175.949
47.70000 183.184
47.71000 185.637
47.72000 184.722
47.73000 183.832
47.74000 183.751
47.75000 184.053
47.76000 184.340
47.77000 184.976
47.78000 185.666
47.79000 186.522
47.80000 188.692
47.81000 191.142
47.82000 193.178
47.83000 193.164
47.84000 192.871
47.85000 192.642
47.86000 185.642
47.87000 179.640
47.88000 176.516
47.89000 179.796
47.90000 183.312
47.91000 183.749
47.92000 179.570
47.93000 175.345
47.94000 177.219
47.95000 185.049
47.96000 192.827
47.97000 196.317
47.98000 197.067
47.99000 197.637
48.00000 193.740
48.01000 187.916
48.02000 182.446
48.03000 183.250
48.04000 185.654
48.05000 187.234
48.06000 183.044
48.07000 177.742
48.08000 173.541
48.09000 174.267
48.10000 175.585
48.11000 176.589
48.12000 182.080
48.13000 186.638
48.14000 189.328
48.15000 188.232
48.16000 187.025
48.17000 185.479
48.18000 183.469
48.19000 181.458
48.20000 181.659
48.21000 183.800
48.22000 185.915
48.23000 186.565
48.24000 186.365
48.25000 186.035
48.26000 183.081
48.27000 179.094
48.28000 175.390
48.29000 178.186
48.30000 182.266
48.31000 185.368
48.32000 182.370
48.33000 178.314
48.34000 175.040
48.35000 174.933
48.36000 175.161
48.37000 175.330
48.38000 177.596
48.39000 179.449
48.40000 181.716
48.41000 184.747
48.42000 187.796
48.43000 189.191
48.44000 188.556
48.45000 187.916
48.46000 189.048
48.47000 191.570
48.48000 193.963
48.49000 190.933
48.50000 185.038
48.51000 179.378
48.52000 177.686
48.53000 177.415
48.54000 177.166
48.55000 176.552
48.56000 175.926
48.57000 175.384
48.58000 175.315
48.59000 175.319
48.60000 175.184
48.61000 174.538
48.62000 173.845
48.63000 173.345
48.64000 182.210
48.65000 189.344
48.66000 192.039
48.67000 187.287
48.68000 182.416
48.69000 182.259
48.70000 187.320
48.71000 192.364
48.72000 193.291
48.73000 191.290
48.74000 189.331
48.75000 188.738
48.76000 188.801
48.77000 188.539
48.78000 183.629
48.79000 177.205
48.80000 171.376
48.81000 170.118
48.82000 169.885
48.83000 170.639
48.84000 176.371
48.85000 182.792
48.86000 187.228
48.87000 185.045
48.88000 182.331
48.89000 180.428
48.90000 176.173
48.91000 172.885
48.92000 171.595
48.93000 173.349
48.94000 175.135
48.95000 179.053
48.96000 185.089
48.97000 191.084
48.98000 191.187
48.99000 187.520
49.00000 183.835
49.01000 179.681
49.02000 175.323
49.03000 171.309
49.04000 171.520
49.05000 172.985
49.06000 174.295
49.07000 173.401
49.08000 172.244
49.09000 171.442
49.10000 172.256
49.11000 173.269
49.12000 174.717
49.13000 177.488
49.14000 180.349
49.15000 182.294
49.16000 181.770
49.17000 181.324
49.18000 179.866
49.19000 177.010
49.20000 174.148
49.21000 174.465
49.22000 177.620
49.23000 180.742
49.24000 178.806
49.25000 173.993
49.26000 169.307
49.27000 167.260
49.28000 166.265
49.29000 165.464
49.30000 166.721
49.31000 168.532
49.32000 170.130
49.33000 173.931
49.34000 177.545
49.35000 180.698
49.36000 181.961
49.37000 183.019
49.38000 183.416
49.39000 181.985
49.40000 180.448
49.41000 179.438
49.42000 175.524
49.43000 172.594
49.44000 172.068
49.45000 174.543
49.46000 177.016
49.47000 175.459
49.48000 170.659
49.49000 165.929
49.50000 169.064
49.51000 176.201
49.52000 182.776
49.53000 179.575
49.54000 172.820
49.55000 166.741
49.56000 166.949
49.57000 168.693
49.58000 170.208
49.59000 169.028
49.60000 167.659
49.61000 166.533
49.62000 166.311
49.63000 166.174
49.64000 167.455
49.65000 172.303
49.66000 177.324
49.67000 180.507
49.68000 176.823
49.69000 174.067
49.70000 176.492
49.71000 184.752
49.72000 192.971
49.73000 193.487
49.74000 188.400
49.75000 183.412
49.76000 178.406
49.77000 173.578
49.78000 169.051
49.79000 168.956
49.80000 170.328
49.81000 171.319
49.82000 169.181
49.83000 166.351
49.84000 163.935
49.85000 167.507
49.86000 171.227
49.87000 173.761
49.88000 172.275
49.89000 170.459
49.90000 169.356
49.91000 169.892
49.92000 170.493
49.93000 170.860
49.94000 178.277
49.95000 183.637
49.96000 181.828
49.97000 172.767
49.98000 163.785
49.99000 162.496
50.00000 166.280
50.01000 169.968
50.02000 173.171
50.03000 176.021
50.04000 178.618
50.05000 178.028
50.06000 176.479
50.07000 175.144
50.08000 175.361
50.09000 175.888
50.10000 176.330
50.11000 176.164
50.12000 175.963
50.13000 176.507
50.14000 179.346
50.15000 182.347
50.16000 183.332
50.17000 180.103
50.18000 176.743
50.19000 174.775
50.20000 176.042
50.21000 176.952
50.22000 180.575
50.23000 186.661
50.24000 192.660
50.25000 193.022
50.26000 190.009
50.27000 187.092
50.28000 186.899
50.29000 187.758
50.30000 188.625
50.31000 189.568
50.32000 190.532
50.33000 191.862
50.34000 195.563
50.35000 199.690
50.36000 203.086
50.37000 207.684
50.38000 211.574
50.39000 214.171
50.40000 213.141
50.41000 211.893
50.42000 214.369
50.43000 223.928
50.44000 233.657
50.45000 239.108
50.46000 232.873
50.47000 228.534
50.48000 228.659
50.49000 232.436
50.50000 236.167
50.51000 237.774
50.52000 238.223
50.53000 238.656
50.54000 234.587
50.55000 229.223
50.56000 224.590
50.57000 226.890
50.58000 230.910
50.59000 234.421
50.60000 234.983
50.61000 235.070
50.62000 235.139
50.63000 235.295
50.64000 235.428
50.65000 234.123
50.66000 229.145
50.67000 223.983
50.68000 221.304
50.69000 222.920
50.70000 224.612
50.71000 225.516
50.72000 228.460
50.73000 230.464
50.74000 231.651
50.75000 232.235
50.76000 232.713
50.77000 229.493
50.78000 224.440
50.79000 219.626
50.80000 212.751
50.81000 205.737
50.82000 199.997
50.83000 204.897
50.84000 212.189
50.85000 217.985
50.86000 215.991
50.87000 212.878
50.88000 210.422
50.89000 209.026
50.90000 207.978
50.91000 205.439
50.92000 199.427
50.93000 193.274
50.94000 191.342
50.95000 196.048
50.96000 200.835
50.97000 203.264
50.98000 202.911
50.99000 202.659
51.00000 200.787
51.01000 197.830
51.02000 195.012
51.03000 196.023
51.04000 198.762
51.05000 201.347
51.06000 198.421
51.07000 194.193
51.08000 190.519
51.09000 190.945
51.10000 192.202
51.11000 192.725
51.12000 189.793
51.13000 186.420
51.14000 183.821
51.15000 183.809
51.16000 183.948
51.17000 184.353
51.18000 185.322
51.19000 186.309
51.20000 187.147
51.21000 187.773
51.22000 188.396
51.23000 187.102
51.24000 184.037
51.25000 181.025
51.26000 181.591
51.27000 184.333
51.28000 186.974
51.29000 187.367
51.30000 186.837
51.31000 186.341
51.32000 184.510
51.33000 182.513
51.34000 179.770
51.35000 172.116
51.36000 163.564
51.37000 156.732
51.38000 157.206
51.39000 158.505
51.40000 159.480
51.41000 166.267
51.42000 171.852
51.43000 175.074
51.44000 173.731
51.45000 172.273
51.46000 171.842
51.47000 172.739
51.48000 173.639
51.49000 174.473
51.50000 175.249
51.51000 175.998
51.52000 175.441
51.53000 174.163
51.54000 172.802
51.55000 169.917
51.56000 166.460
51.57000 163.266
51.58000 162.420
51.59000 162.193
51.60000 162.234
51.61000 163.861
51.62000 165.748
51.63000 166.988
51.64000 165.740
51.65000 164.245
51.66000 163.151
51.67000 163.553
51.68000 163.921
51.69000 164.287
51.70000 164.647
51.71000 165.006
51.72000 164.938
51.73000 164.372
51.74000 163.806
51.75000 164.980
51.76000 167.444
51.77000 169.734
51.78000 165.710
51.79000 158.509
51.80000 151.840
51.81000 153.415
51.82000 157.803
51.83000 161.809
51.84000 162.754
51.85000 162.973
51.86000 163.881
51.87000 168.445
51.88000 173.545
51.89000 176.222
51.90000 170.429
51.91000 163.907
51.92000 159.268
51.93000 157.938
51.94000 157.031
51.95000 157.431
51.96000 159.920
51.97000 162.435
51.98000 164.761
51.99000 166.889
52.00000 169.006
52.01000 168.204
52.02000 165.451
52.03000 162.718
52.04000 160.575
52.05000 158.701
52.06000 156.983
52.07000 157.323
52.08000 158.303
52.09000 159.185
52.10000 160.698
52.11000 162.139
52.12000 163.472
52.13000 164.282
52.14000 165.024
52.15000 165.943
52.16000 167.419
52.17000 168.938
52.18000 169.985
52.19000 163.187
52.20000 157.879
52.21000 156.888
52.22000 162.150
52.23000 167.463
52.24000 168.951
52.25000 166.843
52.26000 164.753
52.27000 165.332
52.28000 167.519
52.29000 169.411
52.30000 164.537
52.31000 156.836
52.32000 149.791
52.33000 150.202
52.34000 152.717
52.35000 154.952
52.36000 156.972
52.37000 158.690
52.38000 161.392
52.39000 168.345
52.40000 175.788
52.41000 180.025
52.42000 174.994
52.43000 169.377
52.44000 165.625
52.45000 159.116
52.46000 154.239
52.47000 150.791
52.48000 149.217
52.49000 147.655
52.50000 148.141
52.51000 150.359
52.52000 152.549
52.53000 156.080
52.54000 160.253
52.55000 164.278
52.56000 165.494
52.57000 165.641
52.58000 165.522
52.59000 162.771
52.60000 159.346
52.61000 156.348
52.62000 158.965
52.63000 162.011
52.64000 164.504
52.65000 164.831
52.66000 164.939
52.67000 165.480
52.68000 167.160
52.69000 168.901
52.70000 170.024
52.71000 164.665
52.72000 160.656
52.73000 158.482
52.74000 158.482
52.75000 158.479
52.76000 157.161
52.77000 154.838
52.78000 152.555
52.79000 153.579
52.80000 156.202
52.81000 158.533
52.82000 156.226
52.83000 152.311
52.84000 149.342
52.85000 154.598
52.86000 161.763
52.87000 167.933
52.88000 164.793
52.89000 160.957
52.90000 157.858
52.91000 157.377
52.92000 157.127
52.93000 156.748
52.94000 156.060
52.95000 155.358
52.96000 154.922
52.97000 154.002
52.98000 153.335
52.99000 157.268
53.00000 166.105
53.01000 174.866
53.02000 174.060
53.03000 166.640
53.04000 159.386
53.05000 154.018
53.06000 149.714
53.07000 145.946
53.08000 149.413
53.09000 155.162
53.10000 159.812
53.11000 156.002
53.12000 150.418
53.13000 145.692
53.14000 150.472
53.15000 155.530
53.16000 158.905
53.17000 156.848
53.18000 154.378
53.19000 153.127
53.20000 154.542
53.21000 156.050
53.22000 156.951
53.23000 157.609
53.24000 158.073
53.25000 157.998
53.26000 157.406
53.27000 156.789
53.28000 154.152
53.29000 150.250
53.30000 146.459
53.31000 145.394
53.32000 145.480
53.33000 145.649
53.34000 146.779
53.35000 148.186
53.36000 149.450
53.37000 149.736
53.38000 149.838
53.39000 149.922
53.40000 155.502
53.41000 160.651
53.42000 162.494
53.43000 154.630
53.44000 146.138
53.45000 142.252
53.46000 147.537
53.47000 153.076
53.48000 156.247
53.49000 154.584
53.50000 153.406
53.51000 153.130
53.52000 153.629
53.53000 154.141
53.54000 155.382
53.55000 157.040
53.56000 158.638
53.57000 157.482
53.58000 155.395
53.59000 153.656
53.60000 155.459
53.61000 158.182
53.62000 160.193
53.63000 157.845
53.64000 154.756
53.65000 152.241
53.66000 152.609
53.67000 153.154
53.68000 152.865
53.69000 150.348
53.70000 147.709
53.71000 146.860
53.72000 149.253
53.73000 151.714
53.74000 153.059
53.75000 148.948
53.76000 146.124
53.77000 145.740
53.78000 147.250
53.79000 148.803
53.80000 152.083
53.81000 156.258
53.82000 160.253
53.83000 157.253
53.84000 152.169
53.85000 147.811
53.86000 149.912
53.87000 153.537
53.88000 156.186
53.89000 153.482
53.90000 149.965
53.91000 147.162
53.92000 149.973
53.93000 152.650
53.94000 155.072
53.95000 156.874
53.96000 158.647
53.97000 157.070
53.98000 149.972
53.99000 142.793
54.00000 139.057
54.01000 155.717
54.02000 166.901
54.03000 167.593
54.04000 160.914
54.05000 154.409
54.06000 153.283
54.07000 154.699
54.08000 156.041
54.09000 154.823
54.10000 152.945
54.11000 150.907
54.12000 147.615
54.13000 144.056
54.14000 142.201
54.15000 148.764
54.16000 156.466
54.17000 162.469
54.18000 159.300
54.19000 156.205
54.20000 154.278
54.21000 154.944
54.22000 155.703
54.23000 154.909
54.24000 151.788
54.25000 148.645
54.26000 148.965
54.27000 152.655
54.28000 156.325
54.29000 158.364
54.30000 159.363
54.31000 160.184
54.32000 156.616
54.33000 151.159
54.34000 146.036
54.35000 147.635
54.36000 150.878
54.37000 153.775
54.38000 154.256
54.39000 154.272
54.40000 153.827
54.41000 151.325
54.42000 148.576
54.43000 146.484
54.44000 146.291
54.45000 146.238
54.46000 146.152
54.47000 146.000
54.48000 145.847
54.49000 147.464
54.50000 151.481
54.51000 155.510
54.52000 154.698
54.53000 149.659
54.54000 144.713
54.55000 145.073
54.56000 148.503
54.57000 151.880
54.58000 154.177
54.59000 156.052
54.60000 157.793
54.61000 157.446
54.62000 156.636
54.63000 155.362
54.64000 151.203
54.65000 146.545
54.66000 143.680
54.67000 148.054
54.68000 153.191
54.69000 157.000
54.70000 159.334
54.71000 161.082
54.72000 161.209
54.73000 158.351
54.74000 155.429
54.75000 155.411
54.76000 158.949
54.77000 162.489
54.78000 162.612
54.79000 160.051
54.80000 157.450
54.81000 153.184
54.82000 148.041
54.83000 143.237
54.84000 144.133
54.85000 147.065
54.86000 149.757
54.87000 150.485
54.88000 150.715
54.89000 150.999
54.90000 151.585
54.91000 152.217
54.92000 152.284
54.93000 150.280
54.94000 148.085
54.95000 146.502
54.96000 153.149
54.97000 158.538
54.98000 161.465
54.99000 160.272
55.00000 159.016
55.01000 158.584
55.02000 159.063
55.03000 159.540
55.04000 160.892
55.05000 162.848
55.06000 164.748
55.07000 164.822
55.08000 164.022
55.09000 163.441
55.10000 165.987
55.11000 169.549
55.12000 172.779
55.13000 169.107
55.14000 164.548
55.15000 161.270
55.16000 164.430
55.17000 168.477
55.18000 171.013
55.19000 168.521
55.20000 165.628
55.21000 163.601
55.22000 162.640
55.23000 161.944
55.24000 161.806
55.25000 162.517
55.26000 163.237
55.27000 163.794
55.28000 164.190
55.29000 164.582
55.30000 167.257
55.31000 171.344
55.32000 175.309
55.33000 176.146
55.34000 175.618
55.35000 175.442
55.36000 179.566
55.37000 184.961
55.38000 189.788
55.39000 192.714
55.40000 194.942
55.41000 196.505
55.42000 195.053
55.43000 193.233
55.44000 191.842
55.45000 191.751
55.46000 191.749
55.47000 191.748
55.48000 205.557
55.49000 216.168
55.50000 221.761
55.51000 220.444
55.52000 219.088
55.53000 221.940
55.54000 228.536
55.55000 235.064
55.56000 241.768
55.57000 248.426
55.58000 255.183
55.59000 264.002
55.60000 273.643
55.61000 282.902
55.62000 288.114
55.63000 292.240
55.64000 295.877
55.65000 298.194
55.66000 299.990
55.67000 302.252
55.68000 306.419
55.69000 310.792
55.70000 315.632
55.71000 321.757
55.72000 327.956
55.73000 332.026
55.74000 345.253
55.75000 355.138
55.76000 359.524
55.77000 357.064
55.78000 354.596
55.79000 356.367
55.80000 361.539
55.81000 366.635
55.82000 371.072
55.83000 375.036
55.84000 379.021
55.85000 383.381
55.86000 387.877
55.87000 392.162
55.88000 394.488
55.89000 396.338
55.90000 397.943
55.91000 392.968
55.92000 387.845
55.93000 383.699
55.94000 383.190
55.95000 383.024
55.96000 380.044
55.97000 370.003
55.98000 359.622
55.99000 353.048
56.00000 354.324
56.01000 355.344
56.02000 352.076
56.03000 343.997
56.04000 335.954
56.05000 334.388
56.06000 337.521
56.07000 340.592
56.08000 336.177
56.09000 328.421
56.10000 320.334
56.11000 307.426
56.12000 292.927
56.13000 279.787
56.14000 277.747
56.15000 278.153
56.16000 278.500
56.17000 274.479
56.18000 270.577
56.19000 266.437
56.20000 261.495
56.21000 256.488
56.22000 251.561
56.23000 246.816
56.24000 242.079
56.25000 239.192
56.26000 228.054
56.27000 220.028
56.28000 216.258
56.29000 216.780
56.30000 217.298
56.31000 217.442
56.32000 217.339
56.33000 217.239
56.34000 210.106
56.35000 200.326
56.36000 191.596
56.37000 195.987
56.38000 204.318
56.39000 210.712
56.40000 203.091
56.41000 192.681
56.42000 183.956
56.43000 183.474
56.44000 183.930
56.45000 183.998
56.46000 182.878
56.47000 181.674
56.48000 178.937
56.49000 173.004
56.50000 166.971
56.51000 163.443
56.52000 167.155
56.53000 169.801
56.54000 170.942
56.55000 170.721
56.56000 170.525
56.57000 171.863
56.58000 174.118
56.59000 176.300
56.60000 173.023
56.61000 167.841
56.62000 163.424
56.63000 167.276
56.64000 173.384
56.65000 177.813
56.66000 171.407
56.67000 163.061
56.68000 156.199
56.69000 156.714
56.70000 157.805
56.71000 158.235
56.72000 156.812
56.73000 155.280
56.74000 154.410
56.75000 154.798
56.76000 155.215
56.77000 155.449
56.78000 153.987
56.79000 152.969
56.80000 151.542
56.81000 149.781
56.82000 148.055
56.83000 147.957
56.84000 148.743
56.85000 149.498
56.86000 148.010
56.87000 145.844
56.88000 144.089
56.89000 146.216
56.90000 149.304
56.91000 151.395
56.92000 147.729
56.93000 143.139
56.94000 139.441
56.95000 139.909
56.96000 140.614
56.97000 140.851
56.98000 139.894
56.99000 138.878
57.00000 139.874
57.01000 144.342
57.02000 148.871
57.03000 151.287
57.04000 149.115
57.05000 147.631
57.06000 145.821
57.07000 143.772
57.08000 141.795
57.09000 142.295
57.10000 144.021
57.11000 145.664
57.12000 148.655
57.13000 151.843
57.14000 154.239
57.15000 150.030
57.16000 144.343
57.17000 139.551
57.18000 139.414
57.19000 139.944
57.20000 140.362
57.21000 147.152
57.22000 153.023
57.23000 155.565
57.24000 150.379
57.25000 144.880
57.26000 141.510
57.27000 141.480
57.28000 141.489
57.29000 141.494
57.30000 144.266
57.31000 146.089
57.32000 144.613
57.33000 140.932
57.34000 137.399
57.35000 137.903
57.36000 140.224
57.37000 142.414
57.38000 140.884
57.39000 138.441
57.40000 136.383
57.41000 137.158
57.42000 138.505
57.43000 140.462
57.44000 145.273
57.45000 150.446
57.46000 154.429
57.47000 148.452
57.48000 143.153
57.49000 138.357
57.50000 134.627
57.51000 130.931
57.52000 129.640
57.53000 131.766
57.54000 133.917
57.55000 134.609
57.56000 133.959
57.57000 133.348
57.58000 135.451
57.59000 139.199
57.60000 142.890
57.61000 145.310
57.62000 147.210
57.63000 148.985
57.64000 148.474
57.65000 147.436
57.66000 146.627
57.67000 147.326
57.68000 148.299
57.69000 148.082
57.70000 142.818
57.71000 136.988
57.72000 132.610
57.73000 134.025
57.74000 135.407
57.75000 136.015
57.76000 135.129
57.77000 134.206
57.78000 134.851
57.79000 137.512
57.80000 140.178
57.81000 139.715
57.82000 136.667
57.83000 133.673
57.84000 133.250
57.85000 134.245
57.86000 135.249
57.87000 136.407
57.88000 137.623
57.89000 138.746
57.90000 136.277
57.91000 133.254
57.92000 130.909
57.93000 132.556
57.94000 134.855
57.95000 137.033
57.96000 138.741
57.97000 140.404
57.98000 141.619
57.99000 143.707
58.00000 145.351
58.01000 145.887
58.02000 144.482
58.03000 143.041
58.04000 142.814
58.05000 143.996
58.06000 145.177
58.07000 147.001
58.08000 149.291
58.09000 151.472
58.10000 149.734
58.11000 146.029
58.12000 142.337
58.13000 138.828
58.14000 135.382
58.15000 132.238
58.16000 133.889
58.17000 136.322
58.18000 138.401
58.19000 138.616
58.20000 138.559
58.21000 139.010
58.22000 141.230
58.23000 143.601
58.24000 145.287
58.25000 140.362
58.26000 136.401
58.27000 132.715
58.28000 129.464
58.29000 126.219
58.30000 125.340
58.31000 126.932
58.32000 128.515
58.33000 131.310
58.34000 134.884
58.35000 138.312
58.36000 137.613
58.37000 135.027
58.38000 132.814
58.39000 135.497
58.40000 139.696
58.41000 143.478
58.42000 138.683
58.43000 132.930
58.44000 128.175
58.45000 128.175
58.46000 128.791
58.47000 129.971
58.48000 132.933
58.49000 136.028
58.50000 138.161
58.51000 145.628
58.52000 151.371
58.53000 151.942
58.54000 145.040
58.55000 138.080
58.56000 135.944
58.57000 138.328
58.58000 140.692
58.59000 138.379
58.60000 133.284
58.61000 128.264
58.62000 124.974
58.63000 122.405
58.64000 120.402
58.65000 124.804
58.66000 131.009
58.67000 136.519
58.68000 135.321
58.69000 133.206
58.70000 131.725
58.71000 132.981
58.72000 134.551
58.73000 136.163
58.74000 137.897
58.75000 139.638
58.76000 140.800
58.77000 138.235
58.78000 136.263
58.79000 134.478
58.80000 132.938
58.81000 131.402
58.82000 131.761
58.83000 133.717
58.84000 135.648
58.85000 135.821
58.86000 135.031
58.87000 134.108
58.88000 130.688
58.89000 126.321
58.90000 122.651
58.91000 125.858
58.92000 130.821
58.93000 135.163
58.94000 138.485
58.95000 141.186
58.96000 142.714
58.97000 139.667
58.98000 136.159
58.99000 133.755
59.00000 134.253
59.01000 134.905
59.02000 135.324
59.03000 132.256
59.04000 129.966
59.05000 128.930
59.06000 129.376
59.07000 129.827
59.08000 130.941
59.09000 132.560
59.10000 134.151
59.11000 132.117
59.12000 128.366
59.13000 124.997
59.14000 127.666
59.15000 132.421
59.16000 136.611
59.17000 135.895
59.18000 134.044
59.19000 132.452
59.20000 131.779
59.21000 131.326
59.22000 131.039
59.23000 131.340
59.24000 131.693
59.25000 132.393
59.26000 133.925
59.27000 135.493
59.28000 136.467
59.29000 134.809
59.30000 133.590
59.31000 132.847
59.32000 132.610
59.33000 132.393
59.34000 134.704
59.35000 138.758
59.36000 142.720
59.37000 142.234
59.38000 139.791
59.39000 137.236
59.40000 133.168
59.41000 128.624
59.42000 125.239
59.43000 130.735
59.44000 138.089
59.45000 144.309
59.46000 141.766
59.47000 138.669
59.48000 135.910
59.49000 134.237
59.50000 132.646
59.51000 132.484
59.52000 135.438
59.53000 138.500
59.54000 140.328
59.55000 134.838
59.56000 130.900
59.57000 129.013
59.58000 129.082
59.59000 129.183
59.60000 131.822
59.61000 136.048
59.62000 140.152
59.63000 138.054
59.64000 133.573
59.65000 129.615
59.66000 131.725
59.67000 135.568
59.68000 138.837
59.69000 138.189
59.70000 136.804
59.71000 135.654
59.72000 135.690
59.73000 135.835
59.74000 135.937
59.75000 135.914
59.76000 135.884
59.77000 135.031
59.78000 132.547
59.79000 130.019
59.80000 128.573
59.81000 126.420
59.82000 124.919
59.83000 126.318
59.84000 130.202
59.85000 134.008
59.86000 133.638
59.87000 130.894
59.88000 128.248
59.89000 128.255
59.90000 129.222
59.91000 130.435
59.92000 134.128
59.93000 138.464
59.94000 142.191
59.95000 142.200
59.96000 141.581
59.97000 141.077
59.98000 140.873
59.99000 140.731
60.00000 141.692
60.01000 145.590
60.02000 149.647
60.03000 151.483
60.04000 149.306
60.05000 147.046
60.06000 145.812
60.07000 142.083
60.08000 139.513
60.09000 135.780
60.10000 131.148
60.11000 126.645
60.12000 127.241
60.13000 130.476
60.14000 133.569
60.15000 133.813
60.16000 133.110
60.17000 132.696
60.18000 134.842
60.19000 137.589
60.20000 139.726
60.21000 138.534
60.22000 136.837
60.23000 135.486
60.24000 134.749
60.25000 134.199
60.26000 133.614
60.27000 132.941
60.28000 132.265
60.29000 131.813
60.30000 131.730
60.31000 131.653
60.32000 131.613
60.33000 131.542
60.34000 131.501
60.35000 132.502
60.36000 134.232
60.37000 135.929
60.38000 136.620
60.39000 136.837
60.40000 137.043
60.41000 135.209
60.42000 132.921
60.43000 130.733
60.44000 129.334
60.45000 128.103
60.46000 127.608
60.47000 130.739
60.48000 134.360
60.49000 137.179
60.50000 134.562
60.51000 132.142
60.52000 130.049
60.53000 128.679
60.54000 127.335
60.55000 128.188
60.56000 132.316
60.57000 136.475
60.58000 138.902
60.59000 139.649
60.60000 140.370
60.61000 138.967
60.62000 136.216
60.63000 133.499
60.64000 131.633
60.65000 130.132
60.66000 128.722
60.67000 129.994
60.68000 131.863
60.69000 133.347
60.70000 132.153
60.71000 130.445
60.72000 129.394
60.73000 131.260
60.74000 133.474
60.75000 135.158
60.76000 135.954
60.77000 136.534
60.78000 136.262
60.79000 134.276
60.80000 132.241
60.81000 132.000
60.82000 134.184
60.83000 136.380
60.84000 139.619
60.85000 143.759
60.86000 147.809
60.87000 146.782
60.88000 142.824
60.89000 139.009
60.90000 138.052
60.91000 138.213
60.92000 138.362
60.93000 134.277
60.94000 129.587
60.95000 126.304
60.96000 131.747
60.97000 138.693
60.98000 143.737
60.99000 141.125
61.00000 137.707
61.01000 135.176
61.02000 131.248
61.03000 128.138
61.04000 127.321
61.05000 130.713
61.06000 134.195
61.07000 135.346
61.08000 133.651
61.09000 131.953
61.10000 129.776
61.11000 127.236
61.12000 124.787
61.13000 126.104
61.14000 129.399
61.15000 132.651
61.16000 135.212
61.17000 137.527
61.18000 139.652
61.19000 142.289
61.20000 144.750
61.21000 146.360
61.22000 143.235
61.23000 139.380
61.24000 136.308
61.25000 136.095
61.26000 136.144
61.27000 136.180
61.28000 136.956
61.29000 137.577
61.30000 137.077
61.31000 134.708
61.32000 132.310
61.33000 132.106
61.34000 134.316
61.35000 136.518
61.36000 138.174
61.37000 139.429
61.38000 140.659
61.39000 141.106
61.40000 141.177
61.41000 141.349
61.42000 142.937
61.43000 144.984
61.44000 146.840
61.45000 147.343
61.46000 147.529
61.47000 148.347
61.48000 152.332
61.49000 156.751
61.50000 162.354
61.51000 171.884
61.52000 181.725
61.53000 188.612
61.54000 206.823
61.55000 220.912
61.56000 236.041
61.57000 252.745
61.58000 269.464
61.59000 285.241
61.60000 300.087
61.61000 314.830
61.62000 323.930
61.63000 329.303
61.64000 334.631
61.65000 338.847
61.66000 342.578
61.67000 345.977
61.68000 345.355
61.69000 343.548
61.70000 341.931
61.71000 350.485
61.72000 359.672
61.73000 365.926
61.74000 358.922
61.75000 350.302
61.76000 340.785
61.77000 328.564
61.78000 316.158
61.79000 307.745
61.80000 284.672
61.81000 267.141
61.82000 246.910
61.83000 222.974
61.84000 199.020
61.85000 180.473
61.86000 166.722
61.87000 153.114
61.88000 148.771
61.89000 149.834
61.90000 150.666
61.91000 146.722
61.92000 140.883
61.93000 135.911
61.94000 140.092
61.95000 146.723
61.96000 152.567
61.97000 150.320
61.98000 147.161
61.99000 145.478
62.00000 149.835
62.01000 154.841
62.02000 156.650
62.03000 149.676
62.04000 142.197
62.05000 137.293
62.06000 135.736
62.07000 134.646
62.08000 135.417
62.09000 138.497
62.10000 141.583
62.11000 144.101
62.12000 146.166
62.13000 148.200
62.14000 148.375
62.15000 147.584
62.16000 146.675
62.17000 143.769
62.18000 140.139
62.19000 136.684
62.20000 134.843
62.21000 133.393
62.22000 132.135
62.23000 139.019
62.24000 145.972
62.25000 151.527
62.26000 151.898
62.27000 151.782
62.28000 150.359
62.29000 145.664
62.30000 140.812
62.31000 137.743
62.32000 142.772
62.33000 146.514
62.34000 146.239
62.35000 141.472
62.36000 136.737
62.37000 137.669
62.38000 142.701
62.39000 147.632
62.40000 149.941
62.41000 150.936
62.42000 151.494
62.43000 145.682
62.44000 137.774
62.45000 130.911
62.46000 132.548
62.47000 136.053
62.48000 139.042
62.49000 142.829
62.50000 146.111
62.51000 148.575
62.52000 148.284
62.53000 147.769
62.54000 147.304
62.55000 146.951
62.56000 146.604
62.57000 146.392
62.58000 143.673
62.59000 141.711
62.60000 141.141
62.61000 141.970
62.62000 142.764
62.63000 140.278
62.64000 135.643
62.65000 131.127
62.66000 135.262
62.67000 142.853
62.68000 149.820
62.69000 149.007
62.70000 145.865
62.71000 143.230
62.72000 144.249
62.73000 145.992
62.74000 147.452
62.75000 148.013
62.76000 148.387
62.77000 148.325
62.78000 146.927
62.79000 145.436
62.80000 146.224
62.81000 151.748
62.82000 157.418
62.83000 160.730
62.84000 146.799
62.85000 136.923
62.86000 134.865
62.87000 139.862
62.88000 144.858
62.89000 149.759
62.90000 154.604
62.91000 159.292
62.92000 160.905
62.93000 161.257
62.94000 161.119
62.95000 155.683
62.96000 148.806
62.97000 143.586
62.98000 149.030
62.99000 156.375
63.00000 162.411
63.01000 157.375
63.02000 152.240
63.03000 147.781
63.04000 145.211
63.05000 142.752
63.06000 142.536
63.07000 146.562
63.08000 150.688
63.09000 152.994
63.10000 147.941
63.11000 144.432
63.12000 143.602
63.13000 144.949
63.14000 146.248
63.15000 145.325
63.16000 143.199
63.17000 141.158
63.18000 142.490
63.19000 144.895
63.20000 147.246
63.21000 149.080
63.22000 150.787
63.23000 152.490
63.24000 154.168
63.25000 155.842
63.26000 157.190
63.27000 156.264
63.28000 155.336
63.29000 153.324
63.30000 148.557
63.31000 143.653
63.32000 141.933
63.33000 145.690
63.34000 149.541
63.35000 151.592
63.36000 152.456
63.37000 153.042
63.38000 153.434
63.39000 153.681
63.40000 153.881
63.41000 152.406
63.42000 150.107
63.43000 147.917
63.44000 146.847
63.45000 146.202
63.46000 145.916
63.47000 148.608
63.48000 151.965
63.49000 154.283
63.50000 151.228
63.51000 147.405
63.52000 144.394
63.53000 151.196
63.54000 157.303
63.55000 159.624
63.56000 153.177
63.57000 146.378
63.58000 143.660
63.59000 147.322
63.60000 151.059
63.61000 152.949
63.62000 153.162
63.63000 153.311
63.64000 154.193
63.65000 155.563
63.66000 156.777
63.67000 153.769
63.68000 148.865
63.69000 144.240
63.70000 146.104
63.71000 149.620
63.72000 152.799
63.73000 153.493
63.74000 153.688
63.75000 154.258
63.76000 156.586
63.77000 159.137
63.78000 161.099
63.79000 160.952
63.80000 160.715
63.81000 160.497
63.82000 160.315
63.83000 160.135
63.84000 161.454
63.85000 164.898
63.86000 168.356
63.87000 167.056
63.88000 161.393
63.89000 155.810
63.90000 155.610
63.91000 158.664
63.92000 161.435
63.93000 157.972
63.94000 151.959
63.95000 146.345
63.96000 146.861
63.97000 148.864
63.98000 150.915
63.99000 153.277
64.00000 155.696
64.01000 158.366
64.02000 162.093
64.03000 165.939
64.04000 168.825
64.05000 166.094
64.06000 163.694
64.07000 162.560
64.08000 163.858
64.09000 165.216
64.10000 164.787
64.11000 162.067
64.12000 159.342
64.13000 158.992
64.14000 160.601
64.15000 162.233
64.16000 164.959
64.17000 168.287
64.18000 171.298
64.19000 168.569
64.20000 163.701
64.21000 159.207
64.22000 160.194
64.23000 162.311
64.24000 164.351
64.25000 165.935
64.26000 167.445
64.27000 168.139
64.28000 165.712
64.29000 162.978
64.30000 160.981
64.31000 166.141
64.32000 170.400
64.33000 172.820
64.34000 172.024
64.35000 171.170
64.36000 172.823
64.37000 177.379
64.38000 181.925
64.39000 180.008
64.40000 173.313
64.41000 166.751
64.42000 164.980
64.43000 165.607
64.44000 166.525
64.45000 171.900
64.46000 178.788
64.47000 185.071
64.48000 182.003
64.49000 177.400
64.50000 174.161
64.51000 178.111
64.52000 183.106
64.53000 186.625
64.54000 185.012
64.55000 182.962
64.56000 181.506
64.57000 181.254
64.58000 181.101
64.59000 182.016
64.60000 184.626
64.61000 187.257
64.62000 185.885
64.63000 180.344
64.64000 174.833
64.65000 172.845
64.66000 173.237
64.67000 173.728
64.68000 177.012
64.69000 181.570
64.70000 185.987
64.71000 188.564
64.72000 190.572
64.73000 192.380
64.74000 190.253
64.75000 187.680
64.76000 185.711
64.77000 186.611
64.78000 187.881
64.79000 188.907
64.80000 189.160
64.81000 189.356
64.82000 189.492
64.83000 190.902
64.84000 191.993
64.85000 194.109
64.86000 197.700
64.87000 201.303
64.88000 204.575
64.89000 207.539
64.90000 210.476
64.91000 210.620
64.92000 209.077
64.93000 207.662
64.94000 209.145
64.95000 211.831
64.96000 214.044
64.97000 210.915
64.98000 206.287
64.99000 202.180
65.00000 205.583
65.01000 209.734
65.02000 215.077
65.03000 225.539
65.04000 236.585
65.05000 243.111
65.06000 236.639
65.07000 229.355
65.08000 224.499
65.09000 230.505
65.10000 235.160
65.11000 240.915
65.12000 248.103
65.13000 255.291
65.14000 258.889
65.15000 259.470
65.16000 260.043
65.17000 260.520
65.18000 260.933
65.19000 261.448
65.20000 263.871
65.21000 267.015
65.22000 270.509
65.23000 277.434
65.24000 285.233
65.25000 292.052
65.26000 289.597
65.27000 286.178
65.28000 285.854
65.29000 297.568
65.30000 310.489
65.31000 320.229
65.32000 321.638
65.33000 322.611
65.34000 323.237
65.35000 318.531
65.36000 315.021
65.37000 314.537
65.38000 317.617
65.39000 320.725
65.40000 328.773
65.41000 340.572
65.42000 352.165
65.43000 353.888
65.44000 350.707
65.45000 347.680
65.46000 347.083
65.47000 347.323
65.48000 348.179
65.49000 354.364
65.50000 361.778
65.51000 368.155
65.52000 369.419
65.53000 369.849
65.54000 373.187
65.55000 386.792
65.56000 401.293
65.57000 411.399
65.58000 411.016
65.59000 410.182
65.60000 409.664
65.61000 434.199
65.62000 452.096
65.63000 466.539
65.64000 477.324
65.65000 488.203
65.66000 510.210
65.67000 539.866
65.68000 568.845
65.69000 616.596
65.70000 670.653
65.71000 725.493
65.72000 790.820
65.73000 859.435
65.74000 930.761
65.75000 1022.805
65.76000 1119.167
65.77000 1200.620
65.78000 1277.196
65.79000 1340.712
65.80000 1402.101
65.81000 1456.668
65.82000 1510.721
65.83000 1552.373
65.84000 1567.071
65.85000 1580.834
65.86000 1589.039
65.87000 1601.045
65.88000 1609.576
65.89000 1608.709
65.90000 1598.912
65.91000 1588.945
65.92000 1566.105
65.93000 1535.236
65.94000 1505.265
65.95000 1424.253
65.96000 1326.946
65.97000 1229.689
65.98000 1133.013
65.99000 1036.504
66.00000 942.276
66.01000 863.559
66.02000 787.754
66.03000 724.863
66.04000 651.108
66.05000 589.111
66.06000 533.180
66.07000 494.957
66.08000 457.872
66.09000 429.475
66.10000 418.275
66.11000 407.540
66.12000 401.409
66.13000 409.189
66.14000 414.649
66.15000 409.938
66.16000 396.535
66.17000 383.267
66.18000 377.142
66.19000 375.066
66.20000 373.065
66.21000 375.436
66.22000 379.243
66.23000 383.201
66.24000 388.673
66.25000 394.537
66.26000 402.440
66.27000 422.726
66.28000 445.102
66.29000 463.299
66.30000 462.636
66.31000 460.517
66.32000 465.440
66.33000 489.081
66.34000 513.732
66.35000 531.582
66.36000 537.176
66.37000 542.521
66.38000 545.436
66.39000 578.648
66.40000 601.409
66.41000 603.634
66.42000 590.014
66.43000 576.645
66.44000 573.139
66.45000 574.719
66.46000 576.229
66.47000 571.265
66.48000 564.537
66.49000 556.838
66.50000 540.579
66.51000 522.313
66.52000 506.408
66.53000 503.365
66.54000 502.263
66.55000 501.386
66.56000 469.566
66.57000 441.681
66.58000 419.116
66.59000 409.435
66.60000 400.327
66.61000 392.324
66.62000 386.129
66.63000 379.959
66.64000 376.759
66.65000 378.832
66.66000 380.200
66.67000 377.189
66.68000 371.121
66.69000 365.276
66.70000 366.227
66.71000 370.369
66.72000 374.295
66.73000 375.289
66.74000 375.345
66.75000 374.643
66.76000 368.037
66.77000 360.180
66.78000 355.535
66.79000 366.657
66.80000 379.898
66.81000 390.202
66.82000 382.127
66.83000 374.567
66.84000 371.354
66.85000 377.730
66.86000 384.451
66.87000 388.999
66.88000 390.316
66.89000 391.602
66.90000 394.626
66.91000 399.329
66.92000 403.984
66.93000 404.821
66.94000 403.239
66.95000 401.693
66.96000 401.009
66.97000 400.693
66.98000 400.397
66.99000 404.613
67.00000 409.646
67.01000 413.835
67.02000 412.189
67.03000 409.428
67.04000 406.974
67.05000 405.883
67.06000 404.954
67.07000 404.248
67.08000 405.152
67.09000 405.947
67.10000 407.588
67.11000 410.933
67.12000 414.326
67.13000 419.772
67.14000 427.982
67.15000 436.203
67.16000 442.255
67.17000 446.416
67.18000 450.533
67.19000 452.174
67.20000 452.391
67.21000 452.647
67.22000 453.693
67.23000 455.048
67.24000 456.306
67.25000 458.512
67.26000 460.725
67.27000 461.984
67.28000 457.341
67.29000 451.685
67.30000 446.614
67.31000 443.893
67.32000 441.418
67.33000 439.586
67.34000 458.660
67.35000 474.363
67.36000 483.681
67.37000 481.319
67.38000 478.707
67.39000 480.528
67.40000 487.745
67.41000 494.960
67.42000 499.764
67.43000 502.662
67.44000 505.450
67.45000 503.768
67.46000 499.743
67.47000 495.841
67.48000 493.973
67.49000 492.826
67.50000 491.774
67.51000 487.811
67.52000 483.660
67.53000 481.754
67.54000 492.295
67.55000 504.750
67.56000 515.662
67.57000 520.958
67.58000 525.740
67.59000 529.183
67.60000 523.522
67.61000 518.865
67.62000 519.759
67.63000 529.887
67.64000 540.156
67.65000 540.292
67.66000 529.317
67.67000 518.381
67.68000 518.546
67.69000 526.508
67.70000 534.553
67.71000 545.201
67.72000 557.090
67.73000 567.956
67.74000 564.396
67.75000 556.174
67.76000 548.724
67.77000 552.343
67.78000 557.636
67.79000 562.017
67.80000 561.849
67.81000 561.059
67.82000 562.795
67.83000 572.892
67.84000 583.650
67.85000 591.171
67.86000 602.074
67.87000 610.408
67.88000 611.857
67.89000 602.908
67.90000 593.854
67.91000 591.895
67.92000 596.918
67.93000 601.906
67.94000 609.061
67.95000 617.475
67.96000 625.622
67.97000 627.038
67.98000 625.532
67.99000 624.356
68.00000 627.174
68.01000 631.166
68.02000 634.734
68.03000 637.892
68.04000 640.575
68.05000 643.564
68.06000 647.931
68.07000 652.465
68.08000 655.604
68.09000 654.544
68.10000 653.199
68.11000 652.288
68.12000 659.890
68.13000 665.744
68.14000 676.095
68.15000 692.601
68.16000 709.131
68.17000 711.733
68.18000 702.021
68.19000 692.411
68.20000 691.364
68.21000 695.233
68.22000 699.524
68.23000 712.466
68.24000 728.833
68.25000 744.085
68.26000 747.641
68.27000 748.075
68.28000 748.457
68.29000 757.593
68.30000 766.781
68.31000 774.980
68.32000 779.146
68.33000 782.880
68.34000 788.423
68.35000 798.922
68.36000 809.705
68.37000 816.768
68.38000 817.096
68.39000 817.227
68.40000 826.020
68.41000 845.531
68.42000 865.045
68.43000 875.809
68.44000 879.597
68.45000 883.329
68.46000 891.001
68.47000 900.476
68.48000 910.408
68.49000 928.160
68.50000 948.730
68.51000 968.912
68.52000 985.533
68.53000 1001.291
68.54000 1014.955
68.55000 1049.145
68.56000 1080.990
68.57000 1114.251
68.58000 1152.748
68.59000 1191.734
68.60000 1231.932
68.61000 1275.153
68.62000 1318.518
68.63000 1345.921
68.64000 1448.192
68.65000 1523.179
68.66000 1596.130
68.67000 1666.810
68.68000 1737.571
68.69000 1821.301
68.70000 1914.382
68.71000 2005.592
68.72000 2087.827
68.73000 2162.754
68.74000 2237.899
68.75000 2316.191
68.76000 2395.515
68.77000 2475.458
68.78000 2560.419
68.79000 2646.479
68.80000 2719.854
68.81000 2864.283
68.82000 2994.145
68.83000 3144.239
68.84000 3362.302
68.85000 3585.873
68.86000 3838.191
68.87000 4155.880
68.88000 4476.097
68.89000 4670.788
68.90000 5728.575
68.91000 6490.559
68.92000 7872.417
68.93000 9875.138
68.94000 11892.653
68.95000 15283.810
68.96000 19572.814
68.97000 23750.420
68.98000 29886.199
68.99000 36559.230
69.00000 43236.891
69.01000 49971.961
69.02000 56724.164
69.03000 63302.266
69.04000 68628.906
69.05000 73708.227
69.06000 77961.273
69.07000 80333.258
69.08000 82111.352
69.09000 83598.344
69.10000 84195.875
69.11000 84731.594
69.12000 85376.477
69.13000 86247.523
69.14000 87125.508
69.15000 87637.656
69.16000 88803.406
69.17000 89625.594
69.18000 89654.734
69.19000 88970.648
69.20000 88256.094
69.21000 85641.922
69.22000 81900.148
69.23000 78280.359
69.24000 74032.078
69.25000 69781.250
69.26000 65540.281
69.27000 61405.133
69.28000 57298.680
69.29000 53395.211
69.30000 50792.813
69.31000 48421.738
69.32000 46474.375
69.33000 45013.582
69.34000 43857.625
69.35000 42678.086
69.36000 41432.957
69.37000 40183.973
69.38000 38541.547
69.39000 36157.070
69.40000 33755.168
69.41000 32415.117
69.42000 27607.076
69.43000 24272.221
69.44000 21079.953
69.45000 18003.262
69.46000 14939.213
69.47000 12444.464
69.48000 10257.041
69.49000 8157.077
69.50000 6686.821
69.51000 5527.304
69.52000 4420.817
69.53000 3812.041
69.54000 3325.669
69.55000 2873.876
69.56000 2620.607
69.57000 2398.979
69.58000 2220.673
69.59000 2076.768
69.60000 1962.711
69.61000 1859.698
69.62000 1784.666
69.63000 1711.005
69.64000 1647.277
69.65000 1600.588
69.66000 1554.191
69.67000 1529.520
69.68000 1436.731
69.69000 1373.655
69.70000 1332.247
69.71000 1306.715
69.72000 1280.852
69.73000 1243.606
69.74000 1200.768
69.75000 1159.991
69.76000 1127.859
69.77000 1100.780
69.78000 1074.886
69.79000 1058.788
69.80000 1044.871
69.81000 1030.607
69.82000 1014.553
69.83000 998.244
69.84000 985.409
69.85000 967.476
69.86000 952.772
69.87000 936.073
69.88000 914.768
69.89000 893.278
69.90000 873.741
69.91000 857.248
69.92000 840.791
69.93000 832.483
69.94000 836.712
69.95000 839.425
69.96000 830.612
69.97000 814.146
69.98000 797.867
69.99000 786.625
70.00000 777.637
