20.00000 555.989
20.01000 553.516
20.02000 550.691
20.03000 546.501
20.04000 536.982
20.05000 526.924
20.06000 519.534
20.07000 525.243
20.08000 530.194
20.09000 535.897
20.10000 542.941
20.11000 550.013
20.12000 553.154
20.13000 551.643
20.14000 550.129
20.15000 551.971
20.16000 556.347
20.17000 560.649
20.18000 562.155
20.19000 562.235
20.20000 562.257
20.21000 561.359
20.22000 560.143
20.23000 559.031
20.24000 555.705
20.25000 552.292
20.26000 550.130
20.27000 554.707
20.28000 560.287
20.29000 562.894
20.30000 554.958
20.31000 546.094
20.32000 539.762
20.33000 542.867
20.34000 545.550
20.35000 547.968
20.36000 549.954
20.37000 551.934
20.38000 553.940
20.39000 555.972
20.40000 557.995
20.41000 557.131
20.42000 554.304
20.43000 551.685
20.44000 555.228
20.45000 561.635
20.46000 567.506
20.47000 566.126
20.48000 562.463
20.49000 559.156
20.50000 562.836
20.51000 567.357
20.52000 570.110
20.53000 564.287
20.54000 557.326
20.55000 550.930
20.56000 546.358
20.57000 541.925
20.58000 538.851
20.59000 537.619
20.60000 536.739
20.61000 536.250
20.62000 536.334
20.63000 536.423
20.64000 541.291
20.65000 550.724
20.66000 560.083
20.67000 567.481
20.68000 573.543
20.69000 579.041
20.70000 571.158
20.71000 557.608
20.72000 544.405
20.73000 535.235
20.74000 527.220
20.75000 520.083
20.76000 540.007
20.77000 561.759
20.78000 577.108
20.79000 564.389
20.80000 548.376
20.81000 536.376
20.82000 536.145
20.83000 536.678
20.84000 537.035
20.85000 542.839
20.86000 547.260
20.87000 547.573
20.88000 542.414
20.89000 537.237
20.90000 537.978
20.91000 543.806
20.92000 549.565
20.93000 551.139
20.94000 550.349
20.95000 549.759
20.96000 553.052
20.97000 557.845
20.98000 562.275
20.99000 563.045
21.00000 562.863
21.01000 562.704
21.02000 557.731
21.03000 552.759
21.04000 548.830
21.05000 549.042
21.06000 549.681
21.07000 548.628
21.08000 543.057
21.09000 537.240
21.10000 533.466
21.11000 555.112
21.12000 571.347
21.13000 575.253
21.14000 564.324
21.15000 553.385
21.16000 548.151
21.17000 547.340
21.18000 546.542
21.19000 547.979
21.20000 550.491
21.21000 552.908
21.22000 553.763
21.23000 554.070
21.24000 554.241
21.25000 553.205
21.26000 551.885
21.27000 550.745
21.28000 550.879
21.29000 551.156
21.30000 550.954
21.31000 549.020
21.32000 546.931
21.33000 545.106
21.34000 543.926
21.35000 542.774
21.36000 542.054
21.37000 549.716
21.38000 555.334
21.39000 551.543
21.40000 537.557
21.41000 523.663
21.42000 522.477
21.43000 530.212
21.44000 537.780
21.45000 542.558
21.46000 545.880
21.47000 548.909
21.48000 547.875
21.49000 545.542
21.50000 542.918
21.51000 538.020
21.52000 532.638
21.53000 528.071
21.54000 545.854
21.55000 563.301
21.56000 574.841
21.57000 567.047
21.58000 557.749
21.59000 549.705
21.60000 544.444
21.61000 539.283
21.62000 536.180
21.63000 538.506
21.64000 540.197
21.65000 540.768
21.66000 540.248
21.67000 539.739
21.68000 540.122
21.69000 541.071
21.70000 541.994
21.71000 545.447
21.72000 549.767
21.73000 554.143
21.74000 559.197
21.75000 564.449
21.76000 567.729
21.77000 557.276
21.78000 544.184
21.79000 533.279
21.80000 549.374
21.81000 565.389
21.82000 576.344
21.83000 572.229
21.84000 567.111
21.85000 568.923
21.86000 584.727
21.87000 600.931
21.88000 610.273
21.89000 604.142
21.90000 599.800
21.91000 605.566
21.92000 620.165
21.93000 634.580
21.94000 638.560
21.95000 636.504
21.96000 634.519
21.97000 632.644
21.98000 630.919
21.99000 628.995
22.00000 625.012
22.01000 620.485
22.02000 618.474
22.03000 632.095
22.04000 648.417
22.05000 661.748
22.06000 660.699
22.07000 658.600
22.08000 656.700
22.09000 655.342
22.10000 654.013
22.11000 653.591
22.12000 654.835
22.13000 656.114
22.14000 656.819
22.15000 661.589
22.16000 664.857
22.17000 660.824
22.18000 651.034
22.19000 641.482
22.20000 641.805
22.21000 647.324
22.22000 652.611
22.23000 646.653
22.24000 637.355
22.25000 628.627
22.26000 625.066
22.27000 622.742
22.28000 621.170
22.29000 623.794
22.30000 627.066
22.31000 629.683
22.32000 623.316
22.33000 617.500
22.34000 613.822
22.35000 615.422
22.36000 617.268
22.37000 613.303
22.38000 599.626
22.39000 585.797
22.40000 578.544
22.41000 588.883
22.42000 595.822
22.43000 592.141
22.44000 580.885
22.45000 569.956
22.46000 569.461
22.47000 573.966
22.48000 578.243
22.49000 576.673
22.50000 573.471
22.51000 570.394
22.52000 568.310
22.53000 566.442
22.54000 562.994
22.55000 551.623
22.56000 539.161
22.57000 529.414
22.58000 539.806
22.59000 549.383
22.60000 552.477
22.61000 540.976
22.62000 528.924
22.63000 525.036
22.64000 533.541
22.65000 542.175
22.66000 542.347
22.67000 534.146
22.68000 525.953
22.69000 518.396
22.70000 511.251
22.71000 504.461
22.72000 506.684
22.73000 512.840
22.74000 518.630
22.75000 525.721
22.76000 532.549
22.77000 537.389
22.78000 528.118
22.79000 516.091
22.80000 506.066
22.81000 505.111
22.82000 505.263
22.83000 505.379
22.84000 513.602
22.85000 520.519
22.86000 525.335
22.87000 525.842
22.88000 526.220
22.89000 525.110
22.90000 521.951
22.91000 518.782
22.92000 517.767
22.93000 518.665
22.94000 519.582
22.95000 521.625
22.96000 524.329
22.97000 526.882
22.98000 526.320
22.99000 524.519
23.00000 522.843
23.01000 520.848
23.02000 518.968
23.03000 517.153
23.04000 515.750
23.05000 514.420
23.06000 512.799
23.07000 509.985
23.08000 507.043
23.09000 504.853
23.10000 507.624
23.11000 510.003
23.12000 508.994
23.13000 501.661
23.14000 494.184
23.15000 493.739
23.16000 502.039
23.17000 510.352
23.18000 509.282
23.19000 500.730
23.20000 492.357
23.21000 491.806
23.22000 495.433
23.23000 499.063
23.24000 502.740
23.25000 506.434
23.26000 509.833
23.27000 504.986
23.28000 498.862
23.29000 493.368
23.30000 491.448
23.31000 490.090
23.32000 489.581
23.33000 492.225
23.34000 495.165
23.35000 497.295
23.36000 497.561
23.37000 497.697
23.38000 499.957
23.39000 505.822
23.40000 511.747
23.41000 515.172
23.42000 515.793
23.43000 516.410
23.44000 515.743
23.45000 514.159
23.46000 512.532
23.47000 509.464
23.48000 505.696
23.49000 501.484
23.50000 490.790
23.51000 477.959
23.52000 466.299
23.53000 471.716
23.54000 479.825
23.55000 487.727
23.56000 494.572
23.57000 501.268
23.58000 504.003
23.59000 493.363
23.60000 481.630
23.61000 473.375
23.62000 485.259
23.63000 494.862
23.64000 497.698
23.65000 490.100
23.66000 482.385
23.67000 477.844
23.68000 476.500
23.69000 475.164
23.70000 479.929
23.71000 488.574
23.72000 496.733
23.73000 492.091
23.74000 481.778
23.75000 473.167
23.76000 485.820
23.77000 504.850
23.78000 521.912
23.79000 515.763
23.80000 506.360
23.81000 498.406
23.82000 497.118
23.83000 496.660
23.84000 494.414
23.85000 486.676
23.86000 478.553
23.87000 473.012
23.88000 475.160
23.89000 476.945
23.90000 479.044
23.91000 481.585
23.92000 484.127
23.93000 486.138
23.94000 487.668
23.95000 489.182
23.96000 490.016
23.97000 490.435
23.98000 490.735
23.99000 488.519
24.00000 485.286
24.01000 481.928
24.02000 477.221
24.03000 472.146
24.04000 467.660
24.05000 478.048
24.06000 489.316
24.07000 497.358
24.08000 491.963
24.09000 485.090
24.10000 480.507
24.11000 482.323
24.12000 484.519
24.13000 485.968
24.14000 476.340
24.15000 469.047
24.16000 467.254
24.17000 472.415
24.18000 477.597
24.19000 481.860
24.20000 485.373
24.21000 488.837
24.22000 494.095
24.23000 500.150
24.24000 505.734
24.25000 502.970
24.26000 497.137
24.27000 491.733
24.28000 490.385
24.29000 490.039
24.30000 489.739
24.31000 482.014
24.32000 474.404
24.33000 469.882
24.34000 477.019
24.35000 485.278
24.36000 489.672
24.37000 484.224
24.38000 478.290
24.39000 474.510
24.40000 479.673
24.41000 483.539
24.42000 483.878
24.43000 480.193
24.44000 476.487
24.45000 469.702
24.46000 460.650
24.47000 451.770
24.48000 450.645
24.49000 453.252
24.50000 455.980
24.51000 460.507
24.52000 465.636
24.53000 470.976
24.54000 478.061
24.55000 485.538
24.56000 491.936
24.57000 487.977
24.58000 483.388
24.59000 479.614
24.60000 478.632
24.61000 477.884
24.62000 477.805
24.63000 479.281
24.64000 480.819
24.65000 481.762
24.66000 483.122
24.67000 484.100
24.68000 479.043
24.69000 467.800
24.70000 456.661
24.71000 456.151
24.72000 462.734
24.73000 469.154
24.74000 470.964
24.75000 470.712
24.76000 471.005
24.77000 478.250
24.78000 487.614
24.79000 495.145
24.80000 489.166
24.81000 480.458
24.82000 473.138
24.83000 474.549
24.84000 476.650
24.85000 477.169
24.86000 472.757
24.87000 467.991
24.88000 467.353
24.89000 475.439
24.90000 483.806
24.91000 488.732
24.92000 478.732
24.93000 471.600
24.94000 468.697
24.95000 469.684
24.96000 470.702
24.97000 473.816
24.98000 478.199
24.99000 482.446
25.00000 485.641
25.01000 488.257
25.02000 490.422
25.03000 487.590
25.04000 483.374
25.05000 480.146
25.06000 483.397
25.07000 487.827
25.08000 491.480
25.09000 479.522
25.10000 468.233
25.11000 460.062
25.12000 460.740
25.13000 461.957
25.14000 462.829
25.15000 463.036
25.16000 463.227
25.17000 463.334
25.18000 472.901
25.19000 479.543
25.20000 473.223
25.21000 456.166
25.22000 439.477
25.23000 440.453
25.24000 451.159
25.25000 461.454
25.26000 462.985
25.27000 461.354
25.28000 460.145
25.29000 463.011
25.30000 466.900
25.31000 469.770
25.32000 466.648
25.33000 462.549
25.34000 459.236
25.35000 463.622
25.36000 467.806
25.37000 469.604
25.38000 465.239
25.39000 460.559
25.40000 457.155
25.41000 455.985
25.42000 454.855
25.43000 454.248
25.44000 455.811
25.45000 456.876
25.46000 456.870
25.47000 456.062
25.48000 455.230
25.49000 453.506
25.50000 451.335
25.51000 449.265
25.52000 451.419
25.53000 454.750
25.54000 458.342
25.55000 464.154
25.56000 470.471
25.57000 475.547
25.58000 474.073
25.59000 471.643
25.60000 469.722
25.61000 462.858
25.62000 457.005
25.63000 451.297
25.64000 445.929
25.65000 440.575
25.66000 440.303
25.67000 448.114
25.68000 456.029
25.69000 460.071
25.70000 454.853
25.71000 451.398
25.72000 453.394
25.73000 459.086
25.74000 464.521
25.75000 462.696
25.76000 457.555
25.77000 452.698
25.78000 453.081
25.79000 454.920
25.80000 456.873
25.81000 459.675
25.82000 462.652
25.83000 463.925
25.84000 457.090
25.85000 449.204
25.86000 443.111
25.87000 457.728
25.88000 470.532
25.89000 478.054
25.90000 474.246
25.91000 470.057
25.92000 465.548
25.93000 460.578
25.94000 455.605
25.95000 453.784
25.96000 454.913
25.97000 455.973
25.98000 452.078
25.99000 445.135
26.00000 438.567
26.01000 440.530
26.02000 446.041
26.03000 451.198
26.04000 449.491
26.05000 446.189
26.06000 443.385
26.07000 443.921
26.08000 445.075
26.09000 446.477
26.10000 448.949
26.11000 451.544
26.12000 453.500
26.13000 460.978
26.14000 467.105
26.15000 469.566
26.16000 464.863
26.17000 459.973
26.18000 456.753
26.19000 455.714
26.20000 454.685
26.21000 452.306
26.22000 448.798
26.23000 445.371
26.24000 446.018
26.25000 448.944
26.26000 451.265
26.27000 442.208
26.28000 428.838
26.29000 416.468
26.30000 423.999
26.31000 435.328
26.32000 445.455
26.33000 448.384
26.34000 450.118
26.35000 451.274
26.36000 450.177
26.37000 448.852
26.38000 447.880
26.39000 451.870
26.40000 455.155
26.41000 453.941
26.42000 444.729
26.43000 435.360
26.44000 432.818
26.45000 438.328
26.46000 443.837
26.47000 444.047
26.48000 440.249
26.49000 436.617
26.50000 439.245
26.51000 445.059
26.52000 450.382
26.53000 447.945
26.54000 442.829
26.55000 438.152
26.56000 446.079
26.57000 455.711
26.58000 463.461
26.59000 461.103
26.60000 457.244
26.61000 453.495
26.62000 450.137
26.63000 446.813
26.64000 444.441
26.65000 440.086
26.66000 436.699
26.67000 435.148
26.68000 436.562
26.69000 438.017
26.70000 434.771
26.71000 426.533
26.72000 418.334
26.73000 418.202
26.74000 423.562
26.75000 428.753
26.76000 428.957
26.77000 426.849
26.78000 424.939
26.79000 425.674
26.80000 427.240
26.81000 428.653
26.82000 438.678
26.83000 449.065
26.84000 456.784
26.85000 451.594
26.86000 444.698
26.87000 440.070
26.88000 442.729
26.89000 445.940
26.90000 448.163
26.91000 442.700
26.92000 438.387
26.93000 436.521
26.94000 438.243
26.95000 439.997
26.96000 443.387
26.97000 448.336
26.98000 453.246
26.99000 452.875
27.00000 449.270
27.01000 445.873
27.02000 447.407
27.03000 451.023
27.04000 453.767
27.05000 446.413
27.06000 436.175
27.07000 427.063
27.08000 430.479
27.09000 435.495
27.10000 439.437
27.11000 438.682
27.12000 437.378
27.13000 435.495
27.14000 431.919
27.15000 428.233
27.16000 425.761
27.17000 429.204
27.18000 431.880
27.19000 430.792
27.20000 424.706
27.21000 418.612
27.22000 423.520
27.23000 437.852
27.24000 452.015
27.25000 450.340
27.26000 439.933
27.27000 429.863
27.28000 426.314
27.29000 425.275
27.30000 424.724
27.31000 429.090
27.32000 434.730
27.33000 439.676
27.34000 432.650
27.35000 424.880
27.36000 417.891
27.37000 413.990
27.38000 410.407
27.39000 409.535
27.40000 415.884
27.41000 422.624
27.42000 426.993
27.43000 431.715
27.44000 435.176
27.45000 434.602
27.46000 429.187
27.47000 423.771
27.48000 420.727
27.49000 419.516
27.50000 418.326
27.51000 418.617
27.52000 419.640
27.53000 420.323
27.54000 415.491
27.55000 408.727
27.56000 402.724
27.57000 403.460
27.58000 405.778
27.59000 407.778
27.60000 411.266
27.61000 414.417
27.62000 417.807
27.63000 422.058
27.64000 426.386
27.65000 431.828
27.66000 439.972
27.67000 448.236
27.68000 453.400
27.69000 439.677
27.70000 429.580
27.71000 427.312
27.72000 433.501
27.73000 439.631
27.74000 437.576
27.75000 429.792
27.76000 422.179
27.77000 420.593
27.78000 421.794
27.79000 423.160
27.80000 426.800
27.81000 431.165
27.82000 434.642
27.83000 431.182
27.84000 426.249
27.85000 422.066
27.86000 418.302
27.87000 415.194
27.88000 413.979
27.89000 418.940
27.90000 424.379
27.91000 426.972
27.92000 423.271
27.93000 419.343
27.94000 416.984
27.95000 415.758
27.96000 414.895
27.97000 413.575
27.98000 411.811
27.99000 410.130
28.00000 415.226
28.01000 424.623
28.02000 433.759
28.03000 440.374
28.04000 445.636
28.05000 449.834
28.06000 441.423
28.07000 429.355
28.08000 419.225
28.09000 422.542
28.10000 428.434
28.11000 433.339
28.12000 427.825
28.13000 422.230
28.14000 418.618
28.15000 420.897
28.16000 423.566
28.17000 427.849
28.18000 435.383
28.19000 443.010
28.20000 447.400
28.21000 430.501
28.22000 418.600
28.23000 413.491
28.24000 414.299
28.25000 415.088
28.26000 414.872
28.27000 414.077
28.28000 413.310
28.29000 414.385
28.30000 416.074
28.31000 417.786
28.32000 419.734
28.33000 421.744
28.34000 423.562
28.35000 424.188
28.36000 424.609
28.37000 424.953
28.38000 417.773
28.39000 411.252
28.40000 408.616
28.41000 416.481
28.42000 424.932
28.43000 427.534
28.44000 419.415
28.45000 411.065
28.46000 406.472
28.47000 412.317
28.48000 416.347
28.49000 416.748
28.50000 414.299
28.51000 411.945
28.52000 413.554
28.53000 417.242
28.54000 420.774
28.55000 419.535
28.56000 416.796
28.57000 413.818
28.58000 408.679
28.59000 403.024
28.60000 398.414
28.61000 399.605
28.62000 401.690
28.63000 403.356
28.64000 410.269
28.65000 416.244
28.66000 419.039
28.67000 414.004
28.68000 408.606
28.69000 409.206
28.70000 419.801
28.71000 430.549
28.72000 436.178
28.73000 407.188
28.74000 387.681
28.75000 387.705
28.76000 401.615
28.77000 415.271
28.78000 420.867
28.79000 422.611
28.80000 424.268
28.81000 422.532
28.82000 419.917
28.83000 417.195
28.84000 413.629
28.85000 409.881
28.86000 406.514
28.87000 405.050
28.88000 403.848
28.89000 402.908
28.90000 404.178
28.91000 405.332
28.92000 406.578
28.93000 408.034
28.94000 409.498
28.95000 408.053
28.96000 402.209
28.97000 396.319
28.98000 394.971
28.99000 398.103
29.00000 401.200
29.01000 401.205
29.02000 399.219
29.03000 397.275
29.04000 396.420
29.05000 396.040
29.06000 395.683
29.07000 401.225
29.08000 407.873
29.09000 414.079
29.10000 417.158
29.11000 419.629
29.12000 420.373
29.13000 413.322
29.14000 405.323
29.15000 399.220
29.16000 405.080
29.17000 410.337
29.18000 413.386
29.19000 411.919
29.20000 410.318
29.21000 409.970
29.22000 411.338
29.23000 412.716
29.24000 413.136
29.25000 412.707
29.26000 412.238
29.27000 409.411
29.28000 405.204
29.29000 400.914
29.30000 394.923
29.31000 388.257
29.32000 382.056
29.33000 393.308
29.34000 407.689
29.35000 419.052
29.36000 411.370
29.37000 400.354
29.38000 392.085
29.39000 395.043
29.40000 399.206
29.41000 402.302
29.42000 397.555
29.43000 393.513
29.44000 390.602
29.45000 389.796
29.46000 389.037
29.47000 389.644
29.48000 391.946
29.49000 394.249
29.50000 394.154
29.51000 392.153
29.52000 390.330
29.53000 396.174
29.54000 406.103
29.55000 415.456
29.56000 414.924
29.57000 410.822
29.58000 407.049
29.59000 399.550
29.60000 392.042
29.61000 387.491
29.62000 399.664
29.63000 414.460
29.64000 425.693
29.65000 423.721
29.66000 420.511
29.67000 418.188
29.68000 404.676
29.69000 393.893
29.70000 388.190
29.71000 391.085
29.72000 394.120
29.73000 392.893
29.74000 386.902
29.75000 380.928
29.76000 384.999
29.77000 396.226
29.78000 407.139
29.79000 407.695
29.80000 403.228
29.81000 399.251
29.82000 402.394
29.83000 407.879
29.84000 412.860
29.85000 411.863
29.86000 409.823
29.87000 407.649
29.88000 404.792
29.89000 401.839
29.90000 400.671
29.91000 405.508
29.92000 410.834
29.93000 414.578
29.94000 413.015
29.95000 411.676
29.96000 413.239
29.97000 419.266
29.98000 425.341
29.99000 429.458
30.00000 431.609
30.01000 433.746
30.02000 428.989
30.03000 419.852
30.04000 410.971
30.05000 408.765
30.06000 409.507
30.07000 410.334
30.08000 412.216
30.09000 414.412
30.10000 416.381
30.11000 415.340
30.12000 413.909
30.13000 412.017
30.14000 408.008
30.15000 403.735
30.16000 402.080
30.17000 408.441
30.18000 415.361
30.19000 420.076
30.20000 412.132
30.21000 405.903
30.22000 401.314
30.23000 399.008
30.24000 396.720
30.25000 399.633
30.26000 407.234
30.27000 414.759
30.28000 407.411
30.29000 391.561
30.30000 376.618
30.31000 380.972
30.32000 393.092
30.33000 404.381
30.34000 406.715
30.35000 406.615
30.36000 406.527
30.37000 409.696
30.38000 412.934
30.39000 414.268
30.40000 407.703
30.41000 400.273
30.42000 394.935
30.43000 395.429
30.44000 396.267
30.45000 396.819
30.46000 392.053
30.47000 388.448
30.48000 390.682
30.49000 400.278
30.50000 409.877
30.51000 411.946
30.52000 407.897
30.53000 403.905
30.54000 404.331
30.55000 407.067
30.56000 409.415
30.57000 404.930
30.58000 397.940
30.59000 391.306
30.60000 388.024
30.61000 385.568
30.62000 383.433
30.63000 389.272
30.64000 395.341
30.65000 400.308
30.66000 401.126
30.67000 401.548
30.68000 402.757
30.69000 405.970
30.70000 409.281
30.71000 411.387
30.72000 414.069
30.73000 416.025
30.74000 417.726
30.75000 419.137
30.76000 420.549
30.77000 422.020
30.78000 423.536
30.79000 425.023
30.80000 422.900
30.81000 419.143
30.82000 415.623
30.83000 415.632
30.84000 416.819
30.85000 417.873
30.86000 417.821
30.87000 417.522
30.88000 417.267
30.89000 426.721
30.90000 435.860
30.91000 442.837
30.92000 442.428
30.93000 441.403
30.94000 444.643
30.95000 457.748
30.96000 471.249
30.97000 479.517
30.98000 474.241
30.99000 470.350
31.00000 475.354
31.01000 489.448
31.02000 503.500
31.03000 513.229
31.04000 520.082
31.05000 526.765
31.06000 547.175
31.07000 572.546
31.08000 597.359
31.09000 615.078
31.10000 630.642
31.11000 647.760
31.12000 676.285
31.13000 707.108
31.14000 733.004
31.15000 772.255
31.16000 806.366
31.17000 839.471
31.18000 869.455
31.19000 899.215
31.20000 938.338
31.21000 997.193
31.22000 1056.679
31.23000 1091.651
31.24000 1157.885
31.25000 1204.747
31.26000 1243.346
31.27000 1274.370
31.28000 1305.569
31.29000 1348.492
31.30000 1398.496
31.31000 1446.933
31.32000 1488.672
31.33000 1525.573
31.34000 1561.161
31.35000 1582.285
31.36000 1599.419
31.37000 1613.239
31.38000 1605.383
31.39000 1593.598
31.40000 1583.883
31.41000 1567.839
31.42000 1554.051
31.43000 1540.926
31.44000 1529.676
31.45000 1518.538
31.46000 1501.646
31.47000 1473.712
31.48000 1445.504
31.49000 1429.635
31.50000 1369.579
31.51000 1327.793
31.52000 1292.485
31.53000 1262.527
31.54000 1232.212
31.55000 1184.896
31.56000 1128.243
31.57000 1073.776
31.58000 1031.188
31.59000 995.430
31.60000 959.445
31.61000 921.278
31.62000 882.564
31.63000 846.613
31.64000 826.842
31.65000 809.701
31.66000 795.858
31.67000 745.486
31.68000 701.625
31.69000 663.704
31.70000 641.090
31.71000 619.253
31.72000 603.167
31.73000 597.120
31.74000 591.257
31.75000 588.110
31.76000 556.907
31.77000 535.617
31.78000 521.783
31.79000 513.513
31.80000 505.217
31.81000 495.967
31.82000 486.241
31.83000 476.967
31.84000 477.813
31.85000 481.780
31.86000 484.271
31.87000 474.288
31.88000 461.477
31.89000 450.641
31.90000 450.200
31.91000 451.270
31.92000 452.115
31.93000 438.513
31.94000 426.604
31.95000 419.132
31.96000 422.078
31.97000 425.457
31.98000 425.480
31.99000 420.177
32.00000 414.807
32.01000 412.069
32.02000 404.862
32.03000 400.019
32.04000 394.392
32.05000 388.234
32.06000 382.463
32.07000 387.573
32.08000 397.636
32.09000 407.142
32.10000 405.269
32.11000 400.329
32.12000 396.697
32.13000 402.862
32.14000 411.034
32.15000 416.151
32.16000 406.777
32.17000 395.533
32.18000 386.851
32.19000 387.599
32.20000 388.740
32.21000 389.864
32.22000 390.951
32.23000 392.037
32.24000 391.634
32.25000 389.089
32.26000 386.527
32.27000 387.382
32.28000 391.424
32.29000 395.440
32.30000 397.635
32.31000 398.714
32.32000 399.613
32.33000 396.435
32.34000 391.566
32.35000 387.013
32.36000 384.054
32.37000 381.773
32.38000 379.400
32.39000 376.405
32.40000 373.296
32.41000 371.244
32.42000 373.728
32.43000 376.729
32.44000 378.989
32.45000 374.660
32.46000 370.950
32.47000 370.742
32.48000 377.357
32.49000 384.148
32.50000 382.566
32.51000 370.077
32.52000 357.555
32.53000 352.171
32.54000 352.778
32.55000 353.504
32.56000 360.144
32.57000 370.081
32.58000 379.488
32.59000 378.979
32.60000 374.723
32.61000 370.786
32.62000 370.744
32.63000 371.597
32.64000 372.225
32.65000 371.508
32.66000 370.569
32.67000 369.824
32.68000 369.833
32.69000 369.917
32.70000 369.979
32.71000 363.689
32.72000 358.572
32.73000 356.974
32.74000 361.613
32.75000 366.373
32.76000 368.657
32.77000 368.032
32.78000 367.403
32.79000 365.651
32.80000 363.064
32.81000 360.559
32.82000 361.139
32.83000 363.285
32.84000 365.550
32.85000 369.683
32.86000 374.459
32.87000 378.823
32.88000 373.411
32.89000 366.602
32.90000 361.902
32.91000 368.490
32.92000 376.749
32.93000 383.264
32.94000 383.630
32.95000 383.460
32.96000 383.339
32.97000 379.318
32.98000 376.125
32.99000 370.107
33.00000 359.536
33.01000 348.905
33.02000 347.536
33.03000 355.968
33.04000 364.359
33.05000 361.803
33.06000 351.846
33.07000 342.357
33.08000 346.533
33.09000 357.025
33.10000 366.602
33.11000 363.925
33.12000 357.412
33.13000 351.535
33.14000 348.066
33.15000 345.459
33.16000 343.759
33.17000 346.436
33.18000 349.690
33.19000 351.474
33.20000 348.547
33.21000 345.266
33.22000 342.996
33.23000 345.438
33.24000 347.397
33.25000 344.978
33.26000 336.157
33.27000 327.282
33.28000 324.805
33.29000 328.400
33.30000 331.967
33.31000 335.590
33.32000 339.184
33.33000 342.725
33.34000 345.040
33.35000 346.839
33.36000 348.505
33.37000 348.630
33.38000 348.316
33.39000 348.037
33.40000 346.110
33.41000 344.169
33.42000 341.907
33.43000 338.247
33.44000 334.425
33.45000 332.410
33.46000 335.668
33.47000 339.264
33.48000 341.673
33.49000 337.968
33.50000 335.095
33.51000 337.253
33.52000 346.069
33.53000 354.902
33.54000 354.279
33.55000 345.581
33.56000 336.987
33.57000 334.025
33.58000 334.246
33.59000 334.255
33.60000 330.177
33.61000 324.531
33.62000 319.695
33.63000 322.984
33.64000 328.373
33.65000 333.095
33.66000 332.385
33.67000 330.989
33.68000 329.912
33.69000 330.090
33.70000 330.396
33.71000 330.873
33.72000 331.806
33.73000 332.763
33.74000 333.382
33.75000 336.796
33.76000 339.336
33.77000 336.178
33.78000 326.209
33.79000 316.259
33.80000 314.367
33.81000 318.687
33.82000 322.934
33.83000 323.736
33.84000 322.794
33.85000 321.853
33.86000 320.928
33.87000 320.009
33.88000 319.038
33.89000 317.610
33.90000 316.075
33.91000 314.751
33.92000 323.904
33.93000 333.006
33.94000 339.567
33.95000 337.024
33.96000 333.668
33.97000 330.924
33.98000 329.660
33.99000 328.461
34.00000 327.713
34.01000 322.185
34.02000 318.150
34.03000 320.197
34.04000 328.792
34.05000 337.340
34.06000 339.593
34.07000 337.454
34.08000 335.362
34.09000 325.910
34.10000 313.531
34.11000 302.315
34.12000 307.066
34.13000 316.893
34.14000 325.768
34.15000 327.221
34.16000 327.103
34.17000 327.003
34.18000 329.419
34.19000 331.726
34.20000 332.767
34.21000 329.683
34.22000 326.281
34.23000 323.623
34.24000 322.608
34.25000 321.652
34.26000 321.078
34.27000 318.122
34.28000 316.007
34.29000 321.598
34.30000 334.632
34.31000 347.423
34.32000 340.602
34.33000 321.368
34.34000 302.675
34.35000 303.514
34.36000 312.246
34.37000 320.323
34.38000 320.654
34.39000 318.746
34.40000 317.848
34.41000 323.930
34.42000 331.344
34.43000 337.514
34.44000 323.780
34.45000 310.450
34.46000 302.422
34.47000 310.093
34.48000 318.797
34.49000 324.049
34.50000 322.367
34.51000 320.490
34.52000 319.411
34.53000 318.322
34.54000 317.558
34.55000 315.043
34.56000 311.006
34.57000 307.075
34.58000 308.998
34.59000 314.287
34.60000 319.391
34.61000 317.201
34.62000 312.465
34.63000 308.150
34.64000 308.151
34.65000 309.284
34.66000 310.766
34.67000 314.398
34.68000 318.399
34.69000 321.663
34.70000 319.779
34.71000 317.798
34.72000 316.215
34.73000 315.704
34.74000 315.253
34.75000 316.863
34.76000 322.241
34.77000 327.700
34.78000 330.698
34.79000 323.503
34.80000 318.553
34.81000 318.772
34.82000 323.042
34.83000 327.242
34.84000 328.647
34.85000 328.588
34.86000 328.532
34.87000 324.334
34.88000 319.053
34.89000 314.103
34.90000 312.136
34.91000 310.879
34.92000 310.415
34.93000 314.346
34.94000 318.952
34.95000 322.631
34.96000 323.370
34.97000 323.751
34.98000 322.264
34.99000 316.190
35.00000 309.905
35.01000 304.834
35.02000 301.783
35.03000 298.762
35.04000 297.182
35.05000 297.513
35.06000 297.744
35.07000 298.876
35.08000 300.647
35.09000 302.510
35.10000 307.293
35.11000 313.467
35.12000 319.326
35.13000 318.882
35.14000 316.594
35.15000 314.362
35.16000 312.567
35.17000 310.865
35.18000 309.563
35.19000 310.252
35.20000 311.213
35.21000 311.963
35.22000 313.528
35.23000 314.828
35.24000 314.098
35.25000 308.825
35.26000 303.383
35.27000 299.993
35.28000 299.701
35.29000 299.440
35.30000 297.031
35.31000 292.511
35.32000 288.043
35.33000 288.148
35.34000 291.191
35.35000 294.325
35.36000 299.717
35.37000 306.088
35.38000 312.076
35.39000 308.192
35.40000 302.000
35.41000 296.982
35.42000 300.245
35.43000 305.114
35.44000 309.399
35.45000 311.054
35.46000 312.391
35.47000 313.410
35.48000 319.485
35.49000 324.539
35.50000 325.444
35.51000 317.892
35.52000 310.092
35.53000 306.123
35.54000 307.394
35.55000 308.695
35.56000 306.596
35.57000 301.502
35.58000 296.517
35.59000 297.907
35.60000 303.021
35.61000 307.715
35.62000 303.832
35.63000 296.558
35.64000 289.793
35.65000 291.467
35.66000 295.012
35.67000 298.244
35.68000 299.510
35.69000 300.434
35.70000 301.449
35.71000 302.839
35.72000 304.269
35.73000 305.332
35.74000 297.842
35.75000 291.640
35.76000 291.173
35.77000 301.351
35.78000 311.767
35.79000 312.270
35.80000 300.519
35.81000 288.756
35.82000 284.781
35.83000 287.000
35.84000 289.239
35.85000 292.282
35.86000 295.753
35.87000 298.977
35.88000 297.977
35.89000 295.457
35.90000 293.140
35.91000 296.168
35.92000 300.028
35.93000 303.312
35.94000 303.352
35.95000 302.884
35.96000 302.467
35.97000 302.234
35.98000 302.018
35.99000 301.862
36.00000 304.733
36.01000 307.047
36.02000 306.722
36.03000 301.944
36.04000 297.095
36.05000 294.063
36.06000 293.056
36.07000 292.055
36.08000 291.891
36.09000 292.326
36.10000 292.942
36.11000 299.473
36.12000 308.865
36.13000 317.396
36.14000 313.518
36.15000 305.572
36.16000 298.357
36.17000 294.430
36.18000 291.597
36.19000 290.884
36.20000 300.915
36.21000 312.444
36.22000 320.536
36.23000 317.088
36.24000 312.707
36.25000 309.629
36.26000 301.278
36.27000 294.800
36.28000 292.067
36.29000 295.075
36.30000 298.145
36.31000 297.027
36.32000 291.719
36.33000 286.446
36.34000 291.323
36.35000 302.660
36.36000 313.488
36.37000 311.096
36.38000 302.880
36.39000 295.285
36.40000 295.368
36.41000 297.742
36.42000 299.868
36.43000 298.199
36.44000 296.088
36.45000 293.398
36.46000 288.061
36.47000 282.395
36.48000 279.063
36.49000 282.855
36.50000 287.140
36.51000 290.058
36.52000 284.987
36.53000 281.016
36.54000 276.850
36.55000 272.415
36.56000 267.981
36.57000 268.579
36.58000 273.698
36.59000 278.767
36.60000 281.257
36.61000 282.198
36.62000 283.257
36.63000 286.807
36.64000 291.357
36.65000 295.315
36.66000 292.929
36.67000 288.825
36.68000 285.201
36.69000 289.218
36.70000 293.855
36.71000 297.801
36.72000 298.884
36.73000 299.653
36.74000 297.895
36.75000 289.111
36.76000 279.914
36.77000 273.857
36.78000 282.578
36.79000 289.258
36.80000 295.400
36.81000 300.868
36.82000 306.310
36.83000 302.937
36.84000 292.427
36.85000 282.067
36.86000 282.424
36.87000 288.384
36.88000 294.111
36.89000 295.744
36.90000 295.880
36.91000 296.352
36.92000 299.975
36.93000 304.371
36.94000 308.193
36.95000 301.251
36.96000 293.869
36.97000 289.063
36.98000 293.931
36.99000 299.722
37.00000 302.754
37.01000 298.799
37.02000 294.503
37.03000 291.773
37.04000 295.258
37.05000 297.867
37.06000 299.954
37.07000 301.450
37.08000 302.936
37.09000 302.947
37.10000 301.876
37.11000 300.826
37.12000 298.763
37.13000 296.295
37.14000 294.018
37.15000 294.565
37.16000 296.051
37.17000 297.390
37.18000 297.521
37.19000 297.382
37.20000 297.264
37.21000 291.264
37.22000 285.503
37.23000 281.650
37.24000 284.300
37.25000 287.489
37.26000 288.994
37.27000 286.612
37.28000 284.075
37.29000 282.523
37.30000 288.385
37.31000 292.642
37.32000 289.393
37.33000 278.500
37.34000 267.713
37.35000 267.442
37.36000 274.149
37.37000 280.688
37.38000 280.136
37.39000 276.581
37.40000 273.632
37.41000 278.352
37.42000 285.394
37.43000 291.435
37.44000 290.144
37.45000 287.382
37.46000 285.063
37.47000 285.949
37.48000 287.024
37.49000 286.449
37.50000 280.760
37.51000 274.708
37.52000 270.861
37.53000 271.651
37.54000 272.589
37.55000 273.139
37.56000 279.949
37.57000 284.780
37.58000 286.208
37.59000 284.526
37.60000 282.805
37.61000 278.503
37.62000 272.646
37.63000 266.974
37.64000 268.989
37.65000 273.857
37.66000 278.677
37.67000 282.977
37.68000 287.134
37.69000 290.335
37.70000 287.300
37.71000 283.138
37.72000 279.709
37.73000 283.556
37.74000 287.388
37.75000 289.940
37.76000 288.884
37.77000 287.610
37.78000 285.572
37.79000 282.073
37.80000 278.538
37.81000 276.552
37.82000 279.178
37.83000 281.014
37.84000 283.881
37.85000 287.597
37.86000 291.111
37.87000 285.052
37.88000 273.752
37.89000 262.891
37.90000 271.305
37.91000 285.888
37.92000 298.962
37.93000 297.582
37.94000 292.594
37.95000 288.404
37.96000 288.877
37.97000 290.105
37.98000 291.096
37.99000 291.312
38.00000 291.426
38.01000 289.420
38.02000 281.966
38.03000 274.237
38.04000 269.685
38.05000 270.662
38.06000 271.738
38.07000 272.315
38.08000 285.517
38.09000 294.510
38.10000 298.382
38.11000 298.445
38.12000 298.411
38.13000 294.927
38.14000 289.725
38.15000 284.766
38.16000 285.218
38.17000 287.332
38.18000 289.341
38.19000 290.465
38.20000 291.390
38.21000 292.213
38.22000 292.505
38.23000 292.720
38.24000 292.889
38.25000 294.033
38.26000 295.018
38.27000 295.990
38.28000 296.932
38.29000 297.873
38.30000 298.439
38.31000 298.414
38.32000 298.382
38.33000 298.365
38.34000 308.194
38.35000 314.799
38.36000 322.776
38.37000 331.676
38.38000 340.341
38.39000 342.418
38.40000 341.504
38.41000 340.642
38.42000 350.376
38.43000 362.298
38.44000 374.189
38.45000 385.842
38.46000 397.446
38.47000 410.121
38.48000 427.856
38.49000 446.242
38.50000 460.428
38.51000 474.339
38.52000 485.348
38.53000 499.933
38.54000 522.146
38.55000 544.612
38.56000 567.303
38.57000 590.318
38.58000 613.331
38.59000 630.378
38.60000 641.875
38.61000 653.457
38.62000 671.053
38.63000 692.328
38.64000 713.367
38.65000 729.066
38.66000 742.556
38.67000 755.168
38.68000 766.780
38.69000 777.068
38.70000 786.597
38.71000 791.085
38.72000 794.645
38.73000 797.585
38.74000 797.870
38.75000 797.853
38.76000 797.841
38.77000 777.060
38.78000 759.792
38.79000 750.940
38.80000 758.434
38.81000 766.348
38.82000 757.688
38.83000 727.505
38.84000 697.264
38.85000 670.488
38.86000 646.678
38.87000 622.902
38.88000 600.793
38.89000 579.613
38.90000 558.606
38.91000 540.839
38.92000 524.291
38.93000 508.992
38.94000 482.251
38.95000 455.633
38.96000 430.775
38.97000 416.372
38.98000 403.693
38.99000 392.670
39.00000 388.058
39.01000 384.086
39.02000 381.175
39.03000 370.278
39.04000 361.542
39.05000 349.493
39.06000 331.587
39.07000 313.570
39.08000 303.002
39.09000 301.165
39.10000 299.347
39.11000 296.030
39.12000 291.611
39.13000 287.235
39.14000 284.493
39.15000 282.576
39.16000 280.724
39.17000 279.868
39.18000 279.354
39.19000 278.885
39.20000 281.837
39.21000 285.156
39.22000 288.002
39.23000 288.324
39.24000 288.274
39.25000 287.402
39.26000 283.638
39.27000 279.623
39.28000 276.762
39.29000 277.928
39.30000 278.948
39.31000 276.701
39.32000 269.207
39.33000 261.643
39.34000 264.460
39.35000 278.227
39.36000 291.925
39.37000 292.642
39.38000 284.568
39.39000 276.621
39.40000 272.364
39.41000 269.806
39.42000 267.594
39.43000 269.977
39.44000 273.795
39.45000 277.238
39.46000 270.493
39.47000 262.714
39.48000 256.657
39.49000 258.877
39.50000 262.183
39.51000 265.079
39.52000 266.664
39.53000 268.151
39.54000 269.179
39.55000 269.151
39.56000 269.103
39.57000 267.862
39.58000 264.882
39.59000 261.887
39.60000 260.781
39.61000 261.464
39.62000 262.141
39.63000 263.864
39.64000 266.193
39.65000 268.285
39.66000 264.862
39.67000 259.122
39.68000 253.983
39.69000 255.743
39.70000 259.462
39.71000 262.769
39.72000 262.407
39.73000 261.497
39.74000 260.407
39.75000 258.538
39.76000 256.579
39.77000 255.219
39.78000 255.602
39.79000 256.096
39.80000 256.427
39.81000 254.225
39.82000 252.542
39.83000 251.220
39.84000 250.376
39.85000 249.533
39.86000 247.983
39.87000 245.831
39.88000 243.705
39.89000 245.269
39.90000 248.826
39.91000 252.373
39.92000 255.717
39.93000 258.984
39.94000 262.048
39.95000 263.081
39.96000 263.590
39.97000 264.035
39.98000 263.206
39.99000 262.312
40.00000 260.873
40.01000 257.296
40.02000 253.500
40.03000 249.802
40.04000 246.367
40.05000 242.946
40.06000 240.733
40.07000 244.947
40.08000 248.122
40.09000 251.416
40.10000 254.850
40.11000 258.273
40.12000 258.769
40.13000 257.016
40.14000 255.292
40.15000 256.326
40.16000 258.697
40.17000 260.634
40.18000 255.631
40.19000 248.208
40.20000 241.826
40.21000 244.572
40.22000 249.447
40.23000 253.650
40.24000 255.191
40.25000 256.158
40.26000 256.490
40.27000 254.550
40.28000 252.409
40.29000 250.886
40.30000 250.853
40.31000 250.885
40.32000 250.906
40.33000 251.920
40.34000 252.662
40.35000 252.870
40.36000 252.505
40.37000 252.112
40.38000 248.150
40.39000 241.707
40.40000 235.406
40.41000 231.336
40.42000 228.434
40.43000 226.066
40.44000 231.004
40.45000 238.258
40.46000 244.785
40.47000 245.670
40.48000 245.365
40.49000 245.106
40.50000 243.348
40.51000 241.708
40.52000 241.654
40.53000 246.752
40.54000 252.245
40.55000 255.618
40.56000 254.331
40.57000 252.879
40.58000 252.008
40.59000 252.287
40.60000 252.491
40.61000 251.401
40.62000 249.065
40.63000 246.730
40.64000 244.536
40.65000 242.431
40.66000 240.386
40.67000 240.951
40.68000 242.545
40.69000 244.165
40.70000 246.096
40.71000 248.118
40.72000 249.598
40.73000 247.347
40.74000 244.386
40.75000 241.924
40.76000 236.727
40.77000 232.158
40.78000 230.042
40.79000 235.171
40.80000 240.774
40.81000 243.060
40.82000 238.706
40.83000 234.165
40.84000 231.558
40.85000 242.026
40.86000 249.391
40.87000 254.910
40.88000 258.831
40.89000 262.655
40.90000 261.103
40.91000 256.469
40.92000 251.999
40.93000 249.693
40.94000 248.314
40.95000 246.812
40.96000 244.050
40.97000 240.958
40.98000 238.417
40.99000 239.267
41.00000 240.697
41.01000 241.862
41.02000 248.908
41.03000 255.170
41.04000 257.788
41.05000 250.611
41.06000 242.895
41.07000 239.328
41.08000 243.326
41.09000 247.484
41.10000 249.765
41.11000 251.803
41.12000 253.193
41.13000 251.116
41.14000 246.332
41.15000 241.594
41.16000 238.713
41.17000 236.801
41.18000 234.970
41.19000 235.002
41.20000 235.646
41.21000 236.134
41.22000 235.232
41.23000 233.999
41.24000 233.409
41.25000 236.363
41.26000 239.860
41.27000 242.651
41.28000 243.262
41.29000 243.596
41.30000 242.859
41.31000 239.500
41.32000 236.021
41.33000 233.900
41.34000 234.032
41.35000 234.197
41.36000 234.283
41.37000 228.725
41.38000 225.012
41.39000 228.043
41.40000 235.840
41.41000 243.280
41.42000 239.562
41.43000 230.545
41.44000 221.990
41.45000 223.814
41.46000 228.578
41.47000 233.078
41.48000 235.489
41.49000 237.453
41.50000 238.997
41.51000 238.457
41.52000 237.634
41.53000 236.991
41.54000 235.887
41.55000 234.978
41.56000 235.696
41.57000 240.049
41.58000 244.537
41.59000 246.884
41.60000 246.012
41.61000 245.107
41.62000 243.023
41.63000 239.783
41.64000 236.567
41.65000 235.325
41.66000 235.348
41.67000 235.434
41.68000 237.074
41.69000 239.387
41.70000 241.559
41.71000 240.894
41.72000 239.528
41.73000 237.454
41.74000 230.399
41.75000 222.380
41.76000 217.254
41.77000 225.112
41.78000 234.538
41.79000 241.720
41.80000 239.977
41.81000 238.132
41.82000 235.708
41.83000 232.107
41.84000 228.471
41.85000 227.316
41.86000 229.546
41.87000 231.794
41.88000 234.449
41.89000 237.459
41.90000 240.419
41.91000 240.425
41.92000 238.713
41.93000 236.961
41.94000 234.417
41.95000 231.561
41.96000 228.906
41.97000 227.553
41.98000 226.644
41.99000 225.616
42.00000 223.844
42.01000 221.943
42.02000 220.991
42.03000 223.898
42.04000 227.215
42.05000 229.679
42.06000 228.181
42.07000 226.842
42.08000 227.809
42.09000 233.046
42.10000 238.377
42.11000 240.684
42.12000 239.264
42.13000 237.836
42.14000 236.029
42.15000 233.931
42.16000 231.874
42.17000 231.572
42.18000 232.199
42.19000 232.681
42.20000 230.690
42.21000 227.810
42.22000 225.164
42.23000 227.251
42.24000 230.133
42.25000 232.578
42.26000 232.566
42.27000 232.172
42.28000 231.530
42.29000 229.977
42.30000 228.338
42.31000 227.154
42.32000 234.522
42.33000 240.483
42.34000 242.765
42.35000 238.858
42.36000 234.852
42.37000 230.530
42.38000 225.859
42.39000 221.205
42.40000 220.914
42.41000 223.731
42.42000 226.484
42.43000 227.157
42.44000 226.826
42.45000 226.538
42.46000 226.851
42.47000 227.362
42.48000 227.825
42.49000 227.246
42.50000 226.533
42.51000 225.932
42.52000 225.889
42.53000 225.924
42.54000 225.654
42.55000 224.362
42.56000 222.988
42.57000 222.023
42.58000 226.714
42.59000 230.429
42.60000 232.253
42.61000 231.185
42.62000 230.087
42.63000 231.520
42.64000 235.477
42.65000 239.409
42.66000 238.536
42.67000 234.594
42.68000 230.681
42.69000 227.484
42.70000 224.603
42.71000 221.818
42.72000 220.228
42.73000 218.994
42.74000 217.888
42.75000 219.259
42.76000 220.881
42.77000 222.594
42.78000 224.723
42.79000 226.903
42.80000 228.523
42.81000 228.443
42.82000 228.244
42.83000 228.109
42.84000 229.371
42.85000 230.345
42.86000 230.847
42.87000 230.697
42.88000 230.544
42.89000 231.530
42.90000 233.537
42.91000 235.525
42.92000 236.397
42.93000 236.605
42.94000 236.495
42.95000 229.681
42.96000 220.184
42.97000 211.798
42.98000 215.273
42.99000 221.952
43.00000 227.846
43.01000 226.569
43.02000 224.372
43.03000 223.073
43.04000 225.482
43.05000 228.293
43.06000 229.648
43.07000 226.969
43.08000 224.053
43.09000 222.135
43.10000 225.295
43.11000 227.708
43.12000 226.698
43.13000 221.397
43.14000 216.102
43.15000 217.126
43.16000 223.251
43.17000 229.288
43.18000 227.049
43.19000 220.553
43.20000 214.282
43.21000 211.939
43.22000 211.027
43.23000 210.167
43.24000 209.791
43.25000 209.534
43.26000 209.310
43.27000 212.214
43.28000 215.114
43.29000 218.381
43.30000 223.027
43.31000 227.804
43.32000 230.181
43.33000 226.499
43.34000 222.523
43.35000 219.998
43.36000 218.382
43.37000 217.219
43.38000 217.154
43.39000 218.327
43.40000 219.496
43.41000 219.672
43.42000 219.123
43.43000 218.585
43.44000 213.886
43.45000 207.400
43.46000 201.337
43.47000 201.520
43.48000 203.775
43.49000 206.468
43.50000 212.765
43.51000 219.860
43.52000 225.922
43.53000 219.804
43.54000 213.196
43.55000 209.466
43.56000 215.517
43.57000 222.375
43.58000 226.306
43.59000 223.503
43.60000 220.432
43.61000 218.557
43.62000 221.001
43.63000 222.785
43.64000 224.451
43.65000 225.996
43.66000 227.519
43.67000 226.846
43.68000 224.721
43.69000 222.649
43.70000 220.134
43.71000 217.544
43.72000 215.415
43.73000 219.093
43.74000 224.524
43.75000 229.583
43.76000 231.921
43.77000 233.715
43.78000 235.220
43.79000 229.479
43.80000 223.941
43.81000 219.006
43.82000 215.936
43.83000 212.997
43.84000 210.580
43.85000 209.255
43.86000 207.964
43.87000 207.208
43.88000 209.384
43.89000 210.933
43.90000 214.259
43.91000 219.203
43.92000 224.034
43.93000 221.499
43.94000 214.540
43.95000 207.802
43.96000 209.916
43.97000 215.315
43.98000 220.239
43.99000 219.968
44.00000 218.272
44.01000 216.790
44.02000 216.702
44.03000 216.866
44.04000 217.000
44.05000 215.443
44.06000 214.009
44.07000 211.846
44.08000 207.632
44.09000 203.295
44.10000 201.817
44.11000 205.792
44.12000 209.900
44.13000 212.204
44.14000 216.236
44.15000 219.031
44.16000 220.031
44.17000 219.558
44.18000 218.977
44.19000 213.337
44.20000 204.934
44.21000 196.860
44.22000 199.752
44.23000 206.262
44.24000 212.461
44.25000 215.696
44.26000 218.194
44.27000 219.725
44.28000 215.635
44.29000 210.637
44.30000 206.606
44.31000 209.477
44.32000 212.354
44.33000 215.018
44.34000 217.137
44.35000 219.228
44.36000 221.566
44.37000 224.332
44.38000 227.105
44.39000 228.589
44.40000 219.816
44.41000 213.859
44.42000 214.516
44.43000 220.078
44.44000 225.558
44.45000 228.137
44.46000 229.274
44.47000 230.358
44.48000 225.343
44.49000 218.789
44.50000 213.386
44.51000 217.647
44.52000 224.085
44.53000 229.336
44.54000 228.376
44.55000 226.519
44.56000 225.054
44.57000 228.231
44.58000 231.095
44.59000 232.240
44.60000 229.374
44.61000 226.343
44.62000 225.401
44.63000 227.753
44.64000 230.145
44.65000 231.361
44.66000 233.820
44.67000 235.442
44.68000 234.275
44.69000 231.233
44.70000 228.365
44.71000 230.316
44.72000 234.449
44.73000 238.350
44.74000 236.459
44.75000 233.095
44.76000 230.379
44.77000 232.484
44.78000 235.571
44.79000 238.780
44.80000 242.571
44.81000 246.435
44.82000 249.414
44.83000 251.702
44.84000 253.474
44.85000 255.628
44.86000 258.597
44.87000 261.592
44.88000 261.931
44.89000 258.473
44.90000 254.986
44.91000 254.281
44.92000 256.155
44.93000 258.029
44.94000 260.005
44.95000 262.041
44.96000 264.174
44.97000 268.453
44.98000 273.619
44.99000 278.446
45.00000 273.593
45.01000 266.740
45.02000 261.483
45.03000 266.790
45.04000 274.032
45.05000 280.128
45.06000 281.336
45.07000 281.992
45.08000 282.485
45.09000 276.263
45.10000 271.072
45.11000 268.402
45.12000 270.615
45.13000 272.952
45.14000 275.589
45.15000 278.617
45.16000 281.642
45.17000 286.242
45.18000 292.138
45.19000 297.877
45.20000 295.897
45.21000 289.639
45.22000 283.630
45.23000 282.239
45.24000 282.584
45.25000 282.903
45.26000 281.844
45.27000 280.582
45.28000 279.165
45.29000 276.835
45.30000 274.354
45.31000 273.902
45.32000 281.279
45.33000 289.435
45.34000 295.408
45.35000 288.571
45.36000 282.781
45.37000 276.351
45.38000 268.791
45.39000 261.209
45.40000 258.247
45.41000 260.683
45.42000 263.120
45.43000 264.037
45.44000 263.810
45.45000 263.635
45.46000 265.349
45.47000 268.017
45.48000 270.398
45.49000 268.322
45.50000 264.720
45.51000 261.431
45.52000 259.142
45.53000 257.314
45.54000 255.162
45.55000 251.295
45.56000 247.175
45.57000 245.456
45.58000 252.152
45.59000 259.575
45.60000 264.859
45.61000 251.625
45.62000 240.944
45.63000 236.818
45.64000 243.193
45.65000 249.705
45.66000 251.367
45.67000 247.930
45.68000 244.509
45.69000 247.261
45.70000 254.143
45.71000 260.846
45.72000 262.434
45.73000 261.671
45.74000 260.491
45.75000 253.785
45.76000 245.358
45.77000 237.763
45.78000 230.374
45.79000 223.927
45.80000 219.449
45.81000 224.401
45.82000 230.586
45.83000 234.872
45.84000 233.105
45.85000 230.887
45.86000 229.355
45.87000 228.659
45.88000 228.157
45.89000 228.253
45.90000 229.217
45.91000 230.189
45.92000 231.029
45.93000 231.746
45.94000 232.456
45.95000 235.344
45.96000 239.504
45.97000 243.278
45.98000 238.139
45.99000 229.267
46.00000 220.921
46.01000 218.579
46.02000 217.936
46.03000 217.365
46.04000 217.679
46.05000 218.095
46.06000 217.423
46.07000 212.041
46.08000 206.114
46.09000 202.889
46.10000 207.499
46.11000 212.606
46.12000 216.021
46.13000 215.158
46.14000 214.433
46.15000 211.554
46.16000 205.838
46.17000 200.120
46.18000 201.272
46.19000 208.252
46.20000 215.147
46.21000 214.312
46.22000 209.257
46.23000 204.478
46.24000 204.966
46.25000 207.463
46.26000 209.729
46.27000 209.697
46.28000 209.076
46.29000 208.532
46.30000 205.070
46.31000 201.682
46.32000 199.026
46.33000 199.242
46.34000 199.750
46.35000 200.571
46.36000 202.219
46.37000 203.910
46.38000 205.003
46.39000 212.650
46.40000 218.334
46.41000 219.705
46.42000 215.949
46.43000 212.178
46.44000 207.062
46.45000 200.913
46.46000 194.869
46.47000 194.944
46.48000 198.047
46.49000 200.893
46.50000 199.611
46.51000 196.895
46.52000 194.447
46.53000 194.339
46.54000 194.775
46.55000 195.150
46.56000 193.534
46.57000 191.911
46.58000 192.176
46.59000 199.164
46.60000 206.746
46.61000 211.473
46.62000 209.331
46.63000 206.886
46.64000 205.365
46.65000 202.317
46.66000 200.106
46.67000 199.499
46.68000 200.608
46.69000 201.702
46.70000 200.814
46.71000 198.552
46.72000 196.340
46.73000 198.096
46.74000 201.555
46.75000 204.812
46.76000 205.342
46.77000 205.009
46.78000 203.857
46.79000 196.383
46.80000 187.578
46.81000 180.123
46.82000 183.771
46.83000 188.066
46.84000 191.402
46.85000 191.640
46.86000 191.640
46.87000 192.256
46.88000 194.220
46.89000 196.232
46.90000 197.436
46.91000 190.870
46.92000 186.159
46.93000 184.871
46.94000 186.867
46.95000 188.845
46.96000 189.521
46.97000 189.378
46.98000 189.239
46.99000 192.005
47.00000 195.805
47.01000 199.549
47.02000 202.633
47.03000 205.527
47.04000 207.590
47.05000 203.942
47.06000 199.210
47.07000 195.278
47.08000 197.951
47.09000 200.808
47.10000 202.109
47.11000 198.830
47.12000 195.253
47.13000 193.357
47.14000 194.820
47.15000 196.376
47.16000 197.268
47.17000 194.835
47.18000 193.126
47.19000 193.599
47.20000 195.956
47.21000 198.236
47.22000 196.386
47.23000 192.173
47.24000 188.110
47.25000 186.409
47.26000 185.670
47.27000 184.884
47.28000 183.623
47.29000 182.238
47.30000 181.448
47.31000 184.309
47.32000 187.791
47.33000 190.629
47.34000 191.208
47.35000 191.490
47.36000 190.212
47.37000 184.753
47.38000 179.064
47.39000 175.927
47.40000 177.429
47.41000 179.028
47.42000 179.904
47.43000 182.011
47.44000 183.465
47.45000 185.622
47.46000 188.328
47.47000 190.938
47.48000 189.730
47.49000 186.536
47.50000 183.480
47.51000 181.105
47.52000 179.116
47.53000 177.634
47.54000 180.676
47.55000 184.788
47.56000 187.856
47.57000 185.177
47.58000 181.623
47.59000 178.787
47.60000 188.544
47.61000 197.340
47.62000 203.147
47.63000 201.652
47.64000 199.827
47.65000 196.602
47.66000 191.064
47.67000 185.493
47.68000 182.589
47.69000 186.871
47.70000 189.752
47.71000 190.360
47.72000 189.365
47.73000 188.213
47.74000 182.174
47.75000 173.821
47.76000 165.899
47.77000 167.186
47.78000 171.099
47.79000 174.552
47.80000 174.379
47.81000 173.430
47.82000 173.529
47.83000 178.816
47.84000 184.809
47.85000 189.483
47.86000 190.128
47.87000 190.392
47.88000 189.758
47.89000 187.127
47.90000 184.423
47.91000 184.184
47.92000 187.643
47.93000 191.138
47.94000 191.773
47.95000 189.616
47.96000 187.459
47.97000 185.329
47.98000 183.216
47.99000 181.255
48.00000 183.064
48.01000 186.501
48.02000 189.728
48.03000 187.981
48.04000 185.062
48.05000 182.536
48.06000 182.763
48.07000 183.521
48.08000 183.471
48.09000 179.807
48.10000 175.708
48.11000 172.588
48.12000 175.264
48.13000 177.676
48.14000 178.761
48.15000 177.157
48.16000 175.475
48.17000 175.633
48.18000 178.291
48.19000 180.961
48.20000 181.411
48.21000 179.914
48.22000 178.473
48.23000 180.252
48.24000 183.900
48.25000 187.334
48.26000 186.406
48.27000 183.765
48.28000 181.310
48.29000 181.706
48.30000 182.745
48.31000 183.486
48.32000 182.364
48.33000 180.919
48.34000 179.915
48.35000 180.702
48.36000 181.678
48.37000 182.402
48.38000 179.346
48.39000 176.805
48.40000 177.361
48.41000 183.630
48.42000 190.024
48.43000 191.782
48.44000 187.843
48.45000 183.897
48.46000 182.314
48.47000 182.600
48.48000 182.942
48.49000 185.655
48.50000 189.619
48.51000 193.208
48.52000 190.456
48.53000 185.432
48.54000 180.817
48.55000 177.726
48.56000 175.294
48.57000 173.974
48.58000 178.878
48.59000 184.749
48.60000 189.232
48.61000 188.622
48.62000 187.541
48.63000 186.760
48.64000 183.001
48.65000 180.012
48.66000 178.292
48.67000 178.703
48.68000 179.147
48.69000 178.488
48.70000 176.610
48.71000 174.739
48.72000 176.082
48.73000 179.692
48.74000 183.224
48.75000 184.221
48.76000 183.998
48.77000 183.659
48.78000 181.658
48.79000 179.116
48.80000 176.810
48.81000 177.725
48.82000 179.150
48.83000 180.802
48.84000 183.594
48.85000 186.545
48.86000 188.091
48.87000 184.948
48.88000 181.430
48.89000 178.963
48.90000 182.690
48.91000 185.688
48.92000 186.903
48.93000 185.400
48.94000 183.869
48.95000 182.812
48.96000 182.227
48.97000 181.646
48.98000 178.646
48.99000 174.144
49.00000 169.858
49.01000 171.091
49.02000 174.742
49.03000 178.373
49.04000 181.761
49.05000 185.077
49.06000 188.045
49.07000 181.457
49.08000 174.072
49.09000 168.187
49.10000 169.118
49.11000 170.886
49.12000 172.122
49.13000 171.744
49.14000 171.255
49.15000 170.922
49.16000 174.250
49.17000 176.816
49.18000 177.844
49.19000 176.749
49.20000 175.642
49.21000 175.546
49.22000 176.354
49.23000 177.154
49.24000 175.584
49.25000 172.682
49.26000 169.868
49.27000 168.908
49.28000 168.687
49.29000 168.930
49.30000 174.104
49.31000 180.606
49.32000 186.342
49.33000 182.933
49.34000 178.601
49.35000 175.833
49.36000 179.499
49.37000 183.863
49.38000 188.053
49.39000 191.763
49.40000 195.445
49.41000 197.865
49.42000 195.089
49.43000 192.957
49.44000 188.985
49.45000 182.712
49.46000 176.439
49.47000 172.569
49.48000 170.633
49.49000 168.725
49.50000 169.470
49.51000 171.574
49.52000 173.647
49.53000 175.201
49.54000 176.565
49.55000 177.818
49.56000 178.042
49.57000 178.015
49.58000 177.992
49.59000 170.909
49.60000 163.920
49.61000 159.252
49.62000 163.246
49.63000 168.059
49.64000 170.223
49.65000 165.719
49.66000 160.892
49.67000 157.832
49.68000 166.414
49.69000 172.782
49.70000 176.189
49.71000 176.260
49.72000 176.321
49.73000 175.180
49.74000 173.165
49.75000 171.189
49.76000 171.213
49.77000 172.176
49.78000 173.217
49.79000 175.401
49.80000 177.963
49.81000 179.925
49.82000 176.975
49.83000 172.939
49.84000 169.492
49.85000 170.607
49.86000 172.088
49.87000 174.396
49.88000 179.503
49.89000 184.841
49.90000 186.163
49.91000 178.275
49.92000 170.024
49.93000 164.989
49.94000 167.878
49.95000 170.008
49.96000 170.948
49.97000 170.683
49.98000 170.397
49.99000 168.116
50.00000 164.518
50.01000 161.012
50.02000 164.362
50.03000 170.469
50.04000 176.023
50.05000 174.633
50.06000 171.153
50.07000 168.432
50.08000 171.219
50.09000 175.105
50.10000 178.365
50.11000 176.795
50.12000 174.985
50.13000 174.083
50.14000 175.977
50.15000 178.069
50.16000 177.872
50.17000 172.895
50.18000 167.768
50.19000 164.766
50.20000 174.165
50.21000 180.842
50.22000 184.534
50.23000 185.514
50.24000 186.477
50.25000 186.376
50.26000 185.636
50.27000 184.920
50.28000 182.580
50.29000 179.745
50.30000 177.233
50.31000 178.235
50.32000 180.199
50.33000 181.706
50.34000 180.255
50.35000 178.273
50.36000 176.643
50.37000 180.214
50.38000 183.623
50.39000 186.346
50.40000 187.146
50.41000 187.832
50.42000 186.525
50.43000 181.427
50.44000 176.238
50.45000 173.331
50.46000 177.341
50.47000 180.144
50.48000 185.892
50.49000 194.049
50.50000 202.005
50.51000 200.667
50.52000 194.268
50.53000 188.120
50.54000 190.482
50.55000 195.632
50.56000 200.229
50.57000 199.567
50.58000 197.600
50.59000 195.936
50.60000 196.033
50.61000 196.414
50.62000 196.720
50.63000 197.425
50.64000 198.028
50.65000 199.028
50.66000 201.040
50.67000 203.104
50.68000 203.788
50.69000 202.084
50.70000 200.337
50.71000 199.404
50.72000 204.744
50.73000 208.371
50.74000 208.601
50.75000 206.319
50.76000 204.034
50.77000 201.647
50.78000 199.211
50.79000 196.889
50.80000 195.115
50.81000 193.642
50.82000 192.496
50.83000 194.090
50.84000 196.301
50.85000 197.677
50.86000 194.711
50.87000 191.121
50.88000 188.289
50.89000 191.529
50.90000 194.537
50.91000 195.387
50.92000 191.213
50.93000 186.833
50.94000 184.894
50.95000 186.793
50.96000 188.740
50.97000 189.727
50.98000 191.094
50.99000 191.992
51.00000 191.011
51.01000 188.771
51.02000 186.653
51.03000 187.909
51.04000 190.686
51.05000 193.308
51.06000 189.217
51.07000 183.583
51.08000 178.682
51.09000 179.208
51.10000 180.835
51.11000 182.651
51.12000 185.357
51.13000 188.177
51.14000 190.349
51.15000 186.804
51.16000 183.670
51.17000 181.582
51.18000 181.716
51.19000 181.922
51.20000 181.809
51.21000 181.239
51.22000 180.666
51.23000 180.629
51.24000 181.087
51.25000 181.541
51.26000 181.789
51.27000 181.910
51.28000 181.881
51.29000 178.524
51.30000 173.797
51.31000 169.381
51.32000 170.870
51.33000 173.708
51.34000 176.032
51.35000 174.962
51.36000 173.272
51.37000 171.815
51.38000 171.347
51.39000 170.990
51.40000 170.722
51.41000 176.319
51.42000 180.977
51.43000 181.891
51.44000 175.576
51.45000 169.078
51.46000 167.116
51.47000 171.010
51.48000 174.923
51.49000 173.509
51.50000 167.683
51.51000 161.926
51.52000 159.566
51.53000 159.084
51.54000 158.839
51.55000 162.961
51.56000 168.717
51.57000 174.037
51.58000 170.514
51.59000 165.354
51.60000 161.187
51.61000 162.887
51.62000 165.548
51.63000 167.767
51.64000 168.282
51.65000 168.628
51.66000 168.881
51.67000 165.228
51.68000 162.253
51.69000 160.156
51.70000 159.601
51.71000 159.074
51.72000 159.872
51.73000 162.214
51.74000 164.550
51.75000 165.572
51.76000 165.604
51.77000 165.588
51.78000 163.818
51.79000 161.164
51.80000 158.754
51.81000 160.117
51.82000 162.767
51.83000 165.186
51.84000 163.854
51.85000 161.912
51.86000 160.553
51.87000 162.285
51.88000 164.469
51.89000 164.999
51.90000 159.749
51.91000 154.001
51.92000 149.913
51.93000 156.242
51.94000 161.397
51.95000 163.744
51.96000 161.608
51.97000 159.414
51.98000 158.496
51.99000 158.916
52.00000 159.334
52.01000 159.470
52.02000 159.415
52.03000 159.347
52.04000 158.895
52.05000 158.267
52.06000 157.729
52.07000 158.374
52.08000 159.385
52.09000 160.297
52.10000 157.144
52.11000 153.642
52.12000 150.905
52.13000 151.818
52.14000 153.206
52.15000 154.290
52.16000 154.406
52.17000 154.451
52.18000 154.482
52.19000 157.276
52.20000 159.446
52.21000 160.115
52.22000 158.607
52.23000 157.081
52.24000 154.701
52.25000 151.519
52.26000 148.364
52.27000 146.826
52.28000 146.297
52.29000 145.765
52.30000 145.177
52.31000 144.567
52.32000 144.267
52.33000 147.514
52.34000 151.762
52.35000 155.535
52.36000 157.676
52.37000 159.269
52.38000 160.699
52.39000 161.420
52.40000 162.061
52.41000 162.160
52.42000 160.695
52.43000 159.132
52.44000 158.088
52.45000 155.290
52.46000 153.183
52.47000 152.739
52.48000 154.474
52.49000 156.220
52.50000 158.203
52.51000 160.387
52.52000 162.544
52.53000 161.531
52.54000 158.810
52.55000 155.985
52.56000 151.182
52.57000 145.628
52.58000 141.036
52.59000 145.984
52.60000 153.376
52.61000 159.845
52.62000 156.830
52.63000 152.889
52.64000 150.339
52.65000 153.228
52.66000 156.668
52.67000 158.686
52.68000 156.962
52.69000 155.040
52.70000 153.799
52.71000 159.138
52.72000 163.134
52.73000 163.448
52.74000 159.402
52.75000 155.360
52.76000 154.349
52.77000 155.652
52.78000 156.932
52.79000 157.165
52.80000 156.874
52.81000 156.701
52.82000 158.412
52.83000 160.776
52.84000 162.916
52.85000 163.119
52.86000 162.873
52.87000 162.661
52.88000 156.631
52.89000 150.787
52.90000 147.007
52.91000 150.552
52.92000 154.742
52.93000 157.033
52.94000 154.764
52.95000 152.295
52.96000 150.761
52.97000 153.483
52.98000 155.486
52.99000 159.119
53.00000 164.490
53.01000 169.804
53.02000 167.959
53.03000 161.166
53.04000 154.525
53.05000 151.584
53.06000 150.414
53.07000 149.254
53.08000 148.222
53.09000 147.230
53.10000 146.755
53.11000 150.251
53.12000 154.580
53.13000 158.243
53.14000 159.325
53.15000 159.943
53.16000 159.119
53.17000 153.641
53.18000 147.809
53.19000 145.628
53.20000 151.427
53.21000 157.507
53.22000 161.140
53.23000 165.164
53.24000 168.020
53.25000 166.557
53.26000 160.964
53.27000 155.406
53.28000 152.579
53.29000 151.464
53.30000 150.380
53.31000 149.726
53.32000 149.276
53.33000 149.009
53.34000 150.856
53.35000 153.310
53.36000 155.650
53.37000 157.209
53.38000 158.620
53.39000 159.792
53.40000 158.340
53.41000 156.883
53.42000 155.200
53.43000 152.851
53.44000 150.458
53.45000 150.778
53.46000 156.497
53.47000 162.365
53.48000 165.725
53.49000 161.484
53.50000 158.498
53.51000 157.541
53.52000 158.331
53.53000 159.139
53.54000 160.952
53.55000 163.336
53.56000 165.636
53.57000 164.475
53.58000 162.125
53.59000 159.956
53.60000 159.613
53.61000 159.744
53.62000 159.948
53.63000 160.587
53.64000 161.301
53.65000 161.883
53.66000 160.809
53.67000 159.793
53.68000 158.055
53.69000 154.389
53.70000 150.618
53.71000 149.447
53.72000 152.990
53.73000 156.630
53.74000 158.621
53.75000 151.346
53.76000 146.344
53.77000 144.502
53.78000 145.112
53.79000 145.749
53.80000 147.505
53.81000 149.840
53.82000 152.074
53.83000 151.625
53.84000 150.329
53.85000 149.032
53.86000 147.731
53.87000 146.429
53.88000 145.783
53.89000 148.736
53.90000 152.236
53.91000 155.026
53.92000 153.384
53.93000 151.737
53.94000 152.716
53.95000 160.094
53.96000 167.759
53.97000 171.123
53.98000 167.398
53.99000 163.568
54.00000 161.576
54.01000 158.296
54.02000 156.077
54.03000 153.417
54.04000 150.447
54.05000 147.657
54.06000 150.405
54.07000 155.769
54.08000 160.855
54.09000 155.607
54.10000 147.721
54.11000 140.964
54.12000 143.071
54.13000 147.068
54.14000 149.893
54.15000 146.932
54.16000 143.188
54.17000 140.270
54.18000 141.601
54.19000 142.926
54.20000 143.940
54.21000 144.263
54.22000 144.561
54.23000 144.826
54.24000 145.042
54.25000 145.258
54.26000 144.215
54.27000 141.946
54.28000 139.725
54.29000 141.488
54.30000 145.792
54.31000 149.905
54.32000 149.368
54.33000 146.830
54.34000 144.447
54.35000 147.409
54.36000 151.530
54.37000 154.603
54.38000 150.372
54.39000 144.737
54.40000 140.477
54.41000 142.351
54.42000 144.960
54.43000 146.945
54.44000 148.242
54.45000 149.227
54.46000 148.668
54.47000 144.989
54.48000 141.222
54.49000 139.416
54.50000 140.268
54.51000 141.134
54.52000 142.032
54.53000 142.954
54.54000 143.874
54.55000 144.610
54.56000 145.241
54.57000 146.075
54.58000 151.001
54.59000 157.531
54.60000 163.598
54.61000 159.261
54.62000 152.868
54.63000 147.376
54.64000 147.491
54.65000 148.576
54.66000 149.665
54.67000 150.773
54.68000 151.883
54.69000 152.706
54.70000 153.829
54.71000 154.713
54.72000 154.824
54.73000 153.512
54.74000 152.168
54.75000 149.992
54.76000 146.795
54.77000 143.602
54.78000 141.340
54.79000 139.820
54.80000 138.457
54.81000 143.593
54.82000 152.153
54.83000 159.988
54.84000 155.659
54.85000 146.986
54.86000 139.022
54.87000 141.668
54.88000 146.298
54.89000 150.583
54.90000 152.940
54.91000 154.999
54.92000 156.500
54.93000 155.953
54.94000 155.218
54.95000 154.688
54.96000 156.350
54.97000 157.702
54.98000 157.934
54.99000 156.294
55.00000 154.624
55.01000 155.889
55.02000 160.393
55.03000 164.880
55.04000 164.270
55.05000 160.062
55.06000 155.992
55.07000 156.349
55.08000 158.829
55.09000 161.301
55.10000 163.647
55.11000 165.954
55.12000 168.045
55.13000 160.732
55.14000 152.482
55.15000 146.240
55.16000 150.085
55.17000 155.322
55.18000 158.144
55.19000 152.932
55.20000 147.079
55.21000 142.979
55.22000 151.034
55.23000 157.473
55.24000 160.655
55.25000 158.886
55.26000 157.065
55.27000 155.574
55.28000 154.410
55.29000 153.254
55.30000 152.614
55.31000 152.313
55.32000 152.077
55.33000 153.514
55.34000 155.681
55.35000 157.690
55.36000 157.770
55.37000 157.281
55.38000 156.842
55.39000 166.911
55.40000 177.486
55.41000 185.398
55.42000 181.244
55.43000 175.615
55.44000 171.644
55.45000 172.693
55.46000 174.086
55.47000 175.032
55.48000 175.915
55.49000 176.573
55.50000 180.905
55.51000 190.297
55.52000 199.717
55.53000 204.384
55.54000 204.823
55.55000 205.258
55.56000 208.620
55.57000 213.591
55.58000 218.707
55.59000 226.828
55.60000 236.145
55.61000 244.580
55.62000 243.676
55.63000 240.263
55.64000 237.255
55.65000 243.091
55.66000 249.463
55.67000 256.532
55.68000 266.455
55.69000 276.686
55.70000 286.921
55.71000 297.164
55.72000 307.409
55.73000 314.134
55.74000 324.284
55.75000 331.810
55.76000 338.997
55.77000 345.765
55.78000 352.548
55.79000 365.035
55.80000 382.096
55.81000 398.907
55.82000 404.045
55.83000 402.975
55.84000 402.151
55.85000 405.559
55.86000 410.502
55.87000 415.890
55.88000 425.400
55.89000 435.913
55.90000 445.039
55.91000 448.583
55.92000 450.853
55.93000 451.624
55.94000 446.819
55.95000 441.487
55.96000 439.000
55.97000 443.655
55.98000 448.652
55.99000 451.817
56.00000 447.917
56.01000 445.004
56.02000 440.636
56.03000 434.637
56.04000 428.647
56.05000 424.527
56.06000 421.763
56.07000 419.054
56.08000 421.922
56.09000 427.295
56.10000 431.630
56.11000 420.814
56.12000 404.997
56.13000 389.313
56.14000 374.719
56.15000 360.366
56.16000 348.115
56.17000 338.509
56.18000 330.734
56.19000 323.454
56.20000 317.852
56.21000 312.386
56.22000 306.091
56.23000 297.896
56.24000 289.627
56.25000 284.588
56.26000 277.433
56.27000 272.303
56.28000 267.135
56.29000 261.928
56.30000 256.695
56.31000 249.021
56.32000 239.742
56.33000 230.699
56.34000 224.878
56.35000 220.688
56.36000 216.247
56.37000 208.674
56.38000 200.162
56.39000 192.901
56.40000 194.703
56.41000 198.306
56.42000 201.327
56.43000 194.329
56.44000 187.468
56.45000 182.937
56.46000 185.567
56.47000 188.700
56.48000 190.199
56.49000 188.292
56.50000 186.278
56.51000 185.101
56.52000 181.621
56.53000 179.158
56.54000 174.335
56.55000 167.375
56.56000 160.514
56.57000 159.934
56.58000 163.105
56.59000 166.174
56.60000 166.898
56.61000 166.688
56.62000 166.348
56.63000 164.609
56.64000 162.489
56.65000 160.488
56.66000 159.262
56.67000 158.174
56.68000 157.280
56.69000 149.821
56.70000 143.097
56.71000 138.417
56.72000 139.454
56.73000 140.831
56.74000 142.283
56.75000 143.877
56.76000 145.474
56.77000 146.368
56.78000 149.440
56.79000 151.570
56.80000 152.226
56.81000 151.682
56.82000 151.216
56.83000 154.368
56.84000 159.484
56.85000 164.397
56.86000 163.154
56.87000 159.869
56.88000 156.288
56.89000 149.897
56.90000 142.813
56.91000 137.221
56.92000 140.263
56.93000 144.691
56.94000 148.257
56.95000 149.585
56.96000 150.489
56.97000 149.611
56.98000 144.196
56.99000 138.556
57.00000 137.356
57.01000 143.820
57.02000 150.418
57.03000 153.938
57.04000 148.343
57.05000 144.539
57.06000 143.553
57.07000 144.642
57.08000 145.646
57.09000 143.677
57.10000 140.238
57.11000 136.963
57.12000 138.970
57.13000 142.470
57.14000 145.293
57.15000 142.483
57.16000 138.413
57.17000 135.667
57.18000 139.803
57.19000 144.925
57.20000 148.961
57.21000 150.471
57.22000 151.512
57.23000 151.995
57.24000 151.185
57.25000 150.322
57.26000 148.983
57.27000 146.898
57.28000 144.803
57.29000 143.742
57.30000 143.863
57.31000 143.945
57.32000 144.221
57.33000 144.626
57.34000 145.011
57.35000 144.868
57.36000 144.487
57.37000 144.127
57.38000 144.964
57.39000 146.066
57.40000 146.702
57.41000 143.897
57.42000 140.397
57.43000 137.237
57.44000 135.668
57.45000 134.301
57.46000 133.249
57.47000 133.176
57.48000 133.173
57.49000 132.976
57.50000 132.368
57.51000 131.746
57.52000 132.991
57.53000 136.889
57.54000 140.807
57.55000 141.006
57.56000 137.783
57.57000 134.608
57.58000 134.676
57.59000 136.711
57.60000 138.702
57.61000 139.742
57.62000 140.392
57.63000 140.999
57.64000 139.400
57.65000 137.394
57.66000 135.671
57.67000 135.795
57.68000 136.256
57.69000 137.254
57.70000 140.523
57.71000 144.048
57.72000 146.694
57.73000 146.198
57.74000 145.660
57.75000 145.084
57.76000 144.432
57.77000 143.778
57.78000 143.580
57.79000 143.968
57.80000 144.357
57.81000 144.712
57.82000 145.037
57.83000 145.370
57.84000 146.067
57.85000 146.966
57.86000 147.712
57.87000 145.641
57.88000 142.517
57.89000 139.633
57.90000 138.693
57.91000 138.289
57.92000 137.570
57.93000 134.997
57.94000 132.120
57.95000 129.824
57.96000 129.752
57.97000 129.900
57.98000 130.009
57.99000 137.563
58.00000 143.683
58.01000 146.939
58.02000 145.174
58.03000 143.317
58.04000 141.120
58.05000 138.529
58.06000 135.945
58.07000 136.703
58.08000 139.941
58.09000 143.029
58.10000 140.678
58.11000 135.597
58.12000 130.807
58.13000 130.471
58.14000 131.650
58.15000 132.727
58.16000 132.912
58.17000 132.897
58.18000 133.335
58.19000 136.171
58.20000 139.356
58.21000 141.155
58.22000 138.121
58.23000 134.674
58.24000 132.224
58.25000 135.400
58.26000 137.997
58.27000 139.165
58.28000 138.057
58.29000 136.919
58.30000 136.210
58.31000 135.948
58.32000 135.687
58.33000 134.054
58.34000 131.523
58.35000 129.154
58.36000 131.408
58.37000 135.775
58.38000 140.055
58.39000 143.188
58.40000 145.966
58.41000 148.469
58.42000 145.157
58.43000 141.204
58.44000 137.920
58.45000 137.819
58.46000 138.130
58.47000 137.550
58.48000 134.141
58.49000 130.524
58.50000 128.030
58.51000 135.082
58.52000 140.620
58.53000 143.487
58.54000 142.497
58.55000 141.476
58.56000 140.285
58.57000 138.934
58.58000 137.595
58.59000 138.368
58.60000 140.405
58.61000 142.283
58.62000 140.562
58.63000 137.341
58.64000 134.484
58.65000 135.741
58.66000 138.157
58.67000 140.301
58.68000 133.887
58.69000 126.951
58.70000 122.232
58.71000 127.058
58.72000 132.979
58.73000 137.604
58.74000 138.496
58.75000 139.153
58.76000 139.591
58.77000 141.428
58.78000 142.815
58.79000 141.652
58.80000 137.152
58.81000 132.640
58.82000 128.929
58.83000 125.894
58.84000 122.897
58.85000 125.444
58.86000 130.949
58.87000 136.238
58.88000 137.468
58.89000 137.157
58.90000 136.726
58.91000 135.101
58.92000 133.170
58.93000 131.482
58.94000 135.942
58.95000 140.639
58.96000 143.477
58.97000 139.060
58.98000 133.912
58.99000 130.330
59.00000 130.860
59.01000 131.607
59.02000 132.088
59.03000 127.051
59.04000 123.293
59.05000 122.595
59.06000 125.510
59.07000 128.424
59.08000 129.655
59.09000 129.604
59.10000 129.554
59.11000 130.073
59.12000 130.854
59.13000 131.568
59.14000 131.208
59.15000 130.478
59.16000 130.027
59.17000 132.004
59.18000 134.543
59.19000 136.729
59.20000 136.705
59.21000 136.407
59.22000 135.431
59.23000 132.053
59.24000 128.465
59.25000 125.641
59.26000 124.645
59.27000 123.729
59.28000 123.160
59.29000 129.080
59.30000 133.405
59.31000 135.406
59.32000 134.938
59.33000 134.493
59.34000 136.871
59.35000 141.195
59.36000 145.421
59.37000 141.347
59.38000 133.756
59.39000 126.650
59.40000 126.080
59.41000 127.564
59.42000 128.845
59.43000 128.556
59.44000 127.940
59.45000 127.419
59.46000 129.753
59.47000 132.022
59.48000 133.938
59.49000 134.717
59.50000 135.410
59.51000 134.738
59.52000 131.094
59.53000 127.345
59.54000 125.108
59.55000 127.117
59.56000 128.568
59.57000 128.062
59.58000 125.691
59.59000 123.384
59.60000 125.999
59.61000 131.693
59.62000 137.222
59.63000 139.086
59.64000 139.385
59.65000 139.430
59.66000 136.531
59.67000 132.790
59.68000 129.820
59.69000 132.105
59.70000 135.379
59.71000 138.097
59.72000 136.299
59.73000 134.375
59.74000 133.058
59.75000 133.518
59.76000 134.094
59.77000 134.494
59.78000 134.546
59.79000 134.588
59.80000 134.613
59.81000 138.565
59.82000 141.333
59.83000 141.048
59.84000 138.145
59.85000 135.271
59.86000 133.963
59.87000 133.546
59.88000 133.144
59.89000 134.712
59.90000 136.900
59.91000 138.779
59.92000 137.546
59.93000 135.504
59.94000 133.361
59.95000 130.599
59.96000 127.731
59.97000 125.398
59.98000 128.063
59.99000 130.659
60.00000 133.150
60.01000 135.359
60.02000 137.553
60.03000 138.311
60.04000 136.474
60.05000 134.585
60.06000 133.553
60.07000 128.936
60.08000 125.778
60.09000 127.462
60.10000 132.892
60.11000 138.227
60.12000 139.742
60.13000 139.284
60.14000 138.845
60.15000 135.097
60.16000 130.528
60.17000 126.449
60.18000 126.717
60.19000 128.006
60.20000 128.701
60.21000 126.146
60.22000 123.100
60.23000 120.673
60.24000 124.924
60.25000 128.837
60.26000 132.634
60.27000 136.147
60.28000 139.648
60.29000 141.511
60.30000 140.683
60.31000 139.815
60.32000 139.365
60.33000 135.824
60.34000 133.444
60.35000 132.656
60.36000 132.984
60.37000 133.272
60.38000 132.365
60.39000 130.895
60.40000 129.501
60.41000 125.752
60.42000 121.606
60.43000 118.352
60.44000 122.071
60.45000 127.273
60.46000 131.225
60.47000 129.024
60.48000 125.993
60.49000 123.633
60.50000 126.313
60.51000 128.759
60.52000 130.128
60.53000 129.112
60.54000 128.009
60.55000 129.382
60.56000 134.447
60.57000 139.546
60.58000 141.942
60.59000 141.715
60.60000 141.472
60.61000 139.837
60.62000 137.319
60.63000 134.954
60.64000 136.319
60.65000 139.283
60.66000 142.067
60.67000 142.070
60.68000 141.338
60.69000 140.364
60.70000 137.713
60.71000 134.740
60.72000 132.302
60.73000 132.247
60.74000 132.475
60.75000 132.649
60.76000 133.147
60.77000 133.556
60.78000 133.630
60.79000 133.031
60.80000 132.413
60.81000 132.473
60.82000 133.449
60.83000 134.430
60.84000 133.238
60.85000 130.157
60.86000 127.139
60.87000 127.711
60.88000 130.356
60.89000 133.012
60.90000 135.905
60.91000 138.891
60.92000 141.665
60.93000 141.064
60.94000 139.720
60.95000 138.152
60.96000 135.189
60.97000 131.987
60.98000 130.197
60.99000 134.096
61.00000 138.593
61.01000 141.925
61.02000 138.707
61.03000 135.924
61.04000 134.303
61.05000 134.811
61.06000 135.366
61.07000 136.070
61.08000 136.958
61.09000 137.845
61.10000 134.504
61.11000 127.871
61.12000 121.426
61.13000 122.739
61.14000 128.128
61.15000 133.197
61.16000 132.947
61.17000 130.802
61.18000 128.834
61.19000 126.254
61.20000 123.823
61.21000 122.081
61.22000 124.169
61.23000 126.848
61.24000 129.924
61.25000 134.450
61.26000 139.110
61.27000 142.467
61.28000 139.905
61.29000 137.732
61.30000 135.620
61.31000 133.612
61.32000 131.605
61.33000 128.670
61.34000 124.716
61.35000 120.777
61.36000 123.471
61.37000 130.812
61.38000 138.059
61.39000 142.290
61.40000 145.079
61.41000 147.561
61.42000 145.681
61.43000 142.388
61.44000 139.403
61.45000 143.432
61.46000 148.322
61.47000 152.523
61.48000 153.275
61.49000 153.552
61.50000 155.251
61.51000 161.663
61.52000 168.449
61.53000 173.198
61.54000 176.997
61.55000 179.841
61.56000 187.175
61.57000 201.309
61.58000 215.512
61.59000 227.001
61.60000 235.809
61.61000 244.557
61.62000 251.115
61.63000 256.179
61.64000 261.108
61.65000 262.590
61.66000 262.572
61.67000 262.524
61.68000 262.104
61.69000 261.575
61.70000 261.102
61.71000 265.597
61.72000 270.360
61.73000 274.016
61.74000 272.667
61.75000 270.708
61.76000 267.757
61.77000 261.814
61.78000 255.668
61.79000 251.499
61.80000 222.774
61.81000 200.809
61.82000 186.523
61.83000 182.777
61.84000 179.094
61.85000 173.401
61.86000 165.925
61.87000 158.528
61.88000 153.549
61.89000 150.067
61.90000 146.798
61.91000 147.939
61.92000 150.830
61.93000 153.348
61.94000 151.936
61.95000 149.472
61.96000 147.301
61.97000 147.764
61.98000 148.562
61.99000 149.287
62.00000 149.715
62.01000 150.112
62.02000 149.535
62.03000 146.280
62.04000 142.872
62.05000 140.637
62.06000 142.040
62.07000 143.132
62.08000 142.682
62.09000 140.318
62.10000 137.956
62.11000 137.795
62.12000 139.394
62.13000 140.970
62.14000 141.206
62.15000 140.743
62.16000 140.060
62.17000 135.598
62.18000 129.771
62.19000 124.163
62.20000 120.577
62.21000 117.482
62.22000 114.798
62.23000 123.324
62.24000 132.087
62.25000 138.972
62.26000 138.893
62.27000 138.161
62.28000 137.659
62.29000 137.732
62.30000 137.833
62.31000 137.897
62.32000 136.156
62.33000 134.873
62.34000 136.018
62.35000 139.878
62.36000 143.709
62.37000 142.523
62.38000 137.710
62.39000 132.993
62.40000 131.929
62.41000 132.610
62.42000 133.285
62.43000 133.878
62.44000 134.442
62.45000 135.030
62.46000 135.803
62.47000 136.617
62.48000 137.311
62.49000 136.731
62.50000 136.092
62.51000 136.727
62.52000 141.655
62.53000 146.932
62.54000 149.520
62.55000 145.974
62.56000 142.190
62.57000 139.886
62.58000 139.146
62.59000 138.629
62.60000 137.817
62.61000 136.706
62.62000 135.639
62.63000 138.658
62.64000 144.356
62.65000 149.908
62.66000 150.292
62.67000 148.479
62.68000 146.938
62.69000 148.782
62.70000 151.639
62.71000 153.905
62.72000 151.903
62.73000 149.056
62.74000 146.670
62.75000 141.366
62.76000 136.654
62.77000 134.038
62.78000 137.844
62.79000 142.099
62.80000 144.790
62.81000 144.232
62.82000 143.574
62.83000 143.190
62.84000 145.491
62.85000 147.121
62.86000 145.539
62.87000 141.061
62.88000 136.639
62.89000 135.836
62.90000 137.186
62.91000 138.492
62.92000 140.790
62.93000 143.338
62.94000 145.648
62.95000 145.389
62.96000 144.432
62.97000 144.218
62.98000 148.785
62.99000 154.205
63.00000 158.660
63.01000 152.935
63.02000 147.315
63.03000 141.840
63.04000 136.773
63.05000 131.729
63.06000 129.947
63.07000 134.333
63.08000 138.865
63.09000 141.397
63.10000 144.110
63.11000 145.986
63.12000 146.633
63.13000 146.282
63.14000 145.915
63.15000 144.832
63.16000 143.361
63.17000 141.949
63.18000 142.483
63.19000 143.650
63.20000 144.577
63.21000 143.246
63.22000 141.357
63.23000 139.442
63.24000 137.384
63.25000 135.302
63.26000 133.627
63.27000 132.785
63.28000 132.167
63.29000 132.965
63.30000 137.363
63.31000 141.938
63.32000 146.050
63.33000 149.363
63.34000 152.663
63.35000 154.420
63.36000 157.631
63.37000 159.797
63.38000 158.233
63.39000 153.927
63.40000 149.749
63.41000 149.965
63.42000 152.346
63.43000 154.613
63.44000 151.773
63.45000 147.562
63.46000 144.158
63.47000 147.452
63.48000 152.241
63.49000 156.091
63.50000 155.081
63.51000 153.378
63.52000 152.037
63.53000 150.461
63.54000 149.182
63.55000 148.733
63.56000 150.202
63.57000 151.749
63.58000 152.490
63.59000 151.972
63.60000 151.439
63.61000 151.169
63.62000 148.582
63.63000 146.860
63.64000 146.078
63.65000 145.923
63.66000 145.761
63.67000 145.438
63.68000 145.043
63.69000 144.670
63.70000 146.851
63.71000 149.562
63.72000 152.065
63.73000 153.046
63.74000 153.720
63.75000 154.518
63.76000 155.893
63.77000 157.342
63.78000 158.456
63.79000 151.458
63.80000 145.460
63.81000 143.328
63.82000 149.349
63.83000 155.632
63.84000 159.347
63.85000 159.422
63.86000 159.470
63.87000 158.016
63.88000 155.186
63.89000 152.368
63.90000 150.364
63.91000 148.852
63.92000 147.518
63.93000 150.107
63.94000 154.299
63.95000 158.214
63.96000 156.956
63.97000 154.521
63.98000 152.631
63.99000 154.318
64.00000 156.654
64.01000 158.501
64.02000 158.278
64.03000 157.823
64.04000 157.482
64.05000 157.441
64.06000 157.423
64.07000 158.185
64.08000 160.445
64.09000 162.743
64.10000 161.373
64.11000 155.298
64.12000 149.213
64.13000 149.492
64.14000 155.015
64.15000 160.478
64.16000 163.112
64.17000 164.191
64.18000 165.355
64.19000 168.055
64.20000 171.327
64.21000 174.348
64.22000 172.643
64.23000 170.052
64.24000 167.236
64.25000 163.097
64.26000 158.742
64.27000 156.010
64.28000 159.486
64.29000 163.572
64.30000 166.557
64.31000 174.078
64.32000 180.056
64.33000 181.177
64.34000 173.811
64.35000 166.290
64.36000 165.532
64.37000 172.603
64.38000 179.663
64.39000 179.413
64.40000 173.745
64.41000 168.174
64.42000 166.062
64.43000 165.682
64.44000 165.358
64.45000 165.888
64.46000 166.708
64.47000 167.455
64.48000 165.901
64.49000 164.059
64.50000 162.171
64.51000 160.040
64.52000 157.874
64.53000 157.700
64.54000 164.444
64.55000 171.780
64.56000 176.988
64.57000 168.974
64.58000 162.457
64.59000 158.323
64.60000 157.972
64.61000 157.670
64.62000 160.846
64.63000 167.645
64.64000 174.408
64.65000 176.592
64.66000 175.690
64.67000 174.819
64.68000 174.827
64.69000 175.236
64.70000 175.457
64.71000 173.231
64.72000 170.250
64.73000 167.566
64.74000 172.265
64.75000 177.711
64.76000 181.877
64.77000 179.968
64.78000 177.272
64.79000 175.714
64.80000 177.749
64.81000 180.049
64.82000 181.632
64.83000 180.779
64.84000 180.077
64.85000 177.690
64.86000 172.875
64.87000 168.043
64.88000 169.196
64.89000 175.936
64.90000 182.618
64.91000 185.610
64.92000 186.323
64.93000 187.035
64.94000 187.735
64.95000 188.430
64.96000 189.049
64.97000 188.817
64.98000 188.346
64.99000 187.928
65.00000 184.205
65.01000 180.449
65.02000 178.785
65.03000 186.098
65.04000 194.436
65.05000 200.135
65.06000 198.244
65.07000 195.879
65.08000 194.303
65.09000 196.902
65.10000 198.906
65.11000 200.013
65.12000 199.949
65.13000 199.883
65.14000 201.208
65.15000 203.703
65.16000 206.167
65.17000 207.134
65.18000 207.261
65.19000 207.580
65.20000 211.478
65.21000 216.730
65.22000 221.967
65.23000 227.045
65.24000 232.084
65.25000 236.489
65.26000 231.976
65.27000 226.844
65.28000 222.545
65.29000 221.480
65.30000 220.740
65.31000 221.804
65.32000 227.595
65.33000 233.633
65.34000 237.521
65.35000 237.800
65.36000 237.953
65.37000 241.466
65.38000 248.935
65.39000 256.390
65.40000 259.324
65.41000 258.827
65.42000 258.338
65.43000 258.686
65.44000 259.432
65.45000 260.245
65.46000 262.109
65.47000 264.335
65.48000 266.711
65.49000 270.391
65.50000 274.372
65.51000 277.796
65.52000 285.616
65.53000 292.788
65.54000 298.435
65.55000 298.699
65.56000 298.493
65.57000 299.992
65.58000 305.558
65.59000 311.300
65.60000 314.862
65.61000 326.674
65.62000 335.252
65.63000 341.827
65.64000 346.279
65.65000 350.839
65.66000 368.252
65.67000 394.500
65.68000 420.148
65.69000 453.427
65.70000 488.685
65.71000 524.553
65.72000 568.599
65.73000 615.209
65.74000 663.754
65.75000 727.092
65.76000 793.512
65.77000 849.657
65.78000 892.589
65.79000 927.044
65.80000 963.038
65.81000 1003.967
65.82000 1045.268
65.83000 1075.230
65.84000 1080.544
65.85000 1085.002
65.86000 1087.660
65.87000 1100.793
65.88000 1110.164
65.89000 1110.433
65.90000 1102.053
65.91000 1093.485
65.92000 1070.664
65.93000 1038.955
65.94000 1008.168
65.95000 952.079
65.96000 888.722
65.97000 825.188
65.98000 759.599
65.99000 693.425
66.00000 629.491
66.01000 580.779
66.02000 534.925
66.03000 496.882
66.04000 468.588
66.05000 446.146
66.06000 424.341
66.07000 404.398
66.08000 384.574
66.09000 367.963
66.10000 357.711
66.11000 347.631
66.12000 341.875
66.13000 339.904
66.14000 338.532
66.15000 330.589
66.16000 317.028
66.17000 303.696
66.18000 302.431
66.19000 308.006
66.20000 313.379
66.21000 316.822
66.22000 319.360
66.23000 321.876
66.24000 324.167
66.25000 326.400
66.26000 329.711
66.27000 339.563
66.28000 350.520
66.29000 359.430
66.30000 369.009
66.31000 376.884
66.32000 385.902
66.33000 397.962
66.34000 410.186
66.35000 418.559
66.36000 419.992
66.37000 421.285
66.38000 421.990
66.39000 426.645
66.40000 429.852
66.41000 434.327
66.42000 439.780
66.43000 445.110
66.44000 445.654
66.45000 443.728
66.46000 441.888
66.47000 439.860
66.48000 437.912
66.49000 435.861
66.50000 432.903
66.51000 429.732
66.52000 424.562
66.53000 408.504
66.54000 390.802
66.55000 376.709
66.56000 361.048
66.57000 348.309
66.58000 337.648
66.59000 332.020
66.60000 326.616
66.61000 324.303
66.62000 327.054
66.63000 329.877
66.64000 331.342
66.65000 330.901
66.66000 330.586
66.67000 328.122
66.68000 324.155
66.69000 320.235
66.70000 317.711
66.71000 315.844
66.72000 314.074
66.73000 315.588
66.74000 317.946
66.75000 320.446
66.76000 324.062
66.77000 327.914
66.78000 331.487
66.79000 333.691
66.80000 335.711
66.81000 337.283
66.82000 330.805
66.83000 325.153
66.84000 322.421
66.85000 326.133
66.86000 330.076
66.87000 334.385
66.88000 339.237
66.89000 344.093
66.90000 345.053
66.91000 342.244
66.92000 339.479
66.93000 340.184
66.94000 343.086
66.95000 346.074
66.96000 351.134
66.97000 357.080
66.98000 362.661
66.99000 357.299
67.00000 349.527
67.01000 342.673
67.02000 342.184
67.03000 342.910
67.04000 345.310
67.05000 355.126
67.06000 365.825
67.07000 373.952
67.08000 365.234
67.09000 357.507
67.10000 352.580
67.11000 353.279
67.12000 354.137
67.13000 356.506
67.14000 360.907
67.15000 365.317
67.16000 370.239
67.17000 375.596
67.18000 380.811
67.19000 378.088
67.20000 370.796
67.21000 363.990
67.22000 366.858
67.23000 373.498
67.24000 379.662
67.25000 384.662
67.26000 388.893
67.27000 392.559
67.28000 392.729
67.29000 392.300
67.30000 391.491
67.31000 389.163
67.32000 386.676
67.33000 384.835
67.34000 392.159
67.35000 398.236
67.36000 403.340
67.37000 406.663
67.38000 409.947
67.39000 412.468
67.40000 414.059
67.41000 415.644
67.42000 417.314
67.43000 419.042
67.44000 420.682
67.45000 418.755
67.46000 414.959
67.47000 411.422
67.48000 412.180
67.49000 414.462
67.50000 416.557
67.51000 426.039
67.52000 436.061
67.53000 444.107
67.54000 441.188
67.55000 436.585
67.56000 434.321
67.57000 440.574
67.58000 447.606
67.59000 452.670
67.60000 448.548
67.61000 445.069
67.62000 441.222
67.63000 436.764
67.64000 432.297
67.65000 436.934
67.66000 451.552
67.67000 466.115
67.68000 470.541
67.69000 467.802
67.70000 465.085
67.71000 463.072
67.72000 461.394
67.73000 460.142
67.74000 464.904
67.75000 471.609
67.76000 477.685
67.77000 472.171
67.78000 465.107
67.79000 460.171
67.80000 465.848
67.81000 472.980
67.82000 479.722
67.83000 485.176
67.84000 490.528
67.85000 494.270
67.86000 493.093
67.87000 492.064
67.88000 490.781
67.89000 489.114
67.90000 487.443
67.91000 492.326
67.92000 503.659
67.93000 514.913
67.94000 518.509
67.95000 517.200
67.96000 516.322
67.97000 526.260
67.98000 540.898
67.99000 554.532
68.00000 556.039
68.01000 553.980
68.02000 552.139
68.03000 555.523
68.04000 559.358
68.05000 564.053
68.06000 572.627
68.07000 581.671
68.08000 587.298
68.09000 582.639
68.10000 577.284
68.11000 573.656
68.12000 567.953
68.13000 563.657
68.14000 563.223
68.15000 568.078
68.16000 572.964
68.17000 578.541
68.18000 584.727
68.19000 590.848
68.20000 591.223
68.21000 588.307
68.22000 586.145
68.23000 599.451
68.24000 618.877
68.25000 637.288
68.26000 645.032
68.27000 649.930
68.28000 654.243
68.29000 648.839
68.30000 642.721
68.31000 638.649
68.32000 642.920
68.33000 648.085
68.34000 654.757
68.35000 665.563
68.36000 676.605
68.37000 683.839
68.38000 697.565
68.39000 707.763
68.40000 712.415
68.41000 710.205
68.42000 708.015
68.43000 718.348
68.44000 738.663
68.45000 758.674
68.46000 774.151
68.47000 786.825
68.48000 798.865
68.49000 800.073
68.50000 797.377
68.51000 795.194
68.52000 797.733
68.53000 801.415
68.54000 804.608
68.55000 833.186
68.56000 860.901
68.57000 888.961
68.58000 918.297
68.59000 947.753
68.60000 979.561
68.61000 1017.243
68.62000 1055.204
68.63000 1079.192
68.64000 1133.479
68.65000 1173.174
68.66000 1220.053
68.67000 1274.947
68.68000 1329.879
68.69000 1389.701
68.70000 1453.051
68.71000 1515.128
68.72000 1575.310
68.73000 1632.320
68.74000 1689.324
68.75000 1746.236
68.76000 1803.118
68.77000 1860.926
68.78000 1926.241
68.79000 1993.199
68.80000 2050.287
68.81000 2149.091
68.82000 2237.120
68.83000 2329.353
68.84000 2435.713
68.85000 2543.217
68.86000 2673.178
68.87000 2854.208
68.88000 3037.213
68.89000 3148.479
68.90000 3787.853
68.91000 4248.481
68.92000 5144.687
68.93000 6477.167
68.94000 7819.938
68.95000 10118.168
68.96000 13040.913
68.97000 15887.743
68.98000 20020.924
68.99000 24502.252
69.00000 28989.703
69.01000 33553.023
69.02000 38138.988
69.03000 42556.539
69.04000 45763.539
69.05000 48731.305
69.06000 51216.289
69.07000 52816.332
69.08000 54055.289
69.09000 55057.551
69.10000 55336.566
69.11000 55565.324
69.12000 55853.086
69.13000 56263.070
69.14000 56676.801
69.15000 56918.141
69.16000 58054.566
69.17000 58857.332
69.18000 58996.277
69.19000 58538.211
69.20000 58058.008
69.21000 56197.824
69.22000 53518.492
69.23000 50926.512
69.24000 47828.574
69.25000 44710.703
69.26000 41638.680
69.27000 39058.879
69.28000 36612.559
69.29000 34287.020
69.30000 32735.680
69.31000 31321.988
69.32000 30160.924
69.33000 29328.529
69.34000 28674.451
69.35000 28004.600
69.36000 27290.875
69.37000 26574.568
69.38000 25547.916
69.39000 23935.934
69.40000 22310.207
69.41000 21403.191
69.42000 18006.750
69.43000 15651.025
69.44000 13446.448
69.45000 11364.385
69.46000 9293.126
69.47000 7708.396
69.48000 6386.312
69.49000 5117.088
69.50000 4234.367
69.51000 3541.096
69.52000 2881.992
69.53000 2543.563
69.54000 2283.999
69.55000 2040.532
69.56000 1889.482
69.57000 1753.161
69.58000 1643.487
69.59000 1553.822
69.60000 1482.645
69.61000 1416.042
69.62000 1361.028
69.63000 1306.583
69.64000 1263.581
69.65000 1240.214
69.66000 1217.183
69.67000 1204.937
69.68000 1129.669
69.69000 1078.516
69.70000 1047.933
69.71000 1032.423
69.72000 1016.661
69.73000 992.262
69.74000 963.619
69.75000 936.354
69.76000 920.556
69.77000 909.466
69.78000 896.955
69.79000 872.692
69.80000 845.813
69.81000 821.333
69.82000 809.238
69.83000 798.904
69.84000 790.771
69.85000 785.197
69.86000 780.902
69.87000 771.493
69.88000 750.276
69.89000 728.587
69.90000 715.806
69.91000 716.908
69.92000 718.172
69.93000 718.810
69.94000 719.066
69.95000 719.103
69.96000 705.705
69.97000 683.387
69.98000 661.686
69.99000 656.635
70.00000 659.035
