20.00000 576.813
20.01000 564.003
20.02000 549.363
20.03000 538.869
20.04000 544.574
20.05000 551.917
20.06000 557.311
20.07000 555.483
20.08000 553.774
20.09000 553.800
20.10000 556.920
20.11000 560.101
20.12000 558.181
20.13000 550.225
20.14000 542.278
20.15000 547.527
20.16000 562.748
20.17000 577.596
20.18000 578.284
20.19000 571.743
20.20000 565.249
20.21000 559.515
20.22000 554.043
20.23000 549.039
20.24000 548.878
20.25000 549.733
20.26000 551.589
20.27000 558.835
20.28000 566.884
20.29000 572.221
20.30000 567.941
20.31000 562.815
20.32000 559.153
20.33000 561.443
20.34000 563.388
20.35000 561.907
20.36000 554.872
20.37000 547.761
20.38000 545.511
20.39000 548.438
20.40000 551.352
20.41000 552.320
20.42000 551.947
20.43000 551.656
20.44000 553.815
20.45000 557.111
20.46000 560.227
20.47000 560.903
20.48000 560.810
20.49000 560.726
20.50000 559.675
20.51000 558.572
20.52000 556.987
20.53000 553.060
20.54000 548.821
20.55000 545.980
20.56000 547.642
20.57000 549.647
20.58000 551.036
20.59000 549.115
20.60000 547.582
20.61000 548.037
20.62000 551.417
20.63000 554.822
20.64000 556.866
20.65000 557.609
20.66000 558.346
20.67000 560.848
20.68000 564.392
20.69000 567.472
20.70000 559.537
20.71000 546.937
20.72000 535.519
20.73000 537.848
20.74000 544.114
20.75000 549.693
20.76000 544.747
20.77000 538.722
20.78000 534.064
20.79000 535.397
20.80000 537.433
20.81000 539.983
20.82000 544.038
20.83000 548.190
20.84000 550.979
20.85000 563.232
20.86000 572.525
20.87000 578.352
20.88000 579.563
20.89000 580.741
20.90000 575.355
20.91000 564.327
20.92000 553.428
20.93000 548.679
20.94000 547.464
20.95000 546.332
20.96000 546.847
20.97000 547.997
20.98000 548.982
20.99000 548.290
21.00000 547.162
21.01000 546.173
21.02000 533.293
21.03000 520.500
21.04000 512.992
21.05000 526.465
21.06000 542.103
21.07000 553.546
21.08000 553.785
21.09000 553.414
21.10000 553.173
21.11000 537.693
21.12000 526.127
21.13000 525.200
21.14000 537.076
21.15000 548.947
21.16000 552.991
21.17000 550.963
21.18000 548.969
21.19000 544.365
21.20000 538.600
21.21000 533.178
21.22000 533.359
21.23000 535.507
21.24000 537.351
21.25000 536.488
21.26000 534.988
21.27000 533.693
21.28000 535.720
21.29000 537.868
21.30000 540.361
21.31000 544.100
21.32000 547.950
21.33000 550.892
21.34000 551.624
21.35000 552.256
21.36000 552.652
21.37000 549.253
21.38000 546.760
21.39000 545.279
21.40000 544.897
21.41000 544.515
21.42000 544.280
21.43000 544.148
21.44000 544.018
21.45000 538.672
21.46000 531.180
21.47000 524.570
21.48000 530.188
21.49000 539.716
21.50000 547.962
21.51000 546.156
21.52000 542.210
21.53000 538.862
21.54000 535.072
21.55000 531.844
21.56000 528.995
21.57000 527.386
21.58000 525.875
21.59000 525.943
21.60000 529.514
21.61000 533.214
21.62000 535.438
21.63000 542.427
21.64000 547.430
21.65000 553.426
21.66000 560.387
21.67000 567.263
21.68000 567.096
21.69000 562.446
21.70000 557.926
21.71000 558.834
21.72000 561.918
21.73000 565.168
21.74000 570.404
21.75000 576.218
21.76000 580.323
21.77000 572.530
21.78000 562.451
21.79000 554.055
21.80000 555.903
21.81000 558.450
21.82000 562.136
21.83000 569.211
21.84000 576.511
21.85000 581.874
21.86000 583.326
21.87000 584.665
21.88000 585.437
21.89000 595.854
21.90000 603.178
21.91000 604.461
21.92000 600.466
21.93000 596.558
21.94000 597.625
21.95000 601.569
21.96000 605.378
21.97000 614.684
21.98000 625.479
21.99000 635.504
22.00000 637.570
22.01000 637.534
22.02000 636.051
22.03000 625.574
22.04000 613.543
22.05000 603.716
22.06000 620.657
22.07000 636.831
22.08000 650.201
22.09000 655.967
22.10000 661.306
22.11000 663.063
22.12000 658.235
22.13000 653.264
22.14000 650.526
22.15000 662.054
22.16000 669.999
22.17000 671.106
22.18000 666.822
22.19000 662.562
22.20000 659.242
22.21000 656.417
22.22000 653.712
22.23000 649.100
22.24000 644.164
22.25000 639.446
22.26000 636.706
22.27000 634.440
22.28000 631.454
22.29000 624.455
22.30000 616.834
22.31000 610.739
22.32000 612.250
22.33000 614.037
22.34000 615.727
22.35000 617.177
22.36000 618.617
22.37000 615.726
22.38000 605.598
22.39000 595.356
22.40000 589.985
22.41000 578.715
22.42000 571.148
22.43000 573.808
22.44000 583.762
22.45000 593.444
22.46000 594.417
22.47000 591.219
22.48000 588.182
22.49000 583.613
22.50000 578.937
22.51000 574.097
22.52000 567.947
22.53000 561.513
22.54000 555.248
22.55000 549.831
22.56000 544.531
22.57000 540.386
22.58000 548.711
22.59000 556.150
22.60000 559.846
22.61000 555.119
22.62000 550.073
22.63000 544.112
22.64000 536.763
22.65000 529.399
22.66000 530.120
22.67000 538.840
22.68000 547.415
22.69000 543.162
22.70000 530.615
22.71000 518.325
22.72000 512.548
22.73000 509.613
22.74000 506.853
22.75000 506.898
22.76000 507.696
22.77000 508.565
22.78000 509.939
22.79000 511.411
22.80000 513.255
22.81000 516.777
22.82000 520.505
22.83000 523.352
22.84000 515.785
22.85000 509.261
22.86000 508.388
22.87000 519.105
22.88000 530.167
22.89000 534.128
22.90000 528.319
22.91000 522.453
22.92000 516.582
22.93000 510.713
22.94000 504.952
22.95000 505.653
22.96000 510.150
22.97000 514.600
22.98000 518.085
22.99000 521.187
23.00000 524.073
23.01000 522.806
23.02000 520.654
23.03000 518.270
23.04000 514.420
23.05000 510.313
23.06000 507.406
23.07000 509.420
23.08000 511.963
23.09000 513.856
23.10000 511.642
23.11000 509.735
23.12000 507.531
23.13000 504.774
23.14000 502.004
23.15000 501.789
23.16000 504.751
23.17000 507.717
23.18000 506.258
23.19000 501.272
23.20000 496.405
23.21000 496.730
23.22000 499.827
23.23000 502.879
23.24000 505.151
23.25000 507.141
23.26000 508.972
23.27000 507.231
23.28000 504.897
23.29000 503.608
23.30000 508.241
23.31000 513.806
23.32000 516.822
23.33000 510.364
23.34000 503.014
23.35000 497.690
23.36000 506.155
23.37000 513.164
23.38000 514.957
23.39000 507.894
23.40000 500.684
23.41000 496.886
23.42000 496.913
23.43000 496.944
23.44000 498.859
23.45000 502.112
23.46000 505.045
23.47000 497.355
23.48000 484.500
23.49000 472.333
23.50000 470.220
23.51000 471.423
23.52000 472.515
23.53000 482.298
23.54000 492.635
23.55000 500.322
23.56000 494.491
23.57000 486.761
23.58000 481.905
23.59000 486.754
23.60000 492.396
23.61000 496.365
23.62000 492.877
23.63000 490.013
23.64000 488.055
23.65000 487.495
23.66000 486.951
23.67000 492.215
23.68000 503.330
23.69000 514.375
23.70000 513.422
23.71000 504.714
23.72000 496.090
23.73000 489.705
23.74000 484.311
23.75000 479.604
23.76000 483.476
23.77000 489.920
23.78000 495.697
23.79000 497.637
23.80000 498.665
23.81000 500.489
23.82000 505.971
23.83000 511.910
23.84000 512.425
23.85000 496.291
23.86000 478.990
23.87000 467.189
23.88000 474.061
23.89000 479.632
23.90000 485.606
23.91000 492.143
23.92000 498.679
23.93000 498.585
23.94000 492.496
23.95000 486.465
23.96000 482.553
23.97000 479.960
23.98000 477.270
23.99000 472.514
24.00000 466.925
24.01000 462.167
24.02000 466.396
24.03000 473.076
24.04000 478.978
24.05000 485.565
24.06000 491.360
24.07000 495.917
24.08000 495.316
24.09000 494.148
24.10000 492.784
24.11000 490.872
24.12000 488.929
24.13000 487.646
24.14000 493.078
24.15000 497.201
24.16000 497.023
24.17000 491.406
24.18000 485.776
24.19000 482.514
24.20000 481.180
24.21000 479.864
24.22000 479.082
24.23000 478.603
24.24000 478.188
24.25000 478.893
24.26000 480.011
24.27000 481.662
24.28000 488.359
24.29000 496.303
24.30000 503.215
24.31000 490.529
24.32000 477.020
24.33000 467.105
24.34000 470.759
24.35000 475.719
24.36000 481.938
24.37000 491.360
24.38000 500.941
24.39000 507.042
24.40000 497.933
24.41000 491.119
24.42000 486.731
24.43000 485.109
24.44000 483.500
24.45000 483.538
24.46000 484.789
24.47000 486.017
24.48000 485.061
24.49000 483.102
24.50000 481.093
24.51000 478.358
24.52000 475.379
24.53000 472.767
24.54000 473.207
24.55000 474.331
24.56000 475.292
24.57000 474.570
24.58000 473.758
24.59000 471.937
24.60000 466.658
24.61000 461.091
24.62000 459.587
24.63000 467.508
24.64000 475.811
24.65000 480.901
24.66000 482.520
24.67000 483.650
24.68000 482.343
24.69000 478.537
24.70000 474.747
24.71000 472.515
24.72000 471.323
24.73000 470.161
24.74000 470.021
24.75000 470.327
24.76000 471.003
24.77000 476.417
24.78000 483.274
24.79000 488.672
24.80000 483.319
24.81000 475.795
24.82000 469.470
24.83000 474.301
24.84000 479.510
24.85000 482.835
24.86000 480.286
24.87000 477.315
24.88000 477.107
24.89000 482.740
24.90000 488.561
24.91000 491.988
24.92000 486.736
24.93000 482.985
24.94000 479.743
24.95000 476.966
24.96000 474.229
24.97000 474.077
24.98000 475.491
24.99000 476.861
25.00000 486.051
25.01000 497.780
25.02000 507.737
25.03000 498.085
25.04000 483.006
25.05000 469.728
25.06000 468.279
25.07000 468.981
25.08000 469.560
25.09000 461.947
25.10000 454.922
25.11000 451.693
25.12000 459.241
25.13000 467.446
25.14000 473.082
25.15000 473.776
25.16000 474.346
25.17000 474.668
25.18000 473.053
25.19000 471.924
25.20000 469.726
25.21000 466.642
25.22000 463.608
25.23000 463.028
25.24000 463.799
25.25000 464.541
25.26000 461.514
25.27000 457.358
25.28000 453.722
25.29000 455.096
25.30000 457.728
25.31000 459.675
25.32000 457.593
25.33000 454.853
25.34000 452.639
25.35000 450.327
25.36000 448.440
25.37000 447.958
25.38000 451.109
25.39000 454.446
25.40000 455.134
25.41000 451.186
25.42000 447.152
25.43000 444.984
25.44000 458.174
25.45000 467.162
25.46000 468.927
25.47000 465.285
25.48000 461.637
25.49000 457.765
25.50000 453.781
25.51000 449.982
25.52000 456.669
25.53000 466.181
25.54000 474.940
25.55000 477.308
25.56000 478.223
25.57000 477.452
25.58000 467.788
25.59000 456.826
25.60000 448.158
25.61000 444.450
25.62000 441.814
25.63000 440.592
25.64000 442.702
25.65000 444.951
25.66000 450.840
25.67000 462.520
25.68000 474.274
25.69000 480.276
25.70000 475.211
25.71000 471.813
25.72000 468.852
25.73000 466.187
25.74000 463.598
25.75000 463.167
25.76000 463.722
25.77000 464.245
25.78000 460.217
25.79000 455.226
25.80000 451.292
25.81000 455.308
25.82000 460.956
25.83000 465.653
25.84000 465.827
25.85000 465.415
25.86000 465.097
25.87000 455.908
25.88000 448.101
25.89000 445.466
25.90000 453.928
25.91000 462.762
25.92000 466.207
25.93000 461.876
25.94000 457.482
25.95000 455.039
25.96000 454.423
25.97000 453.780
25.98000 451.204
25.99000 447.440
26.00000 443.688
26.01000 440.227
26.02000 436.887
26.03000 433.763
26.04000 433.899
26.05000 434.854
26.06000 436.487
26.07000 442.650
26.08000 449.652
26.09000 454.377
26.10000 449.312
26.11000 443.126
26.12000 438.462
26.13000 446.955
26.14000 454.251
26.15000 458.627
26.16000 457.301
26.17000 455.826
26.18000 456.397
26.19000 459.641
26.20000 462.893
26.21000 460.292
26.22000 452.779
26.23000 445.469
26.24000 448.432
26.25000 457.140
26.26000 464.981
26.27000 456.525
26.28000 441.893
26.29000 428.355
26.30000 437.660
26.31000 451.258
26.32000 462.380
26.33000 458.690
26.34000 452.539
26.35000 447.473
26.36000 446.630
26.37000 446.211
26.38000 445.904
26.39000 452.542
26.40000 457.955
26.41000 458.881
26.42000 451.831
26.43000 444.625
26.44000 439.589
26.45000 437.112
26.46000 434.646
26.47000 436.675
26.48000 442.089
26.49000 447.404
26.50000 448.971
26.51000 448.630
26.52000 448.442
26.53000 450.675
26.54000 453.745
26.55000 456.550
26.56000 455.997
26.57000 454.814
26.58000 453.115
26.59000 448.640
26.60000 443.753
26.61000 440.828
26.62000 444.842
26.63000 449.465
26.64000 452.764
26.65000 440.371
26.66000 430.399
26.67000 426.157
26.68000 431.172
26.69000 436.313
26.70000 441.238
26.71000 445.936
26.72000 450.610
26.73000 450.085
26.74000 446.026
26.75000 441.948
26.76000 437.345
26.77000 432.499
26.78000 428.021
26.79000 428.512
26.80000 430.563
26.81000 432.414
26.82000 431.911
26.83000 431.036
26.84000 430.736
26.85000 433.216
26.86000 436.063
26.87000 439.084
26.88000 442.664
26.89000 446.285
26.90000 448.793
26.91000 439.216
26.92000 431.691
26.93000 428.225
26.94000 430.710
26.95000 433.247
26.96000 434.647
26.97000 434.963
26.98000 435.277
26.99000 431.540
27.00000 425.381
27.01000 419.549
27.02000 421.413
27.03000 426.528
27.04000 431.369
27.05000 433.049
27.06000 433.827
27.07000 434.519
27.08000 439.468
27.09000 444.462
27.10000 448.575
27.11000 448.838
27.12000 448.652
27.13000 446.559
27.14000 438.893
27.15000 430.867
27.16000 425.483
27.17000 430.598
27.18000 434.606
27.19000 437.022
27.20000 437.322
27.21000 437.610
27.22000 436.629
27.23000 434.561
27.24000 432.517
27.25000 428.216
27.26000 422.770
27.27000 417.629
27.28000 418.383
27.29000 421.406
27.30000 424.243
27.31000 425.213
27.32000 425.699
27.33000 426.126
27.34000 425.344
27.35000 424.498
27.36000 423.845
27.37000 423.955
27.38000 424.144
27.39000 425.306
27.40000 429.062
27.41000 432.959
27.42000 435.484
27.43000 437.235
27.44000 438.504
27.45000 434.206
27.46000 423.228
27.47000 412.274
27.48000 410.873
27.49000 416.857
27.50000 422.743
27.51000 425.208
27.52000 425.883
27.53000 426.486
27.54000 425.925
27.55000 424.958
27.56000 424.147
27.57000 424.725
27.58000 425.629
27.59000 426.409
27.60000 431.282
27.61000 435.942
27.62000 438.142
27.63000 431.510
27.64000 424.086
27.65000 420.043
27.66000 424.207
27.67000 428.739
27.68000 431.570
27.69000 430.265
27.70000 429.281
27.71000 427.581
27.72000 425.111
27.73000 422.610
27.74000 416.245
27.75000 407.176
27.76000 398.304
27.77000 399.527
27.78000 405.257
27.79000 410.921
27.80000 415.664
27.81000 420.112
27.82000 424.699
27.83000 430.360
27.84000 436.248
27.85000 441.242
27.86000 430.671
27.87000 420.050
27.88000 411.650
27.89000 410.496
27.90000 409.903
27.91000 409.223
27.92000 408.353
27.93000 407.475
27.94000 406.948
27.95000 415.647
27.96000 421.893
27.97000 424.012
27.98000 422.134
27.99000 420.292
28.00000 421.342
28.01000 424.228
28.02000 427.034
28.03000 428.400
28.04000 429.112
28.05000 429.118
28.06000 420.768
28.07000 409.995
28.08000 401.872
28.09000 412.140
28.10000 425.929
28.11000 437.409
28.12000 435.509
28.13000 432.612
28.14000 428.623
28.15000 421.391
28.16000 413.944
28.17000 411.748
28.18000 420.129
28.19000 428.809
28.20000 433.807
28.21000 424.891
28.22000 418.604
28.23000 416.880
28.24000 419.131
28.25000 421.290
28.26000 418.234
28.27000 412.169
28.28000 406.315
28.29000 404.767
28.30000 404.894
28.31000 404.906
28.32000 403.742
28.33000 402.268
28.34000 401.348
28.35000 403.861
28.36000 406.965
28.37000 409.499
28.38000 410.068
28.39000 410.365
28.40000 413.723
28.41000 425.357
28.42000 437.453
28.43000 441.378
28.44000 430.328
28.45000 418.956
28.46000 412.700
28.47000 420.306
28.48000 425.543
28.49000 424.118
28.50000 417.456
28.51000 410.828
28.52000 405.635
28.53000 401.195
28.54000 396.943
28.55000 399.461
28.56000 404.056
28.57000 408.998
28.58000 417.077
28.59000 425.905
28.60000 432.370
28.61000 425.706
28.62000 417.020
28.63000 410.076
28.64000 415.506
28.65000 420.810
28.66000 422.230
28.67000 414.080
28.68000 405.488
28.69000 400.978
28.70000 403.269
28.71000 405.664
28.72000 406.919
28.73000 398.033
28.74000 392.055
28.75000 392.138
28.76000 396.529
28.77000 400.711
28.78000 398.232
28.79000 392.572
28.80000 387.199
28.81000 395.835
28.82000 407.992
28.83000 419.171
28.84000 422.567
28.85000 424.282
28.86000 424.869
28.87000 419.814
28.88000 413.985
28.89000 409.428
28.90000 401.946
28.91000 395.790
28.92000 392.182
28.93000 394.294
28.94000 396.620
28.95000 398.513
28.96000 399.750
28.97000 400.980
28.98000 398.449
28.99000 392.209
29.00000 386.082
29.01000 389.788
29.02000 399.834
29.03000 409.471
29.04000 408.777
29.05000 403.588
29.06000 398.709
29.07000 396.307
29.08000 394.780
29.09000 394.464
29.10000 402.710
29.11000 412.624
29.12000 419.792
29.13000 414.562
29.14000 407.822
29.15000 402.680
29.16000 400.776
29.17000 399.450
29.18000 398.753
29.19000 399.344
29.20000 399.974
29.21000 402.270
29.22000 406.852
29.23000 411.446
29.24000 409.252
29.25000 401.053
29.26000 393.015
29.27000 394.536
29.28000 401.657
29.29000 408.404
29.30000 407.467
29.31000 403.483
29.32000 399.777
29.33000 402.077
29.34000 405.606
29.35000 409.935
29.36000 419.317
29.37000 429.583
29.38000 435.742
29.39000 425.120
29.40000 412.698
29.41000 403.459
29.42000 401.608
29.43000 400.497
29.44000 399.938
29.45000 400.402
29.46000 400.890
29.47000 401.959
29.48000 403.750
29.49000 405.540
29.50000 408.404
29.51000 412.111
29.52000 415.623
29.53000 410.781
29.54000 401.487
29.55000 392.937
29.56000 397.148
29.57000 405.968
29.58000 414.079
29.59000 419.873
29.60000 424.547
29.61000 428.594
29.62000 429.095
29.63000 429.039
29.64000 426.535
29.65000 414.962
29.66000 402.539
29.67000 393.548
29.68000 396.920
29.69000 399.962
29.70000 401.256
29.71000 399.591
29.72000 397.878
29.73000 395.278
29.74000 391.687
29.75000 388.109
29.76000 389.433
29.77000 394.256
29.78000 398.959
29.79000 399.721
29.80000 398.572
29.81000 397.485
29.82000 397.312
29.83000 397.439
29.84000 397.553
29.85000 395.788
29.86000 393.863
29.87000 393.689
29.88000 402.416
29.89000 412.389
29.90000 418.554
29.91000 411.903
29.92000 404.210
29.93000 398.802
29.94000 394.180
29.95000 390.703
29.96000 391.358
29.97000 398.366
29.98000 405.444
29.99000 406.060
30.00000 400.190
30.01000 394.358
30.02000 391.391
30.03000 390.318
30.04000 389.380
30.05000 391.989
30.06000 396.164
30.07000 400.393
30.08000 405.276
30.09000 410.355
30.10000 414.908
30.11000 417.457
30.12000 419.338
30.13000 420.018
30.14000 415.183
30.15000 409.665
30.16000 408.067
30.17000 418.476
30.18000 429.722
30.19000 437.386
30.20000 413.532
30.21000 394.981
30.22000 388.187
30.23000 397.781
30.24000 407.477
30.25000 408.296
30.26000 401.113
30.27000 394.001
30.28000 390.438
30.29000 389.017
30.30000 387.876
30.31000 392.691
30.32000 399.904
30.33000 406.931
30.34000 411.949
30.35000 416.421
30.36000 420.371
30.37000 418.456
30.38000 415.900
30.39000 413.043
30.40000 408.937
30.41000 404.695
30.42000 399.823
30.43000 393.195
30.44000 386.465
30.45000 382.027
30.46000 400.242
30.47000 414.059
30.48000 418.601
30.49000 411.451
30.50000 404.263
30.51000 397.474
30.52000 391.009
30.53000 384.635
30.54000 383.607
30.55000 385.419
30.56000 387.491
30.57000 394.176
30.58000 402.551
30.59000 410.187
30.60000 410.859
30.61000 409.816
30.62000 408.908
30.63000 406.297
30.64000 403.836
30.65000 402.735
30.66000 406.751
30.67000 411.257
30.68000 416.068
30.69000 421.651
30.70000 427.272
30.71000 430.848
30.72000 421.623
30.73000 414.761
30.74000 411.050
30.75000 410.920
30.76000 410.789
30.77000 409.805
30.78000 408.193
30.79000 406.613
30.80000 408.576
30.81000 412.148
30.82000 415.751
30.83000 419.819
30.84000 424.041
30.85000 427.813
30.86000 427.854
30.87000 427.064
30.88000 426.387
30.89000 429.152
30.90000 431.896
30.91000 433.565
30.92000 431.556
30.93000 429.241
30.94000 430.852
30.95000 441.543
30.96000 452.600
30.97000 459.371
30.98000 459.903
30.99000 460.231
31.00000 469.554
31.01000 488.067
31.02000 506.511
31.03000 517.903
31.04000 524.604
31.05000 531.138
31.06000 542.040
31.07000 554.321
31.08000 566.660
31.09000 579.729
31.10000 593.021
31.11000 607.074
31.12000 626.714
31.13000 647.480
31.14000 664.926
31.15000 687.775
31.16000 707.381
31.17000 732.016
31.18000 772.285
31.19000 813.673
31.20000 850.259
31.21000 876.727
31.22000 902.871
31.23000 918.241
31.24000 982.982
31.25000 1028.888
31.26000 1075.813
31.27000 1123.672
31.28000 1171.502
31.29000 1217.423
31.30000 1262.190
31.31000 1305.555
31.32000 1331.629
31.33000 1349.613
31.34000 1367.308
31.35000 1381.821
31.36000 1395.455
31.37000 1409.594
31.38000 1427.038
31.39000 1445.080
31.40000 1459.952
31.41000 1466.103
31.42000 1470.363
31.43000 1467.338
31.44000 1443.700
31.45000 1418.809
31.46000 1392.906
31.47000 1365.060
31.48000 1337.166
31.49000 1321.472
31.50000 1286.373
31.51000 1261.924
31.52000 1221.857
31.53000 1168.891
31.54000 1116.290
31.55000 1081.055
31.56000 1055.358
31.57000 1030.653
31.58000 992.086
31.59000 951.117
31.60000 910.436
31.61000 872.518
31.62000 835.292
31.63000 797.959
31.64000 760.001
31.65000 721.941
31.66000 691.202
31.67000 661.546
31.68000 637.522
31.69000 616.595
31.70000 603.645
31.71000 591.101
31.72000 578.032
31.73000 564.047
31.74000 550.046
31.75000 542.534
31.76000 519.297
31.77000 503.469
31.78000 497.519
31.79000 498.940
31.80000 500.131
31.81000 493.099
31.82000 481.957
31.83000 471.334
31.84000 472.809
31.85000 477.981
31.86000 481.516
31.87000 471.210
31.88000 457.768
31.89000 446.918
31.90000 449.712
31.91000 454.487
31.92000 458.262
31.93000 443.218
31.94000 429.852
31.95000 422.587
31.96000 429.647
31.97000 437.303
31.98000 443.682
31.99000 448.034
32.00000 452.360
32.01000 454.566
32.02000 429.372
32.03000 412.544
32.04000 404.247
32.05000 401.718
32.06000 399.230
32.07000 397.924
32.08000 397.156
32.09000 396.430
32.10000 398.223
32.11000 400.582
32.12000 401.704
32.13000 393.564
32.14000 383.526
32.15000 375.289
32.16000 375.587
32.17000 376.989
32.18000 378.071
32.19000 376.570
32.20000 375.230
32.21000 374.747
32.22000 376.098
32.23000 377.509
32.24000 381.024
32.25000 387.566
32.26000 394.132
32.27000 394.661
32.28000 389.562
32.29000 384.618
32.30000 390.589
32.31000 403.257
32.32000 415.176
32.33000 410.121
32.34000 398.025
32.35000 386.714
32.36000 385.713
32.37000 387.429
32.38000 388.773
32.39000 387.632
32.40000 386.033
32.41000 384.557
32.42000 383.612
32.43000 382.727
32.44000 382.060
32.45000 378.390
32.46000 375.370
32.47000 371.428
32.48000 365.689
32.49000 359.903
32.50000 360.096
32.51000 368.077
32.52000 376.082
32.53000 379.740
32.54000 379.747
32.55000 379.858
32.56000 385.232
32.57000 393.541
32.58000 401.000
32.59000 392.571
32.60000 378.138
32.61000 364.788
32.62000 360.630
32.63000 358.995
32.64000 357.981
32.65000 360.671
32.66000 363.974
32.67000 366.738
32.68000 367.404
32.69000 367.861
32.70000 368.196
32.71000 369.609
32.72000 370.745
32.73000 367.878
32.74000 357.919
32.75000 347.823
32.76000 346.745
32.77000 356.274
32.78000 365.795
32.79000 370.331
32.80000 371.081
32.81000 371.807
32.82000 371.578
32.83000 370.866
32.84000 370.642
32.85000 378.084
32.86000 388.165
32.87000 397.378
32.88000 388.642
32.89000 377.208
32.90000 368.690
32.91000 375.779
32.92000 385.177
32.93000 391.672
32.94000 387.931
32.95000 383.297
32.96000 379.993
32.97000 377.743
32.98000 376.062
32.99000 378.209
33.00000 386.523
33.01000 394.919
33.02000 394.966
33.03000 386.177
33.04000 377.431
33.05000 370.312
33.06000 364.381
33.07000 358.454
33.08000 352.652
33.09000 346.907
33.10000 341.598
33.11000 342.126
33.12000 344.481
33.13000 346.606
33.14000 350.619
33.15000 354.489
33.16000 357.348
33.17000 355.331
33.18000 352.673
33.19000 350.518
33.20000 349.978
33.21000 349.559
33.22000 349.269
33.23000 347.485
33.24000 346.104
33.25000 346.541
33.26000 349.634
33.27000 352.750
33.28000 355.153
33.29000 356.879
33.30000 358.591
33.31000 351.968
33.32000 340.364
33.33000 329.070
33.34000 325.065
33.35000 324.129
33.36000 323.596
33.37000 327.711
33.38000 333.149
33.39000 337.987
33.40000 343.034
33.41000 347.450
33.42000 349.689
33.43000 342.438
33.44000 334.082
33.45000 327.127
33.46000 324.258
33.47000 321.652
33.48000 319.905
33.49000 333.081
33.50000 343.157
33.51000 345.767
33.52000 338.494
33.53000 331.182
33.54000 328.738
33.55000 330.452
33.56000 332.145
33.57000 336.763
33.58000 342.880
33.59000 348.596
33.60000 346.573
33.61000 341.581
33.62000 336.835
33.63000 334.566
33.64000 332.937
33.65000 331.510
33.66000 335.967
33.67000 340.643
33.68000 343.617
33.69000 339.877
33.70000 335.449
33.71000 332.145
33.72000 331.825
33.73000 331.666
33.74000 331.563
33.75000 320.608
33.76000 312.432
33.77000 310.687
33.78000 316.629
33.79000 322.570
33.80000 324.637
33.81000 323.716
33.82000 322.810
33.83000 324.859
33.84000 328.314
33.85000 331.591
33.86000 332.005
33.87000 331.419
33.88000 330.393
33.89000 325.495
33.90000 319.690
33.91000 314.684
33.92000 314.717
33.93000 315.390
33.94000 318.619
33.95000 331.007
33.96000 344.212
33.97000 351.646
33.98000 345.114
33.99000 337.962
34.00000 333.498
34.01000 327.937
34.02000 323.915
34.03000 324.489
34.04000 330.009
34.05000 335.496
34.06000 336.424
34.07000 334.171
34.08000 331.967
34.09000 327.948
34.10000 323.275
34.11000 318.846
34.12000 317.764
34.13000 317.747
34.14000 317.867
34.15000 319.057
34.16000 320.474
34.17000 321.675
34.18000 323.260
34.19000 324.632
34.20000 325.632
34.21000 325.425
34.22000 325.124
34.23000 325.810
34.24000 328.672
34.25000 331.613
34.26000 333.376
34.27000 337.759
34.28000 340.890
34.29000 339.549
34.30000 333.888
34.31000 328.253
34.32000 324.661
34.33000 322.361
34.34000 320.126
34.35000 319.034
34.36000 318.460
34.37000 317.806
34.38000 316.202
34.39000 314.323
34.40000 312.263
34.41000 308.945
34.42000 305.387
34.43000 302.426
34.44000 303.941
34.45000 305.635
34.46000 309.020
34.47000 317.410
34.48000 326.130
34.49000 329.385
34.50000 321.668
34.51000 313.642
34.52000 309.027
34.53000 302.896
34.54000 298.611
34.55000 301.612
34.56000 310.942
34.57000 320.140
34.58000 322.060
34.59000 319.793
34.60000 317.606
34.61000 317.770
34.62000 318.785
34.63000 319.791
34.64000 320.703
34.65000 321.590
34.66000 322.433
34.67000 323.001
34.68000 323.521
34.69000 323.946
34.70000 320.848
34.71000 318.013
34.72000 315.355
34.73000 313.174
34.74000 311.019
34.75000 310.765
34.76000 313.985
34.77000 317.278
34.78000 319.087
34.79000 311.199
34.80000 305.761
34.81000 302.336
34.82000 300.488
34.83000 298.725
34.84000 300.415
34.85000 303.912
34.86000 307.259
34.87000 308.313
34.88000 308.536
34.89000 308.897
34.90000 310.495
34.91000 312.388
34.92000 313.834
34.93000 312.801
34.94000 311.389
34.95000 310.260
34.96000 312.690
34.97000 314.915
34.98000 315.102
34.99000 310.283
35.00000 305.234
35.01000 304.862
35.02000 312.261
35.03000 319.779
35.04000 323.710
35.05000 312.063
35.06000 304.214
35.07000 301.743
35.08000 303.085
35.09000 304.500
35.10000 308.228
35.11000 313.059
35.12000 317.643
35.13000 314.422
35.14000 309.126
35.15000 303.610
35.16000 296.348
35.17000 288.710
35.18000 284.460
35.19000 297.100
35.20000 312.051
35.21000 323.728
35.22000 320.584
35.23000 317.142
35.24000 314.269
35.25000 312.672
35.26000 311.121
35.27000 310.946
35.28000 312.847
35.29000 314.769
35.30000 312.818
35.31000 307.060
35.32000 301.387
35.33000 303.068
35.34000 309.476
35.35000 315.682
35.36000 316.846
35.37000 315.822
35.38000 314.859
35.39000 312.264
35.40000 309.458
35.41000 307.188
35.42000 308.697
35.43000 310.940
35.44000 312.765
35.45000 312.714
35.46000 312.435
35.47000 312.222
35.48000 315.492
35.49000 318.254
35.50000 317.841
35.51000 310.958
35.52000 303.884
35.53000 299.478
35.54000 298.719
35.55000 297.982
35.56000 300.971
35.57000 307.241
35.58000 313.434
35.59000 315.065
35.60000 314.032
35.61000 312.916
35.62000 310.110
35.63000 306.635
35.64000 303.403
35.65000 303.897
35.66000 305.240
35.67000 306.708
35.68000 308.962
35.69000 311.353
35.70000 311.771
35.71000 304.148
35.72000 295.667
35.73000 289.364
35.74000 293.871
35.75000 297.856
35.76000 301.807
35.77000 305.698
35.78000 309.588
35.79000 311.662
35.80000 311.491
35.81000 311.314
35.82000 309.546
35.83000 306.524
35.84000 303.563
35.85000 303.209
35.86000 304.239
35.87000 305.381
35.88000 308.424
35.89000 312.152
35.90000 315.579
35.91000 309.607
35.92000 302.245
35.93000 294.820
35.94000 287.044
35.95000 279.214
35.96000 276.050
35.97000 290.123
35.98000 305.807
35.99000 317.148
36.00000 320.416
36.01000 322.630
36.02000 321.381
36.03000 314.287
36.04000 307.099
36.05000 303.555
36.06000 304.072
36.07000 304.591
36.08000 302.005
36.09000 297.226
36.10000 292.579
36.11000 292.237
36.12000 293.976
36.13000 295.449
36.14000 293.066
36.15000 289.420
36.16000 286.109
36.17000 288.076
36.18000 290.833
36.19000 293.197
36.20000 293.570
36.21000 293.667
36.22000 295.171
36.23000 301.403
36.24000 308.017
36.25000 312.663
36.26000 305.236
36.27000 299.260
36.28000 298.007
36.29000 303.994
36.30000 310.060
36.31000 312.611
36.32000 311.645
36.33000 310.686
36.34000 305.757
36.35000 298.348
36.36000 291.335
36.37000 294.595
36.38000 302.381
36.39000 309.194
36.40000 303.978
36.41000 295.174
36.42000 287.288
36.43000 288.974
36.44000 292.095
36.45000 294.120
36.46000 291.127
36.47000 287.512
36.48000 287.427
36.49000 298.116
36.50000 309.551
36.51000 317.337
36.52000 309.272
36.53000 302.885
36.54000 297.702
36.55000 294.191
36.56000 290.693
36.57000 289.352
36.58000 289.951
36.59000 290.544
36.60000 285.174
36.61000 276.459
36.62000 268.289
36.63000 271.630
36.64000 279.591
36.65000 286.624
36.66000 283.717
36.67000 278.117
36.68000 273.173
36.69000 276.776
36.70000 281.197
36.71000 285.586
36.72000 289.846
36.73000 294.093
36.74000 296.053
36.75000 291.663
36.76000 286.900
36.77000 283.764
36.78000 282.691
36.79000 281.936
36.80000 283.739
36.81000 288.755
36.82000 293.778
36.83000 297.444
36.84000 300.013
36.85000 302.544
36.86000 301.074
36.87000 297.550
36.88000 294.140
36.89000 292.735
36.90000 292.062
36.91000 291.263
36.92000 289.282
36.93000 287.011
36.94000 285.037
36.95000 286.045
36.96000 287.309
36.97000 288.905
36.98000 291.747
36.99000 294.707
37.00000 296.223
37.01000 294.083
37.02000 291.764
37.03000 290.290
37.04000 285.403
37.05000 281.811
37.06000 281.028
37.07000 283.427
37.08000 285.840
37.09000 289.968
37.10000 295.353
37.11000 300.633
37.12000 299.535
37.13000 295.461
37.14000 291.850
37.15000 295.095
37.16000 300.623
37.17000 304.960
37.18000 299.460
37.19000 291.773
37.20000 285.202
37.21000 291.614
37.22000 298.574
37.23000 303.648
37.24000 302.296
37.25000 300.412
37.26000 297.797
37.27000 293.498
37.28000 289.132
37.29000 286.461
37.30000 287.799
37.31000 288.789
37.32000 290.280
37.33000 292.281
37.34000 294.280
37.35000 296.106
37.36000 297.819
37.37000 299.488
37.38000 300.136
37.39000 300.319
37.40000 300.155
37.41000 295.600
37.42000 289.716
37.43000 283.919
37.44000 278.759
37.45000 273.726
37.46000 269.500
37.47000 271.057
37.48000 272.962
37.49000 275.821
37.50000 281.639
37.51000 287.668
37.52000 288.885
37.53000 279.990
37.54000 270.773
37.55000 265.362
37.56000 274.288
37.57000 280.649
37.58000 281.972
37.59000 278.690
37.60000 275.505
37.61000 278.700
37.62000 285.738
37.63000 292.553
37.64000 288.897
37.65000 281.403
37.66000 275.105
37.67000 281.936
37.68000 292.378
37.69000 301.014
37.70000 297.871
37.71000 292.600
37.72000 288.257
37.73000 281.054
37.74000 274.866
37.75000 270.551
37.76000 271.518
37.77000 272.805
37.78000 275.737
37.79000 281.818
37.80000 287.977
37.81000 291.437
37.82000 300.348
37.83000 306.520
37.84000 302.271
37.85000 289.442
37.86000 276.827
37.87000 274.339
37.88000 277.397
37.89000 280.336
37.90000 277.321
37.91000 272.428
37.92000 268.213
37.93000 270.490
37.94000 274.389
37.95000 278.133
37.96000 280.983
37.97000 283.688
37.98000 285.871
37.99000 286.807
38.00000 287.468
38.01000 287.538
38.02000 286.087
38.03000 284.559
38.04000 283.422
38.05000 282.965
38.06000 282.521
38.07000 282.283
38.08000 286.238
38.09000 288.935
38.10000 290.543
38.11000 291.340
38.12000 292.120
38.13000 292.314
38.14000 292.216
38.15000 292.122
38.16000 289.736
38.17000 286.806
38.18000 284.532
38.19000 287.794
38.20000 292.307
38.21000 296.601
38.22000 299.744
38.23000 302.721
38.24000 305.071
38.25000 301.221
38.26000 297.708
38.27000 295.750
38.28000 297.434
38.29000 299.269
38.30000 301.808
38.31000 305.461
38.32000 309.129
38.33000 310.996
38.34000 308.454
38.35000 306.816
38.36000 312.442
38.37000 322.963
38.38000 333.234
38.39000 336.542
38.40000 336.689
38.41000 336.827
38.42000 345.936
38.43000 356.826
38.44000 368.011
38.45000 381.400
38.46000 395.237
38.47000 407.360
38.48000 411.372
38.49000 414.340
38.50000 416.630
38.51000 437.073
38.52000 454.324
38.53000 472.040
38.54000 490.747
38.55000 509.486
38.56000 525.810
38.57000 538.670
38.58000 551.500
38.59000 568.803
38.60000 590.253
38.61000 611.688
38.62000 632.046
38.63000 651.746
38.64000 671.335
38.65000 688.423
38.66000 704.478
38.67000 719.487
38.68000 737.274
38.69000 754.127
38.70000 770.037
38.71000 779.681
38.72000 788.173
38.73000 792.961
38.74000 781.912
38.75000 769.063
38.76000 759.392
38.77000 756.303
38.78000 754.205
38.79000 751.511
38.80000 747.661
38.81000 743.782
38.82000 732.012
38.83000 709.997
38.84000 687.962
38.85000 666.643
38.86000 645.982
38.87000 625.347
38.88000 605.994
38.89000 587.353
38.90000 569.104
38.91000 558.145
38.92000 549.933
38.93000 542.340
38.94000 518.285
38.95000 492.936
38.96000 469.127
38.97000 454.472
38.98000 441.327
38.99000 426.565
39.00000 405.535
39.01000 383.881
39.02000 368.009
39.03000 363.765
39.04000 360.955
39.05000 355.584
39.06000 345.687
39.07000 335.704
39.08000 329.859
39.09000 328.866
39.10000 327.882
39.11000 321.879
39.12000 312.145
39.13000 302.544
39.14000 297.872
39.15000 295.694
39.16000 293.664
39.17000 293.961
39.18000 295.056
39.19000 296.056
39.20000 292.971
39.21000 289.398
39.22000 286.457
39.23000 286.886
39.24000 287.812
39.25000 287.577
39.26000 283.256
39.27000 278.581
39.28000 275.249
39.29000 267.906
39.30000 262.178
39.31000 259.623
39.32000 262.165
39.33000 264.775
39.34000 270.816
39.35000 280.475
39.36000 290.086
39.37000 289.185
39.38000 281.182
39.39000 273.316
39.40000 269.421
39.41000 267.356
39.42000 265.912
39.43000 272.740
39.44000 282.151
39.45000 290.637
39.46000 283.989
39.47000 275.394
39.48000 267.766
39.49000 264.791
39.50000 262.426
39.51000 261.765
39.52000 266.551
39.53000 271.744
39.54000 275.335
39.55000 272.697
39.56000 270.552
39.57000 268.605
39.58000 266.947
39.59000 265.292
39.60000 264.522
39.61000 264.591
39.62000 264.659
39.63000 264.169
39.64000 263.348
39.65000 262.606
39.66000 263.724
39.67000 265.624
39.68000 266.916
39.69000 261.236
39.70000 253.577
39.71000 246.766
39.72000 255.578
39.73000 265.762
39.74000 274.102
39.75000 274.429
39.76000 273.827
39.77000 271.283
39.78000 263.090
39.79000 254.537
39.80000 248.811
39.81000 254.166
39.82000 258.357
39.83000 260.551
39.84000 260.109
39.85000 259.655
39.86000 259.161
39.87000 258.632
39.88000 258.109
39.89000 257.590
39.90000 257.085
39.91000 256.691
39.92000 258.411
39.93000 260.941
39.94000 262.892
39.95000 259.054
39.96000 253.725
39.97000 249.057
39.98000 247.921
39.99000 247.455
40.00000 247.992
40.01000 252.474
40.02000 257.358
40.03000 260.836
40.04000 260.590
40.05000 260.146
40.06000 259.858
40.07000 258.863
40.08000 258.125
40.09000 256.402
40.10000 253.502
40.11000 250.622
40.12000 252.684
40.13000 258.545
40.14000 264.307
40.15000 262.915
40.16000 258.015
40.17000 253.496
40.18000 255.105
40.19000 258.850
40.20000 261.499
40.21000 254.542
40.22000 245.342
40.23000 237.413
40.24000 241.619
40.25000 246.730
40.26000 251.765
40.27000 256.530
40.28000 261.271
40.29000 263.482
40.30000 259.585
40.31000 255.418
40.32000 252.821
40.33000 255.351
40.34000 257.226
40.35000 256.049
40.36000 251.597
40.37000 247.171
40.38000 246.246
40.39000 247.757
40.40000 249.235
40.41000 251.266
40.42000 253.461
40.43000 255.518
40.44000 255.679
40.45000 255.238
40.46000 254.580
40.47000 252.241
40.48000 249.547
40.49000 247.265
40.50000 252.788
40.51000 258.290
40.52000 258.284
40.53000 240.407
40.54000 221.158
40.55000 211.424
40.56000 222.605
40.57000 234.532
40.58000 241.678
40.59000 243.774
40.60000 245.230
40.61000 248.720
40.62000 254.171
40.63000 259.500
40.64000 255.273
40.65000 245.014
40.66000 235.046
40.67000 237.893
40.68000 245.790
40.69000 252.839
40.70000 249.929
40.71000 244.149
40.72000 239.453
40.73000 242.234
40.74000 246.438
40.75000 249.934
40.76000 247.715
40.77000 245.320
40.78000 245.715
40.79000 254.352
40.80000 263.529
40.81000 266.612
40.82000 257.492
40.83000 248.032
40.84000 242.599
40.85000 243.359
40.86000 243.911
40.87000 242.490
40.88000 239.361
40.89000 236.248
40.90000 233.977
40.91000 232.189
40.92000 230.463
40.93000 234.559
40.94000 240.542
40.95000 246.087
40.96000 247.161
40.97000 247.066
40.98000 246.916
40.99000 246.433
41.00000 245.892
41.01000 245.451
41.02000 247.921
41.03000 250.187
41.04000 250.824
41.05000 247.081
41.06000 243.095
41.07000 241.871
41.08000 245.678
41.09000 249.591
41.10000 251.738
41.11000 242.602
41.12000 236.314
41.13000 233.723
41.14000 234.021
41.15000 234.363
41.16000 236.491
41.17000 239.550
41.18000 242.478
41.19000 243.724
41.20000 244.330
41.21000 244.812
41.22000 244.184
41.23000 243.292
41.24000 242.065
41.25000 238.987
41.26000 235.625
41.27000 232.942
41.28000 235.440
41.29000 237.837
41.30000 239.615
41.31000 239.877
41.32000 240.070
41.33000 241.343
41.34000 244.405
41.35000 247.495
41.36000 249.108
41.37000 245.544
41.38000 243.130
41.39000 240.387
41.40000 237.411
41.41000 234.474
41.42000 232.754
41.43000 231.612
41.44000 230.528
41.45000 229.859
41.46000 229.365
41.47000 229.327
41.48000 232.892
41.49000 237.230
41.50000 240.532
41.51000 238.682
41.52000 236.130
41.53000 234.139
41.54000 236.994
41.55000 239.574
41.56000 242.383
41.57000 245.701
41.58000 249.039
41.59000 250.062
41.60000 247.604
41.61000 245.111
41.62000 243.265
41.63000 242.053
41.64000 240.841
41.65000 239.665
41.66000 238.512
41.67000 237.420
41.68000 237.856
41.69000 238.955
41.70000 239.987
41.71000 239.077
41.72000 237.728
41.73000 236.213
41.74000 233.526
41.75000 230.614
41.76000 228.854
41.77000 232.267
41.78000 236.305
41.79000 239.381
41.80000 242.056
41.81000 244.140
41.82000 245.327
41.83000 244.686
41.84000 243.993
41.85000 242.133
41.86000 238.684
41.87000 235.228
41.88000 235.652
41.89000 239.486
41.90000 243.258
41.91000 243.414
41.92000 241.465
41.93000 239.432
41.94000 235.689
41.95000 231.272
41.96000 227.166
41.97000 227.164
41.98000 228.148
41.99000 228.257
42.00000 222.883
42.01000 216.554
42.02000 211.891
42.03000 213.992
42.04000 216.813
42.05000 218.908
42.06000 223.654
42.07000 227.460
42.08000 228.817
42.09000 225.641
42.10000 222.365
42.11000 222.993
42.12000 228.434
42.13000 233.878
42.14000 234.268
42.15000 230.661
42.16000 227.170
42.17000 228.614
42.18000 232.671
42.19000 236.427
42.20000 235.089
42.21000 231.922
42.22000 229.011
42.23000 227.278
42.24000 225.983
42.25000 224.908
42.26000 225.060
42.27000 225.403
42.28000 226.964
42.29000 233.010
42.30000 239.474
42.31000 244.144
42.32000 236.697
42.33000 230.546
42.34000 227.692
42.35000 230.386
42.36000 233.169
42.37000 234.505
42.38000 234.236
42.39000 233.966
42.40000 233.443
42.41000 232.746
42.42000 232.083
42.43000 232.533
42.44000 233.520
42.45000 234.210
42.46000 230.621
42.47000 225.634
42.48000 221.107
42.49000 224.168
42.50000 228.332
42.51000 231.925
42.52000 232.638
42.53000 232.951
42.54000 233.153
42.55000 232.989
42.56000 232.795
42.57000 232.660
42.58000 230.990
42.59000 229.683
42.60000 227.304
42.61000 223.289
42.62000 219.257
42.63000 219.295
42.64000 223.394
42.65000 227.466
42.66000 232.023
42.67000 236.824
42.68000 241.305
42.69000 237.537
42.70000 230.146
42.71000 223.180
42.72000 221.466
42.73000 221.312
42.74000 221.175
42.75000 225.164
42.76000 229.355
42.77000 231.955
42.78000 227.297
42.79000 221.745
42.80000 217.521
42.81000 217.343
42.82000 217.444
42.83000 217.512
42.84000 218.753
42.85000 219.706
42.86000 219.644
42.87000 218.176
42.88000 216.701
42.89000 218.477
42.90000 223.165
42.91000 227.805
42.92000 226.713
42.93000 222.327
42.94000 218.148
42.95000 218.314
42.96000 220.218
42.97000 221.753
42.98000 219.335
42.99000 215.850
43.00000 212.774
43.01000 223.224
43.02000 234.306
43.03000 242.366
43.04000 237.957
43.05000 232.192
43.06000 229.359
43.07000 234.650
43.08000 240.417
43.09000 244.210
43.10000 231.054
43.11000 221.077
43.12000 216.576
43.13000 218.935
43.14000 221.315
43.15000 223.352
43.16000 225.112
43.17000 226.847
43.18000 226.684
43.19000 225.536
43.20000 224.176
43.21000 219.102
43.22000 212.674
43.23000 207.130
43.24000 209.835
43.25000 214.561
43.26000 218.668
43.27000 218.065
43.28000 216.913
43.29000 215.087
43.30000 210.738
43.31000 206.148
43.32000 205.672
43.33000 215.583
43.34000 225.999
43.35000 232.611
43.36000 227.908
43.37000 224.354
43.38000 222.490
43.39000 222.534
43.40000 222.573
43.41000 221.542
43.42000 219.731
43.43000 217.955
43.44000 218.670
43.45000 220.532
43.46000 222.296
43.47000 222.623
43.48000 222.473
43.49000 222.461
43.50000 223.588
43.51000 224.968
43.52000 226.147
43.53000 223.260
43.54000 220.342
43.55000 217.573
43.56000 215.312
43.57000 213.094
43.58000 211.951
43.59000 213.284
43.60000 214.715
43.61000 215.589
43.62000 217.434
43.63000 218.762
43.64000 219.883
43.65000 220.797
43.66000 221.683
43.67000 219.895
43.68000 216.340
43.69000 212.874
43.70000 213.137
43.71000 214.977
43.72000 216.604
43.73000 215.553
43.74000 213.694
43.75000 212.500
43.76000 216.156
43.77000 220.783
43.78000 224.666
43.79000 220.735
43.80000 216.645
43.81000 213.978
43.82000 215.712
43.83000 217.757
43.84000 219.130
43.85000 219.096
43.86000 219.017
43.87000 218.970
43.88000 214.730
43.89000 211.723
43.90000 211.741
43.91000 214.515
43.92000 217.257
43.93000 217.896
43.94000 217.271
43.95000 216.666
43.96000 214.085
43.97000 210.885
43.98000 208.316
43.99000 212.647
44.00000 218.870
44.01000 224.197
44.02000 223.698
44.03000 222.149
44.04000 220.875
44.05000 219.892
44.06000 219.111
44.07000 218.124
44.08000 216.561
44.09000 214.963
44.10000 213.539
44.11000 212.450
44.12000 211.369
44.13000 210.763
44.14000 227.293
44.15000 238.768
44.16000 237.904
44.17000 226.914
44.18000 216.187
44.19000 217.762
44.20000 226.055
44.21000 234.024
44.22000 228.877
44.23000 219.511
44.24000 211.309
44.25000 214.206
44.26000 219.864
44.27000 224.121
44.28000 220.224
44.29000 215.009
44.30000 210.802
44.31000 209.185
44.32000 208.075
44.33000 208.974
44.34000 215.019
44.35000 221.322
44.36000 223.713
44.37000 219.316
44.38000 214.798
44.39000 212.380
44.40000 212.402
44.41000 212.420
44.42000 212.744
44.43000 213.295
44.44000 213.861
44.45000 214.954
44.46000 216.309
44.47000 217.599
44.48000 218.316
44.49000 218.801
44.50000 219.637
44.51000 223.421
44.52000 227.870
44.53000 232.103
44.54000 235.207
44.55000 238.148
44.56000 240.468
44.57000 226.585
44.58000 214.348
44.59000 208.065
44.60000 215.682
44.61000 223.870
44.62000 228.300
44.63000 226.802
44.64000 225.231
44.65000 224.433
44.66000 226.632
44.67000 228.121
44.68000 231.201
44.69000 235.350
44.70000 239.255
44.71000 236.384
44.72000 230.446
44.73000 224.840
44.74000 224.779
44.75000 226.282
44.76000 227.892
44.77000 230.301
44.78000 232.872
44.79000 235.133
44.80000 235.929
44.81000 236.538
44.82000 237.007
44.83000 241.416
44.84000 245.137
44.85000 248.325
44.86000 250.381
44.87000 252.401
44.88000 252.249
44.89000 248.990
44.90000 245.707
44.91000 244.426
44.92000 244.998
44.93000 245.591
44.94000 247.534
44.95000 250.300
44.96000 253.341
44.97000 262.500
44.98000 274.182
44.99000 285.101
45.00000 283.943
45.01000 279.839
45.02000 276.274
45.03000 276.281
45.04000 276.942
45.05000 277.811
45.06000 279.562
45.07000 281.413
45.08000 282.805
45.09000 285.600
45.10000 287.854
45.11000 288.742
45.12000 286.986
45.13000 285.163
45.14000 285.989
45.15000 290.244
45.16000 294.508
45.17000 298.957
45.18000 303.546
45.19000 307.961
45.20000 303.859
45.21000 295.035
45.22000 286.474
45.23000 282.778
45.24000 280.911
45.25000 279.185
45.26000 276.445
45.27000 273.755
45.28000 271.918
45.29000 275.132
45.30000 279.177
45.31000 282.266
45.32000 281.664
45.33000 280.696
45.34000 279.987
45.35000 272.185
45.36000 265.879
45.37000 262.147
45.38000 262.950
45.39000 263.839
45.40000 265.405
45.41000 267.762
45.42000 270.114
45.43000 268.129
45.44000 262.912
45.45000 257.885
45.46000 259.845
45.47000 265.331
45.48000 270.341
45.49000 267.955
45.50000 263.037
45.51000 258.546
45.52000 262.259
45.53000 267.222
45.54000 270.775
45.55000 266.829
45.56000 261.780
45.57000 257.247
45.58000 254.526
45.59000 251.961
45.60000 250.135
45.61000 247.736
45.62000 245.889
45.63000 242.560
45.64000 236.857
45.65000 231.122
45.66000 230.298
45.67000 234.638
45.68000 238.956
45.69000 243.475
45.70000 248.075
45.71000 252.442
45.72000 250.119
45.73000 244.721
45.74000 239.792
45.75000 241.065
45.76000 244.270
45.77000 247.160
45.78000 246.237
45.79000 244.735
45.80000 243.188
45.81000 241.427
45.82000 239.639
45.83000 238.539
45.84000 239.631
45.85000 240.887
45.86000 241.755
45.87000 236.725
45.88000 232.792
45.89000 229.492
45.90000 227.109
45.91000 224.734
45.92000 223.614
45.93000 223.679
45.94000 223.743
45.95000 224.400
45.96000 225.405
45.97000 226.441
45.98000 228.197
45.99000 230.254
46.00000 231.651
46.01000 225.506
46.02000 217.226
46.03000 209.866
46.04000 210.905
46.05000 213.165
46.06000 213.828
46.07000 207.576
46.08000 200.525
46.09000 196.547
46.10000 201.478
46.11000 206.975
46.12000 210.651
46.13000 206.453
46.14000 203.186
46.15000 204.358
46.16000 211.371
46.17000 218.398
46.18000 218.185
46.19000 211.828
46.20000 205.549
46.21000 207.270
46.22000 213.338
46.23000 218.963
46.24000 216.140
46.25000 210.096
46.26000 204.417
46.27000 202.385
46.28000 201.290
46.29000 200.331
46.30000 201.065
46.31000 201.937
46.32000 202.895
46.33000 204.187
46.34000 205.513
46.35000 206.157
46.36000 204.999
46.37000 203.744
46.38000 202.934
46.39000 209.482
46.40000 214.375
46.41000 216.028
46.42000 213.831
46.43000 211.625
46.44000 208.932
46.45000 205.867
46.46000 202.853
46.47000 197.339
46.48000 190.770
46.49000 184.728
46.50000 187.093
46.51000 192.380
46.52000 197.168
46.53000 197.601
46.54000 197.020
46.55000 196.519
46.56000 194.727
46.57000 193.046
46.58000 192.846
46.59000 197.926
46.60000 203.473
46.61000 207.119
46.62000 206.192
46.63000 205.065
46.64000 204.363
46.65000 204.569
46.66000 204.727
46.67000 203.669
46.68000 201.311
46.69000 198.972
46.70000 199.095
46.71000 200.927
46.72000 202.718
46.73000 201.712
46.74000 199.497
46.75000 197.565
46.76000 199.487
46.77000 202.627
46.78000 205.363
46.79000 204.986
46.80000 203.953
46.81000 203.079
46.82000 197.522
46.83000 192.346
46.84000 190.800
46.85000 201.002
46.86000 212.102
46.87000 216.767
46.88000 207.329
46.89000 197.390
46.90000 191.444
46.91000 194.628
46.92000 196.946
46.93000 196.838
46.94000 194.402
46.95000 192.006
46.96000 192.754
46.97000 195.480
46.98000 198.129
46.99000 200.707
47.00000 203.129
47.01000 204.962
47.02000 199.905
47.03000 192.868
47.04000 186.537
47.05000 185.053
47.06000 184.487
47.07000 184.017
47.08000 185.917
47.09000 187.720
47.10000 188.522
47.11000 186.374
47.12000 184.034
47.13000 183.077
47.14000 184.884
47.15000 186.767
47.16000 187.846
47.17000 187.141
47.18000 186.642
47.19000 186.974
47.20000 188.023
47.21000 189.004
47.22000 186.348
47.23000 181.611
47.24000 177.043
47.25000 178.381
47.26000 181.791
47.27000 184.983
47.28000 185.942
47.29000 186.320
47.30000 186.672
47.31000 186.870
47.32000 187.042
47.33000 187.182
47.34000 184.197
47.35000 181.492
47.36000 179.791
47.37000 180.781
47.38000 181.918
47.39000 182.530
47.40000 182.189
47.41000 181.828
47.42000 181.630
47.43000 184.176
47.44000 185.931
47.45000 187.916
47.46000 190.079
47.47000 192.118
47.48000 189.126
47.49000 183.518
47.50000 178.151
47.51000 180.886
47.52000 186.096
47.53000 190.495
47.54000 187.657
47.55000 183.108
47.56000 179.465
47.57000 180.812
47.58000 182.920
47.59000 184.601
47.60000 187.018
47.61000 189.022
47.62000 188.430
47.63000 181.496
47.64000 174.275
47.65000 171.299
47.66000 175.336
47.67000 179.477
47.68000 181.636
47.69000 184.027
47.70000 185.662
47.71000 189.848
47.72000 195.831
47.73000 201.461
47.74000 196.141
47.75000 185.634
47.76000 175.669
47.77000 178.489
47.78000 184.874
47.79000 190.509
47.80000 190.243
47.81000 188.714
47.82000 186.822
47.83000 183.130
47.84000 179.193
47.85000 176.123
47.86000 177.113
47.87000 178.155
47.88000 178.963
47.89000 179.248
47.90000 179.514
47.91000 182.004
47.92000 187.829
47.93000 193.688
47.94000 196.935
47.95000 197.633
47.96000 198.281
47.97000 194.798
47.98000 188.674
47.99000 182.755
48.00000 181.885
48.01000 183.194
48.02000 184.424
48.03000 181.695
48.04000 178.152
48.05000 175.374
48.06000 177.952
48.07000 181.564
48.08000 184.088
48.09000 181.746
48.10000 178.818
48.11000 176.590
48.12000 177.732
48.13000 178.809
48.14000 179.394
48.15000 178.985
48.16000 178.546
48.17000 180.276
48.18000 184.953
48.19000 189.643
48.20000 189.296
48.21000 184.535
48.22000 179.824
48.23000 177.955
48.24000 177.736
48.25000 177.586
48.26000 178.817
48.27000 180.591
48.28000 182.240
48.29000 184.650
48.30000 187.008
48.31000 188.583
48.32000 185.279
48.33000 181.128
48.34000 178.135
48.35000 179.834
48.36000 182.029
48.37000 183.658
48.38000 182.084
48.39000 180.721
48.40000 180.711
48.41000 183.198
48.42000 185.741
48.43000 186.643
48.44000 185.528
48.45000 184.411
48.46000 181.486
48.47000 177.152
48.48000 172.905
48.49000 172.310
48.50000 173.643
48.51000 174.996
48.52000 176.686
48.53000 178.497
48.54000 180.160
48.55000 183.472
48.56000 186.780
48.57000 189.033
48.58000 185.372
48.59000 180.793
48.60000 177.722
48.61000 180.196
48.62000 183.182
48.63000 185.339
48.64000 178.661
48.65000 173.223
48.66000 172.650
48.67000 180.238
48.68000 187.956
48.69000 189.735
48.70000 184.938
48.71000 180.156
48.72000 178.668
48.73000 179.530
48.74000 180.293
48.75000 177.845
48.76000 173.852
48.77000 170.213
48.78000 171.638
48.79000 174.714
48.80000 177.505
48.81000 183.671
48.82000 189.759
48.83000 193.653
48.84000 186.491
48.85000 177.798
48.86000 171.789
48.87000 174.735
48.88000 178.399
48.89000 180.968
48.90000 181.603
48.91000 182.028
48.92000 182.474
48.93000 182.953
48.94000 183.432
48.95000 180.472
48.96000 174.094
48.97000 167.759
48.98000 167.283
48.99000 170.561
49.00000 173.794
49.01000 175.876
49.02000 177.455
49.03000 178.985
49.04000 179.924
49.05000 180.688
49.06000 181.371
49.07000 175.539
49.08000 169.335
49.09000 164.263
49.10000 164.341
49.11000 165.051
49.12000 166.019
49.13000 167.768
49.14000 169.572
49.15000 170.797
49.16000 168.400
49.17000 166.529
49.18000 168.821
49.19000 176.863
49.20000 184.936
49.21000 188.562
49.22000 188.218
49.23000 187.877
49.24000 180.360
49.25000 168.868
49.26000 158.119
49.27000 162.884
49.28000 173.841
49.29000 183.871
49.30000 184.055
49.31000 181.586
49.32000 179.408
49.33000 177.785
49.34000 176.470
49.35000 175.703
49.36000 177.192
49.37000 178.926
49.38000 179.668
49.39000 177.671
49.40000 175.514
49.41000 174.097
49.42000 178.389
49.43000 181.645
49.44000 181.730
49.45000 177.854
49.46000 173.975
49.47000 172.699
49.48000 173.517
49.49000 174.324
49.50000 173.404
49.51000 171.611
49.52000 169.915
49.53000 169.884
49.54000 170.458
49.55000 171.154
49.56000 172.983
49.57000 175.088
49.58000 176.917
49.59000 180.463
49.60000 183.717
49.61000 185.409
49.62000 181.277
49.63000 176.594
49.64000 173.148
49.65000 172.816
49.66000 172.635
49.67000 172.521
49.68000 178.661
49.69000 183.193
49.70000 183.618
49.71000 179.418
49.72000 175.216
49.73000 171.278
49.74000 167.533
49.75000 163.860
49.76000 163.852
49.77000 165.565
49.78000 167.451
49.79000 171.867
49.80000 177.121
49.81000 181.980
49.82000 183.607
49.83000 184.520
49.84000 185.300
49.85000 182.478
49.86000 179.673
49.87000 176.445
49.88000 171.782
49.89000 167.001
49.90000 164.734
49.91000 168.231
49.92000 171.956
49.93000 174.229
49.94000 175.946
49.95000 177.169
49.96000 177.005
49.97000 175.436
49.98000 173.882
49.99000 173.757
50.00000 174.575
50.01000 175.373
50.02000 173.787
50.03000 171.263
50.04000 168.722
50.05000 165.977
50.06000 163.169
50.07000 161.223
50.08000 165.536
50.09000 171.098
50.10000 175.763
50.11000 171.682
50.12000 167.375
50.13000 164.430
50.14000 165.687
50.15000 167.239
50.16000 170.505
50.17000 177.352
50.18000 184.311
50.19000 188.386
50.20000 177.439
50.21000 169.662
50.22000 167.795
50.23000 171.297
50.24000 174.797
50.25000 178.166
50.26000 181.456
50.27000 184.642
50.28000 183.587
50.29000 180.965
50.30000 178.460
50.31000 177.216
50.32000 176.318
50.33000 175.425
50.34000 174.567
50.35000 173.715
50.36000 173.014
50.37000 175.196
50.38000 177.251
50.39000 179.110
50.40000 180.417
50.41000 181.691
50.42000 183.456
50.43000 186.157
50.44000 188.880
50.45000 190.406
50.46000 189.839
50.47000 189.445
50.48000 190.261
50.49000 192.068
50.50000 193.786
50.51000 191.402
50.52000 186.784
50.53000 182.347
50.54000 183.020
50.55000 185.415
50.56000 187.826
50.57000 190.387
50.58000 192.984
50.59000 195.023
50.60000 193.826
50.61000 192.107
50.62000 190.722
50.63000 193.755
50.64000 196.566
50.65000 198.561
50.66000 198.472
50.67000 198.279
50.68000 198.034
50.69000 197.697
50.70000 197.359
50.71000 197.178
50.72000 196.315
50.73000 195.755
50.74000 200.487
50.75000 209.131
50.76000 217.485
50.77000 215.627
50.78000 208.709
50.79000 202.118
50.80000 201.008
50.81000 201.686
50.82000 202.022
50.83000 199.495
50.84000 196.326
50.85000 194.779
50.86000 201.689
50.87000 209.815
50.88000 216.223
50.89000 207.866
50.90000 200.167
50.91000 194.527
50.92000 193.677
50.93000 193.023
50.94000 192.733
50.95000 193.014
50.96000 193.303
50.97000 193.449
50.98000 186.956
50.99000 182.642
51.00000 182.101
51.01000 184.088
51.02000 185.934
51.03000 183.876
51.04000 180.055
51.05000 176.450
51.06000 176.116
51.07000 176.727
51.08000 177.189
51.09000 176.544
51.10000 175.674
51.11000 175.755
51.12000 180.302
51.13000 185.420
51.14000 189.363
51.15000 186.668
51.16000 184.154
51.17000 181.068
51.18000 176.770
51.19000 172.432
51.20000 170.287
51.21000 171.269
51.22000 172.275
51.23000 174.062
51.24000 176.570
51.25000 179.012
51.26000 176.986
51.27000 172.242
51.28000 167.667
51.29000 166.841
51.30000 167.558
51.31000 168.227
51.32000 166.536
51.33000 164.406
51.34000 162.910
51.35000 165.589
51.36000 169.030
51.37000 171.006
51.38000 166.759
51.39000 161.809
51.40000 158.090
51.41000 164.669
51.42000 170.307
51.43000 173.506
51.44000 171.991
51.45000 170.358
51.46000 168.121
51.47000 165.107
51.48000 162.092
51.49000 162.315
51.50000 165.223
51.51000 168.072
51.52000 168.062
51.53000 166.471
51.54000 165.028
51.55000 166.306
51.56000 168.603
51.57000 170.725
51.58000 170.973
51.59000 170.772
51.60000 170.755
51.61000 171.827
51.62000 173.077
51.63000 173.161
51.64000 168.754
51.65000 163.902
51.66000 160.352
51.67000 158.082
51.68000 156.381
51.69000 156.009
51.70000 157.973
51.71000 159.981
51.72000 161.066
51.73000 161.076
51.74000 161.084
51.75000 162.888
51.76000 166.019
51.77000 169.026
51.78000 167.489
51.79000 163.666
51.80000 160.103
51.81000 160.564
51.82000 162.399
51.83000 164.075
51.84000 165.416
51.85000 166.538
51.86000 167.005
51.87000 164.000
51.88000 160.486
51.89000 158.282
51.90000 160.659
51.91000 163.429
51.92000 165.400
51.93000 165.992
51.94000 166.399
51.95000 165.919
51.96000 164.021
51.97000 162.105
51.98000 162.737
51.99000 166.040
52.00000 169.326
52.01000 167.071
52.02000 161.120
52.03000 155.384
52.04000 155.800
52.05000 159.036
52.06000 162.288
52.07000 165.747
52.08000 169.271
52.09000 172.447
52.10000 169.318
52.11000 165.433
52.12000 162.136
52.13000 161.652
52.14000 161.534
52.15000 160.832
52.16000 158.277
52.17000 155.584
52.18000 153.726
52.19000 152.079
52.20000 150.847
52.21000 151.743
52.22000 155.722
52.23000 159.727
52.24000 162.548
52.25000 164.254
52.26000 165.947
52.27000 165.317
52.28000 163.292
52.29000 161.373
52.30000 161.890
52.31000 163.425
52.32000 164.564
52.33000 161.201
52.34000 156.567
52.35000 152.450
52.36000 152.730
52.37000 153.681
52.38000 155.022
52.39000 158.046
52.40000 161.263
52.41000 162.426
52.42000 157.651
52.43000 152.501
52.44000 149.060
52.45000 153.001
52.46000 156.066
52.47000 157.270
52.48000 156.033
52.49000 154.786
52.50000 154.285
52.51000 154.414
52.52000 154.541
52.53000 150.390
52.54000 144.005
52.55000 138.168
52.56000 142.710
52.57000 151.202
52.58000 158.974
52.59000 159.619
52.60000 158.438
52.61000 157.405
52.62000 155.090
52.63000 152.922
52.64000 151.935
52.65000 155.571
52.66000 159.674
52.67000 162.443
52.68000 161.696
52.69000 160.764
52.70000 160.162
52.71000 153.750
52.72000 148.981
52.73000 147.961
52.74000 151.380
52.75000 154.783
52.76000 152.575
52.77000 146.081
52.78000 139.699
52.79000 142.835
52.80000 150.569
52.81000 158.117
52.82000 162.738
52.83000 166.343
52.84000 169.226
52.85000 165.812
52.86000 160.936
52.87000 156.738
52.88000 159.292
52.89000 162.309
52.90000 163.336
52.91000 157.301
52.92000 150.645
52.93000 147.437
52.94000 152.503
52.95000 157.930
52.96000 161.306
52.97000 159.246
52.98000 157.708
52.99000 154.715
53.00000 150.170
53.01000 145.652
53.02000 144.425
53.03000 145.474
53.04000 146.499
53.05000 150.267
53.06000 155.101
53.07000 159.678
53.08000 160.780
53.09000 160.786
53.10000 160.832
53.11000 161.197
53.12000 161.627
53.13000 161.991
53.14000 158.079
53.15000 154.329
53.16000 151.301
53.17000 150.603
53.18000 150.083
53.19000 151.696
53.20000 157.973
53.21000 164.414
53.22000 168.264
53.23000 158.886
53.24000 152.149
53.25000 151.238
53.26000 155.897
53.27000 160.533
53.28000 163.302
53.29000 164.899
53.30000 166.451
53.31000 161.975
53.32000 155.298
53.33000 149.169
53.34000 149.429
53.35000 151.520
53.36000 153.204
53.37000 152.097
53.38000 150.462
53.39000 149.105
53.40000 152.266
53.41000 155.320
53.42000 156.938
53.43000 154.342
53.44000 151.472
53.45000 150.946
53.46000 155.085
53.47000 159.354
53.48000 161.798
53.49000 164.204
53.50000 165.882
53.51000 165.768
53.52000 164.114
53.53000 162.429
53.54000 159.121
53.55000 154.886
53.56000 150.803
53.57000 149.618
53.58000 149.555
53.59000 149.604
53.60000 150.773
53.61000 152.234
53.62000 153.788
53.63000 155.911
53.64000 158.132
53.65000 159.940
53.66000 160.544
53.67000 160.936
53.68000 160.316
53.69000 156.990
53.70000 153.516
53.71000 151.734
53.72000 153.017
53.73000 154.364
53.74000 155.100
53.75000 155.908
53.76000 156.452
53.77000 154.109
53.78000 149.525
53.79000 145.071
53.80000 145.797
53.81000 149.211
53.82000 152.477
53.83000 155.727
53.84000 158.747
53.85000 161.110
53.86000 157.630
53.87000 152.773
53.88000 148.572
53.89000 147.972
53.90000 147.920
53.91000 147.878
53.92000 151.607
53.93000 154.890
53.94000 156.213
53.95000 152.761
53.96000 149.093
53.97000 145.976
53.98000 143.768
53.99000 141.573
54.00000 140.430
54.01000 151.852
54.02000 159.521
54.03000 160.255
54.04000 156.118
54.05000 151.976
54.06000 147.659
54.07000 143.261
54.08000 139.090
54.09000 142.093
54.10000 146.977
54.11000 151.174
54.12000 149.982
54.13000 147.641
54.14000 145.865
54.15000 146.884
54.16000 148.280
54.17000 149.368
54.18000 149.455
54.19000 149.461
54.20000 150.241
54.21000 152.738
54.22000 155.298
54.23000 156.187
54.24000 154.577
54.25000 152.943
54.26000 151.631
54.27000 150.632
54.28000 149.657
54.29000 150.555
54.30000 152.648
54.31000 154.531
54.32000 151.252
54.33000 145.751
54.34000 140.586
54.35000 146.200
54.36000 154.183
54.37000 161.087
54.38000 160.473
54.39000 158.414
54.40000 155.956
54.41000 151.721
54.42000 147.273
54.43000 143.889
54.44000 149.858
54.45000 155.044
54.46000 158.045
54.47000 156.629
54.48000 155.086
54.49000 155.003
54.50000 156.897
54.51000 158.801
54.52000 158.586
54.53000 156.520
54.54000 154.423
54.55000 150.525
54.56000 145.584
54.57000 140.910
54.58000 141.622
54.59000 144.444
54.60000 147.066
54.61000 145.681
54.62000 143.476
54.63000 141.793
54.64000 143.355
54.65000 145.479
54.66000 147.091
54.67000 146.636
54.68000 145.964
54.69000 145.466
54.70000 147.424
54.71000 149.052
54.72000 149.335
54.73000 147.144
54.74000 144.900
54.75000 144.319
54.76000 145.773
54.77000 147.230
54.78000 148.570
54.79000 149.811
54.80000 151.062
54.81000 152.759
54.82000 154.689
54.83000 156.497
54.84000 156.238
54.85000 155.242
54.86000 154.327
54.87000 155.746
54.88000 157.511
54.89000 158.922
54.90000 158.366
54.91000 157.505
54.92000 156.872
54.93000 157.078
54.94000 157.361
54.95000 157.565
54.96000 158.648
54.97000 159.510
54.98000 159.516
54.99000 158.089
55.00000 156.641
55.01000 156.463
55.02000 157.687
55.03000 158.907
55.04000 160.153
55.05000 161.404
55.06000 162.539
55.07000 159.902
55.08000 155.457
55.09000 151.313
55.10000 151.446
55.11000 152.970
55.12000 154.351
55.13000 157.768
55.14000 161.172
55.15000 163.540
55.16000 160.713
55.17000 157.169
55.18000 153.953
55.19000 151.829
55.20000 149.792
55.21000 148.366
55.22000 149.965
55.23000 151.261
55.24000 153.798
55.25000 158.219
55.26000 162.659
55.27000 163.126
55.28000 159.657
55.29000 156.212
55.30000 155.901
55.31000 157.594
55.32000 159.252
55.33000 160.023
55.34000 160.406
55.35000 160.813
55.36000 161.515
55.37000 162.304
55.38000 163.009
55.39000 165.692
55.40000 168.369
55.41000 170.134
55.42000 167.761
55.43000 164.881
55.44000 163.153
55.45000 164.909
55.46000 166.903
55.47000 168.256
55.48000 173.234
55.49000 177.028
55.50000 180.489
55.51000 183.490
55.52000 186.489
55.53000 189.396
55.54000 192.223
55.55000 195.020
55.56000 198.298
55.57000 201.780
55.58000 205.458
55.59000 213.204
55.60000 222.570
55.61000 231.441
55.62000 235.067
55.63000 237.285
55.64000 239.240
55.65000 243.921
55.66000 248.369
55.67000 254.309
55.68000 266.368
55.69000 279.086
55.70000 288.254
55.71000 287.636
55.72000 286.454
55.73000 285.677
55.74000 303.943
55.75000 317.701
55.76000 325.837
55.77000 326.975
55.78000 328.107
55.79000 334.306
55.80000 344.570
55.81000 354.683
55.82000 357.679
55.83000 356.893
55.84000 356.637
55.85000 365.546
55.86000 377.776
55.87000 390.347
55.88000 406.078
55.89000 422.577
55.90000 436.898
55.91000 441.440
55.92000 443.997
55.93000 445.824
55.94000 444.931
55.95000 443.781
55.96000 444.481
55.97000 449.820
55.98000 455.383
55.99000 458.906
56.00000 454.715
56.01000 451.582
56.02000 445.618
56.03000 436.475
56.04000 427.321
56.05000 416.869
56.06000 405.475
56.07000 394.306
56.08000 393.375
56.09000 397.277
56.10000 400.479
56.11000 393.483
56.12000 383.121
56.13000 372.730
56.14000 362.100
56.15000 351.417
56.16000 342.300
56.17000 335.385
56.18000 329.824
56.19000 325.223
56.20000 323.866
56.21000 322.775
56.22000 319.180
56.23000 309.860
56.24000 300.316
56.25000 294.499
56.26000 286.159
56.27000 280.179
56.28000 272.635
56.29000 263.515
56.30000 254.433
56.31000 249.061
56.32000 246.127
56.33000 243.268
56.34000 237.450
56.35000 230.647
56.36000 223.899
56.37000 217.829
56.38000 211.962
56.39000 206.329
56.40000 202.386
56.41000 198.780
56.42000 195.757
56.43000 194.603
56.44000 193.837
56.45000 192.717
56.46000 190.509
56.47000 188.225
56.48000 186.899
56.49000 187.570
56.50000 188.304
56.51000 188.733
56.52000 179.575
56.53000 173.087
56.54000 171.009
56.55000 172.923
56.56000 174.798
56.57000 174.162
56.58000 172.026
56.59000 169.960
56.60000 166.944
56.61000 163.731
56.62000 160.931
56.63000 162.595
56.64000 165.477
56.65000 167.254
56.66000 161.901
56.67000 155.271
56.68000 149.820
56.69000 152.135
56.70000 154.741
56.71000 156.895
56.72000 157.784
56.73000 158.599
56.74000 158.575
56.75000 156.961
56.76000 155.309
56.77000 154.385
56.78000 152.036
56.79000 150.408
56.80000 149.693
56.81000 149.722
56.82000 149.744
56.83000 149.393
56.84000 148.839
56.85000 148.307
56.86000 149.475
56.87000 151.154
56.88000 152.370
56.89000 149.198
56.90000 144.940
56.91000 141.804
56.92000 145.152
56.93000 149.539
56.94000 153.074
56.95000 150.843
56.96000 148.582
56.97000 146.273
56.98000 143.847
56.99000 141.414
57.00000 140.113
57.01000 140.762
57.02000 141.445
57.03000 141.810
57.04000 139.831
57.05000 138.500
57.06000 140.376
57.07000 144.619
57.08000 148.801
57.09000 150.904
57.10000 151.980
57.11000 153.004
57.12000 147.018
57.13000 139.297
57.14000 133.014
57.15000 138.715
57.16000 147.100
57.17000 154.016
57.18000 153.301
57.19000 151.492
57.20000 150.067
57.21000 142.767
57.22000 136.521
57.23000 133.289
57.24000 137.056
57.25000 141.107
57.26000 142.860
57.27000 141.011
57.28000 139.119
57.29000 138.160
57.30000 140.124
57.31000 141.429
57.32000 141.697
57.33000 141.274
57.34000 140.900
57.35000 141.876
57.36000 143.460
57.37000 144.954
57.38000 150.456
57.39000 156.620
57.40000 161.691
57.41000 158.701
57.42000 154.082
57.43000 149.561
57.44000 145.502
57.45000 141.503
57.46000 138.424
57.47000 134.432
57.48000 131.220
57.49000 130.935
57.50000 136.837
57.51000 142.940
57.52000 146.275
57.53000 145.673
57.54000 145.042
57.55000 146.007
57.56000 148.441
57.57000 150.788
57.58000 147.342
57.59000 140.383
57.60000 133.591
57.61000 130.511
57.62000 128.953
57.63000 127.498
57.64000 134.274
57.65000 142.488
57.66000 149.216
57.67000 146.180
57.68000 141.366
57.69000 137.483
57.70000 137.542
57.71000 138.043
57.72000 138.420
57.73000 136.299
57.74000 134.521
57.75000 133.949
57.76000 135.697
57.77000 137.503
57.78000 138.564
57.79000 138.666
57.80000 138.764
57.81000 139.770
57.82000 141.525
57.83000 143.247
57.84000 143.372
57.85000 142.616
57.86000 141.865
57.87000 141.208
57.88000 140.586
57.89000 140.011
57.90000 139.557
57.91000 139.176
57.92000 138.658
57.93000 137.326
57.94000 135.862
57.95000 134.884
57.96000 135.776
57.97000 136.852
57.98000 137.638
57.99000 132.262
58.00000 127.872
58.01000 125.660
58.02000 127.265
58.03000 128.940
58.04000 130.379
58.05000 131.541
58.06000 132.700
58.07000 135.162
58.08000 138.577
58.09000 141.876
58.10000 140.972
58.11000 137.958
58.12000 135.347
58.13000 138.917
58.14000 144.590
58.15000 149.767
58.16000 147.954
58.17000 144.935
58.18000 142.815
58.19000 145.449
58.20000 148.775
58.21000 150.665
58.22000 147.545
58.23000 143.996
58.24000 141.474
58.25000 141.666
58.26000 141.898
58.27000 139.798
58.28000 133.985
58.29000 128.123
58.30000 125.644
58.31000 126.697
58.32000 127.745
58.33000 129.395
58.34000 131.428
58.35000 133.385
58.36000 133.185
58.37000 131.999
58.38000 130.930
58.39000 131.400
58.40000 132.345
58.41000 133.197
58.42000 131.558
58.43000 129.671
58.44000 128.315
58.45000 129.487
58.46000 130.987
58.47000 132.636
58.48000 134.757
58.49000 136.914
58.50000 138.401
58.51000 138.738
58.52000 138.962
58.53000 139.794
58.54000 141.502
58.55000 143.216
58.56000 141.718
58.57000 137.211
58.58000 132.741
58.59000 133.009
58.60000 136.135
58.61000 139.121
58.62000 138.914
58.63000 137.379
58.64000 136.001
58.65000 136.413
58.66000 137.328
58.67000 138.140
58.68000 135.967
58.69000 133.604
58.70000 132.442
58.71000 136.457
58.72000 141.065
58.73000 143.092
58.74000 137.678
58.75000 131.796
58.76000 127.870
58.77000 129.147
58.78000 130.194
58.79000 130.849
58.80000 130.990
58.81000 131.129
58.82000 131.206
58.83000 131.232
58.84000 131.257
58.85000 131.086
58.86000 130.811
58.87000 130.512
58.88000 129.742
58.89000 128.793
58.90000 128.034
58.91000 129.144
58.92000 130.731
58.93000 132.120
58.94000 131.819
58.95000 131.320
58.96000 131.595
58.97000 134.890
58.98000 138.490
58.99000 141.145
59.00000 141.322
59.01000 141.369
59.02000 141.399
59.03000 133.619
59.04000 127.826
59.05000 126.069
59.06000 129.080
59.07000 132.106
59.08000 136.761
59.09000 142.657
59.10000 148.451
59.11000 148.291
59.12000 145.204
59.13000 141.899
59.14000 135.144
59.15000 127.196
59.16000 120.246
59.17000 121.944
59.18000 125.643
59.19000 128.826
59.20000 136.201
59.21000 142.975
59.22000 147.321
59.23000 143.076
59.24000 138.078
59.25000 135.024
59.26000 136.622
59.27000 138.422
59.28000 139.540
59.29000 137.795
59.30000 136.511
59.31000 134.740
59.32000 132.453
59.33000 130.196
59.34000 131.574
59.35000 135.458
59.36000 139.254
59.37000 139.373
59.38000 137.853
59.39000 136.304
59.40000 134.362
59.41000 132.298
59.42000 130.278
59.43000 128.605
59.44000 127.004
59.45000 125.650
59.46000 132.924
59.47000 139.967
59.48000 144.366
59.49000 140.261
59.50000 135.514
59.51000 131.362
59.52000 128.511
59.53000 125.705
59.54000 124.030
59.55000 130.137
59.56000 134.515
59.57000 137.450
59.58000 139.008
59.59000 140.534
59.60000 139.644
59.61000 137.242
59.62000 134.909
59.63000 131.218
59.64000 127.169
59.65000 123.255
59.66000 120.911
59.67000 119.016
59.68000 117.739
59.69000 120.680
59.70000 124.416
59.71000 127.517
59.72000 128.102
59.73000 128.343
59.74000 129.246
59.75000 132.090
59.76000 135.059
59.77000 136.920
59.78000 136.581
59.79000 136.182
59.80000 135.954
59.81000 134.827
59.82000 134.038
59.83000 133.855
59.84000 134.191
59.85000 134.486
59.86000 132.648
59.87000 129.596
59.88000 126.654
59.89000 127.524
59.90000 129.722
59.91000 131.954
59.92000 134.524
59.93000 137.182
59.94000 138.966
59.95000 135.419
59.96000 130.970
59.97000 127.349
59.98000 130.862
59.99000 134.329
60.00000 135.850
60.01000 132.182
60.02000 128.232
60.03000 126.473
60.04000 128.671
60.05000 130.950
60.06000 132.195
60.07000 130.952
60.08000 130.082
60.09000 125.970
60.10000 119.350
60.11000 112.965
60.12000 115.842
60.13000 123.511
60.14000 130.845
60.15000 132.391
60.16000 131.939
60.17000 131.470
60.18000 130.839
60.19000 130.171
60.20000 129.639
60.21000 129.848
60.22000 130.169
60.23000 130.425
60.24000 131.705
60.25000 132.813
60.26000 133.237
60.27000 132.001
60.28000 130.691
60.29000 128.957
60.30000 126.526
60.31000 124.086
60.32000 122.818
60.33000 122.855
60.34000 122.904
60.35000 125.979
60.36000 131.174
60.37000 136.165
60.38000 134.917
60.39000 130.729
60.40000 126.759
60.41000 127.526
60.42000 129.625
60.43000 131.157
60.44000 128.253
60.45000 124.407
60.46000 121.250
60.47000 121.495
60.48000 122.198
60.49000 122.745
60.50000 129.485
60.51000 135.236
60.52000 137.917
60.53000 133.807
60.54000 129.451
60.55000 127.070
60.56000 127.633
60.57000 128.224
60.58000 128.649
60.59000 128.912
60.60000 129.182
60.61000 129.968
60.62000 131.081
60.63000 132.100
60.64000 130.801
60.65000 128.509
60.66000 126.357
60.67000 125.633
60.68000 125.349
60.69000 125.534
60.70000 128.966
60.71000 133.020
60.72000 135.606
60.73000 131.660
60.74000 126.935
60.75000 123.343
60.76000 131.226
60.77000 138.024
60.78000 141.229
60.79000 137.192
60.80000 132.949
60.81000 130.857
60.82000 131.671
60.83000 132.500
60.84000 133.221
60.85000 133.846
60.86000 134.470
60.87000 134.991
60.88000 135.454
60.89000 135.904
60.90000 136.109
60.91000 136.218
60.92000 136.319
60.93000 135.444
60.94000 134.424
60.95000 134.016
60.96000 137.407
60.97000 141.454
60.98000 143.892
60.99000 139.858
61.00000 135.143
61.01000 131.651
61.02000 129.493
61.03000 127.876
61.04000 127.728
61.05000 130.276
61.06000 132.882
61.07000 133.218
61.08000 130.784
61.09000 128.348
61.10000 127.683
61.11000 128.409
61.12000 129.091
61.13000 127.923
61.14000 125.783
61.15000 123.970
61.16000 127.612
61.17000 133.196
61.18000 138.322
61.19000 137.543
61.20000 135.589
61.21000 134.493
61.22000 138.163
61.23000 142.569
61.24000 144.766
61.25000 138.899
61.26000 132.292
61.27000 127.530
61.28000 133.749
61.29000 138.903
61.30000 141.644
61.31000 140.360
61.32000 139.013
61.33000 138.740
61.34000 139.649
61.35000 140.554
61.36000 138.969
61.37000 135.644
61.38000 132.371
61.39000 130.742
61.40000 129.899
61.41000 129.123
61.42000 129.286
61.43000 129.753
61.44000 130.177
61.45000 134.487
61.46000 139.029
61.47000 144.024
61.48000 151.283
61.49000 158.854
61.50000 164.416
61.51000 163.314
61.52000 161.682
61.53000 160.541
61.54000 181.620
61.55000 198.186
61.56000 210.487
61.57000 216.326
61.58000 222.098
61.59000 228.695
61.60000 236.105
61.61000 243.464
61.62000 250.755
61.63000 257.888
61.64000 264.878
61.65000 268.237
61.66000 270.014
61.67000 271.946
61.68000 275.764
61.69000 280.138
61.70000 284.049
61.71000 279.709
61.72000 274.522
61.73000 268.652
61.74000 259.699
61.75000 250.369
61.76000 241.597
61.77000 234.508
61.78000 227.534
61.79000 222.804
61.80000 211.461
61.81000 202.856
61.82000 191.706
61.83000 177.063
61.84000 162.406
61.85000 155.411
61.86000 155.214
61.87000 155.019
61.88000 153.973
61.89000 152.463
61.90000 150.936
61.91000 149.052
61.92000 147.028
61.93000 145.172
61.94000 145.099
61.95000 145.502
61.96000 145.857
61.97000 141.548
61.98000 137.128
61.99000 134.641
62.00000 140.053
62.01000 146.314
62.02000 150.636
62.03000 149.628
62.04000 148.314
62.05000 147.453
62.06000 150.859
62.07000 153.434
62.08000 153.414
62.09000 150.174
62.10000 146.924
62.11000 143.635
62.12000 140.316
62.13000 137.045
62.14000 133.850
62.15000 130.787
62.16000 128.039
62.17000 130.682
62.18000 135.275
62.19000 139.355
62.20000 138.714
62.21000 136.927
62.22000 135.377
62.23000 136.735
62.24000 138.282
62.25000 139.583
62.26000 139.979
62.27000 140.289
62.28000 140.983
62.29000 142.637
62.30000 144.338
62.31000 145.414
62.32000 146.878
62.33000 147.944
62.34000 147.660
62.35000 145.864
62.36000 144.061
62.37000 141.268
62.38000 137.759
62.39000 134.320
62.40000 133.908
62.41000 134.926
62.42000 135.763
62.43000 133.969
62.44000 131.309
62.45000 128.891
62.46000 128.436
62.47000 128.412
62.48000 128.392
62.49000 135.617
62.50000 142.552
62.51000 147.423
62.52000 145.342
62.53000 142.695
62.54000 140.288
62.55000 138.424
62.56000 136.582
62.57000 135.461
62.58000 134.517
62.59000 133.844
62.60000 136.428
62.61000 142.284
62.62000 148.063
62.63000 146.607
62.64000 140.409
62.65000 134.370
62.66000 133.322
62.67000 134.426
62.68000 135.658
62.69000 138.478
62.70000 141.774
62.71000 144.318
62.72000 141.445
62.73000 137.498
62.74000 134.191
62.75000 132.835
62.76000 131.909
62.77000 132.157
62.78000 135.999
62.79000 140.092
62.80000 142.038
62.81000 139.523
62.82000 136.870
62.83000 135.321
62.84000 138.554
62.85000 140.850
62.86000 141.187
62.87000 139.757
62.88000 138.366
62.89000 139.477
62.90000 142.078
62.91000 144.594
62.92000 144.375
62.93000 143.128
62.94000 142.090
62.95000 143.302
62.96000 145.126
62.97000 145.750
62.98000 138.653
62.99000 130.178
63.00000 123.214
63.01000 131.987
63.02000 140.611
63.03000 146.249
63.04000 143.559
63.05000 140.376
63.06000 139.127
63.07000 141.536
63.08000 144.032
63.09000 145.427
63.10000 147.953
63.11000 149.702
63.12000 150.571
63.13000 150.723
63.14000 150.820
63.15000 148.436
63.16000 144.709
63.17000 141.129
63.18000 138.226
63.19000 135.743
63.20000 133.777
63.21000 136.694
63.22000 140.816
63.23000 144.460
63.24000 145.353
63.25000 145.805
63.26000 146.170
63.27000 145.142
63.28000 144.199
63.29000 144.226
63.30000 146.719
63.31000 149.332
63.32000 151.715
63.33000 153.700
63.34000 155.677
63.35000 156.730
63.36000 149.428
63.37000 144.469
63.38000 142.857
63.39000 143.705
63.40000 144.572
63.41000 146.095
63.42000 147.940
63.43000 149.697
63.44000 146.089
63.45000 141.089
63.46000 136.407
63.47000 134.375
63.48000 132.933
63.49000 132.605
63.50000 138.043
63.51000 144.303
63.52000 149.233
63.53000 150.723
63.54000 151.687
63.55000 151.879
63.56000 150.287
63.57000 148.622
63.58000 147.584
63.59000 147.525
63.60000 147.477
63.61000 147.453
63.62000 150.385
63.63000 152.302
63.64000 149.657
63.65000 143.976
63.66000 138.555
63.67000 140.207
63.68000 145.036
63.69000 149.590
63.70000 149.770
63.71000 148.717
63.72000 147.467
63.73000 144.772
63.74000 141.785
63.75000 139.171
63.76000 138.300
63.77000 137.649
63.78000 137.149
63.79000 144.040
63.80000 149.911
63.81000 153.926
63.82000 154.022
63.83000 153.993
63.84000 153.817
63.85000 153.434
63.86000 153.049
63.87000 154.090
63.88000 156.439
63.89000 158.790
63.90000 161.306
63.91000 163.920
63.92000 166.378
63.93000 165.393
63.94000 163.000
63.95000 160.766
63.96000 160.055
63.97000 159.793
63.98000 159.104
63.99000 155.618
64.00000 151.625
64.01000 148.874
64.02000 151.365
64.03000 154.444
64.04000 156.754
64.05000 155.005
64.06000 153.445
64.07000 152.808
64.08000 153.941
64.09000 155.119
64.10000 157.280
64.11000 160.703
64.12000 164.126
64.13000 166.012
64.14000 166.624
64.15000 167.192
64.16000 165.705
64.17000 163.087
64.18000 160.396
64.19000 156.369
64.20000 151.844
64.21000 147.667
64.22000 151.372
64.23000 156.467
64.24000 160.690
64.25000 159.808
64.26000 158.094
64.27000 157.425
64.28000 160.756
64.29000 164.480
64.30000 167.200
64.31000 163.410
64.32000 160.233
64.33000 159.568
64.34000 163.292
64.35000 167.096
64.36000 166.964
64.37000 162.275
64.38000 157.593
64.39000 157.822
64.40000 161.690
64.41000 165.498
64.42000 167.170
64.43000 167.773
64.44000 168.187
64.45000 165.719
64.46000 162.273
64.47000 159.129
64.48000 166.237
64.49000 174.603
64.50000 181.383
64.51000 179.811
64.52000 177.023
64.53000 174.678
64.54000 173.870
64.55000 173.193
64.56000 172.712
64.57000 171.122
64.58000 169.877
64.59000 170.806
64.60000 175.187
64.61000 179.611
64.62000 179.634
64.63000 175.076
64.64000 170.543
64.65000 170.924
64.66000 174.585
64.67000 178.074
64.68000 176.709
64.69000 173.132
64.70000 169.893
64.71000 171.066
64.72000 173.601
64.73000 175.884
64.74000 175.953
64.75000 175.617
64.76000 175.586
64.77000 177.005
64.78000 178.613
64.79000 179.611
64.80000 178.685
64.81000 177.617
64.82000 176.882
64.83000 176.448
64.84000 176.130
64.85000 177.962
64.86000 182.892
64.87000 187.846
64.88000 190.267
64.89000 190.323
64.90000 190.378
64.91000 185.173
64.92000 176.897
64.93000 169.029
64.94000 170.426
64.95000 175.671
64.96000 180.635
64.97000 182.446
64.98000 183.372
64.99000 184.194
65.00000 183.513
65.01000 182.683
65.02000 181.919
65.03000 181.442
65.04000 180.998
65.05000 180.309
65.06000 178.914
65.07000 177.476
65.08000 176.517
65.09000 188.388
65.10000 197.424
65.11000 202.441
65.12000 202.217
65.13000 201.973
65.14000 202.515
65.15000 203.717
65.16000 204.905
65.17000 205.740
65.18000 206.362
65.19000 206.857
65.20000 204.963
65.21000 202.165
65.22000 199.775
65.23000 201.391
65.24000 204.026
65.25000 206.330
65.26000 214.501
65.27000 222.333
65.28000 228.079
65.29000 225.716
65.30000 222.540
65.31000 220.881
65.32000 223.193
65.33000 225.715
65.34000 227.338
65.35000 236.423
65.36000 243.160
65.37000 244.392
65.38000 239.142
65.39000 233.906
65.40000 233.801
65.41000 237.591
65.42000 241.316
65.43000 243.460
65.44000 244.757
65.45000 246.470
65.46000 254.730
65.47000 265.246
65.48000 274.571
65.49000 273.600
65.50000 270.255
65.51000 267.377
65.52000 274.328
65.53000 281.445
65.54000 287.861
65.55000 291.802
65.56000 295.527
65.57000 300.162
65.58000 306.970
65.59000 313.872
65.60000 318.154
65.61000 332.244
65.62000 342.477
65.63000 351.295
65.64000 358.613
65.65000 366.019
65.66000 383.830
65.67000 408.793
65.68000 433.186
65.69000 467.380
65.70000 504.477
65.71000 541.602
65.72000 579.105
65.73000 616.727
65.74000 656.661
65.75000 714.250
65.76000 775.520
65.77000 827.310
65.78000 888.753
65.79000 941.213
65.80000 987.396
65.81000 1013.443
65.82000 1037.972
65.83000 1059.100
65.84000 1072.831
65.85000 1086.307
65.86000 1094.339
65.87000 1098.439
65.88000 1101.320
65.89000 1099.041
65.90000 1091.858
65.91000 1084.399
65.92000 1056.126
65.93000 1014.870
65.94000 974.814
65.95000 931.010
65.96000 887.936
65.97000 843.447
65.98000 782.631
65.99000 717.162
66.00000 652.927
66.01000 597.083
66.02000 542.814
66.03000 497.790
66.04000 463.867
66.05000 436.904
66.06000 411.552
66.07000 390.905
66.08000 370.560
66.09000 352.245
66.10000 337.951
66.11000 323.765
66.12000 315.663
66.13000 315.443
66.14000 315.312
66.15000 313.495
66.16000 310.237
66.17000 307.055
66.18000 307.945
66.19000 311.144
66.20000 314.228
66.21000 311.664
66.22000 307.216
66.23000 303.512
66.24000 307.288
66.25000 313.000
66.26000 319.875
66.27000 333.815
66.28000 348.946
66.29000 361.253
66.30000 369.953
66.31000 376.753
66.32000 385.690
66.33000 400.311
66.34000 415.238
66.35000 428.576
66.36000 439.049
66.37000 449.464
66.38000 455.143
66.39000 456.746
66.40000 457.826
66.41000 455.321
66.42000 450.049
66.43000 444.905
66.44000 444.754
66.45000 447.179
66.46000 449.496
66.47000 451.548
66.48000 453.372
66.49000 453.825
66.50000 442.198
66.51000 427.739
66.52000 413.587
66.53000 401.109
66.54000 388.884
66.55000 379.151
66.56000 367.888
66.57000 358.698
66.58000 348.046
66.59000 333.858
66.60000 319.511
66.61000 314.027
66.62000 323.059
66.63000 332.299
66.64000 337.092
66.65000 319.670
66.66000 307.977
66.67000 305.543
66.68000 309.575
66.69000 313.639
66.70000 318.632
66.71000 324.062
66.72000 329.208
66.73000 335.224
66.74000 341.020
66.75000 345.752
66.76000 342.194
66.77000 336.879
66.78000 333.034
66.79000 336.401
66.80000 340.739
66.81000 344.114
66.82000 333.888
66.83000 324.910
66.84000 321.210
66.85000 329.154
66.86000 337.518
66.87000 343.688
66.88000 346.596
66.89000 349.474
66.90000 349.848
66.91000 347.803
66.92000 345.714
66.93000 340.053
66.94000 332.129
66.95000 324.600
66.96000 326.642
66.97000 332.781
66.98000 338.541
66.99000 342.933
67.00000 346.575
67.01000 350.120
67.02000 353.001
67.03000 355.754
67.04000 358.647
67.05000 362.166
67.06000 365.759
67.07000 368.488
67.08000 373.526
67.09000 377.606
67.10000 377.040
67.11000 367.135
67.12000 356.967
67.13000 355.622
67.14000 366.160
67.15000 376.754
67.16000 379.942
67.17000 376.697
67.18000 373.543
67.19000 375.519
67.20000 380.446
67.21000 385.241
67.22000 387.394
67.23000 388.517
67.24000 389.560
67.25000 381.080
67.26000 371.180
67.27000 362.956
67.28000 365.096
67.29000 369.017
67.30000 373.510
67.31000 380.303
67.32000 387.337
67.33000 392.543
67.34000 396.211
67.35000 398.990
67.36000 404.044
67.37000 413.259
67.38000 422.563
67.39000 426.970
67.40000 425.417
67.41000 423.852
67.42000 422.116
67.43000 420.255
67.44000 418.450
67.45000 418.928
67.46000 420.603
67.47000 422.213
67.48000 422.748
67.49000 422.902
67.50000 423.044
67.51000 420.358
67.52000 417.362
67.53000 415.787
67.54000 422.083
67.55000 429.589
67.56000 436.765
67.57000 442.740
67.58000 448.605
67.59000 452.829
67.60000 454.177
67.61000 455.108
67.62000 455.741
67.63000 455.877
67.64000 456.005
67.65000 456.193
67.66000 456.446
67.67000 456.697
67.68000 462.136
67.69000 471.166
67.70000 479.853
67.71000 477.726
67.72000 470.442
67.73000 463.637
67.74000 463.592
67.75000 465.731
67.76000 467.670
67.77000 479.595
67.78000 492.006
67.79000 501.688
67.80000 497.751
67.81000 491.949
67.82000 488.297
67.83000 491.760
67.84000 495.786
67.85000 498.600
67.86000 505.299
67.87000 510.470
67.88000 513.835
67.89000 514.472
67.90000 515.081
67.91000 512.862
67.92000 507.862
67.93000 502.896
67.94000 506.315
67.95000 514.991
67.96000 523.849
67.97000 537.267
67.98000 552.666
67.99000 566.824
68.00000 565.964
68.01000 560.691
68.02000 555.978
68.03000 554.817
68.04000 554.407
68.05000 553.525
68.06000 550.515
68.07000 547.247
68.08000 548.729
68.09000 564.504
68.10000 581.247
68.11000 592.591
68.12000 583.505
68.13000 576.285
68.14000 570.948
68.15000 568.191
68.16000 565.455
68.17000 568.806
68.18000 577.541
68.19000 586.183
68.20000 587.146
68.21000 583.699
68.22000 581.192
68.23000 597.958
68.24000 622.352
68.25000 644.927
68.26000 648.407
68.27000 646.789
68.28000 645.363
68.29000 648.827
68.30000 652.547
68.31000 654.501
68.32000 649.253
68.33000 643.235
68.34000 641.355
68.35000 650.815
68.36000 660.923
68.37000 667.545
68.38000 686.292
68.39000 700.272
68.40000 709.837
68.41000 713.938
68.42000 718.042
68.43000 728.137
68.44000 743.007
68.45000 757.655
68.46000 762.203
68.47000 761.406
68.48000 761.032
68.49000 767.889
68.50000 777.352
68.51000 787.169
68.52000 800.236
68.53000 814.090
68.54000 826.102
68.55000 841.229
68.56000 854.524
68.57000 874.717
68.58000 920.420
68.59000 968.509
68.60000 1011.212
68.61000 1040.469
68.62000 1069.088
68.63000 1087.173
68.64000 1141.085
68.65000 1180.572
68.66000 1227.788
68.67000 1283.625
68.68000 1339.506
68.69000 1401.202
68.70000 1467.092
68.71000 1531.657
68.72000 1589.423
68.73000 1641.824
68.74000 1693.935
68.75000 1741.857
68.76000 1788.404
68.77000 1838.467
68.78000 1917.018
68.79000 2001.807
68.80000 2074.098
68.81000 2171.874
68.82000 2257.131
68.83000 2350.719
68.84000 2472.290
68.85000 2596.129
68.86000 2739.139
68.87000 2925.746
68.88000 3114.039
68.89000 3228.520
68.90000 3905.384
68.91000 4393.046
68.92000 5277.997
68.93000 6560.868
68.94000 7854.410
68.95000 10138.688
68.96000 13070.537
68.97000 15926.236
68.98000 20066.746
68.99000 24554.416
69.00000 29046.379
69.01000 33591.527
69.02000 38152.551
69.03000 42572.480
69.04000 45978.254
69.05000 49183.609
69.06000 51867.527
69.07000 53443.234
69.08000 54638.973
69.09000 55609.066
69.10000 55889.688
69.11000 56122.395
69.12000 56431.121
69.13000 56897.332
69.14000 57368.371
69.15000 57643.145
69.16000 58713.313
69.17000 59469.047
69.18000 59588.016
69.19000 59134.309
69.20000 58658.316
69.21000 56793.352
69.22000 54103.898
69.23000 51502.125
69.24000 48484.313
69.25000 45476.230
69.26000 42499.445
69.27000 39858.652
69.28000 37308.969
69.29000 34873.434
69.30000 33169.566
69.31000 31595.785
69.32000 30303.238
69.33000 29404.438
69.34000 28701.662
69.35000 28012.609
69.36000 27361.736
69.37000 26713.107
69.38000 25754.822
69.39000 24212.514
69.40000 22656.490
69.41000 21788.365
69.42000 18342.867
69.43000 15953.049
69.44000 13733.167
69.45000 11651.030
69.46000 9578.461
69.47000 7936.750
69.48000 6527.629
69.49000 5174.849
69.50000 4273.726
69.51000 3585.545
69.52000 2929.764
69.53000 2578.077
69.54000 2301.177
69.55000 2043.829
69.56000 1898.731
69.57000 1771.523
69.58000 1669.181
69.59000 1584.509
69.60000 1517.200
69.61000 1454.169
69.62000 1401.979
69.63000 1350.319
69.64000 1295.415
69.65000 1234.944
69.66000 1174.377
69.67000 1142.171
69.68000 1122.781
69.69000 1109.520
69.70000 1083.905
69.71000 1049.239
69.72000 1014.825
69.73000 989.036
69.74000 967.486
69.75000 946.973
69.76000 931.966
69.77000 919.771
69.78000 906.441
69.79000 883.739
69.80000 858.950
69.81000 836.846
69.82000 828.602
69.83000 822.330
69.84000 817.394
69.85000 800.514
69.86000 786.199
69.87000 773.823
69.88000 765.926
69.89000 758.209
69.90000 748.865
69.91000 736.988
69.92000 725.081
69.93000 719.071
69.94000 701.407
69.95000 689.605
69.96000 678.992
69.97000 669.169
69.98000 659.628
69.99000 657.694
70.00000 659.164
