20.00000 555.833
20.01000 555.265
20.02000 554.615
20.03000 553.566
20.04000 550.957
20.05000 548.189
20.06000 546.156
20.07000 552.723
20.08000 558.152
20.09000 561.788
20.10000 562.225
20.11000 562.599
20.12000 561.095
20.13000 557.369
20.14000 553.649
20.15000 552.729
20.16000 553.939
20.17000 555.074
20.18000 553.378
20.19000 550.236
20.20000 546.913
20.21000 540.724
20.22000 533.544
20.23000 526.977
20.24000 539.369
20.25000 554.291
20.26000 567.088
20.27000 568.442
20.28000 568.090
20.29000 566.832
20.30000 562.359
20.31000 557.603
20.32000 554.205
20.33000 562.039
20.34000 568.391
20.35000 571.531
20.36000 569.468
20.37000 567.332
20.38000 565.787
20.39000 564.869
20.40000 563.955
20.41000 559.824
20.42000 553.543
20.43000 547.329
20.44000 543.109
20.45000 539.817
20.46000 536.547
20.47000 533.563
20.48000 530.669
20.49000 528.056
20.50000 530.508
20.51000 533.596
20.52000 537.482
20.53000 545.245
20.54000 553.522
20.55000 559.571
20.56000 558.438
20.57000 556.759
20.58000 555.595
20.59000 551.678
20.60000 548.656
20.61000 546.752
20.62000 546.493
20.63000 546.249
20.64000 544.203
20.65000 540.436
20.66000 536.699
20.67000 538.801
20.68000 544.464
20.69000 549.905
20.70000 550.109
20.71000 548.094
20.72000 546.091
20.73000 544.232
20.74000 542.413
20.75000 540.793
20.76000 548.037
20.77000 555.786
20.78000 561.248
20.79000 556.685
20.80000 550.947
20.81000 545.044
20.82000 538.663
20.83000 532.250
20.84000 527.944
20.85000 541.715
20.86000 552.309
20.87000 557.570
20.88000 555.725
20.89000 553.837
20.90000 545.847
20.91000 532.614
20.92000 519.536
20.93000 518.628
20.94000 524.504
20.95000 530.329
20.96000 535.163
20.97000 539.616
20.98000 543.752
20.99000 544.683
21.00000 544.780
21.01000 544.865
21.02000 532.858
21.03000 520.785
21.04000 511.709
21.05000 514.532
21.06000 518.584
21.07000 526.083
21.08000 542.793
21.09000 560.004
21.10000 571.171
21.11000 551.708
21.12000 536.994
21.13000 528.621
21.14000 527.877
21.15000 527.156
21.16000 527.946
21.17000 529.908
21.18000 531.838
21.19000 537.458
21.20000 544.749
21.21000 551.329
21.22000 546.338
21.23000 537.281
21.24000 529.677
21.25000 534.983
21.26000 543.329
21.27000 550.533
21.28000 549.197
21.29000 546.962
21.30000 545.140
21.31000 544.804
21.32000 544.602
21.33000 546.811
21.34000 554.889
21.35000 563.232
21.36000 568.449
21.37000 565.196
21.38000 562.758
21.39000 553.102
21.40000 535.624
21.41000 518.267
21.42000 517.299
21.43000 527.834
21.44000 538.142
21.45000 538.044
21.46000 533.239
21.47000 528.706
21.48000 527.934
21.49000 528.365
21.50000 528.874
21.51000 529.987
21.52000 531.230
21.53000 532.284
21.54000 534.732
21.55000 536.943
21.56000 538.323
21.57000 536.981
21.58000 535.428
21.59000 535.059
21.60000 537.316
21.61000 539.669
21.62000 541.084
21.63000 529.311
21.64000 520.850
21.65000 524.187
21.66000 538.994
21.67000 553.626
21.68000 553.779
21.69000 544.714
21.70000 535.901
21.71000 530.814
21.72000 527.501
21.73000 524.568
21.74000 526.168
21.75000 529.086
21.76000 532.073
21.77000 535.537
21.78000 539.093
21.79000 542.055
21.80000 551.105
21.81000 559.208
21.82000 565.536
21.83000 566.579
21.84000 567.271
21.85000 565.157
21.86000 557.379
21.87000 549.438
21.88000 544.861
21.89000 553.727
21.90000 559.991
21.91000 568.887
21.92000 580.084
21.93000 591.200
21.94000 597.725
21.95000 601.595
21.96000 605.332
21.97000 611.397
21.98000 617.968
21.99000 623.910
22.00000 623.343
22.01000 621.056
22.02000 618.019
22.03000 610.313
22.04000 601.801
22.05000 594.849
22.06000 596.834
22.07000 599.231
22.08000 604.188
22.09000 616.089
22.10000 628.379
22.11000 635.543
22.12000 633.282
22.13000 630.818
22.14000 629.460
22.15000 633.026
22.16000 635.480
22.17000 634.476
22.18000 630.745
22.19000 627.214
22.20000 632.015
22.21000 641.199
22.22000 649.996
22.23000 649.282
22.24000 645.451
22.25000 641.027
22.26000 631.228
22.27000 620.142
22.28000 610.896
22.29000 611.909
22.30000 614.508
22.31000 616.586
22.32000 619.806
22.33000 622.494
22.34000 619.944
22.35000 604.452
22.36000 588.358
22.37000 578.113
22.38000 577.647
22.39000 577.332
22.40000 577.167
22.41000 576.192
22.42000 575.521
22.43000 573.442
22.44000 570.358
22.45000 567.284
22.46000 564.504
22.47000 561.864
22.48000 559.358
22.49000 561.125
22.50000 564.039
22.51000 567.204
22.52000 572.381
22.53000 577.994
22.54000 581.480
22.55000 574.296
22.56000 565.642
22.57000 558.873
22.58000 550.265
22.59000 543.277
22.60000 538.807
22.61000 540.009
22.62000 541.425
22.63000 541.913
22.64000 540.991
22.65000 540.055
22.66000 537.512
22.67000 533.381
22.68000 529.296
22.69000 529.408
22.70000 532.234
22.71000 534.803
22.72000 530.881
22.73000 524.125
22.74000 517.772
22.75000 526.862
22.76000 539.333
22.77000 549.006
22.78000 538.822
22.79000 524.760
22.80000 511.870
22.81000 504.293
22.82000 497.365
22.83000 492.074
22.84000 484.977
22.85000 479.285
22.86000 480.302
22.87000 495.075
22.88000 510.257
22.89000 518.465
22.90000 517.077
22.91000 515.632
22.92000 516.379
22.93000 519.072
22.94000 521.694
22.95000 520.035
22.96000 515.861
22.97000 511.792
22.98000 509.883
22.99000 508.833
23.00000 507.856
23.01000 502.274
23.02000 496.113
23.03000 491.737
23.04000 498.661
23.05000 507.570
23.06000 514.197
23.07000 511.469
23.08000 507.734
23.09000 504.953
23.10000 504.373
23.11000 504.021
23.12000 504.254
23.13000 505.582
23.14000 506.934
23.15000 508.037
23.16000 508.830
23.17000 509.620
23.18000 513.269
23.19000 519.183
23.20000 524.844
23.21000 519.503
23.22000 508.283
23.23000 497.561
23.24000 495.424
23.25000 496.397
23.26000 497.292
23.27000 497.717
23.28000 497.995
23.29000 497.575
23.30000 493.195
23.31000 488.192
23.32000 485.431
23.33000 491.004
23.34000 497.361
23.35000 501.967
23.36000 497.579
23.37000 493.877
23.38000 493.511
23.39000 498.806
23.40000 504.195
23.41000 506.823
23.42000 506.357
23.43000 505.889
23.44000 508.209
23.45000 512.510
23.46000 516.632
23.47000 514.777
23.48000 510.014
23.49000 505.263
23.50000 500.679
23.51000 496.150
23.52000 492.035
23.53000 496.645
23.54000 502.417
23.55000 505.934
23.56000 497.943
23.57000 488.336
23.58000 482.550
23.59000 489.661
23.60000 497.825
23.61000 503.570
23.62000 501.045
23.63000 498.886
23.64000 498.994
23.65000 502.599
23.66000 506.242
23.67000 507.871
23.68000 507.470
23.69000 507.073
23.70000 506.446
23.71000 505.681
23.72000 504.887
23.73000 503.319
23.74000 501.408
23.75000 499.932
23.76000 503.877
23.77000 509.448
23.78000 514.442
23.79000 502.564
23.80000 489.257
23.81000 478.897
23.82000 482.105
23.83000 487.005
23.84000 491.211
23.85000 493.289
23.86000 495.217
23.87000 496.533
23.88000 504.484
23.89000 510.583
23.90000 511.749
23.91000 506.019
23.92000 500.242
23.93000 493.795
23.94000 486.741
23.95000 479.757
23.96000 477.127
23.97000 477.096
23.98000 477.346
23.99000 483.594
24.00000 492.264
24.01000 500.020
24.02000 497.895
24.03000 493.079
24.04000 488.822
24.05000 489.797
24.06000 491.447
24.07000 492.375
24.08000 490.298
24.09000 487.892
24.10000 487.795
24.11000 494.153
24.12000 500.895
24.13000 505.344
24.14000 497.343
24.15000 491.225
24.16000 487.707
24.17000 487.476
24.18000 487.261
24.19000 488.968
24.20000 492.241
24.21000 495.468
24.22000 492.495
24.23000 486.337
24.24000 480.614
24.25000 482.598
24.26000 487.417
24.27000 491.730
24.28000 491.266
24.29000 489.620
24.30000 488.188
24.31000 485.843
24.32000 483.717
24.33000 481.699
24.34000 480.090
24.35000 478.520
24.36000 477.076
24.37000 475.952
24.38000 474.844
24.39000 474.139
24.40000 472.529
24.41000 471.348
24.42000 469.209
24.43000 465.976
24.44000 462.770
24.45000 464.373
24.46000 469.517
24.47000 474.563
24.48000 476.820
24.49000 477.668
24.50000 478.156
24.51000 473.262
24.52000 466.566
24.53000 461.427
24.54000 469.229
24.55000 479.928
24.56000 489.083
24.57000 487.364
24.58000 484.601
24.59000 482.300
24.60000 481.578
24.61000 480.989
24.62000 480.516
24.63000 480.316
24.64000 480.127
24.65000 480.011
24.66000 474.256
24.67000 470.085
24.68000 468.452
24.69000 469.420
24.70000 470.319
24.71000 464.185
24.72000 453.359
24.73000 442.800
24.74000 450.632
24.75000 466.013
24.76000 480.097
24.77000 477.579
24.78000 470.004
24.79000 463.556
24.80000 465.410
24.81000 468.943
24.82000 471.912
24.83000 474.079
24.84000 475.800
24.85000 476.531
24.86000 474.174
24.87000 471.595
24.88000 469.823
24.89000 469.752
24.90000 469.737
24.91000 469.728
24.92000 471.576
24.93000 472.888
24.94000 473.169
24.95000 472.500
24.96000 471.841
24.97000 471.812
24.98000 472.165
24.99000 472.507
25.00000 469.773
25.01000 465.993
25.02000 463.169
25.03000 470.931
25.04000 481.622
25.05000 491.206
25.06000 493.528
25.07000 494.529
25.08000 495.354
25.09000 488.460
25.10000 482.072
25.11000 474.460
25.12000 463.377
25.13000 452.082
25.14000 448.423
25.15000 459.456
25.16000 470.855
25.17000 477.277
25.18000 481.057
25.19000 483.670
25.20000 484.150
25.21000 482.865
25.22000 481.501
25.23000 476.387
25.24000 469.208
25.25000 462.305
25.26000 460.537
25.27000 460.677
25.28000 460.863
25.29000 461.486
25.30000 462.220
25.31000 462.079
25.32000 456.805
25.33000 450.693
25.34000 445.754
25.35000 454.122
25.36000 461.993
25.37000 467.725
25.38000 467.928
25.39000 467.849
25.40000 467.152
25.41000 465.375
25.42000 463.578
25.43000 462.612
25.44000 453.065
25.45000 446.579
25.46000 448.619
25.47000 457.042
25.48000 465.250
25.49000 465.742
25.50000 462.366
25.51000 459.146
25.52000 459.826
25.53000 461.687
25.54000 462.623
25.55000 455.712
25.56000 447.016
25.57000 439.459
25.58000 437.910
25.59000 437.237
25.60000 436.705
25.61000 434.562
25.62000 432.730
25.63000 435.162
25.64000 447.638
25.65000 460.535
25.66000 467.212
25.67000 463.994
25.68000 460.650
25.69000 458.943
25.70000 458.636
25.71000 458.421
25.72000 457.101
25.73000 455.033
25.74000 453.016
25.75000 452.431
25.76000 452.499
25.77000 452.563
25.78000 455.405
25.79000 458.803
25.80000 461.593
25.81000 459.822
25.82000 457.113
25.83000 454.968
25.84000 455.512
25.85000 456.405
25.86000 457.094
25.87000 454.795
25.88000 452.797
25.89000 451.295
25.90000 450.860
25.91000 450.460
25.92000 452.779
25.93000 459.019
25.94000 465.291
25.95000 468.684
25.96000 469.383
25.97000 469.998
25.98000 464.539
25.99000 455.343
26.00000 446.636
26.01000 449.077
26.02000 456.155
26.03000 462.777
26.04000 454.997
26.05000 444.251
26.06000 435.387
26.07000 439.098
26.08000 445.137
26.09000 450.446
26.10000 452.620
26.11000 454.434
26.12000 455.802
26.13000 442.248
26.14000 430.902
26.15000 426.791
26.16000 436.813
26.17000 447.204
26.18000 454.170
26.19000 456.661
26.20000 459.131
26.21000 463.394
26.22000 469.151
26.23000 474.675
26.24000 468.410
26.25000 455.552
26.26000 443.371
26.27000 443.940
26.28000 449.340
26.29000 454.336
26.30000 455.356
26.31000 455.360
26.32000 454.955
26.33000 452.102
26.34000 448.842
26.35000 445.179
26.36000 439.946
26.37000 434.556
26.38000 430.598
26.39000 433.527
26.40000 436.071
26.41000 437.635
26.42000 437.458
26.43000 437.247
26.44000 440.542
26.45000 447.972
26.46000 455.389
26.47000 456.571
26.48000 453.031
26.49000 449.661
26.50000 452.722
26.51000 459.056
26.52000 464.554
26.53000 456.857
26.54000 444.606
26.55000 433.406
26.56000 440.683
26.57000 450.944
26.58000 458.652
26.59000 452.649
26.60000 444.609
26.61000 437.024
26.62000 431.046
26.63000 425.208
26.64000 421.041
26.65000 428.060
26.66000 433.783
26.67000 438.648
26.68000 442.126
26.69000 445.585
26.70000 443.736
26.71000 436.252
26.72000 428.803
26.73000 428.134
26.74000 432.088
26.75000 436.000
26.76000 438.681
26.77000 440.791
26.78000 442.857
26.79000 444.326
26.80000 445.607
26.81000 446.763
26.82000 449.044
26.83000 451.256
26.84000 453.342
26.85000 454.819
26.86000 456.216
26.87000 455.870
26.88000 449.920
26.89000 443.547
26.90000 439.132
26.91000 427.906
26.92000 419.278
26.93000 416.834
26.94000 423.457
26.95000 430.160
26.96000 437.118
26.97000 444.319
26.98000 451.463
26.99000 451.402
27.00000 446.920
27.01000 442.507
27.02000 439.715
27.03000 437.608
27.04000 435.837
27.05000 437.961
27.06000 441.197
27.07000 444.077
27.08000 443.011
27.09000 441.439
27.10000 440.565
27.11000 442.737
27.12000 445.267
27.13000 446.099
27.14000 441.966
27.15000 437.514
27.16000 434.528
27.17000 435.118
27.18000 435.629
27.19000 434.603
27.20000 431.538
27.21000 428.466
27.22000 427.904
27.23000 429.491
27.24000 431.060
27.25000 427.056
27.26000 420.063
27.27000 413.888
27.28000 423.553
27.29000 439.311
27.30000 452.772
27.31000 443.085
27.32000 427.398
27.33000 413.643
27.34000 421.123
27.35000 430.627
27.36000 437.509
27.37000 434.015
27.38000 429.454
27.39000 425.891
27.40000 424.982
27.41000 424.216
27.42000 423.720
27.43000 425.416
27.44000 426.689
27.45000 429.590
27.46000 434.443
27.47000 439.291
27.48000 441.926
27.49000 442.851
27.50000 443.760
27.51000 443.326
27.52000 442.234
27.53000 440.917
27.54000 435.932
27.55000 429.663
27.56000 424.133
27.57000 425.137
27.58000 427.676
27.59000 429.867
27.60000 429.930
27.61000 429.710
27.62000 428.697
27.63000 424.838
27.64000 420.723
27.65000 418.840
27.66000 422.375
27.67000 426.152
27.68000 428.511
27.69000 431.686
27.70000 433.984
27.71000 431.106
27.72000 422.636
27.73000 414.207
27.74000 411.382
27.75000 412.477
27.76000 413.549
27.77000 414.273
27.78000 414.812
27.79000 415.416
27.80000 416.921
27.81000 418.715
27.82000 419.916
27.83000 416.487
27.84000 412.075
27.85000 408.334
27.86000 409.762
27.87000 411.543
27.88000 413.104
27.89000 413.948
27.90000 414.736
27.91000 415.846
27.92000 417.666
27.93000 419.511
27.94000 420.620
27.95000 412.220
27.96000 406.186
27.97000 407.603
27.98000 416.241
27.99000 424.806
28.00000 427.360
28.01000 426.099
28.02000 424.874
28.03000 422.452
28.04000 419.662
28.05000 417.682
28.06000 425.292
28.07000 435.683
28.08000 444.045
28.09000 438.322
28.10000 429.902
28.11000 422.892
28.12000 414.115
28.13000 406.670
28.14000 402.731
28.15000 409.203
28.16000 416.363
28.17000 421.119
28.18000 421.037
28.19000 420.817
28.20000 420.691
28.21000 419.902
28.22000 419.347
28.23000 418.282
28.24000 416.771
28.25000 415.339
28.26000 418.350
28.27000 423.924
28.28000 429.304
28.29000 429.624
28.30000 428.065
28.31000 426.147
28.32000 420.527
28.33000 413.933
28.34000 408.456
28.35000 409.897
28.36000 412.528
28.37000 414.676
28.38000 413.274
28.39000 411.822
28.40000 410.661
28.41000 410.286
28.42000 409.955
28.43000 411.807
28.44000 417.661
28.45000 423.600
28.46000 426.867
28.47000 418.985
28.48000 413.552
28.49000 411.907
28.50000 413.239
28.51000 414.585
28.52000 416.477
28.53000 418.657
28.54000 420.744
28.55000 417.307
28.56000 412.270
28.57000 407.960
28.58000 410.215
28.59000 414.037
28.60000 416.029
28.61000 407.851
28.62000 398.107
28.63000 390.318
28.64000 396.691
28.65000 402.890
28.66000 408.462
28.67000 412.490
28.68000 416.447
28.69000 417.408
28.70000 413.377
28.71000 409.269
28.72000 407.118
28.73000 401.483
28.74000 397.735
28.75000 403.784
28.76000 416.800
28.77000 429.292
28.78000 425.171
28.79000 413.112
28.80000 401.666
28.81000 397.704
28.82000 396.286
28.83000 395.798
28.84000 402.726
28.85000 411.254
28.86000 419.050
28.87000 423.178
28.88000 426.803
28.89000 429.636
28.90000 415.067
28.91000 402.338
28.92000 393.664
28.93000 394.088
28.94000 394.854
28.95000 394.307
28.96000 391.773
28.97000 389.219
28.98000 393.503
28.99000 404.529
29.00000 415.464
29.01000 418.482
29.02000 416.396
29.03000 414.192
29.04000 409.000
29.05000 402.508
29.06000 396.405
29.07000 403.971
29.08000 414.558
29.09000 422.896
29.10000 415.341
29.11000 404.690
29.12000 396.513
29.13000 399.504
29.14000 403.853
29.15000 407.173
29.16000 409.762
29.17000 411.763
29.18000 412.530
29.19000 410.773
29.20000 408.942
29.21000 408.650
29.22000 410.471
29.23000 412.303
29.24000 408.537
29.25000 399.821
29.26000 391.258
29.27000 391.713
29.28000 397.450
29.29000 402.869
29.30000 401.739
29.31000 398.013
29.32000 394.546
29.33000 399.241
29.34000 405.454
29.35000 409.011
29.36000 395.809
29.37000 379.673
29.38000 368.817
29.39000 379.538
29.40000 392.573
29.41000 402.268
29.42000 396.368
29.43000 391.082
29.44000 386.881
29.45000 384.699
29.46000 382.562
29.47000 378.965
29.48000 373.559
29.49000 368.157
29.50000 370.590
29.51000 379.246
29.52000 387.815
29.53000 392.628
29.54000 395.441
29.55000 397.907
29.56000 394.448
29.57000 388.847
29.58000 383.697
29.59000 391.001
29.60000 400.226
29.61000 406.597
29.62000 396.831
29.63000 384.533
29.64000 375.004
29.65000 375.735
29.66000 377.427
29.67000 378.652
29.68000 386.347
29.69000 392.491
29.70000 393.852
29.71000 387.114
29.72000 380.245
29.73000 379.299
29.74000 384.977
29.75000 390.638
29.76000 396.050
29.77000 401.235
29.78000 406.355
29.79000 409.324
29.80000 411.250
29.81000 412.940
29.82000 411.195
29.83000 408.322
29.84000 405.712
29.85000 411.855
29.86000 418.979
29.87000 423.797
29.88000 416.881
29.89000 408.324
29.90000 403.509
29.91000 411.294
29.92000 420.103
29.93000 426.296
29.94000 423.206
29.95000 420.592
29.96000 417.407
29.97000 413.346
29.98000 409.274
29.99000 405.711
30.00000 402.657
30.01000 399.623
30.02000 401.171
30.03000 405.652
30.04000 410.073
30.05000 412.913
30.06000 415.053
30.07000 416.684
30.08000 412.000
30.09000 405.425
30.10000 399.534
30.11000 408.220
30.12000 418.328
30.13000 427.081
30.14000 429.615
30.15000 431.377
30.16000 429.983
30.17000 418.928
30.18000 407.199
30.19000 399.206
30.20000 407.639
30.21000 414.319
30.22000 417.292
30.23000 415.099
30.24000 412.870
30.25000 407.610
30.26000 399.619
30.27000 391.707
30.28000 391.831
30.29000 396.630
30.30000 401.366
30.31000 404.756
30.32000 407.603
30.33000 409.964
30.34000 407.087
30.35000 402.788
30.36000 398.990
30.37000 400.297
30.38000 402.210
30.39000 403.627
30.40000 402.981
30.41000 402.109
30.42000 402.116
30.43000 404.570
30.44000 407.168
30.45000 408.881
30.46000 414.356
30.47000 418.457
30.48000 421.743
30.49000 423.999
30.50000 426.232
30.51000 420.520
30.52000 408.355
30.53000 396.362
30.54000 401.032
30.55000 414.325
30.56000 426.684
30.57000 422.576
30.58000 412.428
30.59000 403.438
30.60000 405.333
30.61000 409.911
30.62000 413.892
30.63000 410.405
30.64000 406.412
30.65000 404.186
30.66000 408.608
30.67000 413.668
30.68000 417.674
30.69000 419.003
30.70000 420.199
30.71000 420.961
30.72000 410.067
30.73000 402.005
30.74000 400.076
30.75000 405.119
30.76000 410.107
30.77000 404.533
30.78000 391.204
30.79000 378.129
30.80000 383.657
30.81000 397.807
30.82000 411.615
30.83000 420.336
30.84000 427.358
30.85000 433.747
30.86000 434.884
30.87000 434.851
30.88000 434.822
30.89000 436.624
30.90000 438.363
30.91000 440.376
30.92000 443.324
30.93000 446.350
30.94000 451.808
30.95000 462.889
30.96000 474.196
30.97000 481.121
30.98000 483.041
30.99000 484.374
31.00000 489.020
31.01000 497.050
31.02000 505.076
31.03000 512.616
31.04000 519.833
31.05000 526.871
31.06000 534.851
31.07000 542.874
31.08000 551.756
31.09000 571.560
31.10000 594.682
31.11000 617.944
31.12000 642.240
31.13000 666.744
31.14000 687.332
31.15000 730.509
31.16000 768.864
31.17000 802.459
31.18000 821.261
31.19000 839.004
31.20000 864.067
31.21000 904.556
31.22000 945.540
31.23000 969.634
31.24000 1030.900
31.25000 1074.294
31.26000 1117.600
31.27000 1160.825
31.28000 1203.951
31.29000 1240.474
31.30000 1273.008
31.31000 1304.523
31.32000 1333.504
31.33000 1359.944
31.34000 1385.287
31.35000 1398.548
31.36000 1408.474
31.37000 1419.886
31.38000 1441.018
31.39000 1463.911
31.40000 1482.782
31.41000 1470.882
31.42000 1458.255
31.43000 1444.960
31.44000 1429.773
31.45000 1414.471
31.46000 1395.679
31.47000 1370.192
31.48000 1344.540
31.49000 1330.108
31.50000 1254.009
31.51000 1201.069
31.52000 1166.764
31.53000 1147.851
31.54000 1128.536
31.55000 1090.141
31.56000 1041.266
31.57000 994.278
31.58000 951.766
31.59000 913.496
31.60000 875.804
31.61000 843.666
31.62000 812.919
31.63000 783.153
31.64000 759.137
31.65000 736.056
31.66000 717.414
31.67000 685.697
31.68000 658.871
31.69000 635.500
31.70000 621.035
31.71000 607.022
31.72000 588.813
31.73000 563.279
31.74000 537.611
31.75000 523.838
31.76000 512.656
31.77000 505.019
31.78000 496.723
31.79000 487.935
31.80000 479.259
31.81000 474.641
31.82000 472.051
31.83000 469.581
31.84000 468.380
31.85000 467.664
31.86000 465.914
31.87000 455.428
31.88000 442.960
31.89000 432.288
31.90000 431.067
31.91000 431.219
31.92000 431.339
31.93000 430.357
31.94000 429.493
31.95000 427.141
31.96000 421.292
31.97000 415.297
31.98000 411.449
31.99000 411.007
32.00000 410.608
32.01000 410.404
32.02000 405.439
32.03000 402.080
32.04000 395.791
32.05000 387.520
32.06000 379.675
32.07000 383.784
32.08000 393.335
32.09000 402.358
32.10000 404.787
32.11000 405.149
32.12000 404.129
32.13000 392.761
32.14000 379.275
32.15000 368.582
32.16000 371.138
32.17000 375.404
32.18000 378.698
32.19000 381.625
32.20000 383.924
32.21000 384.838
32.22000 382.788
32.23000 380.639
32.24000 379.643
32.25000 380.308
32.26000 380.987
32.27000 379.473
32.28000 375.915
32.29000 372.397
32.30000 371.660
32.31000 372.630
32.32000 373.588
32.33000 374.263
32.34000 374.822
32.35000 375.345
32.36000 372.376
32.37000 368.792
32.38000 365.863
32.39000 367.302
32.40000 369.547
32.41000 371.725
32.42000 373.615
32.43000 375.473
32.44000 376.873
32.45000 381.190
32.46000 384.713
32.47000 384.669
32.48000 377.679
32.49000 370.510
32.50000 369.976
32.51000 378.086
32.52000 386.225
32.53000 385.073
32.54000 376.145
32.55000 367.369
32.56000 366.217
32.57000 369.316
32.58000 372.393
32.59000 375.059
32.60000 377.569
32.61000 379.891
32.62000 381.728
32.63000 383.268
32.64000 383.812
32.65000 378.428
32.66000 372.062
32.67000 366.059
32.68000 361.470
32.69000 357.021
32.70000 353.759
32.71000 363.714
32.72000 371.941
32.73000 374.735
32.74000 367.901
32.75000 360.882
32.76000 358.344
32.77000 361.076
32.78000 363.809
32.79000 363.495
32.80000 360.888
32.81000 358.454
32.82000 362.539
32.83000 369.931
32.84000 376.880
32.85000 376.851
32.86000 374.421
32.87000 372.201
32.88000 365.712
32.89000 359.075
32.90000 353.861
32.91000 356.266
32.92000 359.799
32.93000 361.389
32.94000 356.129
32.95000 350.271
32.96000 346.093
32.97000 355.769
32.98000 363.601
32.99000 367.140
33.00000 363.764
33.01000 360.294
33.02000 359.764
33.03000 362.344
33.04000 364.911
33.05000 363.706
33.06000 359.955
33.07000 356.182
33.08000 351.780
33.09000 347.088
33.10000 342.481
33.11000 339.014
33.12000 335.904
33.13000 333.098
33.14000 340.327
33.15000 348.511
33.16000 354.969
33.17000 353.107
33.18000 350.149
33.19000 346.531
33.20000 340.801
33.21000 334.911
33.22000 330.836
33.23000 338.065
33.24000 343.798
33.25000 347.461
33.26000 348.098
33.27000 348.709
33.28000 347.054
33.29000 343.249
33.30000 339.475
33.31000 342.320
33.32000 349.165
33.33000 355.474
33.34000 349.228
33.35000 337.696
33.36000 327.506
33.37000 332.788
33.38000 342.475
33.39000 351.093
33.40000 342.487
33.41000 332.210
33.42000 324.483
33.43000 327.873
33.44000 332.558
33.45000 335.507
33.46000 333.395
33.47000 330.957
33.48000 329.324
33.49000 336.067
33.50000 341.239
33.51000 344.285
33.52000 344.518
33.53000 344.737
33.54000 344.818
33.55000 344.781
33.56000 344.745
33.57000 338.739
33.58000 329.587
33.59000 320.964
33.60000 322.525
33.61000 327.992
33.62000 333.412
33.63000 338.345
33.64000 343.154
33.65000 347.368
33.66000 335.203
33.67000 322.394
33.68000 312.830
33.69000 316.069
33.70000 320.620
33.71000 325.163
33.72000 329.689
33.73000 334.215
33.74000 337.144
33.75000 333.097
33.76000 330.032
33.77000 330.822
33.78000 336.219
33.79000 341.605
33.80000 341.879
33.81000 338.212
33.82000 334.607
33.83000 331.137
33.84000 327.848
33.85000 324.448
33.86000 319.257
33.87000 313.440
33.88000 308.439
33.89000 310.615
33.90000 314.472
33.91000 317.799
33.92000 324.459
33.93000 330.534
33.94000 335.768
33.95000 337.996
33.96000 339.955
33.97000 340.109
33.98000 335.896
33.99000 331.489
34.00000 328.738
34.01000 321.182
34.02000 315.684
34.03000 317.457
34.04000 327.058
34.05000 336.590
34.06000 336.943
34.07000 330.892
34.08000 324.974
34.09000 327.138
34.10000 332.851
34.11000 337.775
34.12000 331.893
34.13000 322.575
34.14000 314.674
34.15000 317.804
34.16000 323.270
34.17000 327.903
34.18000 323.157
34.19000 318.126
34.20000 315.936
34.21000 322.996
34.22000 330.769
34.23000 334.617
34.24000 329.811
34.25000 324.695
34.26000 321.625
34.27000 324.944
34.28000 327.344
34.29000 325.931
34.30000 320.834
34.31000 315.786
34.32000 314.586
34.33000 315.820
34.34000 317.020
34.35000 312.922
34.36000 306.875
34.37000 301.261
34.38000 300.766
34.39000 301.751
34.40000 303.165
34.41000 307.545
34.42000 312.490
34.43000 316.605
34.44000 324.651
34.45000 331.700
34.46000 336.412
34.47000 334.201
34.48000 331.534
34.49000 328.809
34.50000 325.966
34.51000 323.120
34.52000 321.483
34.53000 315.537
34.54000 311.368
34.55000 312.174
34.56000 317.299
34.57000 322.409
34.58000 326.642
34.59000 330.369
34.60000 333.966
34.61000 330.538
34.62000 324.736
34.63000 319.375
34.64000 318.535
34.65000 318.883
34.66000 319.152
34.67000 318.933
34.68000 318.631
34.69000 318.385
34.70000 318.518
34.71000 318.659
34.72000 317.986
34.73000 315.116
34.74000 312.124
34.75000 309.793
34.76000 308.672
34.77000 307.575
34.78000 306.973
34.79000 310.985
34.80000 313.749
34.81000 314.960
34.82000 314.955
34.83000 314.923
34.84000 313.785
34.85000 312.069
34.86000 310.425
34.87000 311.930
34.88000 314.374
34.89000 316.678
34.90000 317.732
34.91000 318.490
34.92000 318.460
34.93000 314.075
34.94000 309.020
34.95000 304.983
34.96000 302.917
34.97000 301.395
34.98000 302.679
34.99000 310.859
35.00000 319.356
35.01000 323.730
35.02000 321.256
35.03000 318.676
35.04000 317.328
35.05000 316.010
35.06000 315.117
35.07000 314.002
35.08000 312.730
35.09000 311.484
35.10000 311.035
35.11000 310.965
35.12000 310.900
35.13000 309.084
35.14000 306.889
35.15000 304.694
35.16000 302.509
35.17000 300.326
35.18000 299.341
35.19000 304.333
35.20000 310.143
35.21000 314.680
35.22000 313.452
35.23000 312.109
35.24000 310.164
35.25000 306.869
35.26000 303.524
35.27000 302.674
35.28000 305.588
35.29000 308.541
35.30000 309.914
35.31000 309.733
35.32000 309.557
35.33000 309.718
35.34000 310.097
35.35000 310.542
35.36000 312.671
35.37000 315.531
35.38000 318.219
35.39000 314.961
35.40000 310.392
35.41000 306.096
35.42000 303.722
35.43000 301.720
35.44000 299.939
35.45000 299.145
35.46000 298.471
35.47000 297.957
35.48000 296.133
35.49000 294.626
35.50000 296.223
35.51000 304.147
35.52000 312.257
35.53000 313.321
35.54000 304.751
35.55000 296.127
35.56000 294.460
35.57000 298.930
35.58000 303.348
35.59000 304.644
35.60000 304.118
35.61000 303.567
35.62000 302.527
35.63000 301.294
35.64000 300.146
35.65000 299.166
35.66000 298.321
35.67000 297.078
35.68000 293.332
35.69000 289.148
35.70000 286.856
35.71000 292.266
35.72000 298.499
35.73000 303.132
35.74000 299.217
35.75000 295.794
35.76000 296.163
35.77000 303.570
35.78000 311.135
35.79000 310.262
35.80000 298.957
35.81000 287.643
35.82000 287.700
35.83000 296.772
35.84000 305.641
35.85000 305.804
35.86000 301.342
35.87000 297.152
35.88000 297.596
35.89000 299.708
35.90000 301.650
35.91000 300.211
35.92000 298.196
35.93000 296.399
35.94000 295.824
35.95000 295.442
35.96000 296.167
35.97000 300.985
35.98000 306.185
35.99000 309.946
36.00000 298.711
36.01000 289.544
36.02000 286.184
36.03000 292.625
36.04000 299.225
36.05000 301.814
36.06000 299.933
36.07000 298.056
36.08000 296.889
36.09000 296.239
36.10000 295.584
36.11000 294.772
36.12000 293.886
36.13000 293.065
36.14000 293.206
36.15000 293.661
36.16000 294.074
36.17000 297.791
36.18000 301.712
36.19000 305.385
36.20000 307.801
36.21000 310.042
36.22000 310.560
36.23000 305.298
36.24000 299.569
36.25000 295.545
36.26000 294.202
36.27000 293.263
36.28000 293.314
36.29000 294.881
36.30000 296.464
36.31000 296.907
36.32000 296.208
36.33000 295.514
36.34000 295.886
36.35000 296.938
36.36000 297.734
36.37000 291.867
36.38000 283.066
36.39000 275.389
36.40000 281.630
36.41000 292.022
36.42000 301.332
36.43000 297.051
36.44000 290.971
36.45000 286.146
36.46000 287.061
36.47000 288.687
36.48000 289.108
36.49000 285.852
36.50000 282.341
36.51000 279.950
36.52000 285.860
36.53000 290.464
36.54000 292.008
36.55000 289.299
36.56000 286.564
36.57000 286.069
36.58000 287.584
36.59000 289.085
36.60000 288.931
36.61000 287.819
36.62000 286.756
36.63000 286.701
36.64000 287.050
36.65000 287.796
36.66000 292.790
36.67000 298.936
36.68000 304.362
36.69000 300.259
36.70000 295.257
36.71000 291.230
36.72000 291.234
36.73000 291.678
36.74000 291.637
36.75000 290.251
36.76000 288.786
36.77000 287.821
36.78000 290.888
36.79000 293.216
36.80000 294.481
36.81000 294.407
36.82000 294.321
36.83000 290.824
36.84000 284.566
36.85000 278.397
36.86000 281.630
36.87000 289.694
36.88000 297.406
36.89000 298.929
36.90000 298.189
36.91000 297.544
36.92000 297.781
36.93000 298.235
36.94000 298.629
36.95000 301.633
36.96000 304.549
36.97000 306.762
36.98000 306.337
36.99000 305.661
37.00000 303.603
37.01000 298.048
37.02000 292.323
37.03000 288.685
37.04000 292.137
37.05000 294.733
37.06000 295.927
37.07000 295.534
37.08000 295.166
37.09000 299.313
37.10000 306.765
37.11000 314.074
37.12000 309.883
37.13000 300.407
37.14000 291.515
37.15000 291.253
37.16000 293.865
37.17000 296.214
37.18000 296.382
37.19000 296.066
37.20000 295.795
37.21000 299.728
37.22000 303.546
37.23000 303.803
37.24000 291.926
37.25000 279.043
37.26000 270.819
37.27000 273.345
37.28000 276.300
37.29000 278.107
37.30000 279.470
37.31000 280.442
37.32000 279.807
37.33000 277.534
37.34000 275.287
37.35000 275.483
37.36000 277.300
37.37000 279.072
37.38000 285.169
37.39000 292.836
37.40000 299.993
37.41000 300.668
37.42000 299.381
37.43000 297.551
37.44000 291.752
37.45000 285.156
37.46000 279.617
37.47000 283.351
37.48000 287.435
37.49000 288.937
37.50000 282.434
37.51000 275.361
37.52000 272.211
37.53000 277.306
37.54000 282.664
37.55000 285.809
37.56000 284.449
37.57000 283.469
37.58000 285.240
37.59000 289.523
37.60000 293.747
37.61000 294.040
37.62000 291.965
37.63000 289.956
37.64000 287.115
37.65000 284.108
37.66000 281.930
37.67000 288.848
37.68000 298.268
37.69000 305.509
37.70000 298.543
37.71000 289.009
37.72000 281.155
37.73000 279.290
37.74000 278.304
37.75000 279.169
37.76000 285.255
37.77000 291.657
37.78000 293.574
37.79000 286.912
37.80000 280.040
37.81000 276.179
37.82000 277.111
37.83000 277.772
37.84000 279.349
37.85000 281.681
37.86000 284.002
37.87000 285.816
37.88000 287.353
37.89000 288.830
37.90000 283.867
37.91000 276.980
37.92000 271.141
37.93000 275.338
37.94000 282.041
37.95000 287.719
37.96000 287.418
37.97000 286.147
37.98000 285.121
37.99000 291.019
38.00000 296.361
38.01000 298.250
38.02000 291.266
38.03000 283.835
38.04000 279.436
38.05000 280.315
38.06000 281.289
38.07000 281.811
38.08000 286.787
38.09000 290.158
38.10000 287.927
38.11000 281.530
38.12000 275.354
38.13000 277.060
38.14000 282.693
38.15000 288.063
38.16000 284.415
38.17000 278.207
38.18000 273.060
38.19000 276.852
38.20000 282.665
38.21000 287.758
38.22000 289.083
38.23000 289.862
38.24000 290.477
38.25000 289.322
38.26000 288.274
38.27000 290.245
38.28000 299.286
38.29000 308.620
38.30000 311.049
38.31000 302.557
38.32000 293.930
38.33000 289.539
38.34000 312.634
38.35000 328.012
38.36000 331.495
38.37000 326.961
38.38000 322.817
38.39000 329.558
38.40000 341.242
38.41000 352.276
38.42000 358.161
38.43000 362.108
38.44000 367.682
38.45000 385.387
38.46000 405.568
38.47000 423.126
38.48000 428.280
38.49000 431.839
38.50000 434.584
38.51000 454.032
38.52000 470.411
38.53000 487.171
38.54000 504.744
38.55000 522.345
38.56000 547.135
38.57000 582.239
38.58000 617.418
38.59000 645.069
38.60000 665.710
38.61000 686.326
38.62000 705.167
38.63000 722.922
38.64000 740.376
38.65000 751.071
38.66000 758.971
38.67000 766.355
38.68000 783.595
38.69000 801.747
38.70000 818.481
38.71000 825.801
38.72000 831.391
38.73000 835.358
38.74000 832.391
38.75000 828.635
38.76000 825.808
38.77000 810.857
38.78000 798.571
38.79000 786.550
38.80000 775.044
38.81000 763.551
38.82000 750.992
38.83000 737.046
38.84000 723.109
38.85000 697.353
38.86000 661.805
38.87000 626.505
38.88000 603.554
38.89000 587.469
38.90000 571.279
38.91000 553.121
38.92000 534.222
38.93000 516.747
38.94000 494.642
38.95000 473.739
38.96000 453.952
38.97000 440.802
38.98000 428.747
38.99000 414.721
39.00000 393.063
39.01000 370.643
39.02000 354.211
39.03000 348.681
39.04000 344.849
39.05000 341.383
39.06000 338.565
39.07000 335.759
39.08000 331.532
39.09000 325.641
39.10000 319.762
39.11000 315.863
39.12000 313.477
39.13000 310.996
39.14000 304.977
39.15000 297.169
39.16000 289.575
39.17000 285.334
39.18000 282.243
39.19000 279.420
39.20000 278.546
39.21000 278.168
39.22000 277.718
39.23000 276.885
39.24000 275.995
39.25000 274.436
39.26000 270.529
39.27000 266.417
39.28000 263.487
39.29000 266.548
39.30000 269.075
39.31000 270.730
39.32000 270.981
39.33000 271.214
39.34000 274.178
39.35000 280.024
39.36000 285.841
39.37000 286.782
39.38000 284.413
39.39000 282.009
39.40000 278.623
39.41000 274.784
39.42000 271.098
39.43000 269.454
39.44000 268.447
39.45000 267.540
39.46000 266.863
39.47000 266.311
39.48000 266.424
39.49000 269.740
39.50000 273.475
39.51000 273.992
39.52000 264.219
39.53000 253.677
39.54000 246.388
39.55000 255.353
39.56000 262.514
39.57000 267.579
39.58000 269.588
39.59000 271.571
39.60000 270.902
39.61000 267.725
39.62000 264.574
39.63000 268.129
39.64000 275.711
39.65000 282.939
39.66000 281.944
39.67000 277.496
39.68000 272.320
39.69000 258.780
39.70000 242.866
39.71000 228.714
39.72000 238.765
39.73000 251.417
39.74000 261.415
39.75000 259.880
39.76000 257.008
39.77000 255.297
39.78000 256.965
39.79000 258.849
39.80000 260.110
39.81000 264.711
39.82000 268.190
39.83000 270.343
39.84000 270.746
39.85000 271.141
39.86000 271.255
39.87000 271.129
39.88000 271.005
39.89000 268.027
39.90000 263.551
39.91000 259.162
39.92000 256.434
39.93000 254.340
39.94000 252.886
39.95000 257.810
39.96000 264.379
39.97000 270.133
39.98000 268.151
39.99000 265.336
40.00000 262.685
40.01000 260.677
40.02000 258.735
40.03000 259.210
40.04000 266.084
40.05000 273.301
40.06000 277.969
40.07000 263.039
40.08000 251.834
40.09000 248.613
40.10000 254.910
40.11000 261.207
40.12000 263.135
40.13000 261.704
40.14000 260.298
40.15000 257.792
40.16000 254.822
40.17000 252.005
40.18000 251.655
40.19000 252.164
40.20000 252.574
40.21000 252.120
40.22000 251.463
40.23000 250.897
40.24000 247.137
40.25000 243.543
40.26000 241.876
40.27000 247.091
40.28000 252.917
40.29000 256.190
40.30000 253.301
40.31000 250.140
40.32000 248.169
40.33000 246.813
40.34000 245.841
40.35000 248.280
40.36000 254.380
40.37000 260.436
40.38000 260.851
40.39000 257.341
40.40000 253.910
40.41000 252.304
40.42000 251.584
40.43000 250.946
40.44000 251.426
40.45000 252.261
40.46000 253.384
40.47000 256.733
40.48000 260.551
40.49000 263.786
40.50000 256.741
40.51000 249.687
40.52000 243.335
40.53000 239.263
40.54000 235.366
40.55000 234.161
40.56000 238.875
40.57000 243.801
40.58000 246.752
40.59000 242.333
40.60000 239.147
40.61000 239.664
40.62000 243.744
40.63000 247.803
40.64000 250.083
40.65000 251.241
40.66000 252.365
40.67000 252.085
40.68000 251.249
40.69000 250.417
40.70000 249.626
40.71000 248.847
40.72000 247.984
40.73000 246.540
40.74000 244.985
40.75000 243.692
40.76000 242.972
40.77000 242.433
40.78000 243.604
40.79000 249.825
40.80000 256.378
40.81000 258.093
40.82000 250.123
40.83000 241.882
40.84000 237.150
40.85000 242.792
40.86000 246.775
40.87000 250.767
40.88000 254.766
40.89000 258.659
40.90000 256.648
40.91000 251.251
40.92000 246.045
40.93000 246.350
40.94000 248.650
40.95000 250.508
40.96000 247.833
40.97000 243.973
40.98000 240.306
40.99000 237.825
41.00000 235.547
41.01000 233.690
41.02000 239.933
41.03000 245.727
41.04000 250.086
41.05000 250.589
41.06000 250.879
41.07000 249.884
41.08000 246.548
41.09000 243.163
41.10000 241.306
41.11000 244.143
41.12000 246.089
41.13000 244.486
41.14000 240.111
41.15000 235.831
41.16000 235.443
41.17000 237.083
41.18000 238.654
41.19000 245.323
41.20000 253.218
41.21000 259.737
41.22000 253.935
41.23000 245.210
41.24000 237.738
41.25000 237.184
41.26000 237.689
41.27000 238.091
41.28000 235.926
41.29000 233.989
41.30000 234.314
41.31000 240.181
41.32000 246.300
41.33000 246.654
41.34000 237.454
41.35000 228.111
41.36000 223.233
41.37000 224.032
41.38000 224.608
41.39000 229.805
41.40000 238.269
41.41000 246.549
41.42000 249.109
41.43000 248.950
41.44000 248.799
41.45000 243.316
41.46000 236.676
41.47000 231.144
41.48000 234.380
41.49000 239.496
41.50000 243.337
41.51000 240.839
41.52000 237.477
41.53000 234.853
41.54000 238.301
41.55000 241.431
41.56000 242.674
41.57000 239.706
41.58000 236.582
41.59000 234.553
41.60000 234.173
41.61000 233.809
41.62000 233.204
41.63000 232.362
41.64000 231.548
41.65000 233.055
41.66000 236.052
41.67000 238.955
41.68000 239.555
41.69000 239.158
41.70000 238.785
41.71000 234.899
41.72000 230.414
41.73000 226.435
41.74000 226.009
41.75000 226.270
41.76000 227.578
41.77000 233.586
41.78000 240.162
41.79000 245.172
41.80000 235.864
41.81000 227.778
41.82000 224.123
41.83000 229.476
41.84000 235.091
41.85000 237.283
41.86000 234.808
41.87000 232.308
41.88000 232.207
41.89000 234.215
41.90000 236.173
41.91000 235.242
41.92000 232.627
41.93000 229.921
41.94000 225.352
41.95000 220.048
41.96000 215.118
41.97000 214.513
41.98000 215.005
41.99000 216.546
42.00000 224.658
42.01000 233.913
42.02000 240.380
42.03000 235.522
42.04000 229.460
42.05000 224.959
42.06000 228.807
42.07000 232.166
42.08000 232.883
42.09000 228.713
42.10000 224.435
42.11000 223.932
42.12000 228.081
42.13000 232.236
42.14000 233.330
42.15000 232.000
42.16000 230.719
42.17000 231.498
42.18000 233.369
42.19000 235.193
42.20000 236.238
42.21000 237.003
42.22000 237.706
42.23000 234.266
42.24000 230.304
42.25000 227.549
42.26000 231.580
42.27000 236.667
42.28000 241.157
42.29000 243.445
42.30000 245.529
42.31000 247.035
42.32000 242.111
42.33000 238.101
42.34000 235.090
42.35000 233.759
42.36000 232.455
42.37000 232.447
42.38000 233.876
42.39000 235.302
42.40000 232.116
42.41000 225.678
42.42000 219.559
42.43000 223.794
42.44000 233.023
42.45000 241.344
42.46000 236.631
42.47000 227.658
42.48000 219.513
42.49000 221.939
42.50000 226.116
42.51000 230.149
42.52000 233.457
42.53000 236.663
42.54000 238.469
42.55000 235.590
42.56000 232.332
42.57000 230.047
42.58000 235.514
42.59000 239.878
42.60000 238.915
42.61000 229.812
42.62000 220.623
42.63000 218.015
42.64000 221.971
42.65000 225.901
42.66000 227.164
42.67000 226.697
42.68000 226.255
42.69000 226.429
42.70000 226.875
42.71000 226.773
42.72000 219.933
42.73000 211.090
42.74000 203.172
42.75000 210.870
42.76000 220.271
42.77000 227.973
42.78000 227.922
42.79000 226.916
42.80000 226.171
42.81000 226.223
42.82000 226.329
42.83000 226.402
42.84000 226.789
42.85000 227.086
42.86000 226.632
42.87000 225.139
42.88000 223.641
42.89000 224.550
42.90000 227.614
42.91000 230.647
42.92000 233.375
42.93000 235.866
42.94000 238.125
42.95000 235.499
42.96000 230.919
42.97000 226.718
42.98000 226.567
42.99000 227.509
43.00000 228.341
43.01000 226.176
43.02000 223.849
43.03000 221.990
43.04000 222.059
43.05000 222.338
43.06000 221.674
43.07000 218.400
43.08000 214.973
43.09000 212.719
43.10000 211.514
43.11000 210.644
43.12000 211.999
43.13000 216.141
43.14000 220.296
43.15000 226.370
43.16000 233.993
43.17000 241.506
43.18000 239.238
43.19000 231.929
43.20000 224.928
43.21000 223.315
43.22000 223.665
43.23000 224.201
43.24000 226.462
43.25000 229.147
43.26000 231.479
43.27000 225.914
43.28000 220.100
43.29000 215.805
43.30000 217.193
43.31000 219.122
43.32000 220.259
43.33000 219.398
43.34000 218.438
43.35000 217.830
43.36000 220.681
43.37000 222.793
43.38000 224.728
43.39000 226.465
43.40000 228.165
43.41000 223.804
43.42000 215.021
43.43000 206.408
43.44000 210.310
43.45000 219.967
43.46000 228.949
43.47000 227.974
43.48000 223.693
43.49000 219.547
43.50000 216.508
43.51000 213.715
43.52000 211.329
43.53000 213.324
43.54000 215.529
43.55000 216.946
43.56000 215.690
43.57000 214.214
43.58000 213.846
43.59000 216.028
43.60000 218.310
43.61000 219.705
43.62000 227.911
43.63000 233.837
43.64000 233.387
43.65000 226.467
43.66000 219.614
43.67000 219.296
43.68000 223.302
43.69000 227.207
43.70000 225.950
43.71000 222.553
43.72000 219.163
43.73000 215.851
43.74000 212.564
43.75000 210.172
43.76000 214.315
43.77000 219.766
43.78000 224.341
43.79000 218.637
43.80000 212.814
43.81000 209.869
43.82000 215.822
43.83000 222.406
43.84000 227.826
43.85000 230.810
43.86000 233.717
43.87000 235.422
43.88000 231.460
43.89000 228.642
43.90000 228.068
43.91000 229.538
43.92000 230.942
43.93000 227.954
43.94000 222.329
43.95000 216.883
43.96000 213.396
43.97000 210.851
43.98000 208.619
43.99000 209.798
44.00000 211.913
44.01000 213.953
44.02000 215.504
44.03000 216.966
44.04000 218.171
44.05000 213.502
44.06000 209.126
44.07000 207.155
44.08000 211.946
44.09000 217.143
44.10000 220.530
44.11000 220.462
44.12000 220.310
44.13000 220.225
44.14000 218.020
44.15000 216.484
44.16000 214.482
44.17000 212.097
44.18000 209.848
44.19000 213.947
44.20000 221.512
44.21000 228.782
44.22000 219.858
44.23000 205.890
44.24000 193.050
44.25000 190.970
44.26000 191.569
44.27000 192.707
44.28000 196.979
44.29000 201.758
44.30000 205.612
44.31000 207.127
44.32000 208.172
44.33000 210.176
44.34000 214.637
44.35000 219.221
44.36000 223.646
44.37000 227.795
44.38000 231.939
44.39000 234.156
44.40000 229.922
44.41000 227.031
44.42000 224.646
44.43000 222.636
44.44000 220.690
44.45000 221.012
44.46000 222.460
44.47000 223.840
44.48000 220.988
44.49000 217.023
44.50000 213.330
44.51000 211.918
44.52000 211.019
44.53000 210.924
44.54000 215.029
44.55000 219.739
44.56000 223.456
44.57000 223.614
44.58000 223.499
44.59000 223.269
44.60000 222.771
44.61000 222.262
44.62000 223.525
44.63000 227.582
44.64000 231.673
44.65000 233.752
44.66000 230.861
44.67000 228.943
44.68000 229.156
44.69000 230.801
44.70000 232.274
44.71000 228.970
44.72000 223.502
44.73000 218.341
44.74000 227.351
44.75000 239.601
44.76000 249.417
44.77000 241.138
44.78000 229.177
44.79000 220.472
44.80000 227.115
44.81000 235.726
44.82000 242.365
44.83000 237.152
44.84000 232.341
44.85000 232.146
44.86000 241.769
44.87000 251.714
44.88000 254.913
44.89000 248.462
44.90000 241.939
44.91000 239.760
44.92000 241.608
44.93000 243.464
44.94000 245.930
44.95000 248.766
44.96000 251.493
44.97000 251.744
44.98000 250.974
44.99000 250.255
45.00000 253.157
45.01000 256.707
45.02000 259.743
45.03000 259.383
45.04000 258.400
45.05000 258.277
45.06000 261.823
45.07000 265.783
45.08000 268.762
45.09000 268.722
45.10000 268.545
45.11000 267.904
45.12000 266.362
45.13000 264.797
45.14000 261.866
45.15000 257.167
45.16000 252.466
45.17000 253.697
45.18000 259.862
45.19000 265.927
45.20000 267.117
45.21000 265.604
45.22000 264.056
45.23000 261.872
45.24000 259.447
45.25000 257.207
45.26000 262.212
45.27000 268.350
45.28000 273.758
45.29000 274.848
45.30000 275.228
45.31000 274.369
45.32000 268.728
45.33000 262.612
45.34000 258.133
45.35000 250.532
45.36000 244.540
45.37000 243.328
45.38000 250.544
45.39000 257.919
45.40000 260.832
45.41000 258.531
45.42000 256.229
45.43000 257.240
45.44000 260.723
45.45000 264.068
45.46000 262.345
45.47000 258.064
45.48000 254.225
45.49000 257.249
45.50000 262.623
45.51000 267.530
45.52000 268.255
45.53000 268.049
45.54000 267.161
45.55000 262.649
45.56000 257.605
45.57000 252.907
45.58000 249.419
45.59000 246.036
45.60000 243.627
45.61000 249.246
45.62000 253.787
45.63000 253.550
45.64000 245.661
45.65000 237.671
45.66000 236.697
45.67000 243.099
45.68000 249.469
45.69000 252.157
45.70000 252.330
45.71000 252.496
45.72000 252.500
45.73000 252.429
45.74000 252.201
45.75000 249.900
45.76000 246.953
45.77000 244.297
45.78000 240.692
45.79000 237.355
45.80000 235.165
45.81000 238.471
45.82000 242.495
45.83000 244.701
45.84000 241.118
45.85000 237.103
45.86000 234.330
45.87000 231.397
45.88000 229.188
45.89000 226.404
45.90000 222.785
45.91000 219.161
45.92000 220.417
45.93000 226.275
45.94000 232.084
45.95000 234.720
45.96000 235.378
45.97000 235.733
45.98000 229.096
45.99000 219.531
46.00000 210.436
46.01000 206.707
46.02000 204.498
46.03000 202.534
46.04000 210.132
46.05000 218.270
46.06000 224.821
46.07000 224.492
46.08000 223.368
46.09000 220.632
46.10000 213.221
46.11000 205.514
46.12000 200.360
46.13000 203.055
46.14000 205.208
46.15000 207.493
46.16000 209.954
46.17000 212.415
46.18000 214.430
46.19000 216.067
46.20000 217.684
46.21000 215.107
46.22000 210.295
46.23000 205.754
46.24000 206.385
46.25000 208.990
46.26000 211.147
46.27000 208.859
46.28000 205.427
46.29000 202.423
46.30000 203.818
46.31000 205.645
46.32000 206.719
46.33000 204.837
46.34000 202.655
46.35000 201.946
46.36000 205.129
46.37000 208.518
46.38000 210.707
46.39000 207.707
46.40000 205.438
46.41000 205.321
46.42000 207.760
46.43000 210.192
46.44000 210.100
46.45000 208.072
46.46000 206.079
46.47000 203.621
46.48000 201.015
46.49000 198.759
46.50000 202.097
46.51000 207.378
46.52000 211.942
46.53000 210.248
46.54000 207.097
46.55000 204.382
46.56000 205.481
46.57000 206.896
46.58000 207.181
46.59000 203.441
46.60000 199.345
46.61000 196.714
46.62000 197.609
46.63000 198.659
46.64000 199.312
46.65000 199.507
46.66000 199.643
46.67000 201.926
46.68000 206.507
46.69000 211.025
46.70000 207.729
46.71000 199.013
46.72000 190.492
46.73000 191.313
46.74000 196.280
46.75000 201.172
46.76000 205.046
46.77000 208.598
46.78000 211.684
46.79000 211.177
46.80000 209.914
46.81000 208.845
46.82000 203.709
46.83000 198.954
46.84000 195.364
46.85000 195.545
46.86000 196.014
46.87000 194.763
46.88000 189.741
46.89000 184.585
46.90000 181.500
46.91000 193.836
46.92000 202.691
46.93000 205.155
46.94000 201.486
46.95000 197.838
46.96000 195.805
46.97000 194.787
46.98000 193.799
46.99000 194.195
47.00000 195.131
47.01000 195.680
47.02000 191.716
47.03000 186.453
47.04000 181.806
47.05000 181.386
47.06000 181.766
47.07000 182.083
47.08000 187.326
47.09000 192.144
47.10000 196.177
47.11000 197.894
47.12000 199.461
47.13000 199.870
47.14000 197.966
47.15000 195.999
47.16000 194.871
47.17000 187.308
47.18000 182.007
47.19000 182.426
47.20000 187.782
47.21000 193.038
47.22000 192.838
47.23000 189.519
47.24000 186.318
47.25000 187.756
47.26000 190.800
47.27000 193.583
47.28000 193.725
47.29000 193.177
47.30000 193.348
47.31000 197.923
47.32000 203.249
47.33000 207.588
47.34000 199.110
47.35000 191.094
47.36000 185.360
47.37000 185.741
47.38000 186.458
47.39000 185.990
47.40000 183.369
47.41000 180.703
47.42000 179.242
47.43000 182.232
47.44000 184.294
47.45000 186.211
47.46000 188.015
47.47000 189.723
47.48000 187.569
47.49000 183.407
47.50000 179.424
47.51000 179.371
47.52000 180.612
47.53000 181.583
47.54000 180.135
47.55000 178.114
47.56000 177.333
47.57000 183.377
47.58000 190.461
47.59000 196.112
47.60000 193.115
47.61000 190.064
47.62000 189.132
47.63000 193.373
47.64000 197.850
47.65000 198.741
47.66000 193.708
47.67000 188.586
47.68000 185.917
47.69000 181.998
47.70000 179.380
47.71000 180.946
47.72000 185.461
47.73000 189.785
47.74000 188.184
47.75000 183.776
47.76000 179.594
47.77000 180.538
47.78000 182.925
47.79000 184.820
47.80000 182.842
47.81000 180.036
47.82000 177.775
47.83000 178.219
47.84000 179.030
47.85000 179.662
47.86000 179.632
47.87000 179.566
47.88000 179.637
47.89000 180.009
47.90000 180.392
47.91000 180.592
47.92000 180.515
47.93000 180.436
47.94000 180.212
47.95000 179.847
47.96000 179.489
47.97000 179.683
47.98000 180.229
47.99000 180.736
48.00000 180.286
48.01000 179.424
48.02000 178.614
48.03000 177.519
48.04000 176.443
48.05000 175.694
48.06000 177.223
48.07000 179.191
48.08000 181.022
48.09000 182.236
48.10000 183.375
48.11000 184.243
48.12000 186.995
48.13000 189.259
48.14000 189.872
48.15000 187.138
48.16000 184.307
48.17000 182.999
48.18000 183.762
48.19000 184.536
48.20000 184.003
48.21000 182.326
48.22000 180.653
48.23000 179.278
48.24000 178.075
48.25000 176.948
48.26000 177.352
48.27000 178.359
48.28000 179.294
48.29000 176.920
48.30000 173.986
48.31000 171.982
48.32000 175.780
48.33000 180.585
48.34000 183.996
48.35000 181.768
48.36000 178.943
48.37000 176.846
48.38000 179.110
48.39000 181.060
48.40000 183.329
48.41000 186.187
48.42000 189.057
48.43000 190.940
48.44000 191.609
48.45000 192.274
48.46000 186.484
48.47000 175.636
48.48000 165.138
48.49000 169.318
48.50000 181.252
48.51000 192.373
48.52000 189.783
48.53000 182.284
48.54000 175.394
48.55000 174.828
48.56000 175.679
48.57000 176.879
48.58000 180.033
48.59000 183.491
48.60000 185.790
48.61000 183.830
48.62000 181.475
48.63000 179.775
48.64000 178.059
48.65000 176.743
48.66000 174.776
48.67000 171.720
48.68000 168.646
48.69000 168.603
48.70000 171.917
48.71000 175.220
48.72000 176.783
48.73000 177.095
48.74000 177.352
48.75000 175.789
48.76000 173.351
48.77000 170.837
48.78000 167.228
48.79000 163.262
48.80000 159.664
48.81000 165.976
48.82000 173.447
48.83000 178.992
48.84000 174.834
48.85000 169.332
48.86000 165.520
48.87000 167.346
48.88000 169.624
48.89000 171.221
48.90000 177.624
48.91000 182.607
48.92000 184.608
48.93000 182.064
48.94000 179.473
48.95000 175.856
48.96000 171.220
48.97000 166.615
48.98000 166.860
48.99000 170.202
49.00000 173.586
49.01000 178.041
49.02000 182.965
49.03000 187.473
49.04000 186.875
49.05000 184.762
49.06000 182.871
49.07000 180.515
49.08000 178.380
49.09000 176.709
49.10000 177.149
49.11000 177.849
49.12000 179.089
49.13000 181.970
49.14000 184.965
49.15000 186.999
49.16000 186.961
49.17000 186.887
49.18000 185.834
49.19000 183.432
49.20000 181.020
49.21000 176.963
49.22000 171.438
49.23000 165.969
49.24000 167.177
49.25000 172.209
49.26000 177.076
49.27000 178.505
49.28000 178.563
49.29000 178.503
49.30000 177.189
49.31000 175.537
49.32000 174.081
49.33000 174.262
49.34000 174.668
49.35000 175.311
49.36000 176.931
49.37000 178.657
49.38000 179.296
49.39000 176.929
49.40000 174.388
49.41000 172.719
49.42000 168.538
49.43000 165.419
49.44000 165.437
49.45000 169.374
49.46000 173.317
49.47000 175.404
49.48000 175.996
49.49000 176.580
49.50000 177.693
49.51000 179.048
49.52000 180.269
49.53000 179.144
49.54000 177.167
49.55000 175.304
49.56000 174.507
49.57000 173.969
49.58000 173.503
49.59000 173.404
49.60000 173.369
49.61000 173.490
49.62000 174.194
49.63000 174.954
49.64000 175.364
49.65000 174.895
49.66000 174.383
49.67000 174.058
49.68000 165.373
49.69000 158.970
49.70000 159.297
49.71000 167.203
49.72000 175.074
49.73000 176.075
49.74000 172.079
49.75000 168.162
49.76000 167.541
49.77000 168.492
49.78000 169.640
49.79000 173.664
49.80000 178.640
49.81000 182.923
49.82000 181.529
49.83000 178.879
49.84000 176.617
49.85000 175.682
49.86000 175.051
49.87000 174.784
49.88000 175.748
49.89000 176.813
49.90000 178.425
49.91000 181.295
49.92000 184.214
49.93000 185.995
49.94000 179.918
49.95000 175.510
49.96000 173.616
49.97000 174.267
49.98000 174.891
49.99000 172.928
50.00000 169.258
50.01000 165.682
50.02000 167.271
50.03000 170.978
50.04000 174.625
50.05000 177.515
50.06000 180.177
50.07000 182.485
50.08000 182.219
50.09000 181.440
50.10000 180.786
50.11000 181.061
50.12000 181.387
50.13000 180.593
50.14000 176.346
50.15000 171.855
50.16000 168.250
50.17000 166.494
50.18000 164.797
50.19000 163.803
50.20000 160.924
50.21000 158.890
50.22000 159.407
50.23000 162.241
50.24000 165.071
50.25000 167.614
50.26000 169.985
50.27000 172.280
50.28000 175.958
50.29000 179.965
50.30000 183.565
50.31000 182.744
50.32000 180.713
50.33000 178.982
50.34000 179.186
50.35000 179.738
50.36000 180.192
50.37000 178.272
50.38000 176.477
50.39000 175.913
50.40000 178.799
50.41000 181.893
50.42000 185.118
50.43000 188.595
50.44000 192.077
50.45000 194.029
50.46000 188.184
50.47000 184.120
50.48000 182.626
50.49000 183.234
50.50000 183.856
50.51000 185.160
50.52000 186.834
50.53000 188.443
50.54000 190.366
50.55000 192.274
50.56000 193.662
50.57000 190.105
50.58000 185.322
50.59000 182.276
50.60000 189.308
50.61000 197.962
50.62000 204.938
50.63000 201.782
50.64000 198.422
50.65000 196.965
50.66000 200.373
50.67000 204.023
50.68000 205.787
50.69000 204.287
50.70000 202.729
50.71000 201.897
50.72000 196.694
50.73000 193.181
50.74000 196.540
50.75000 204.978
50.76000 213.118
50.77000 210.806
50.78000 203.314
50.79000 196.176
50.80000 193.429
50.81000 192.252
50.82000 190.868
50.83000 187.761
50.84000 184.268
50.85000 182.056
50.86000 186.526
50.87000 191.956
50.88000 196.239
50.89000 191.968
50.90000 187.967
50.91000 185.073
50.92000 184.759
50.93000 184.551
50.94000 187.574
50.95000 195.679
50.96000 203.845
50.97000 207.988
50.98000 197.658
50.99000 190.794
51.00000 189.783
51.01000 192.693
51.02000 195.442
51.03000 193.788
51.04000 190.146
51.05000 186.708
51.06000 187.684
51.07000 189.817
51.08000 191.124
51.09000 186.316
51.10000 180.268
51.11000 175.791
51.12000 178.698
51.13000 182.549
51.14000 185.516
51.15000 179.832
51.16000 174.835
51.17000 170.910
51.18000 169.259
51.19000 167.682
51.20000 166.127
51.21000 164.605
51.22000 163.083
51.23000 164.865
51.24000 169.698
51.25000 174.474
51.26000 175.462
51.27000 174.145
51.28000 172.740
51.29000 169.391
51.30000 165.240
51.31000 161.363
51.32000 164.223
51.33000 168.517
51.34000 172.212
51.35000 171.965
51.36000 170.998
51.37000 169.834
51.38000 167.835
51.39000 165.741
51.40000 164.168
51.41000 164.060
51.42000 164.046
51.43000 164.126
51.44000 164.389
51.45000 164.656
51.46000 166.310
51.47000 169.754
51.48000 173.200
51.49000 174.174
51.50000 173.093
51.51000 171.911
51.52000 165.847
51.53000 157.082
51.54000 148.766
51.55000 148.713
51.56000 151.755
51.57000 154.567
51.58000 158.029
51.59000 161.284
51.60000 163.760
51.61000 161.642
51.62000 158.772
51.63000 156.524
51.64000 156.674
51.65000 157.061
51.66000 157.344
51.67000 154.317
51.68000 151.850
51.69000 152.168
51.70000 157.378
51.71000 162.679
51.72000 165.752
51.73000 166.229
51.74000 166.701
51.75000 165.985
51.76000 164.387
51.77000 162.863
51.78000 164.080
51.79000 166.675
51.80000 168.916
51.81000 165.693
51.82000 160.605
51.83000 155.960
51.84000 158.204
51.85000 161.591
51.86000 163.991
51.87000 161.164
51.88000 157.571
51.89000 154.975
51.90000 155.865
51.91000 157.055
51.92000 157.901
51.93000 164.331
51.94000 169.407
51.95000 168.960
51.96000 159.695
51.97000 150.314
51.98000 147.519
51.99000 151.622
52.00000 155.705
52.01000 157.372
52.02000 157.394
52.03000 157.424
52.04000 157.702
52.05000 158.094
52.06000 158.418
52.07000 157.850
52.08000 157.005
52.09000 156.244
52.10000 157.274
52.11000 158.502
52.12000 159.413
52.13000 158.808
52.14000 158.007
52.15000 158.099
52.16000 161.030
52.17000 164.172
52.18000 166.341
52.19000 159.067
52.20000 153.362
52.21000 152.420
52.22000 158.379
52.23000 164.394
52.24000 165.692
52.25000 162.557
52.26000 159.448
52.27000 159.413
52.28000 161.243
52.29000 162.925
52.30000 161.186
52.31000 158.019
52.32000 155.076
52.33000 154.674
52.34000 154.990
52.35000 155.270
52.36000 156.990
52.37000 158.714
52.38000 160.356
52.39000 161.647
52.40000 162.896
52.41000 161.820
52.42000 154.019
52.43000 145.793
52.44000 140.297
52.45000 148.124
52.46000 154.184
52.47000 157.466
52.48000 157.102
52.49000 156.721
52.50000 155.793
52.51000 154.401
52.52000 153.027
52.53000 155.184
52.54000 159.218
52.55000 163.049
52.56000 163.040
52.57000 161.570
52.58000 160.336
52.59000 161.442
52.60000 163.148
52.61000 164.641
52.62000 166.965
52.63000 169.076
52.64000 169.888
52.65000 165.617
52.66000 160.831
52.67000 157.577
52.68000 158.355
52.69000 159.346
52.70000 159.985
52.71000 154.856
52.72000 151.025
52.73000 149.638
52.74000 151.146
52.75000 152.663
52.76000 155.096
52.77000 158.228
52.78000 161.307
52.79000 160.261
52.80000 157.213
52.81000 154.071
52.82000 149.445
52.83000 144.304
52.84000 140.172
52.85000 144.819
52.86000 151.503
52.87000 157.259
52.88000 155.932
52.89000 153.912
52.90000 152.341
52.91000 152.363
52.92000 152.525
52.93000 152.707
52.94000 152.937
52.95000 153.170
52.96000 153.315
52.97000 149.642
52.98000 146.958
52.99000 145.521
53.00000 145.410
53.01000 145.327
53.02000 148.494
53.03000 153.908
53.04000 159.200
53.05000 158.998
53.06000 156.356
53.07000 153.874
53.08000 153.564
53.09000 153.940
53.10000 153.954
53.11000 151.182
53.12000 147.826
53.13000 144.985
53.14000 146.572
53.15000 148.392
53.16000 149.881
53.17000 150.302
53.18000 150.642
53.19000 151.474
53.20000 153.383
53.21000 155.330
53.22000 156.494
53.23000 163.846
53.24000 169.101
53.25000 170.797
53.26000 169.090
53.27000 167.364
53.28000 164.161
53.29000 160.033
53.30000 156.023
53.31000 157.223
53.32000 160.459
53.33000 163.430
53.34000 163.313
53.35000 162.311
53.36000 161.359
53.37000 160.748
53.38000 160.201
53.39000 159.747
53.40000 156.593
53.41000 153.722
53.42000 152.269
53.43000 154.979
53.44000 157.959
53.45000 159.271
53.46000 157.266
53.47000 155.170
53.48000 153.970
53.49000 152.452
53.50000 151.390
53.51000 150.144
53.52000 148.740
53.53000 147.395
53.54000 149.250
53.55000 152.928
53.56000 156.476
53.57000 154.337
53.58000 150.259
53.59000 146.644
53.60000 147.705
53.61000 149.983
53.62000 151.542
53.63000 148.705
53.64000 145.122
53.65000 142.204
53.66000 147.834
53.67000 153.154
53.68000 156.279
53.69000 153.532
53.70000 150.464
53.71000 148.975
53.72000 150.346
53.73000 151.776
53.74000 152.558
53.75000 156.118
53.76000 158.554
53.77000 157.051
53.78000 152.491
53.79000 148.122
53.80000 151.375
53.81000 158.581
53.82000 165.476
53.83000 166.014
53.84000 164.434
53.85000 162.557
53.86000 158.045
53.87000 152.910
53.88000 148.588
53.89000 148.716
53.90000 149.520
53.91000 150.161
53.92000 147.688
53.93000 145.466
53.94000 144.858
53.95000 148.180
53.96000 151.679
53.97000 155.052
53.98000 158.215
53.99000 161.376
54.00000 163.021
54.01000 159.775
54.02000 157.588
54.03000 156.320
54.04000 155.699
54.05000 155.004
54.06000 152.040
54.07000 148.005
54.08000 144.179
54.09000 146.715
54.10000 150.931
54.11000 154.865
54.12000 156.597
54.13000 157.859
54.14000 157.823
54.15000 151.371
54.16000 144.050
54.17000 138.344
54.18000 140.832
54.19000 143.323
54.20000 145.434
54.21000 146.701
54.22000 147.938
54.23000 148.094
54.24000 146.633
54.25000 145.157
54.26000 146.573
54.27000 150.803
54.28000 154.992
54.29000 155.772
54.30000 154.379
54.31000 153.047
54.32000 153.227
54.33000 154.057
54.34000 154.837
54.35000 150.936
54.36000 146.135
54.37000 141.961
54.38000 142.153
54.39000 143.186
54.40000 144.490
54.41000 147.002
54.42000 149.659
54.43000 151.681
54.44000 153.244
54.45000 154.450
54.46000 154.459
54.47000 152.048
54.48000 149.568
54.49000 150.200
54.50000 155.048
54.51000 159.917
54.52000 159.743
54.53000 155.165
54.54000 150.683
54.55000 151.665
54.56000 155.808
54.57000 159.641
54.58000 157.216
54.59000 152.336
54.60000 147.804
54.61000 147.908
54.62000 149.107
54.63000 149.981
54.64000 148.824
54.65000 147.317
54.66000 147.535
54.67000 154.718
54.68000 162.636
54.69000 168.507
54.70000 164.065
54.71000 160.166
54.72000 158.196
54.73000 159.776
54.74000 161.433
54.75000 161.916
54.76000 160.962
54.77000 160.006
54.78000 158.155
54.79000 155.610
54.80000 153.071
54.81000 150.768
54.82000 148.588
54.83000 146.610
54.84000 148.014
54.85000 150.627
54.86000 153.025
54.87000 157.136
54.88000 161.170
54.89000 163.788
54.90000 158.509
54.91000 152.009
54.92000 147.289
54.93000 149.092
54.94000 151.497
54.95000 153.231
54.96000 154.698
54.97000 155.813
54.98000 154.685
54.99000 149.803
55.00000 144.863
55.01000 144.514
55.02000 149.234
55.03000 153.939
55.04000 154.800
55.05000 152.937
55.06000 151.026
55.07000 147.586
55.08000 143.412
55.09000 139.856
55.10000 145.092
55.11000 153.186
55.12000 160.527
55.13000 164.456
55.14000 167.271
55.15000 168.614
55.16000 162.573
55.17000 155.512
55.18000 150.905
55.19000 154.463
55.20000 158.673
55.21000 161.622
55.22000 159.316
55.23000 157.421
55.24000 157.246
55.25000 159.685
55.26000 162.150
55.27000 162.858
55.28000 161.824
55.29000 160.798
55.30000 159.420
55.31000 157.839
55.32000 156.423
55.33000 159.208
55.34000 163.829
55.35000 168.412
55.36000 172.533
55.37000 176.517
55.38000 180.082
55.39000 178.483
55.40000 176.208
55.41000 174.051
55.42000 172.431
55.43000 170.877
55.44000 170.772
55.45000 175.053
55.46000 179.635
55.47000 182.744
55.48000 181.287
55.49000 180.098
55.50000 179.759
55.51000 180.593
55.52000 181.436
55.53000 185.148
55.54000 191.412
55.55000 197.612
55.56000 204.167
55.57000 210.781
55.58000 217.106
55.59000 217.423
55.60000 215.348
55.61000 213.754
55.62000 217.250
55.63000 222.114
55.64000 226.401
55.65000 232.750
55.66000 238.536
55.67000 245.718
55.68000 258.627
55.69000 272.153
55.70000 284.140
55.71000 291.886
55.72000 299.387
55.73000 304.312
55.74000 322.814
55.75000 336.654
55.76000 345.578
55.77000 348.383
55.78000 351.175
55.79000 356.060
55.80000 362.625
55.81000 369.093
55.82000 377.222
55.83000 385.973
55.84000 394.914
55.85000 407.144
55.86000 420.566
55.87000 433.134
55.88000 437.796
55.89000 440.533
55.90000 442.909
55.91000 454.721
55.92000 466.053
55.93000 474.914
55.94000 474.584
55.95000 473.388
55.96000 473.294
55.97000 475.967
55.98000 478.773
55.99000 480.551
56.00000 470.747
56.01000 463.498
56.02000 460.776
56.03000 463.138
56.04000 465.447
56.05000 458.811
56.06000 445.684
56.07000 432.817
56.08000 424.666
56.09000 419.031
56.10000 413.136
56.11000 403.451
56.12000 392.515
56.13000 382.632
56.14000 381.344
56.15000 381.951
56.16000 382.468
56.17000 365.580
56.18000 349.301
56.19000 335.137
56.20000 328.121
56.21000 321.689
56.22000 317.169
56.23000 317.020
56.24000 317.042
56.25000 317.055
56.26000 300.061
56.27000 287.780
56.28000 276.370
56.29000 265.840
56.30000 255.325
56.31000 246.325
56.32000 238.321
56.33000 230.522
56.34000 228.254
56.35000 228.429
56.36000 228.350
56.37000 225.083
56.38000 220.858
56.39000 216.622
56.40000 212.308
56.41000 207.977
56.42000 204.347
56.43000 196.870
56.44000 190.251
56.45000 184.599
56.46000 181.918
56.47000 179.445
56.48000 178.760
56.49000 181.798
56.50000 184.952
56.51000 186.797
56.52000 178.293
56.53000 172.260
56.54000 168.743
56.55000 167.503
56.56000 166.216
56.57000 161.935
56.58000 155.867
56.59000 149.994
56.60000 153.671
56.61000 160.792
56.62000 167.487
56.63000 169.578
56.64000 170.413
56.65000 170.572
56.66000 166.367
56.67000 161.381
56.68000 157.281
56.69000 154.132
56.70000 151.630
56.71000 150.538
56.72000 153.389
56.73000 156.474
56.74000 158.297
56.75000 157.725
56.76000 157.095
56.77000 156.743
56.78000 158.433
56.79000 159.597
56.80000 156.524
56.81000 149.996
56.82000 143.572
56.83000 141.915
56.84000 142.845
56.85000 143.739
56.86000 143.552
56.87000 143.004
56.88000 142.847
56.89000 146.389
56.90000 150.845
56.91000 154.716
56.92000 155.206
56.93000 155.153
56.94000 155.110
56.95000 155.301
56.96000 155.474
56.97000 154.745
56.98000 151.716
56.99000 148.574
57.00000 146.362
57.01000 145.757
57.02000 145.180
57.03000 144.872
57.04000 147.281
57.05000 148.916
57.06000 149.287
57.07000 148.726
57.08000 148.107
57.09000 145.488
57.10000 141.882
57.11000 138.446
57.12000 141.198
57.13000 145.667
57.14000 149.762
57.15000 150.739
57.16000 151.017
57.17000 150.691
57.18000 147.226
57.19000 143.311
57.20000 140.226
57.21000 141.138
57.22000 142.137
57.23000 143.768
57.24000 146.863
57.25000 150.017
57.26000 151.377
57.27000 149.923
57.28000 148.434
57.29000 147.681
57.30000 147.283
57.31000 147.020
57.32000 147.020
57.33000 147.197
57.34000 147.383
57.35000 147.800
57.36000 148.323
57.37000 148.816
57.38000 147.886
57.39000 146.636
57.40000 145.605
57.41000 146.194
57.42000 147.110
57.43000 147.231
57.44000 143.629
57.45000 139.553
57.46000 136.415
57.47000 130.791
57.48000 126.198
57.49000 125.444
57.50000 132.812
57.51000 140.443
57.52000 144.010
57.53000 141.799
57.54000 139.545
57.55000 137.987
57.56000 137.070
57.57000 136.199
57.58000 138.396
57.59000 142.453
57.60000 146.268
57.61000 144.712
57.62000 140.954
57.63000 137.445
57.64000 136.528
57.65000 136.348
57.66000 136.026
57.67000 134.765
57.68000 133.334
57.69000 132.864
57.70000 136.468
57.71000 140.530
57.72000 143.580
57.73000 138.455
57.74000 134.060
57.75000 131.124
57.76000 130.999
57.77000 130.945
57.78000 132.061
57.79000 134.683
57.80000 137.308
57.81000 139.122
57.82000 140.261
57.83000 141.419
57.84000 143.529
57.85000 146.162
57.86000 148.643
57.87000 148.342
57.88000 147.001
57.89000 145.763
57.90000 145.894
57.91000 146.321
57.92000 146.398
57.93000 144.410
57.94000 142.086
57.95000 140.434
57.96000 141.359
57.97000 142.539
57.98000 143.402
57.99000 141.067
58.00000 139.139
58.01000 137.555
58.02000 136.573
58.03000 135.602
58.04000 135.808
58.05000 137.382
58.06000 138.953
58.07000 141.235
58.08000 144.030
58.09000 146.704
58.10000 145.015
58.11000 141.135
58.12000 137.503
58.13000 137.685
58.14000 139.164
58.15000 140.515
58.16000 139.967
58.17000 139.097
58.18000 138.272
58.19000 137.678
58.20000 137.118
58.21000 135.640
58.22000 130.958
58.23000 126.002
58.24000 122.480
58.25000 124.494
58.26000 126.203
58.27000 128.596
58.28000 132.076
58.29000 135.571
58.30000 135.814
58.31000 132.662
58.32000 129.526
58.33000 129.737
58.34000 132.188
58.35000 134.534
58.36000 133.918
58.37000 131.947
58.38000 130.303
58.39000 132.935
58.40000 136.891
58.41000 140.454
58.42000 140.686
58.43000 140.290
58.44000 139.742
58.45000 138.474
58.46000 137.112
58.47000 135.818
58.48000 134.737
58.49000 133.671
58.50000 132.936
58.51000 133.688
58.52000 134.289
58.53000 133.833
58.54000 131.850
58.55000 129.855
58.56000 130.572
58.57000 133.832
58.58000 137.064
58.59000 135.817
58.60000 131.888
58.61000 128.243
58.62000 131.083
58.63000 136.624
58.64000 141.665
58.65000 141.057
58.66000 138.858
58.67000 136.906
58.68000 133.323
58.69000 129.956
58.70000 127.820
58.71000 130.990
58.72000 134.768
58.73000 137.393
58.74000 136.694
58.75000 135.787
58.76000 135.181
58.77000 134.853
58.78000 134.616
58.79000 135.410
58.80000 137.552
58.81000 139.696
58.82000 139.424
58.83000 137.116
58.84000 134.837
58.85000 136.220
58.86000 139.565
58.87000 142.634
58.88000 140.506
58.89000 136.408
58.90000 132.452
58.91000 129.898
58.92000 127.701
58.93000 125.780
58.94000 128.963
58.95000 132.417
58.96000 134.140
58.97000 129.111
58.98000 123.402
58.99000 121.619
59.00000 130.146
59.01000 139.217
59.02000 145.065
59.03000 136.008
59.04000 129.181
59.05000 127.433
59.06000 131.685
59.07000 135.932
59.08000 137.031
59.09000 135.733
59.10000 134.456
59.11000 135.342
59.12000 137.264
59.13000 139.203
59.14000 141.431
59.15000 143.759
59.16000 145.400
59.17000 141.087
59.18000 135.397
59.19000 130.499
59.20000 127.796
59.21000 125.782
59.22000 124.687
59.23000 126.841
59.24000 129.281
59.25000 131.177
59.26000 131.775
59.27000 132.316
59.28000 132.653
59.29000 128.116
59.30000 124.802
59.31000 125.026
59.32000 129.008
59.33000 132.987
59.34000 136.480
59.35000 139.639
59.36000 142.727
59.37000 137.578
59.38000 128.985
59.39000 121.068
59.40000 122.266
59.41000 126.330
59.42000 129.571
59.43000 126.509
59.44000 122.129
59.45000 118.424
59.46000 120.516
59.47000 122.909
59.48000 125.663
59.49000 129.579
59.50000 133.584
59.51000 136.261
59.52000 136.048
59.53000 135.733
59.54000 135.545
59.55000 140.108
59.56000 143.373
59.57000 141.734
59.58000 135.422
59.59000 129.190
59.60000 129.123
59.61000 132.913
59.62000 136.593
59.63000 136.966
59.64000 135.993
59.65000 134.813
59.66000 131.223
59.67000 126.945
59.68000 124.224
59.69000 132.124
59.70000 142.026
59.71000 150.246
59.72000 148.293
59.73000 145.694
59.74000 143.150
59.75000 140.769
59.76000 138.398
59.77000 136.671
59.78000 136.221
59.79000 135.806
59.80000 135.569
59.81000 133.265
59.82000 131.654
59.83000 132.937
59.84000 136.703
59.85000 140.380
59.86000 139.321
59.87000 135.569
59.88000 131.952
59.89000 132.491
59.90000 134.502
59.91000 136.360
59.92000 136.663
59.93000 136.563
59.94000 136.334
59.95000 135.316
59.96000 134.165
59.97000 133.228
59.98000 130.843
59.99000 128.774
60.00000 127.875
60.01000 130.096
60.02000 132.486
60.03000 133.884
60.04000 133.489
60.05000 133.057
60.06000 132.821
60.07000 126.710
60.08000 122.526
60.09000 123.681
60.10000 128.969
60.11000 134.174
60.12000 136.097
60.13000 136.322
60.14000 136.537
60.15000 134.665
60.16000 132.240
60.17000 129.933
60.18000 128.658
60.19000 127.625
60.20000 127.342
60.21000 131.150
60.22000 135.579
60.23000 139.107
60.24000 136.941
60.25000 134.782
60.26000 133.501
60.27000 134.351
60.28000 135.296
60.29000 133.359
60.30000 126.685
60.31000 119.943
60.32000 116.440
60.33000 122.953
60.34000 127.340
60.35000 129.809
60.36000 130.934
60.37000 131.926
60.38000 128.842
60.39000 123.840
60.40000 119.098
60.41000 121.204
60.42000 125.160
60.43000 128.717
60.44000 129.162
60.45000 128.947
60.46000 129.128
60.47000 131.267
60.48000 133.670
60.49000 135.541
60.50000 130.793
60.51000 126.603
60.52000 124.239
60.53000 125.914
60.54000 127.736
60.55000 129.350
60.56000 130.654
60.57000 131.955
60.58000 130.619
60.59000 126.724
60.60000 122.883
60.61000 123.462
60.62000 126.850
60.63000 130.219
60.64000 133.137
60.65000 135.862
60.66000 138.420
60.67000 138.059
60.68000 136.957
60.69000 135.594
60.70000 132.424
60.71000 128.908
60.72000 125.988
60.73000 125.724
60.74000 125.777
60.75000 125.817
60.76000 131.053
60.77000 135.442
60.78000 137.168
60.79000 133.528
60.80000 129.735
60.81000 129.279
60.82000 133.331
60.83000 137.404
60.84000 140.909
60.85000 143.913
60.86000 146.809
60.87000 143.614
60.88000 136.903
60.89000 130.446
60.90000 129.095
60.91000 129.739
60.92000 130.337
60.93000 128.983
60.94000 127.298
60.95000 126.383
60.96000 130.246
60.97000 134.931
60.98000 138.075
60.99000 135.014
61.00000 131.301
61.01000 128.551
61.02000 127.714
61.03000 127.148
61.04000 129.267
61.05000 136.313
61.06000 143.465
61.07000 144.919
61.08000 139.416
61.09000 133.908
61.10000 130.769
61.11000 129.500
61.12000 128.288
61.13000 129.383
61.14000 131.690
61.15000 133.918
61.16000 134.826
61.17000 135.264
61.18000 135.666
61.19000 140.519
61.20000 145.796
61.21000 149.969
61.22000 148.001
61.23000 145.086
61.24000 142.120
61.25000 138.969
61.26000 135.801
61.27000 133.518
61.28000 136.124
61.29000 138.293
61.30000 139.274
61.31000 138.272
61.32000 137.240
61.33000 137.765
61.34000 140.004
61.35000 142.235
61.36000 141.788
61.37000 139.459
61.38000 137.144
61.39000 135.288
61.40000 133.653
61.41000 132.284
61.42000 134.701
61.43000 138.345
61.44000 141.648
61.45000 139.729
61.46000 137.041
61.47000 135.591
61.48000 140.339
61.49000 145.938
61.50000 151.369
61.51000 156.239
61.52000 161.065
61.53000 164.443
61.54000 177.521
61.55000 187.683
61.56000 199.289
61.57000 213.081
61.58000 226.896
61.59000 236.280
61.60000 241.289
61.61000 246.263
61.62000 250.830
61.63000 255.067
61.64000 259.152
61.65000 259.366
61.66000 257.894
61.67000 256.679
61.68000 258.572
61.69000 261.381
61.70000 263.894
61.71000 264.152
61.72000 263.993
61.73000 263.418
61.74000 260.963
61.75000 258.277
61.76000 254.340
61.77000 246.624
61.78000 238.650
61.79000 233.242
61.80000 218.365
61.81000 207.061
61.82000 196.255
61.83000 186.133
61.84000 176.018
61.85000 168.716
61.86000 163.911
61.87000 159.157
61.88000 156.310
61.89000 154.621
61.90000 152.876
61.91000 150.000
61.92000 146.675
61.93000 143.941
61.94000 147.440
61.95000 152.608
61.96000 157.162
61.97000 152.274
61.98000 146.635
61.99000 142.193
62.00000 142.645
62.01000 143.622
62.02000 145.572
62.03000 150.195
62.04000 154.972
62.05000 158.105
62.06000 145.752
62.07000 136.411
62.08000 132.808
62.09000 136.327
62.10000 139.862
62.11000 142.136
62.12000 143.403
62.13000 144.651
62.14000 140.847
62.15000 134.541
62.16000 128.758
62.17000 131.946
62.18000 138.377
62.19000 144.165
62.20000 144.015
62.21000 142.424
62.22000 141.043
62.23000 138.932
62.24000 137.037
62.25000 135.792
62.26000 136.960
62.27000 138.356
62.28000 138.401
62.29000 135.066
62.30000 131.570
62.31000 129.358
62.32000 130.964
62.33000 132.173
62.34000 135.446
62.35000 141.028
62.36000 146.578
62.37000 146.740
62.38000 143.005
62.39000 139.345
62.40000 138.628
62.41000 139.313
62.42000 139.920
62.43000 139.405
62.44000 138.521
62.45000 137.651
62.46000 136.895
62.47000 136.163
62.48000 135.539
62.49000 133.939
62.50000 132.478
62.51000 132.472
62.52000 137.369
62.53000 142.665
62.54000 144.668
62.55000 139.161
62.56000 133.363
62.57000 129.833
62.58000 129.064
62.59000 128.536
62.60000 129.904
62.61000 133.177
62.62000 136.457
62.63000 140.366
62.64000 144.689
62.65000 148.900
62.66000 148.541
62.67000 146.272
62.68000 144.057
62.69000 142.510
62.70000 141.163
62.71000 140.020
62.72000 140.342
62.73000 140.955
62.74000 141.468
62.75000 141.691
62.76000 141.845
62.77000 142.200
62.78000 143.169
62.79000 144.181
62.80000 145.249
62.81000 146.433
62.82000 147.621
62.83000 148.315
62.84000 146.704
62.85000 145.559
62.86000 143.501
62.87000 140.618
62.88000 137.809
62.89000 139.606
62.90000 144.145
62.91000 148.537
62.92000 151.060
62.93000 152.733
62.94000 154.284
62.95000 154.514
62.96000 154.386
62.97000 153.746
62.98000 149.817
62.99000 145.301
63.00000 141.589
63.01000 142.223
63.02000 143.135
63.03000 144.658
63.04000 147.887
63.05000 151.217
63.06000 151.833
63.07000 147.317
63.08000 142.679
63.09000 140.088
63.10000 146.709
63.11000 151.299
63.12000 149.725
63.13000 143.138
63.14000 136.719
63.15000 137.882
63.16000 143.149
63.17000 148.207
63.18000 151.283
63.19000 153.481
63.20000 155.220
63.21000 152.636
63.22000 148.986
63.23000 145.872
63.24000 145.853
63.25000 146.328
63.26000 146.711
63.27000 136.983
63.28000 128.302
63.29000 125.158
63.30000 136.081
63.31000 147.698
63.32000 155.337
63.33000 156.132
63.34000 156.808
63.35000 157.168
63.36000 147.244
63.37000 140.507
63.38000 138.667
63.39000 140.426
63.40000 142.180
63.41000 143.747
63.42000 145.223
63.43000 146.628
63.44000 144.809
63.45000 142.127
63.46000 139.723
63.47000 139.634
63.48000 140.061
63.49000 140.735
63.50000 142.690
63.51000 144.829
63.52000 146.512
63.53000 149.829
63.54000 152.596
63.55000 154.556
63.56000 154.644
63.57000 154.657
63.58000 155.061
63.59000 156.078
63.60000 157.102
63.61000 157.619
63.62000 157.177
63.63000 156.880
63.64000 156.461
63.65000 155.961
63.66000 155.368
63.67000 152.261
63.68000 148.026
63.69000 144.031
63.70000 143.406
63.71000 143.772
63.72000 144.519
63.73000 148.064
63.74000 152.173
63.75000 155.736
63.76000 156.745
63.77000 157.431
63.78000 157.958
63.79000 157.938
63.80000 157.891
63.81000 157.471
63.82000 156.263
63.83000 155.029
63.84000 153.724
63.85000 152.318
63.86000 150.911
63.87000 150.063
63.88000 149.726
63.89000 149.380
63.90000 148.391
63.91000 147.013
63.92000 145.842
63.93000 149.228
63.94000 154.478
63.95000 159.380
63.96000 162.260
63.97000 164.364
63.98000 165.823
63.99000 163.048
64.00000 159.504
64.01000 156.581
64.02000 156.280
64.03000 156.272
64.04000 156.266
64.05000 155.313
64.06000 154.524
64.07000 154.664
64.08000 156.588
64.09000 158.556
64.10000 160.135
64.11000 161.216
64.12000 162.294
64.13000 158.232
64.14000 149.948
64.15000 141.877
64.16000 143.966
64.17000 151.641
64.18000 158.900
64.19000 158.604
64.20000 155.493
64.21000 152.620
64.22000 156.778
64.23000 162.086
64.24000 166.161
64.25000 163.007
64.26000 158.676
64.27000 154.954
64.28000 153.559
64.29000 152.394
64.30000 151.542
64.31000 154.119
64.32000 156.240
64.33000 158.754
64.34000 161.957
64.35000 165.172
64.36000 167.489
64.37000 168.766
64.38000 170.038
64.39000 166.992
64.40000 160.765
64.41000 154.678
64.42000 153.591
64.43000 155.005
64.44000 156.533
64.45000 159.796
64.46000 163.649
64.47000 167.162
64.48000 167.006
64.49000 166.130
64.50000 165.370
64.51000 165.227
64.52000 165.173
64.53000 164.295
64.54000 160.551
64.55000 156.563
64.56000 153.732
64.57000 163.172
64.58000 170.744
64.59000 175.791
64.60000 176.830
64.61000 177.818
64.62000 176.797
64.63000 173.685
64.64000 170.590
64.65000 167.889
64.66000 165.485
64.67000 163.259
64.68000 166.040
64.69000 171.102
64.70000 175.585
64.71000 172.484
64.72000 167.043
64.73000 162.144
64.74000 168.234
64.75000 175.548
64.76000 181.869
64.77000 183.475
64.78000 184.472
64.79000 184.670
64.80000 182.346
64.81000 179.836
64.82000 178.108
64.83000 177.337
64.84000 176.783
64.85000 177.367
64.86000 179.591
64.87000 181.828
64.88000 181.251
64.89000 178.049
64.90000 174.874
64.91000 177.288
64.92000 183.024
64.93000 188.629
64.94000 191.235
64.95000 192.598
64.96000 193.889
64.97000 194.374
64.98000 194.635
64.99000 194.865
65.00000 195.036
65.01000 195.175
65.02000 194.724
65.03000 191.746
65.04000 188.479
65.05000 187.454
65.06000 192.876
65.07000 198.701
65.08000 202.585
65.09000 196.896
65.10000 192.500
65.11000 194.712
65.12000 205.539
65.13000 216.383
65.14000 216.410
65.15000 207.345
65.16000 198.395
65.17000 200.288
65.18000 208.027
65.19000 215.454
65.20000 217.024
65.21000 216.379
65.22000 215.985
65.23000 218.064
65.24000 220.774
65.25000 223.142
65.26000 224.288
65.27000 225.095
65.28000 226.311
65.29000 229.117
65.30000 232.083
65.31000 234.433
65.32000 235.170
65.33000 235.822
65.34000 236.243
65.35000 237.633
65.36000 238.662
65.37000 240.867
65.38000 244.458
65.39000 248.040
65.40000 249.245
65.41000 248.646
65.42000 248.057
65.43000 255.222
65.44000 265.952
65.45000 276.174
65.46000 278.416
65.47000 277.909
65.48000 277.173
65.49000 274.465
65.50000 271.302
65.51000 268.581
65.52000 278.583
65.53000 288.645
65.54000 296.434
65.55000 296.197
65.56000 295.260
65.57000 295.992
65.58000 300.706
65.59000 305.591
65.60000 308.622
65.61000 315.988
65.62000 321.329
65.63000 327.982
65.64000 336.024
65.65000 344.083
65.66000 354.208
65.67000 365.753
65.68000 377.033
65.69000 415.665
65.70000 464.789
65.71000 513.511
65.72000 556.851
65.73000 598.505
65.74000 641.864
65.75000 698.255
65.76000 757.363
65.77000 807.326
65.78000 863.152
65.79000 910.495
65.80000 956.159
65.81000 996.438
65.82000 1036.311
65.83000 1063.119
65.84000 1061.527
65.85000 1058.952
65.86000 1057.416
65.87000 1065.227
65.88000 1070.819
65.89000 1070.485
65.90000 1064.519
65.91000 1058.351
65.92000 1036.950
65.93000 1006.047
65.94000 976.043
65.95000 932.255
65.96000 885.180
65.97000 836.206
65.98000 765.295
65.99000 688.132
66.00000 614.397
66.01000 563.945
66.02000 517.867
66.03000 479.639
66.04000 447.027
66.05000 420.619
66.06000 395.570
66.07000 374.489
66.08000 353.664
66.09000 336.431
66.10000 326.310
66.11000 316.382
66.12000 310.712
66.13000 318.672
66.14000 324.257
66.15000 319.201
66.16000 305.051
66.17000 291.186
66.18000 292.362
66.19000 302.064
66.20000 311.416
66.21000 308.181
66.22000 300.597
66.23000 294.670
66.24000 305.395
66.25000 320.427
66.26000 334.587
66.27000 343.444
66.28000 351.406
66.29000 357.881
66.30000 366.677
66.31000 374.051
66.32000 382.187
66.33000 392.349
66.34000 402.620
66.35000 411.881
66.36000 419.323
66.37000 426.728
66.38000 430.765
66.39000 435.096
66.40000 438.061
66.41000 438.985
66.42000 438.335
66.43000 437.729
66.44000 438.860
66.45000 440.887
66.46000 442.826
66.47000 441.536
66.48000 439.284
66.49000 436.586
66.50000 429.954
66.51000 422.399
66.52000 414.040
66.53000 401.295
66.54000 387.889
66.55000 377.216
66.56000 369.363
66.57000 363.235
66.58000 356.082
66.59000 346.448
66.60000 336.703
66.61000 326.071
66.62000 313.988
66.63000 301.885
66.64000 295.605
66.65000 301.648
66.66000 305.712
66.67000 307.638
66.68000 308.071
66.69000 308.584
66.70000 311.541
66.71000 315.645
66.72000 319.535
66.73000 322.639
66.74000 325.269
66.75000 327.542
66.76000 327.035
66.77000 325.939
66.78000 325.709
66.79000 329.733
66.80000 334.328
66.81000 337.903
66.82000 339.571
66.83000 340.781
66.84000 339.817
66.85000 334.053
66.86000 328.117
66.87000 325.291
66.88000 327.089
66.89000 328.929
66.90000 335.226
66.91000 345.830
66.92000 356.300
66.93000 355.904
66.94000 348.624
66.95000 341.582
66.96000 340.311
66.97000 341.509
66.98000 342.633
66.99000 342.253
67.00000 341.509
67.01000 341.370
67.02000 345.413
67.03000 350.255
67.04000 354.213
67.05000 354.252
67.06000 353.826
67.07000 353.502
67.08000 361.739
67.09000 368.658
67.10000 369.643
67.11000 358.698
67.12000 347.417
67.13000 346.514
67.14000 359.589
67.15000 372.731
67.16000 376.492
67.17000 372.106
67.18000 367.868
67.19000 371.849
67.20000 380.560
67.21000 388.857
67.22000 388.912
67.23000 385.753
67.24000 382.821
67.25000 379.164
67.26000 375.695
67.27000 373.544
67.28000 379.546
67.29000 386.947
67.30000 392.378
67.31000 389.900
67.32000 386.595
67.33000 384.148
67.34000 392.254
67.35000 399.000
67.36000 400.876
67.37000 393.845
67.38000 386.623
67.39000 384.562
67.40000 388.780
67.41000 393.006
67.42000 393.365
67.43000 390.705
67.44000 388.317
67.45000 397.049
67.46000 411.604
67.47000 425.205
67.48000 422.977
67.49000 415.127
67.50000 407.923
67.51000 422.589
67.52000 440.309
67.53000 455.161
67.54000 454.103
67.55000 450.599
67.56000 447.172
67.57000 444.027
67.58000 440.907
67.59000 438.661
67.60000 432.423
67.61000 427.505
67.62000 427.757
67.63000 436.608
67.64000 445.590
67.65000 450.699
67.66000 451.561
67.67000 452.417
67.68000 451.114
67.69000 448.306
67.70000 445.688
67.71000 449.046
67.72000 455.254
67.73000 461.633
67.74000 470.426
67.75000 480.000
67.76000 488.676
67.77000 488.130
67.78000 485.898
67.79000 483.642
67.80000 481.269
67.81000 478.880
67.82000 476.421
67.83000 473.729
67.84000 471.018
67.85000 469.123
67.86000 472.140
67.87000 474.558
67.88000 480.295
67.89000 491.046
67.90000 501.848
67.91000 508.223
67.92000 510.241
67.93000 512.245
67.94000 517.611
67.95000 525.021
67.96000 532.265
67.97000 535.327
67.98000 536.574
67.99000 537.610
68.00000 536.091
68.01000 533.822
68.02000 531.794
68.03000 534.724
68.04000 538.118
68.05000 541.291
68.06000 543.468
68.07000 545.524
68.08000 546.384
68.09000 543.644
68.10000 540.660
68.11000 538.639
68.12000 550.118
68.13000 558.971
68.14000 567.600
68.15000 575.923
68.16000 584.244
68.17000 591.432
68.18000 597.618
68.19000 603.739
68.20000 603.621
68.21000 599.942
68.22000 596.505
68.23000 598.067
68.24000 601.605
68.25000 605.280
68.26000 610.391
68.27000 615.884
68.28000 620.723
68.29000 631.526
68.30000 641.731
68.31000 650.362
68.32000 652.575
68.33000 654.101
68.34000 657.949
68.35000 668.155
68.36000 678.725
68.37000 685.649
68.38000 689.575
68.39000 692.412
68.40000 698.413
68.41000 708.330
68.42000 718.245
68.43000 724.053
68.44000 726.586
68.45000 729.082
68.46000 731.248
68.47000 733.177
68.48000 735.109
68.49000 737.069
68.50000 739.039
68.51000 743.566
68.52000 771.593
68.53000 805.307
68.54000 834.541
68.55000 852.951
68.56000 867.183
68.57000 884.157
68.58000 911.276
68.59000 939.343
68.60000 969.004
68.61000 1002.644
68.62000 1036.474
68.63000 1057.851
68.64000 1110.239
68.65000 1148.564
68.66000 1197.413
68.67000 1257.999
68.68000 1318.574
68.69000 1376.043
68.70000 1431.273
68.71000 1485.392
68.72000 1546.303
68.73000 1608.058
68.74000 1668.849
68.75000 1715.690
68.76000 1757.955
68.77000 1802.507
68.78000 1865.595
68.79000 1932.744
68.80000 1989.994
68.81000 2076.855
68.82000 2153.415
68.83000 2231.098
68.84000 2312.558
68.85000 2394.324
68.86000 2504.275
68.87000 2678.318
68.88000 2854.840
68.89000 2962.165
68.90000 3542.014
68.91000 3959.709
68.92000 4783.855
68.93000 6015.103
68.94000 7256.193
68.95000 9411.202
68.96000 12163.573
68.97000 14844.456
68.98000 18780.514
68.99000 23060.799
69.00000 27355.359
69.01000 31826.836
69.02000 36351.121
69.03000 40717.734
69.04000 43951.008
69.05000 46960.305
69.06000 49480.066
69.07000 51088.707
69.08000 52332.125
69.09000 53370.281
69.10000 53781.258
69.11000 54148.652
69.12000 54512.340
69.13000 54868.340
69.14000 55224.105
69.15000 55431.637
69.16000 56522.855
69.17000 57293.844
69.18000 57497.000
69.19000 57189.469
69.20000 56860.094
69.21000 55169.301
69.22000 52670.371
69.23000 50252.906
69.24000 47124.797
69.25000 43900.754
69.26000 40739.543
69.27000 38252.891
69.28000 35949.156
69.29000 33740.918
69.30000 32144.766
69.31000 30657.441
69.32000 29435.898
69.33000 28585.564
69.34000 27920.566
69.35000 27263.637
69.36000 26629.150
69.37000 25995.984
69.38000 25062.506
69.39000 23562.625
69.40000 22049.445
69.41000 21205.221
69.42000 17925.084
69.43000 15649.754
69.44000 13444.415
69.45000 11295.809
69.46000 9159.821
69.47000 7592.082
69.48000 6331.100
69.49000 5120.536
69.50000 4242.912
69.51000 3536.074
69.52000 2865.474
69.53000 2534.963
69.54000 2288.093
69.55000 2053.729
69.56000 1891.167
69.57000 1740.049
69.58000 1618.470
69.59000 1524.331
69.60000 1450.101
69.61000 1385.462
69.62000 1345.124
69.63000 1305.977
69.64000 1265.041
69.65000 1221.036
69.66000 1176.978
69.67000 1153.551
69.68000 1102.090
69.69000 1067.078
69.70000 1037.883
69.71000 1012.950
69.72000 987.969
69.73000 961.347
69.74000 933.918
69.75000 907.809
69.76000 894.581
69.77000 886.307
69.78000 877.585
69.79000 865.147
69.80000 851.882
69.81000 837.585
69.82000 817.958
69.83000 797.572
69.84000 781.528
69.85000 771.497
69.86000 763.860
69.87000 756.628
69.88000 750.326
69.89000 744.061
69.90000 737.818
69.91000 731.609
69.92000 725.400
69.93000 722.266
69.94000 704.537
69.95000 692.715
69.96000 684.355
69.97000 678.294
69.98000 672.152
69.99000 663.816
70.00000 654.498
