20.00000 567.049
20.01000 568.441
20.02000 570.033
20.03000 570.760
20.04000 568.106
20.05000 565.112
20.06000 562.912
20.07000 570.393
20.08000 576.573
20.09000 578.649
20.10000 573.408
20.11000 568.023
20.12000 562.046
20.13000 555.368
20.14000 548.705
20.15000 547.254
20.16000 549.763
20.17000 552.274
20.18000 554.902
20.19000 557.589
20.20000 559.895
20.21000 556.171
20.22000 550.359
20.23000 545.044
20.24000 555.552
20.25000 568.153
20.26000 577.230
20.27000 567.321
20.28000 554.583
20.29000 545.247
20.30000 547.978
20.31000 551.771
20.32000 554.481
20.33000 561.301
20.34000 566.642
20.35000 568.295
20.36000 563.972
20.37000 559.567
20.38000 554.602
20.39000 549.040
20.40000 543.505
20.41000 542.076
20.42000 543.467
20.43000 544.845
20.44000 545.826
20.45000 546.622
20.46000 547.148
20.47000 544.027
20.48000 539.756
20.49000 535.899
20.50000 545.787
20.51000 557.008
20.52000 565.081
20.53000 557.876
20.54000 548.646
20.55000 542.872
20.56000 548.245
20.57000 554.464
20.58000 558.776
20.59000 543.922
20.60000 532.233
20.61000 528.785
20.62000 537.460
20.63000 546.243
20.64000 555.609
20.65000 565.531
20.66000 575.375
20.67000 568.576
20.68000 551.647
20.69000 535.311
20.70000 533.032
20.71000 536.707
20.72000 540.350
20.73000 543.625
20.74000 546.795
20.75000 549.617
20.76000 547.579
20.77000 545.010
20.78000 542.080
20.79000 537.562
20.80000 532.858
20.81000 530.514
20.82000 535.092
20.83000 540.120
20.84000 543.495
20.85000 531.073
20.86000 521.526
20.87000 519.473
20.88000 527.401
20.89000 535.375
20.90000 540.180
20.91000 542.261
20.92000 544.318
20.93000 545.048
20.94000 545.023
20.95000 544.792
20.96000 540.556
20.97000 534.774
20.98000 529.753
20.99000 532.415
21.00000 537.075
21.01000 541.163
21.02000 542.562
21.03000 543.372
21.04000 543.755
21.05000 542.440
21.06000 540.949
21.07000 540.157
21.08000 541.229
21.09000 542.403
21.10000 543.165
21.11000 539.785
21.12000 537.247
21.13000 533.691
21.14000 528.909
21.15000 524.143
21.16000 523.927
21.17000 527.240
21.18000 530.499
21.19000 528.441
21.20000 523.781
21.21000 519.552
21.22000 522.352
21.23000 527.623
21.24000 533.227
21.25000 541.788
21.26000 551.046
21.27000 559.037
21.28000 558.378
21.29000 556.704
21.30000 554.371
21.31000 549.664
21.32000 544.743
21.33000 541.433
21.34000 542.044
21.35000 542.832
21.36000 543.325
21.37000 544.298
21.38000 545.005
21.39000 544.355
21.40000 542.234
21.41000 540.102
21.42000 536.743
21.43000 532.520
21.44000 528.389
21.45000 529.452
21.46000 532.824
21.47000 536.013
21.48000 536.670
21.49000 536.516
21.50000 536.521
21.51000 537.763
21.52000 539.268
21.53000 540.546
21.54000 539.738
21.55000 538.824
21.56000 538.416
21.57000 539.663
21.58000 541.039
21.59000 542.499
21.60000 544.146
21.61000 545.800
21.62000 546.795
21.63000 542.673
21.64000 539.707
21.65000 540.424
21.66000 544.720
21.67000 549.004
21.68000 552.273
21.69000 554.895
21.70000 557.445
21.71000 554.089
21.72000 548.483
21.73000 543.435
21.74000 545.025
21.75000 548.545
21.76000 552.033
21.77000 555.291
21.78000 558.504
21.79000 561.181
21.80000 555.142
21.81000 549.273
21.82000 546.560
21.83000 553.245
21.84000 560.556
21.85000 565.422
21.86000 565.352
21.87000 565.141
21.88000 565.019
21.89000 556.237
21.90000 550.065
21.91000 552.988
21.92000 563.861
21.93000 574.673
21.94000 582.067
21.95000 587.484
21.96000 592.713
21.97000 595.468
21.98000 597.150
21.99000 598.054
22.00000 590.914
22.01000 581.649
22.02000 574.694
22.03000 582.091
22.04000 591.967
22.05000 600.034
22.06000 604.647
22.07000 608.124
22.08000 610.525
22.09000 610.005
22.10000 609.322
22.11000 604.825
22.12000 593.317
22.13000 581.657
22.14000 575.234
22.15000 601.110
22.16000 618.945
22.17000 622.233
22.18000 614.053
22.19000 605.944
22.20000 600.762
22.21000 597.120
22.22000 593.632
22.23000 589.695
22.24000 585.875
22.25000 582.900
22.26000 587.596
22.27000 594.127
22.28000 599.479
22.29000 598.251
22.30000 596.005
22.31000 594.209
22.32000 599.334
22.33000 603.992
22.34000 608.266
22.35000 611.587
22.36000 614.865
22.37000 612.560
22.38000 600.923
22.39000 589.141
22.40000 582.961
22.41000 579.566
22.42000 577.250
22.43000 572.379
22.44000 565.686
22.45000 559.186
22.46000 558.867
22.47000 561.508
22.48000 564.017
22.49000 561.119
22.50000 556.824
22.51000 552.199
22.52000 544.944
22.53000 537.120
22.54000 530.758
22.55000 531.735
22.56000 533.723
22.57000 535.277
22.58000 531.842
22.59000 528.782
22.60000 526.032
22.61000 523.977
22.62000 521.949
22.63000 521.115
22.64000 522.093
22.65000 523.089
22.66000 522.466
22.67000 520.240
22.68000 518.057
22.69000 519.615
22.70000 523.593
22.71000 527.576
22.72000 531.688
22.73000 535.855
22.74000 539.774
22.75000 535.776
22.76000 529.988
22.77000 524.503
22.78000 521.173
22.79000 518.263
22.80000 515.392
22.81000 512.699
22.82000 510.027
22.83000 507.987
22.84000 510.897
22.85000 513.458
22.86000 514.067
22.87000 510.678
22.88000 507.170
22.89000 504.186
22.90000 501.924
22.91000 499.667
22.92000 501.903
22.93000 508.125
22.94000 514.292
22.95000 517.179
22.96000 518.141
22.97000 519.192
22.98000 522.091
22.99000 525.726
23.00000 529.108
23.01000 516.328
23.02000 500.862
23.03000 488.905
23.04000 499.170
23.05000 513.338
23.06000 524.266
23.07000 521.912
23.08000 518.128
23.09000 515.311
23.10000 504.315
23.11000 495.391
23.12000 487.924
23.13000 483.176
23.14000 478.490
23.15000 480.356
23.16000 490.372
23.17000 500.395
23.18000 505.273
23.19000 506.023
23.20000 506.884
23.21000 512.577
23.22000 520.853
23.23000 528.403
23.24000 523.448
23.25000 513.965
23.26000 505.239
23.27000 504.137
23.28000 504.809
23.29000 504.549
23.30000 498.997
23.31000 492.611
23.32000 488.070
23.33000 490.379
23.34000 493.333
23.35000 495.473
23.36000 498.809
23.37000 501.416
23.38000 501.395
23.39000 496.915
23.40000 492.362
23.41000 490.687
23.42000 492.241
23.43000 493.791
23.44000 497.101
23.45000 501.645
23.46000 506.111
23.47000 507.991
23.48000 508.613
23.49000 509.085
23.50000 507.366
23.51000 504.924
23.52000 502.706
23.53000 501.106
23.54000 499.812
23.55000 498.404
23.56000 496.420
23.57000 494.354
23.58000 493.856
23.59000 498.648
23.60000 503.873
23.61000 507.550
23.62000 505.356
23.63000 503.519
23.64000 502.928
23.65000 504.257
23.66000 505.608
23.67000 509.098
23.68000 514.742
23.69000 520.350
23.70000 516.959
23.71000 507.790
23.72000 499.184
23.73000 505.377
23.74000 518.126
23.75000 529.471
23.76000 523.277
23.77000 511.823
23.78000 501.553
23.79000 501.047
23.80000 502.300
23.81000 502.674
23.82000 499.003
23.83000 494.828
23.84000 493.657
23.85000 501.709
23.86000 510.408
23.87000 516.342
23.88000 502.660
23.89000 491.976
23.90000 486.355
23.91000 487.813
23.92000 489.321
23.93000 494.595
23.94000 503.275
23.95000 511.870
23.96000 515.989
23.97000 517.409
23.98000 518.443
23.99000 511.261
24.00000 500.762
24.01000 491.373
24.02000 493.988
24.03000 499.873
24.04000 505.074
24.05000 492.006
24.06000 477.900
24.07000 465.881
24.08000 462.555
24.09000 460.184
24.10000 461.572
24.11000 473.463
24.12000 485.977
24.13000 494.235
24.14000 492.162
24.15000 490.452
24.16000 482.922
24.17000 468.031
24.18000 453.156
24.19000 453.931
24.20000 467.458
24.21000 480.796
24.22000 483.741
24.23000 481.126
24.24000 478.540
24.25000 476.470
24.26000 474.589
24.27000 473.130
24.28000 475.657
24.29000 479.169
24.30000 482.225
24.31000 483.491
24.32000 484.326
24.33000 483.590
24.34000 476.920
24.35000 469.679
24.36000 467.308
24.37000 477.335
24.38000 487.977
24.39000 494.754
24.40000 492.944
24.41000 491.519
24.42000 494.607
24.43000 502.841
24.44000 511.008
24.45000 506.458
24.46000 492.541
24.47000 478.888
24.48000 472.629
24.49000 470.117
24.50000 467.660
24.51000 466.029
24.52000 464.674
24.53000 463.909
24.54000 468.053
24.55000 473.296
24.56000 477.782
24.57000 477.820
24.58000 477.316
24.59000 476.664
24.60000 475.505
24.61000 474.305
24.62000 473.578
24.63000 473.948
24.64000 474.363
24.65000 474.617
24.66000 481.090
24.67000 485.779
24.68000 486.731
24.69000 483.850
24.70000 480.991
24.71000 480.386
24.72000 481.285
24.73000 482.163
24.74000 478.844
24.75000 473.871
24.76000 469.357
24.77000 470.719
24.78000 473.871
24.79000 476.177
24.80000 472.253
24.81000 467.069
24.82000 462.712
24.83000 468.693
24.84000 474.773
24.85000 478.815
24.86000 476.505
24.87000 473.738
24.88000 473.767
24.89000 479.705
24.90000 485.833
24.91000 489.441
24.92000 483.925
24.93000 479.987
24.94000 478.096
24.95000 478.086
24.96000 478.116
24.97000 480.813
24.98000 485.124
24.99000 489.302
25.00000 482.781
25.01000 472.461
25.02000 462.638
25.03000 458.312
25.04000 455.508
25.05000 453.222
25.06000 454.337
25.07000 456.071
25.08000 457.502
25.09000 473.625
25.10000 488.258
25.11000 496.905
25.12000 488.569
25.13000 479.197
25.14000 470.805
25.15000 464.298
25.16000 457.837
25.17000 454.198
25.18000 463.619
25.19000 470.186
25.20000 472.339
25.21000 470.833
25.22000 469.452
25.23000 474.065
25.24000 481.980
25.25000 489.591
25.26000 485.623
25.27000 477.854
25.28000 470.775
25.29000 470.357
25.30000 471.612
25.31000 472.103
25.32000 468.109
25.33000 463.382
25.34000 459.563
25.35000 467.838
25.36000 475.535
25.37000 479.937
25.38000 475.821
25.39000 471.270
25.40000 469.427
25.41000 472.327
25.42000 475.314
25.43000 476.919
25.44000 465.444
25.45000 457.633
25.46000 457.494
25.47000 463.098
25.48000 468.470
25.49000 465.482
25.50000 458.303
25.51000 451.456
25.52000 452.854
25.53000 456.751
25.54000 460.646
25.55000 464.523
25.56000 468.396
25.57000 471.032
25.58000 467.141
25.59000 462.298
25.60000 458.468
25.61000 459.740
25.62000 461.113
25.63000 459.599
25.64000 451.287
25.65000 442.690
25.66000 439.423
25.67000 444.635
25.68000 449.955
25.69000 452.672
25.70000 452.563
25.71000 452.523
25.72000 456.257
25.73000 462.548
25.74000 468.642
25.75000 469.144
25.76000 467.092
25.77000 465.153
25.78000 461.087
25.79000 456.749
25.80000 453.211
25.81000 455.674
25.82000 459.371
25.83000 462.159
25.84000 460.622
25.85000 458.525
25.86000 456.905
25.87000 461.045
25.88000 464.665
25.89000 466.471
25.90000 464.385
25.91000 462.169
25.92000 462.025
25.93000 464.872
25.94000 467.743
25.95000 466.470
25.96000 461.322
25.97000 456.247
25.98000 456.406
25.99000 459.787
26.00000 462.765
26.01000 456.566
26.02000 446.549
26.03000 437.179
26.04000 445.470
26.05000 457.512
26.06000 467.701
26.07000 465.502
26.08000 461.010
26.09000 456.637
26.10000 452.771
26.11000 448.964
26.12000 446.095
26.13000 442.181
26.14000 439.064
26.15000 438.823
26.16000 444.199
26.17000 449.721
26.18000 452.783
26.19000 452.631
26.20000 452.466
26.21000 449.956
26.22000 445.484
26.23000 441.129
26.24000 442.683
26.25000 447.543
26.26000 451.931
26.27000 447.436
26.28000 439.575
26.29000 432.302
26.30000 437.361
26.31000 444.734
26.32000 451.420
26.33000 454.004
26.34000 455.907
26.35000 456.116
26.36000 449.725
26.37000 442.670
26.38000 437.490
26.39000 447.304
26.40000 455.498
26.41000 459.854
26.42000 457.386
26.43000 454.786
26.44000 450.040
26.45000 442.762
26.46000 435.498
26.47000 441.627
26.48000 457.838
26.49000 473.623
26.50000 473.322
26.51000 464.834
26.52000 456.384
26.53000 448.524
26.54000 440.870
26.55000 433.871
26.56000 432.727
26.57000 432.913
26.58000 432.845
26.59000 431.407
26.60000 429.767
26.61000 429.169
26.62000 432.258
26.63000 435.669
26.64000 438.104
26.65000 446.984
26.66000 453.971
26.67000 458.879
26.68000 460.428
26.69000 461.932
26.70000 457.444
26.71000 446.597
26.72000 435.802
26.73000 431.339
26.74000 431.240
26.75000 431.269
26.76000 435.054
26.77000 440.580
26.78000 445.536
26.79000 442.830
26.80000 437.718
26.81000 433.104
26.82000 431.900
26.83000 431.469
26.84000 431.951
26.85000 436.850
26.86000 442.333
26.87000 445.787
26.88000 442.718
26.89000 439.156
26.90000 436.689
26.91000 432.544
26.92000 429.381
26.93000 429.699
26.94000 435.124
26.95000 440.594
26.96000 443.112
26.97000 442.819
26.98000 442.529
26.99000 445.705
27.00000 450.952
27.01000 456.058
27.02000 457.809
27.03000 458.144
27.04000 457.738
27.05000 448.759
27.06000 437.331
27.07000 427.159
27.08000 444.777
27.09000 464.622
27.10000 478.100
27.11000 463.750
27.12000 446.147
27.13000 432.625
27.14000 431.040
27.15000 430.225
27.16000 429.678
27.17000 435.459
27.18000 439.878
27.19000 440.371
27.20000 435.649
27.21000 430.909
27.22000 431.180
27.23000 435.743
27.24000 440.252
27.25000 435.274
27.26000 425.165
27.27000 415.578
27.28000 416.101
27.29000 420.514
27.30000 424.730
27.31000 426.952
27.32000 428.658
27.33000 430.154
27.34000 426.700
27.35000 423.016
27.36000 420.603
27.37000 423.222
27.38000 426.357
27.39000 427.558
27.40000 423.606
27.41000 419.375
27.42000 416.633
27.43000 417.363
27.44000 417.950
27.45000 418.347
27.46000 418.516
27.47000 418.700
27.48000 422.520
27.49000 429.151
27.50000 435.672
27.51000 437.415
27.52000 436.711
27.53000 436.006
27.54000 435.266
27.55000 434.514
27.56000 433.265
27.57000 427.618
27.58000 420.938
27.59000 415.175
27.60000 421.555
27.61000 428.525
27.62000 432.831
27.63000 427.563
27.64000 421.437
27.65000 417.864
27.66000 420.487
27.67000 423.387
27.68000 425.199
27.69000 420.562
27.70000 417.150
27.71000 418.782
27.72000 425.861
27.73000 432.911
27.74000 435.807
27.75000 435.795
27.76000 435.784
27.77000 434.108
27.78000 431.748
27.79000 429.392
27.80000 427.081
27.81000 424.786
27.82000 422.889
27.83000 424.106
27.84000 425.985
27.85000 427.578
27.86000 424.669
27.87000 421.722
27.88000 419.977
27.89000 422.157
27.90000 424.641
27.91000 424.237
27.92000 417.447
27.93000 410.427
27.94000 406.210
27.95000 416.885
27.96000 424.572
27.97000 430.556
27.98000 434.889
27.99000 439.166
28.00000 438.839
28.01000 435.592
28.02000 432.435
28.03000 430.122
28.04000 428.266
28.05000 426.289
28.06000 422.866
28.07000 419.022
28.08000 416.174
28.09000 420.235
28.10000 425.617
28.11000 430.099
28.12000 421.667
28.13000 413.407
28.14000 407.658
28.15000 409.364
28.16000 411.563
28.17000 410.848
28.18000 404.262
28.19000 397.510
28.20000 393.622
28.21000 395.409
28.22000 396.688
28.23000 403.757
28.24000 415.870
28.25000 427.808
28.26000 429.934
28.27000 426.401
28.28000 422.991
28.29000 424.014
28.30000 426.608
28.31000 428.269
28.32000 420.328
28.33000 409.859
28.34000 401.692
28.35000 407.789
28.36000 416.341
28.37000 423.321
28.38000 414.529
28.39000 405.980
28.40000 401.162
28.41000 406.432
28.42000 412.264
28.43000 418.502
28.44000 425.481
28.45000 432.476
28.46000 436.324
28.47000 430.400
28.48000 426.306
28.49000 423.192
28.50000 420.846
28.51000 418.557
28.52000 418.629
28.53000 419.939
28.54000 421.193
28.55000 421.176
28.56000 420.739
28.57000 420.454
28.58000 421.543
28.59000 422.960
28.60000 424.237
28.61000 424.742
28.62000 425.127
28.63000 425.434
28.64000 421.876
28.65000 418.714
28.66000 415.608
28.67000 412.641
28.68000 409.680
28.69000 409.615
28.70000 414.377
28.71000 419.213
28.72000 421.746
28.73000 409.009
28.74000 400.434
28.75000 399.874
28.76000 405.012
28.77000 410.035
28.78000 411.393
28.79000 411.001
28.80000 410.629
28.81000 408.291
28.82000 405.545
28.83000 403.777
28.84000 409.800
28.85000 417.505
28.86000 423.585
28.87000 421.539
28.88000 418.377
28.89000 415.906
28.90000 415.851
28.91000 415.960
28.92000 415.884
28.93000 415.393
28.94000 414.887
28.95000 412.261
28.96000 406.428
28.97000 400.563
28.98000 402.998
28.99000 413.619
29.00000 424.114
29.01000 423.522
29.02000 415.782
29.03000 408.316
29.04000 407.797
29.05000 410.299
29.06000 412.653
29.07000 415.075
29.08000 417.305
29.09000 418.487
29.10000 412.259
29.11000 404.587
29.12000 399.585
29.13000 406.634
29.14000 415.151
29.15000 421.650
29.16000 405.368
29.17000 391.319
29.18000 384.380
29.19000 391.976
29.20000 400.003
29.21000 403.906
29.22000 402.154
29.23000 400.369
29.24000 396.871
29.25000 391.861
29.26000 386.997
29.27000 390.799
29.28000 399.675
29.29000 408.252
29.30000 410.683
29.31000 410.677
29.32000 410.671
29.33000 414.857
29.34000 419.652
29.35000 423.062
29.36000 417.744
29.37000 410.896
29.38000 405.251
29.39000 404.520
29.40000 404.314
29.41000 404.162
29.42000 401.172
29.43000 398.720
29.44000 398.398
29.45000 402.039
29.46000 405.769
29.47000 405.213
29.48000 399.341
29.49000 393.465
29.50000 394.479
29.51000 400.968
29.52000 407.426
29.53000 412.526
29.54000 416.903
29.55000 420.561
29.56000 411.884
29.57000 398.751
29.58000 386.674
29.59000 390.135
29.60000 396.594
29.61000 402.317
29.62000 403.880
29.63000 404.791
29.64000 405.001
29.65000 402.617
29.66000 399.990
29.67000 398.088
29.68000 399.807
29.69000 401.259
29.70000 402.327
29.71000 402.743
29.72000 403.149
29.73000 405.160
29.74000 408.967
29.75000 412.761
29.76000 413.977
29.77000 413.337
29.78000 412.645
29.79000 410.232
29.80000 406.986
29.81000 403.940
29.82000 403.814
29.83000 404.648
29.84000 405.405
29.85000 404.009
29.86000 402.358
29.87000 401.375
29.88000 403.792
29.89000 406.686
29.90000 408.890
29.91000 408.777
29.92000 408.475
29.93000 408.263
29.94000 400.633
29.95000 394.636
29.96000 391.054
29.97000 391.185
29.98000 391.357
29.99000 393.704
30.00000 398.235
30.01000 402.737
30.02000 408.793
30.03000 415.765
30.04000 422.516
30.05000 423.487
30.06000 421.905
30.07000 420.163
30.08000 416.434
30.09000 412.111
30.10000 408.237
30.11000 403.038
30.12000 398.268
30.13000 395.400
30.14000 401.258
30.15000 408.200
30.16000 412.395
30.17000 408.181
30.18000 403.380
30.19000 400.108
30.20000 409.071
30.21000 416.051
30.22000 417.120
30.23000 409.952
30.24000 402.732
30.25000 400.909
30.26000 403.950
30.27000 406.961
30.28000 407.435
30.29000 406.423
30.30000 405.499
30.31000 406.447
30.32000 408.149
30.33000 409.175
30.34000 402.931
30.35000 394.712
30.36000 387.453
30.37000 393.570
30.38000 400.910
30.39000 406.883
30.40000 407.183
30.41000 406.861
30.42000 407.324
30.43000 409.973
30.44000 412.752
30.45000 414.584
30.46000 415.431
30.47000 416.038
30.48000 414.566
30.49000 410.475
30.50000 406.385
30.51000 406.108
30.52000 408.928
30.53000 411.709
30.54000 412.962
30.55000 413.377
30.56000 413.885
30.57000 416.025
30.58000 418.765
30.59000 420.803
30.60000 416.237
30.61000 410.044
30.62000 404.658
30.63000 409.823
30.64000 415.669
30.65000 420.299
30.66000 420.352
30.67000 419.965
30.68000 421.301
30.69000 427.008
30.70000 432.929
30.71000 436.697
30.72000 422.181
30.73000 411.405
30.74000 408.126
30.75000 413.371
30.76000 418.613
30.77000 421.797
30.78000 423.472
30.79000 425.115
30.80000 429.865
30.81000 435.917
30.82000 441.603
30.83000 441.845
30.84000 440.269
30.85000 439.206
30.86000 442.393
30.87000 446.527
30.88000 450.062
30.89000 449.189
30.90000 447.922
30.91000 447.199
30.92000 448.336
30.93000 449.628
30.94000 450.111
30.95000 448.723
30.96000 447.259
30.97000 446.363
30.98000 460.164
30.99000 470.169
31.00000 474.865
31.01000 474.137
31.02000 473.537
31.03000 485.885
31.04000 506.849
31.05000 527.292
31.06000 541.605
31.07000 552.649
31.08000 564.227
31.09000 582.603
31.10000 603.043
31.11000 622.995
31.12000 639.357
31.13000 654.996
31.14000 668.135
31.15000 691.065
31.16000 711.201
31.17000 731.762
31.18000 753.642
31.19000 775.617
31.20000 803.671
31.21000 844.534
31.22000 885.808
31.23000 910.073
31.24000 932.273
31.25000 947.923
31.26000 974.458
31.27000 1010.974
31.28000 1047.495
31.29000 1084.336
31.30000 1121.372
31.31000 1157.247
31.32000 1181.256
31.33000 1199.384
31.34000 1217.483
31.35000 1235.270
31.36000 1252.970
31.37000 1270.010
31.38000 1282.732
31.39000 1294.671
31.40000 1304.511
31.41000 1319.342
31.42000 1332.008
31.43000 1339.094
31.44000 1330.394
31.45000 1320.736
31.46000 1304.298
31.47000 1274.850
31.48000 1245.081
31.49000 1228.333
31.50000 1181.628
31.51000 1149.147
31.52000 1123.526
31.53000 1103.570
31.54000 1083.423
31.55000 1054.191
31.56000 1019.969
31.57000 987.067
31.58000 955.250
31.59000 925.817
31.60000 897.325
31.61000 877.875
31.62000 860.689
31.63000 841.621
31.64000 811.537
31.65000 779.661
31.66000 753.917
31.67000 729.583
31.68000 709.913
31.69000 688.893
31.70000 664.393
31.71000 639.716
31.72000 619.435
31.73000 606.829
31.74000 594.363
31.75000 587.674
31.76000 557.555
31.77000 537.027
31.78000 527.374
31.79000 525.837
31.80000 524.101
31.81000 515.237
31.82000 502.811
31.83000 490.963
31.84000 484.199
31.85000 479.523
31.86000 474.740
31.87000 469.051
31.88000 463.156
31.89000 457.896
31.90000 455.973
31.91000 454.536
31.92000 453.400
31.93000 440.591
31.94000 429.508
31.95000 420.778
31.96000 417.575
31.97000 414.602
31.98000 413.927
31.99000 416.898
32.00000 419.915
32.01000 421.453
32.02000 414.217
32.03000 409.359
32.04000 404.240
32.05000 398.943
32.06000 393.777
32.07000 392.265
32.08000 392.417
32.09000 392.559
32.10000 388.186
32.11000 382.892
32.12000 378.368
32.13000 379.603
32.14000 382.018
32.15000 385.473
32.16000 393.860
32.17000 402.883
32.18000 409.850
32.19000 404.540
32.20000 399.616
32.21000 394.717
32.22000 389.873
32.23000 385.031
32.24000 383.343
32.25000 386.194
32.26000 389.081
32.27000 388.692
32.28000 385.247
32.29000 381.805
32.30000 378.483
32.31000 375.235
32.32000 372.508
32.33000 381.568
32.34000 395.518
32.35000 408.563
32.36000 404.464
32.37000 396.376
32.38000 389.891
32.39000 394.081
32.40000 400.240
32.41000 404.462
32.42000 400.383
32.43000 395.357
32.44000 391.571
32.45000 384.550
32.46000 378.898
32.47000 375.435
32.48000 376.239
32.49000 377.153
32.50000 377.568
32.51000 377.332
32.52000 377.094
32.53000 378.379
32.54000 380.936
32.55000 383.498
32.56000 386.325
32.57000 389.300
32.58000 391.823
32.59000 385.905
32.60000 376.796
32.61000 368.372
32.62000 367.875
32.63000 369.241
32.64000 369.952
32.65000 366.764
32.66000 362.930
32.67000 359.478
32.68000 357.508
32.69000 355.688
32.70000 354.352
32.71000 366.133
32.72000 375.766
32.73000 378.471
32.74000 368.896
32.75000 359.086
32.76000 354.196
32.77000 355.094
32.78000 355.998
32.79000 360.840
32.80000 368.618
32.81000 376.209
32.82000 376.817
32.83000 373.880
32.84000 371.093
32.85000 370.646
32.86000 371.003
32.87000 371.330
32.88000 374.096
32.89000 377.052
32.90000 379.160
32.91000 376.728
32.92000 373.624
32.93000 370.519
32.94000 367.410
32.95000 364.302
32.96000 362.085
32.97000 370.186
32.98000 376.701
32.99000 378.739
33.00000 373.564
33.01000 368.291
33.02000 368.586
33.03000 374.771
33.04000 380.927
33.05000 376.107
33.06000 363.895
33.07000 352.006
33.08000 349.574
33.09000 351.511
33.10000 353.491
33.11000 356.026
33.12000 358.735
33.13000 361.179
33.14000 356.668
33.15000 351.433
33.16000 346.448
33.17000 342.667
33.18000 339.044
33.19000 336.347
33.20000 336.614
33.21000 337.104
33.22000 337.443
33.23000 343.449
33.24000 348.114
33.25000 351.569
33.26000 353.252
33.27000 354.919
33.28000 352.014
33.29000 344.771
33.30000 337.586
33.31000 338.083
33.32000 343.272
33.33000 348.251
33.34000 348.291
33.35000 346.252
33.36000 344.336
33.37000 343.848
33.38000 343.766
33.39000 343.693
33.40000 341.706
33.41000 339.669
33.42000 337.512
33.43000 334.835
33.44000 332.096
33.45000 330.180
33.46000 330.661
33.47000 331.295
33.48000 331.720
33.49000 332.120
33.50000 332.416
33.51000 332.866
33.52000 333.518
33.53000 334.175
33.54000 337.179
33.55000 342.186
33.56000 347.134
33.57000 347.661
33.58000 345.734
33.59000 343.685
33.60000 339.281
33.61000 333.973
33.62000 329.449
33.63000 332.792
33.64000 338.168
33.65000 342.880
33.66000 337.505
33.67000 331.435
33.68000 326.410
33.69000 325.512
33.70000 325.037
33.71000 324.121
33.72000 322.034
33.73000 319.885
33.74000 318.493
33.75000 313.340
33.76000 309.515
33.77000 310.001
33.78000 315.643
33.79000 321.286
33.80000 324.820
33.81000 326.730
33.82000 328.607
33.83000 332.123
33.84000 336.341
33.85000 340.067
33.86000 335.859
33.87000 328.880
33.88000 323.239
33.89000 329.388
33.90000 338.299
33.91000 345.983
33.92000 345.252
33.93000 343.557
33.94000 341.339
33.95000 337.252
33.96000 332.998
33.97000 331.165
33.98000 335.191
33.99000 339.477
34.00000 342.151
34.01000 330.165
34.02000 321.370
34.03000 319.065
34.04000 323.747
34.05000 328.405
34.06000 329.832
34.07000 329.003
34.08000 328.192
34.09000 332.364
34.10000 338.609
34.11000 344.420
34.12000 344.298
34.13000 342.289
34.14000 340.485
34.15000 340.279
34.16000 340.411
34.17000 340.523
34.18000 336.370
34.19000 332.411
34.20000 330.477
34.21000 335.134
34.22000 340.300
34.23000 341.265
34.24000 332.970
34.25000 324.341
34.26000 319.166
34.27000 321.507
34.28000 323.219
34.29000 320.986
34.30000 314.941
34.31000 309.032
34.32000 314.063
34.33000 326.019
34.34000 337.639
34.35000 332.388
34.36000 320.544
34.37000 309.634
34.38000 309.757
34.39000 313.069
34.40000 315.535
34.41000 312.150
34.42000 307.648
34.43000 303.901
34.44000 307.886
34.45000 311.946
34.46000 315.476
34.47000 317.438
34.48000 319.296
34.49000 320.292
34.50000 319.554
34.51000 318.768
34.52000 318.316
34.53000 315.534
34.54000 313.581
34.55000 313.674
34.56000 315.544
34.57000 317.320
34.58000 313.919
34.59000 307.539
34.60000 301.382
34.61000 301.123
34.62000 303.041
34.63000 305.169
34.64000 309.453
34.65000 314.304
34.66000 318.642
34.67000 319.814
34.68000 320.444
34.69000 320.957
34.70000 321.133
34.71000 321.247
34.72000 321.227
34.73000 320.845
34.74000 320.442
34.75000 320.784
34.76000 322.487
34.77000 324.218
34.78000 325.169
34.79000 314.841
34.80000 307.739
34.81000 307.579
34.82000 312.858
34.83000 317.968
34.84000 316.177
34.85000 310.776
34.86000 305.605
34.87000 305.866
34.88000 307.904
34.89000 310.169
34.90000 314.469
34.91000 319.254
34.92000 322.808
34.93000 319.547
34.94000 315.240
34.95000 311.799
34.96000 313.019
34.97000 314.347
34.98000 316.231
34.99000 319.479
35.00000 322.789
35.01000 320.922
35.02000 310.449
35.03000 299.845
35.04000 294.301
35.05000 300.786
35.06000 305.184
35.07000 310.172
35.08000 315.578
35.09000 320.696
35.10000 316.768
35.11000 308.531
35.12000 300.713
35.13000 304.819
35.14000 312.159
35.15000 319.154
35.16000 323.417
35.17000 327.092
35.18000 330.133
35.19000 330.015
35.20000 329.464
35.21000 329.034
35.22000 315.490
35.23000 303.859
35.24000 297.419
35.25000 302.595
35.26000 308.203
35.27000 312.696
35.28000 315.504
35.29000 318.295
35.30000 316.383
35.31000 309.848
35.32000 303.369
35.33000 301.747
35.34000 303.247
35.35000 304.718
35.36000 305.490
35.37000 305.958
35.38000 306.398
35.39000 307.091
35.40000 307.791
35.41000 308.543
35.42000 309.658
35.43000 310.845
35.44000 310.515
35.45000 303.363
35.46000 295.382
35.47000 289.298
35.48000 296.131
35.49000 302.201
35.50000 305.985
35.51000 305.109
35.52000 304.097
35.53000 303.327
35.54000 302.890
35.55000 302.454
35.56000 303.681
35.57000 306.372
35.58000 309.009
35.59000 308.453
35.60000 306.033
35.61000 303.620
35.62000 301.334
35.63000 299.100
35.64000 297.022
35.65000 295.580
35.66000 294.432
35.67000 293.155
35.68000 291.062
35.69000 288.827
35.70000 287.591
35.71000 290.427
35.72000 293.698
35.73000 296.129
35.74000 298.782
35.75000 300.856
35.76000 301.966
35.77000 301.287
35.78000 300.569
35.79000 299.127
35.80000 296.790
35.81000 294.454
35.82000 295.481
35.83000 299.171
35.84000 302.809
35.85000 304.292
35.86000 304.629
35.87000 305.023
35.88000 306.403
35.89000 308.137
35.90000 309.732
35.91000 301.834
35.92000 292.730
35.93000 285.725
35.94000 290.552
35.95000 297.230
35.96000 301.785
35.97000 298.494
35.98000 294.472
35.99000 291.562
36.00000 298.111
36.01000 303.481
36.02000 307.916
36.03000 310.775
36.04000 313.608
36.05000 310.341
36.06000 300.277
36.07000 290.245
36.08000 288.667
36.09000 293.137
36.10000 297.568
36.11000 300.727
36.12000 303.271
36.13000 305.760
36.14000 307.456
36.15000 308.891
36.16000 310.195
36.17000 306.778
36.18000 302.850
36.19000 299.102
36.20000 296.275
36.21000 293.576
36.22000 293.252
36.23000 300.900
36.24000 309.194
36.25000 315.018
36.26000 312.205
36.27000 309.822
36.28000 303.934
36.29000 292.673
36.30000 281.354
36.31000 276.725
36.32000 278.790
36.33000 280.842
36.34000 283.090
36.35000 285.431
36.36000 287.909
36.37000 293.925
36.38000 301.500
36.39000 308.196
36.40000 304.007
36.41000 296.572
36.42000 289.912
36.43000 296.842
36.44000 305.235
36.45000 311.756
36.46000 309.709
36.47000 306.602
36.48000 304.060
36.49000 303.241
36.50000 302.541
36.51000 302.065
36.52000 301.458
36.53000 301.002
36.54000 299.734
36.55000 297.340
36.56000 294.939
36.57000 293.691
36.58000 293.479
36.59000 293.269
36.60000 291.676
36.61000 289.315
36.62000 286.885
36.63000 283.010
36.64000 278.555
36.65000 274.987
36.66000 280.924
36.67000 289.437
36.68000 296.952
36.69000 295.490
36.70000 292.851
36.71000 290.764
36.72000 290.959
36.73000 291.403
36.74000 292.483
36.75000 295.333
36.76000 298.287
36.77000 300.232
36.78000 299.020
36.79000 298.073
36.80000 293.559
36.81000 284.564
36.82000 275.578
36.83000 275.553
36.84000 282.784
36.85000 289.912
36.86000 292.728
36.87000 293.204
36.88000 293.726
36.89000 295.040
36.90000 296.643
36.91000 297.488
36.92000 291.225
36.93000 283.217
36.94000 276.255
36.95000 280.103
36.96000 284.852
36.97000 289.389
36.98000 293.131
36.99000 296.797
37.00000 298.128
37.01000 293.548
37.02000 288.679
37.03000 285.585
37.04000 287.068
37.05000 288.202
37.06000 290.506
37.07000 294.136
37.08000 297.740
37.09000 296.748
37.10000 292.392
37.11000 288.120
37.12000 286.998
37.13000 287.409
37.14000 287.845
37.15000 288.674
37.16000 289.634
37.17000 290.518
37.18000 290.781
37.19000 290.906
37.20000 291.012
37.21000 291.948
37.22000 292.836
37.23000 293.441
37.24000 293.081
37.25000 292.641
37.26000 290.068
37.27000 282.574
37.28000 274.884
37.29000 270.180
37.30000 276.767
37.31000 281.574
37.32000 285.420
37.33000 288.286
37.34000 291.144
37.35000 293.230
37.36000 294.804
37.37000 296.338
37.38000 293.461
37.39000 288.832
37.40000 284.675
37.41000 286.520
37.42000 290.181
37.43000 292.874
37.44000 288.477
37.45000 282.657
37.46000 277.770
37.47000 281.663
37.48000 285.828
37.49000 288.347
37.50000 285.760
37.51000 282.810
37.52000 283.205
37.53000 290.626
37.54000 298.270
37.55000 302.758
37.56000 301.252
37.57000 300.160
37.58000 299.118
37.59000 298.122
37.60000 297.111
37.61000 295.122
37.62000 292.543
37.63000 290.046
37.64000 282.716
37.65000 273.922
37.66000 266.429
37.67000 273.219
37.68000 283.939
37.69000 293.460
37.70000 295.167
37.71000 295.461
37.72000 295.704
37.73000 293.009
37.74000 290.523
37.75000 288.445
37.76000 287.518
37.77000 286.660
37.78000 286.189
37.79000 286.457
37.80000 286.744
37.81000 286.906
37.82000 282.489
37.83000 279.430
37.84000 283.244
37.85000 292.716
37.86000 301.928
37.87000 298.828
37.88000 288.985
37.89000 279.524
37.90000 279.986
37.91000 283.869
37.92000 287.120
37.93000 284.318
37.94000 280.005
37.95000 275.731
37.96000 271.686
37.97000 267.677
37.98000 264.442
37.99000 273.673
38.00000 282.164
38.01000 287.985
38.02000 286.945
38.03000 285.558
38.04000 284.927
38.05000 285.611
38.06000 286.319
38.07000 286.698
38.08000 290.059
38.09000 292.330
38.10000 289.875
38.11000 283.904
38.12000 278.155
38.13000 280.318
38.14000 286.424
38.15000 292.244
38.16000 292.193
38.17000 290.304
38.18000 288.283
38.19000 285.143
38.20000 281.749
38.21000 278.905
38.22000 278.939
38.23000 279.390
38.24000 279.746
38.25000 282.102
38.26000 284.130
38.27000 286.852
38.28000 291.199
38.29000 295.613
38.30000 297.959
38.31000 297.035
38.32000 296.071
38.33000 295.580
38.34000 296.344
38.35000 296.896
38.36000 301.678
38.37000 309.310
38.38000 316.748
38.39000 318.776
38.40000 318.347
38.41000 317.942
38.42000 323.943
38.43000 331.258
38.44000 338.343
38.45000 343.713
38.46000 348.734
38.47000 355.333
38.48000 369.394
38.49000 384.415
38.50000 396.004
38.51000 407.082
38.52000 415.831
38.53000 424.134
38.54000 431.483
38.55000 438.800
38.56000 449.903
38.57000 466.438
38.58000 483.012
38.59000 502.693
38.60000 525.252
38.61000 547.698
38.62000 562.293
38.63000 572.085
38.64000 581.949
38.65000 593.419
38.66000 605.554
38.67000 616.898
38.68000 618.908
38.69000 618.363
38.70000 618.829
38.71000 626.007
38.72000 634.420
38.73000 640.614
38.74000 637.326
38.75000 632.961
38.76000 629.676
38.77000 618.680
38.78000 609.702
38.79000 599.830
38.80000 588.220
38.81000 576.567
38.82000 565.756
38.83000 556.039
38.84000 546.337
38.85000 530.200
38.86000 508.737
38.87000 487.480
38.88000 476.486
38.89000 471.199
38.90000 465.536
38.91000 452.883
38.92000 437.596
38.93000 423.462
38.94000 406.138
38.95000 389.854
38.96000 373.517
38.97000 356.854
38.98000 340.137
38.99000 326.527
39.00000 324.950
39.01000 324.574
39.02000 324.298
39.03000 320.317
39.04000 317.093
39.05000 313.474
39.06000 309.154
39.07000 304.821
39.08000 300.222
39.09000 295.313
39.10000 290.416
39.11000 287.835
39.12000 287.011
39.13000 286.257
39.14000 288.118
39.15000 291.302
39.16000 294.205
39.17000 292.710
39.18000 289.705
39.19000 286.960
39.20000 286.664
39.21000 286.901
39.22000 286.513
39.23000 282.795
39.24000 278.585
39.25000 274.695
39.26000 271.928
39.27000 269.258
39.28000 267.356
39.29000 269.736
39.30000 271.689
39.31000 273.504
39.32000 275.098
39.33000 276.689
39.34000 274.477
39.35000 268.253
39.36000 262.060
39.37000 260.597
39.38000 262.352
39.39000 263.921
39.40000 260.120
39.41000 253.845
39.42000 248.040
39.43000 248.498
39.44000 250.912
39.45000 253.089
39.46000 260.176
39.47000 267.293
39.48000 273.781
39.49000 277.246
39.50000 280.314
39.51000 280.525
39.52000 271.603
39.53000 261.997
39.54000 255.356
39.55000 260.304
39.56000 264.324
39.57000 266.032
39.58000 264.370
39.59000 262.680
39.60000 265.522
39.61000 272.652
39.62000 279.723
39.63000 278.962
39.64000 273.436
39.65000 268.060
39.66000 266.143
39.67000 265.681
39.68000 265.257
39.69000 265.290
39.70000 265.453
39.71000 265.597
39.72000 270.116
39.73000 274.749
39.74000 277.862
39.75000 274.375
39.76000 270.123
39.77000 267.309
39.78000 268.680
39.79000 270.318
39.80000 271.415
39.81000 264.207
39.82000 258.696
39.83000 259.293
39.84000 267.952
39.85000 276.638
39.86000 278.109
39.87000 273.439
39.88000 268.826
39.89000 265.590
39.90000 263.192
39.91000 261.151
39.92000 265.942
39.93000 273.347
39.94000 279.808
39.95000 276.835
39.96000 271.432
39.97000 266.699
39.98000 263.149
39.99000 260.275
40.00000 257.329
40.01000 254.102
40.02000 250.846
40.03000 249.902
40.04000 255.079
40.05000 260.584
40.06000 264.144
40.07000 261.794
40.08000 259.989
40.09000 260.132
40.10000 262.600
40.11000 265.058
40.12000 264.489
40.13000 261.594
40.14000 258.747
40.15000 258.229
40.16000 258.885
40.17000 259.782
40.18000 264.564
40.19000 270.698
40.20000 275.534
40.21000 268.987
40.22000 259.781
40.23000 251.847
40.24000 253.580
40.25000 256.280
40.26000 258.143
40.27000 257.014
40.28000 255.619
40.29000 254.135
40.30000 252.435
40.31000 250.725
40.32000 249.660
40.33000 247.719
40.34000 246.311
40.35000 245.535
40.36000 245.437
40.37000 245.361
40.38000 248.091
40.39000 252.772
40.40000 257.349
40.41000 256.143
40.42000 252.390
40.43000 248.675
40.44000 245.464
40.45000 242.412
40.46000 239.733
40.47000 239.934
40.48000 240.744
40.49000 241.430
40.50000 242.118
40.51000 242.694
40.52000 243.907
40.53000 247.187
40.54000 250.625
40.55000 251.731
40.56000 247.711
40.57000 243.508
40.58000 240.990
40.59000 240.887
40.60000 240.830
40.61000 242.295
40.62000 245.226
40.63000 248.104
40.64000 246.729
40.65000 242.669
40.66000 238.725
40.67000 242.795
40.68000 249.907
40.69000 256.175
40.70000 252.516
40.71000 245.995
40.72000 240.704
40.73000 243.892
40.74000 248.693
40.75000 252.686
40.76000 251.276
40.77000 249.579
40.78000 249.144
40.79000 252.430
40.80000 255.960
40.81000 257.514
40.82000 255.113
40.83000 252.600
40.84000 251.158
40.85000 244.843
40.86000 240.415
40.87000 238.939
40.88000 240.019
40.89000 241.026
40.90000 238.020
40.91000 232.713
40.92000 227.592
40.93000 230.942
40.94000 237.190
40.95000 242.850
40.96000 242.503
40.97000 240.583
40.98000 238.837
40.99000 238.165
41.00000 237.676
41.01000 237.278
41.02000 240.312
41.03000 243.085
41.04000 243.961
41.05000 239.734
41.06000 235.227
41.07000 234.320
41.08000 239.977
41.09000 245.773
41.10000 248.952
41.11000 242.337
41.12000 237.777
41.13000 234.747
41.14000 232.911
41.15000 231.155
41.16000 232.656
41.17000 235.854
41.18000 238.915
41.19000 241.036
41.20000 242.702
41.21000 244.442
41.22000 246.839
41.23000 249.392
41.24000 250.948
41.25000 246.998
41.26000 242.205
41.27000 238.379
41.28000 235.049
41.29000 232.396
41.30000 231.271
41.31000 233.887
41.32000 236.675
41.33000 238.496
41.34000 238.717
41.35000 238.915
41.36000 239.018
41.37000 234.362
41.38000 231.236
41.39000 231.574
41.40000 234.359
41.41000 237.135
41.42000 239.598
41.43000 241.912
41.44000 244.108
41.45000 240.498
41.46000 235.445
41.47000 231.407
41.48000 235.393
41.49000 241.101
41.50000 246.068
41.51000 247.350
41.52000 248.130
41.53000 248.739
41.54000 242.463
41.55000 237.026
41.56000 233.160
41.57000 232.798
41.58000 232.566
41.59000 230.814
41.60000 226.778
41.61000 222.718
41.62000 224.707
41.63000 232.620
41.64000 240.471
41.65000 243.046
41.66000 242.238
41.67000 241.565
41.68000 244.244
41.69000 248.374
41.70000 252.254
41.71000 245.740
41.72000 237.019
41.73000 229.066
41.74000 226.515
41.75000 225.008
41.76000 225.046
41.77000 232.012
41.78000 239.815
41.79000 245.760
41.80000 246.747
41.81000 247.262
41.82000 246.076
41.83000 241.432
41.84000 236.688
41.85000 232.522
41.86000 229.143
41.87000 225.771
41.88000 226.418
41.89000 230.596
41.90000 234.740
41.91000 236.886
41.92000 237.869
41.93000 238.747
41.94000 237.510
41.95000 235.438
41.96000 233.512
41.97000 235.963
41.98000 239.226
41.99000 241.580
42.00000 238.242
42.01000 233.914
42.02000 231.015
42.03000 233.927
42.04000 237.456
42.05000 240.077
42.06000 231.767
42.07000 224.826
42.08000 221.906
42.09000 226.427
42.10000 231.113
42.11000 231.928
42.12000 227.972
42.13000 224.010
42.14000 222.489
42.15000 222.903
42.16000 223.339
42.17000 224.699
42.18000 226.548
42.19000 228.486
42.20000 231.919
42.21000 235.890
42.22000 239.539
42.23000 236.966
42.24000 233.329
42.25000 230.471
42.26000 231.982
42.27000 234.175
42.28000 236.055
42.29000 236.781
42.30000 237.400
42.31000 237.848
42.32000 237.775
42.33000 237.700
42.34000 235.844
42.35000 230.990
42.36000 226.089
42.37000 222.950
42.38000 221.769
42.39000 220.594
42.40000 222.604
42.41000 226.860
42.42000 231.052
42.43000 233.137
42.44000 234.206
42.45000 235.065
42.46000 232.913
42.47000 229.776
42.48000 226.930
42.49000 227.696
42.50000 229.069
42.51000 228.847
42.52000 220.568
42.53000 211.169
42.54000 204.311
42.55000 205.956
42.56000 208.286
42.57000 209.921
42.58000 215.164
42.59000 219.237
42.60000 224.488
42.61000 231.538
42.62000 238.608
42.63000 240.720
42.64000 237.890
42.65000 235.077
42.66000 235.784
42.67000 238.736
42.68000 241.256
42.69000 232.609
42.70000 219.056
42.71000 206.631
42.72000 208.098
42.73000 213.696
42.74000 218.708
42.75000 219.298
42.76000 219.054
42.77000 219.221
42.78000 221.262
42.79000 223.534
42.80000 225.999
42.81000 229.049
42.82000 232.140
42.83000 234.242
42.84000 233.859
42.85000 233.517
42.86000 232.706
42.87000 231.243
42.88000 229.775
42.89000 226.508
42.90000 221.629
42.91000 216.799
42.92000 214.998
42.93000 214.990
42.94000 215.152
42.95000 218.893
42.96000 224.068
42.97000 228.737
42.98000 228.009
42.99000 225.823
43.00000 223.894
43.01000 216.576
43.02000 209.438
43.03000 204.255
43.04000 207.132
43.05000 210.886
43.06000 214.368
43.07000 217.101
43.08000 219.790
43.09000 221.559
43.10000 223.472
43.11000 224.883
43.12000 226.553
43.13000 228.549
43.14000 230.536
43.15000 228.633
43.16000 223.590
43.17000 218.621
43.18000 215.990
43.19000 214.657
43.20000 213.621
43.21000 217.761
43.22000 223.789
43.23000 229.340
43.24000 230.445
43.25000 230.461
43.26000 230.475
43.27000 228.701
43.28000 226.946
43.29000 225.242
43.30000 223.724
43.31000 222.224
43.32000 222.433
43.33000 226.955
43.34000 231.687
43.35000 234.691
43.36000 229.573
43.37000 225.758
43.38000 223.803
43.39000 223.949
43.40000 224.110
43.41000 226.601
43.42000 230.792
43.43000 234.902
43.44000 233.640
43.45000 229.892
43.46000 226.123
43.47000 222.059
43.48000 217.896
43.49000 214.259
43.50000 214.940
43.51000 216.579
43.52000 217.979
43.53000 219.822
43.54000 221.427
43.55000 222.334
43.56000 220.867
43.57000 219.205
43.58000 217.629
43.59000 216.252
43.60000 214.883
43.61000 214.047
43.62000 215.959
43.63000 217.349
43.64000 220.744
43.65000 226.175
43.66000 231.545
43.67000 230.910
43.68000 226.303
43.69000 221.813
43.70000 215.378
43.71000 208.409
43.72000 202.227
43.73000 205.982
43.74000 212.738
43.75000 219.356
43.76000 224.971
43.77000 230.385
43.78000 234.929
43.79000 230.541
43.80000 225.953
43.81000 222.079
43.82000 220.409
43.83000 218.896
43.84000 218.106
43.85000 218.833
43.86000 219.607
43.87000 220.061
43.88000 223.011
43.89000 225.100
43.90000 224.064
43.91000 220.181
43.92000 216.279
43.93000 211.111
43.94000 205.183
43.95000 199.444
43.96000 201.247
43.97000 205.851
43.98000 210.469
43.99000 215.251
44.00000 220.078
44.01000 223.543
44.02000 218.153
44.03000 211.169
44.04000 205.418
44.05000 208.281
44.06000 211.421
44.07000 212.841
44.08000 209.418
44.09000 205.703
44.10000 204.936
44.11000 209.791
44.12000 214.783
44.13000 217.583
44.14000 221.258
44.15000 223.795
44.16000 220.829
44.17000 213.346
44.18000 206.067
44.19000 208.298
44.20000 215.724
44.21000 222.859
44.22000 222.452
44.23000 219.457
44.24000 216.594
44.25000 215.001
44.26000 213.723
44.27000 213.218
44.28000 217.202
44.29000 221.911
44.30000 225.710
44.31000 224.865
44.32000 223.812
44.33000 221.739
44.34000 217.049
44.35000 212.228
44.36000 209.978
44.37000 212.192
44.38000 214.484
44.39000 215.711
44.40000 218.392
44.41000 220.219
44.42000 221.529
44.43000 222.455
44.44000 223.252
44.45000 219.512
44.46000 213.518
44.47000 207.805
44.48000 211.227
44.49000 217.252
44.50000 222.474
44.51000 220.958
44.52000 217.925
44.53000 214.693
44.54000 210.426
44.55000 206.010
44.56000 202.525
44.57000 211.951
44.58000 220.387
44.59000 225.783
44.60000 224.079
44.61000 222.083
44.62000 222.084
44.63000 225.232
44.64000 228.418
44.65000 230.038
44.66000 228.026
44.67000 226.674
44.68000 224.838
44.69000 222.677
44.70000 220.583
44.71000 220.316
44.72000 220.878
44.73000 221.408
44.74000 219.735
44.75000 217.581
44.76000 215.341
44.77000 212.460
44.78000 209.448
44.79000 207.713
44.80000 212.000
44.81000 217.058
44.82000 220.958
44.83000 227.397
44.84000 232.643
44.85000 237.215
44.86000 240.352
44.87000 243.442
44.88000 241.042
44.89000 230.789
44.90000 220.479
44.91000 216.607
44.92000 218.702
44.93000 220.848
44.94000 226.503
44.95000 234.297
44.96000 241.784
44.97000 242.395
44.98000 240.171
44.99000 238.092
45.00000 237.737
45.01000 237.851
45.02000 237.924
45.03000 237.727
45.04000 237.482
45.05000 237.671
45.06000 239.719
45.07000 241.977
45.08000 243.675
45.09000 238.108
45.10000 233.402
45.11000 234.090
45.12000 245.223
45.13000 256.622
45.14000 262.985
45.15000 262.827
45.16000 262.643
45.17000 259.676
45.18000 254.403
45.19000 249.187
45.20000 246.770
45.21000 245.903
45.22000 245.472
45.23000 253.089
45.24000 263.731
45.25000 273.566
45.26000 272.514
45.27000 269.098
45.28000 265.245
45.29000 258.808
45.30000 251.946
45.31000 246.386
45.32000 245.851
45.33000 245.816
45.34000 245.791
45.35000 248.551
45.36000 250.793
45.37000 251.486
45.38000 249.449
45.39000 247.360
45.40000 248.494
45.41000 253.393
45.42000 258.285
45.43000 258.481
45.44000 255.162
45.45000 251.897
45.46000 250.663
45.47000 250.455
45.48000 250.444
45.49000 253.516
45.50000 257.643
45.51000 261.411
45.52000 257.402
45.53000 252.262
45.54000 248.354
45.55000 250.998
45.56000 254.605
45.57000 255.866
45.58000 248.902
45.59000 241.227
45.60000 235.764
45.61000 244.600
45.62000 251.794
45.63000 251.394
45.64000 238.828
45.65000 226.101
45.66000 223.707
45.67000 232.173
45.68000 240.597
45.69000 239.653
45.70000 232.404
45.71000 225.395
45.72000 225.269
45.73000 228.307
45.74000 231.130
45.75000 231.101
45.76000 230.183
45.77000 229.356
45.78000 225.936
45.79000 222.463
45.80000 220.829
45.81000 228.008
45.82000 236.339
45.83000 239.320
45.84000 225.248
45.85000 209.905
45.86000 199.308
45.87000 202.075
45.88000 204.498
45.89000 207.231
45.90000 210.415
45.91000 213.602
45.92000 216.985
45.93000 220.552
45.94000 224.089
45.95000 223.575
45.96000 220.607
45.97000 217.704
45.98000 216.306
45.99000 215.538
46.00000 214.521
46.01000 210.652
46.02000 205.977
46.03000 201.822
46.04000 203.185
46.05000 205.260
46.06000 207.097
46.07000 207.905
46.08000 208.593
46.09000 207.660
46.10000 202.023
46.11000 196.087
46.12000 192.117
46.13000 198.792
46.14000 203.950
46.15000 206.240
46.16000 204.755
46.17000 203.255
46.18000 202.663
46.19000 202.843
46.20000 203.021
46.21000 204.877
46.22000 207.606
46.23000 210.175
46.24000 209.672
46.25000 207.997
46.26000 206.369
46.27000 205.199
46.28000 204.147
46.29000 203.227
46.30000 198.858
46.31000 194.617
46.32000 191.515
46.33000 192.886
46.34000 194.711
46.35000 196.147
46.36000 196.559
46.37000 196.916
46.38000 197.147
46.39000 202.778
46.40000 206.974
46.41000 205.337
46.42000 196.770
46.43000 188.229
46.44000 188.657
46.45000 195.957
46.46000 203.134
46.47000 200.939
46.48000 194.174
46.49000 187.800
46.50000 187.674
46.51000 189.719
46.52000 192.148
46.53000 197.940
46.54000 204.515
46.55000 210.179
46.56000 206.872
46.57000 202.932
46.58000 199.750
46.59000 199.265
46.60000 199.019
46.61000 197.480
46.62000 192.831
46.63000 188.045
46.64000 185.066
46.65000 189.047
46.66000 191.986
46.67000 194.505
46.68000 196.575
46.69000 198.614
46.70000 196.864
46.71000 192.486
46.72000 188.206
46.73000 184.784
46.74000 181.888
46.75000 179.575
46.76000 185.183
46.77000 193.296
46.78000 200.352
46.79000 199.239
46.80000 196.408
46.81000 194.012
46.82000 199.289
46.83000 204.565
46.84000 206.187
46.85000 195.987
46.86000 184.884
46.87000 179.931
46.88000 188.459
46.89000 197.466
46.90000 202.855
46.91000 198.810
46.92000 195.878
46.93000 193.608
46.94000 191.972
46.95000 190.340
46.96000 189.014
46.97000 187.882
46.98000 186.781
46.99000 190.891
47.00000 196.898
47.01000 202.335
47.02000 201.111
47.03000 197.971
47.04000 195.618
47.05000 198.663
47.06000 202.731
47.07000 206.113
47.08000 194.863
47.09000 184.128
47.10000 176.945
47.11000 180.217
47.12000 184.170
47.13000 187.324
47.14000 188.880
47.15000 190.391
47.16000 191.258
47.17000 185.398
47.18000 181.287
47.19000 183.224
47.20000 190.379
47.21000 197.440
47.22000 199.428
47.23000 198.513
47.24000 197.632
47.25000 193.718
47.26000 188.931
47.27000 184.636
47.28000 185.344
47.29000 187.357
47.30000 189.726
47.31000 194.281
47.32000 199.208
47.33000 203.222
47.34000 202.642
47.35000 201.778
47.36000 199.017
47.37000 191.170
47.38000 183.044
47.39000 177.587
47.40000 176.984
47.41000 176.481
47.42000 176.206
47.43000 181.103
47.44000 184.472
47.45000 186.367
47.46000 187.114
47.47000 187.835
47.48000 187.526
47.49000 186.681
47.50000 185.872
47.51000 184.592
47.52000 183.246
47.53000 182.195
47.54000 183.788
47.55000 186.005
47.56000 187.413
47.57000 184.360
47.58000 180.628
47.59000 177.650
47.60000 178.814
47.61000 180.056
47.62000 182.205
47.63000 186.572
47.64000 191.040
47.65000 192.860
47.66000 190.306
47.67000 187.688
47.68000 186.323
47.69000 187.335
47.70000 187.980
47.71000 183.151
47.72000 174.465
47.73000 166.131
47.74000 168.750
47.75000 176.556
47.76000 183.960
47.77000 180.242
47.78000 173.522
47.79000 168.090
47.80000 172.810
47.81000 179.701
47.82000 185.490
47.83000 185.815
47.84000 185.398
47.85000 185.073
47.86000 185.457
47.87000 185.808
47.88000 185.911
47.89000 185.466
47.90000 185.000
47.91000 186.034
47.92000 189.319
47.93000 192.626
47.94000 192.958
47.95000 190.385
47.96000 187.835
47.97000 187.258
47.98000 187.942
47.99000 188.575
48.00000 187.961
48.01000 186.809
48.02000 185.727
48.03000 186.770
48.04000 188.287
48.05000 189.396
48.06000 187.640
48.07000 185.331
48.08000 183.599
48.09000 184.447
48.10000 185.604
48.11000 186.485
48.12000 178.635
48.13000 171.996
48.14000 169.916
48.15000 177.076
48.16000 184.503
48.17000 187.128
48.18000 183.226
48.19000 179.289
48.20000 180.762
48.21000 186.973
48.22000 193.043
48.23000 191.033
48.24000 184.332
48.25000 178.035
48.26000 179.925
48.27000 185.032
48.28000 189.779
48.29000 188.279
48.30000 185.431
48.31000 183.199
48.32000 184.811
48.33000 187.090
48.34000 189.097
48.35000 189.999
48.36000 190.784
48.37000 191.367
48.38000 183.154
48.39000 176.387
48.40000 171.082
48.41000 168.474
48.42000 165.926
48.43000 166.537
48.44000 171.028
48.45000 175.522
48.46000 180.247
48.47000 185.134
48.48000 189.926
48.49000 190.726
48.50000 189.417
48.51000 188.205
48.52000 188.625
48.53000 189.630
48.54000 190.554
48.55000 190.129
48.56000 189.461
48.57000 188.290
48.58000 184.310
48.59000 179.893
48.60000 176.354
48.61000 176.039
48.62000 176.023
48.63000 176.011
48.64000 185.268
48.65000 192.698
48.66000 194.021
48.67000 185.093
48.68000 176.004
48.69000 173.243
48.70000 177.488
48.71000 181.721
48.72000 183.927
48.73000 184.673
48.74000 185.444
48.75000 186.993
48.76000 188.917
48.77000 190.494
48.78000 187.114
48.79000 182.118
48.80000 177.586
48.81000 182.694
48.82000 189.052
48.83000 194.149
48.84000 192.894
48.85000 190.760
48.86000 187.779
48.87000 181.972
48.88000 175.938
48.89000 171.708
48.90000 176.717
48.91000 180.773
48.92000 183.029
48.93000 182.543
48.94000 182.028
48.95000 180.276
48.96000 177.296
48.97000 174.335
48.98000 173.031
48.99000 172.805
49.00000 172.636
49.01000 173.943
49.02000 175.898
49.03000 177.987
49.04000 181.730
49.05000 185.963
49.06000 189.752
49.07000 184.097
49.08000 177.548
49.09000 172.737
49.10000 175.837
49.11000 179.907
49.12000 182.199
49.13000 179.092
49.14000 175.615
49.15000 173.252
49.16000 179.925
49.17000 185.108
49.18000 188.203
49.19000 188.414
49.20000 188.605
49.21000 185.843
49.22000 180.444
49.23000 175.101
49.24000 173.910
49.25000 175.139
49.26000 176.404
49.27000 178.405
49.28000 180.699
49.29000 182.950
49.30000 184.750
49.31000 186.427
49.32000 187.907
49.33000 185.026
49.34000 181.877
49.35000 179.501
49.36000 180.305
49.37000 181.453
49.38000 182.102
49.39000 181.374
49.40000 180.566
49.41000 180.035
49.42000 172.763
49.43000 167.297
49.44000 166.695
49.45000 172.168
49.46000 177.645
49.47000 177.839
49.48000 173.781
49.49000 169.782
49.50000 168.841
49.51000 169.519
49.52000 170.349
49.53000 173.831
49.54000 178.277
49.55000 182.016
49.56000 179.180
49.57000 174.739
49.58000 170.882
49.59000 172.945
49.60000 175.502
49.61000 177.586
49.62000 177.904
49.63000 178.054
49.64000 177.179
49.65000 173.721
49.66000 170.139
49.67000 167.867
49.68000 171.686
49.69000 174.531
49.70000 175.823
49.71000 175.366
49.72000 174.912
49.73000 175.356
49.74000 176.452
49.75000 177.528
49.76000 177.584
49.77000 177.159
49.78000 176.542
49.79000 173.102
49.80000 168.726
49.81000 165.794
49.82000 174.684
49.83000 186.188
49.84000 196.011
49.85000 189.075
49.86000 181.241
49.87000 175.500
49.88000 176.848
49.89000 178.779
49.90000 178.761
49.91000 174.272
49.92000 169.607
49.93000 166.761
49.94000 159.994
49.95000 155.125
49.96000 155.611
49.97000 161.516
49.98000 167.360
49.99000 167.283
50.00000 163.301
50.01000 159.420
50.02000 165.141
50.03000 174.676
50.04000 183.374
50.05000 181.564
50.06000 176.591
50.07000 172.393
50.08000 173.833
50.09000 176.398
50.10000 178.549
50.11000 178.439
50.12000 178.111
50.13000 177.781
50.14000 177.443
50.15000 177.103
50.16000 176.662
50.17000 176.006
50.18000 175.344
50.19000 174.956
50.20000 177.509
50.21000 179.319
50.22000 178.632
50.23000 175.677
50.24000 172.775
50.25000 173.314
50.26000 175.914
50.27000 178.430
50.28000 176.863
50.29000 173.818
50.30000 170.892
50.31000 169.260
50.32000 167.982
50.33000 167.500
50.34000 172.172
50.35000 177.768
50.36000 182.373
50.37000 179.106
50.38000 175.705
50.39000 174.970
50.40000 181.711
50.41000 188.899
50.42000 190.818
50.43000 182.711
50.44000 174.364
50.45000 169.687
50.46000 166.703
50.47000 164.647
50.48000 165.679
50.49000 169.238
50.50000 172.768
50.51000 174.932
50.52000 176.353
50.53000 177.717
50.54000 178.969
50.55000 180.101
50.56000 180.815
50.57000 177.552
50.58000 173.302
50.59000 170.582
50.60000 176.735
50.61000 184.316
50.62000 190.428
50.63000 194.174
50.64000 197.031
50.65000 196.870
50.66000 189.002
50.67000 180.748
50.68000 178.233
50.69000 185.649
50.70000 193.240
50.71000 197.295
50.72000 191.510
50.73000 187.552
50.74000 182.466
50.75000 176.545
50.76000 170.845
50.77000 172.900
50.78000 178.800
50.79000 184.420
50.80000 182.667
50.81000 178.747
50.82000 175.638
50.83000 179.302
50.84000 184.488
50.85000 188.471
50.86000 186.178
50.87000 182.984
50.88000 180.464
50.89000 178.278
50.90000 176.547
50.91000 176.118
50.92000 178.720
50.93000 181.445
50.94000 183.826
50.95000 185.663
50.96000 187.495
50.97000 188.423
50.98000 183.759
50.99000 180.650
51.00000 179.234
51.01000 178.952
51.02000 178.739
51.03000 180.451
51.04000 183.031
51.05000 185.466
51.06000 186.944
51.07000 188.032
51.08000 188.382
51.09000 183.264
51.10000 177.037
51.11000 171.184
51.12000 167.082
51.13000 163.205
51.14000 160.218
51.15000 165.041
51.16000 169.309
51.17000 172.690
51.18000 174.190
51.19000 175.629
51.20000 174.534
51.21000 169.825
51.22000 165.090
51.23000 165.130
51.24000 169.580
51.25000 173.987
51.26000 175.419
51.27000 175.044
51.28000 174.540
51.29000 171.188
51.30000 166.665
51.31000 162.439
51.32000 158.440
51.33000 154.870
51.34000 152.328
51.35000 156.568
51.36000 162.048
51.37000 166.550
51.38000 166.901
51.39000 166.785
51.40000 166.697
51.41000 164.719
51.42000 163.081
51.43000 164.366
51.44000 171.293
51.45000 178.363
51.46000 179.633
51.47000 173.416
51.48000 167.177
51.49000 163.590
51.50000 162.213
51.51000 160.833
51.52000 159.311
51.53000 157.709
51.54000 156.286
51.55000 158.142
51.56000 161.226
51.57000 164.076
51.58000 163.792
51.59000 162.827
51.60000 161.822
51.61000 160.574
51.62000 159.287
51.63000 158.277
51.64000 158.335
51.65000 158.499
51.66000 158.619
51.67000 159.870
51.68000 160.880
51.69000 162.627
51.70000 165.669
51.71000 168.735
51.72000 167.716
51.73000 161.939
51.74000 156.171
51.75000 154.542
51.76000 156.013
51.77000 157.513
51.78000 160.049
51.79000 163.108
51.80000 165.887
51.81000 164.324
51.82000 161.281
51.83000 158.502
51.84000 159.073
51.85000 160.258
51.86000 161.328
51.87000 161.788
51.88000 162.158
51.89000 162.882
51.90000 164.841
51.91000 166.905
51.92000 168.374
51.93000 166.602
51.94000 165.149
51.95000 164.624
51.96000 165.584
51.97000 166.562
51.98000 166.560
51.99000 165.529
52.00000 164.503
52.01000 162.206
52.02000 159.082
52.03000 156.113
52.04000 157.550
52.05000 161.007
52.06000 164.336
52.07000 165.975
52.08000 167.090
52.09000 168.094
52.10000 162.596
52.11000 156.595
52.12000 152.208
52.13000 155.530
52.14000 159.855
52.15000 162.571
52.16000 160.171
52.17000 157.392
52.18000 155.474
52.19000 161.196
52.20000 165.690
52.21000 166.549
52.22000 162.139
52.23000 157.688
52.24000 159.087
52.25000 165.983
52.26000 172.821
52.27000 172.870
52.28000 168.802
52.29000 164.882
52.30000 164.370
52.31000 165.280
52.32000 166.208
52.33000 167.326
52.34000 168.498
52.35000 169.539
52.36000 166.746
52.37000 163.705
52.38000 161.183
52.39000 160.907
52.40000 160.888
52.41000 160.528
52.42000 159.178
52.43000 157.766
52.44000 156.822
52.45000 153.168
52.46000 150.408
52.47000 150.137
52.48000 153.133
52.49000 156.142
52.50000 158.379
52.51000 159.963
52.52000 161.527
52.53000 159.929
52.54000 156.642
52.55000 153.511
52.56000 153.325
52.57000 154.260
52.58000 154.969
52.59000 153.441
52.60000 151.340
52.61000 149.501
52.62000 153.019
52.63000 156.801
52.64000 159.674
52.65000 158.994
52.66000 157.955
52.67000 157.015
52.68000 156.335
52.69000 155.669
52.70000 155.239
52.71000 153.820
52.72000 152.769
52.73000 153.217
52.74000 155.443
52.75000 157.668
52.76000 159.034
52.77000 159.743
52.78000 160.439
52.79000 157.575
52.80000 153.047
52.81000 148.814
52.82000 149.272
52.83000 151.356
52.84000 153.172
52.85000 152.662
52.86000 151.611
52.87000 150.707
52.88000 151.388
52.89000 152.165
52.90000 152.161
52.91000 149.385
52.92000 146.363
52.93000 144.800
52.94000 146.733
52.95000 148.819
52.96000 150.116
52.97000 153.550
52.98000 156.044
52.99000 157.821
53.00000 158.834
53.01000 159.833
53.02000 159.212
53.03000 157.472
53.04000 155.771
53.05000 156.339
53.06000 157.895
53.07000 159.254
53.08000 157.940
53.09000 155.784
53.10000 153.744
53.11000 152.594
53.12000 151.631
53.13000 150.816
53.14000 153.012
53.15000 155.184
53.16000 157.104
53.17000 158.211
53.18000 159.255
53.19000 159.731
53.20000 158.961
53.21000 158.147
53.22000 157.661
53.23000 152.886
53.24000 149.471
53.25000 152.108
53.26000 160.533
53.27000 168.867
53.28000 170.101
53.29000 166.882
53.30000 163.755
53.31000 155.458
53.32000 145.499
53.33000 136.707
53.34000 141.502
53.35000 150.191
53.36000 157.670
53.37000 156.857
53.38000 154.477
53.39000 152.500
53.40000 156.212
53.41000 159.835
53.42000 162.702
53.43000 163.351
53.44000 163.855
53.45000 163.253
53.46000 160.447
53.47000 157.580
53.48000 155.938
53.49000 160.075
53.50000 162.981
53.51000 163.462
53.52000 161.857
53.53000 160.205
53.54000 156.005
53.55000 150.353
53.56000 144.903
53.57000 146.842
53.58000 151.349
53.59000 155.364
53.60000 154.381
53.61000 152.099
53.62000 150.969
53.63000 156.887
53.64000 164.002
53.65000 169.796
53.66000 165.153
53.67000 160.479
53.68000 156.714
53.69000 155.378
53.70000 154.175
53.71000 152.240
53.72000 148.978
53.73000 145.689
53.74000 143.891
53.75000 151.678
53.76000 157.029
53.77000 158.340
53.78000 156.514
53.79000 154.674
53.80000 152.315
53.81000 149.686
53.82000 147.171
53.83000 153.651
53.84000 162.632
53.85000 170.540
53.86000 168.923
53.87000 165.059
53.88000 160.933
53.89000 155.369
53.90000 149.586
53.91000 144.976
53.92000 155.122
53.93000 164.382
53.94000 167.659
53.95000 156.361
53.96000 144.405
53.97000 139.239
53.98000 145.259
53.99000 151.443
54.00000 154.661
54.01000 154.023
54.02000 153.583
54.03000 152.198
54.04000 150.149
54.05000 148.163
54.06000 148.121
54.07000 148.997
54.08000 149.828
54.09000 150.046
54.10000 150.067
54.11000 150.157
54.12000 150.788
54.13000 151.534
54.14000 152.122
54.15000 151.930
54.16000 151.632
54.17000 151.400
54.18000 151.957
54.19000 152.449
54.20000 152.297
54.21000 150.712
54.22000 149.075
54.23000 148.980
54.24000 151.190
54.25000 153.422
54.26000 156.137
54.27000 159.321
54.28000 162.476
54.29000 163.250
54.30000 162.506
54.31000 161.673
54.32000 158.620
54.33000 154.613
54.34000 150.850
54.35000 149.161
54.36000 148.172
54.37000 147.375
54.38000 147.912
54.39000 148.707
54.40000 149.643
54.41000 151.214
54.42000 152.859
54.43000 154.112
54.44000 153.169
54.45000 152.311
54.46000 151.801
54.47000 151.991
54.48000 152.201
54.49000 151.302
54.50000 148.899
54.51000 146.490
54.52000 145.573
54.53000 145.962
54.54000 146.349
54.55000 146.668
54.56000 146.947
54.57000 147.275
54.58000 148.569
54.59000 150.242
54.60000 151.797
54.61000 151.061
54.62000 149.850
54.63000 148.888
54.64000 149.469
54.65000 150.316
54.66000 151.653
54.67000 154.969
54.68000 158.494
54.69000 161.108
54.70000 154.763
54.71000 149.445
54.72000 145.619
54.73000 144.537
54.74000 143.515
54.75000 145.320
54.76000 150.587
54.77000 155.853
54.78000 156.678
54.79000 154.012
54.80000 151.402
54.81000 151.172
54.82000 152.193
54.83000 153.087
54.84000 151.824
54.85000 149.791
54.86000 147.924
54.87000 151.106
54.88000 155.023
54.89000 158.032
54.90000 155.970
54.91000 153.122
54.92000 151.232
54.93000 152.848
54.94000 154.788
54.95000 156.186
54.96000 151.818
54.97000 148.264
54.98000 146.583
54.99000 148.034
55.00000 149.535
55.01000 151.363
55.02000 153.553
55.03000 155.734
55.04000 158.501
55.05000 161.656
55.06000 164.644
55.07000 162.283
55.08000 157.357
55.09000 152.472
55.10000 148.161
55.11000 144.038
55.12000 140.299
55.13000 143.933
55.14000 148.548
55.15000 152.744
55.16000 154.831
55.17000 156.627
55.18000 158.542
55.19000 160.855
55.20000 163.200
55.21000 164.842
55.22000 158.899
55.23000 154.186
55.24000 152.106
55.25000 154.025
55.26000 155.985
55.27000 157.942
55.28000 159.896
55.29000 161.836
55.30000 162.431
55.31000 162.159
55.32000 161.880
55.33000 161.417
55.34000 160.874
55.35000 160.504
55.36000 162.251
55.37000 164.624
55.38000 166.747
55.39000 170.809
55.40000 174.683
55.41000 177.303
55.42000 174.240
55.43000 170.481
55.44000 167.959
55.45000 169.181
55.46000 170.658
55.47000 171.661
55.48000 178.921
55.49000 184.477
55.50000 186.423
55.51000 183.399
55.52000 180.345
55.53000 179.000
55.54000 179.177
55.55000 179.352
55.56000 179.756
55.57000 180.282
55.58000 181.039
55.59000 186.602
55.60000 194.077
55.61000 200.553
55.62000 196.450
55.63000 189.506
55.64000 183.384
55.65000 192.448
55.66000 202.564
55.67000 211.829
55.68000 217.600
55.69000 222.993
55.70000 226.726
55.71000 225.881
55.72000 224.771
55.73000 224.042
55.74000 233.234
55.75000 240.164
55.76000 251.399
55.77000 267.997
55.78000 284.587
55.79000 293.099
55.80000 295.130
55.81000 297.131
55.82000 301.067
55.83000 305.890
55.84000 310.486
55.85000 311.158
55.86000 310.408
55.87000 310.659
55.88000 320.180
55.89000 331.959
55.90000 342.183
55.91000 342.555
55.92000 341.549
55.93000 339.708
55.94000 334.765
55.95000 329.529
55.96000 328.938
55.97000 340.005
55.98000 351.633
55.99000 358.998
56.00000 343.445
56.01000 331.889
56.02000 322.691
56.03000 316.139
56.04000 309.600
56.05000 304.682
56.06000 300.940
56.07000 297.272
56.08000 293.967
56.09000 290.957
56.10000 288.088
56.11000 287.280
56.12000 287.153
56.13000 286.652
56.14000 283.093
56.15000 278.860
56.16000 275.248
56.17000 263.936
56.18000 253.501
56.19000 244.403
56.20000 239.823
56.21000 235.613
56.22000 232.307
56.23000 231.071
56.24000 229.916
56.25000 229.212
56.26000 218.502
56.27000 210.768
56.28000 206.598
56.29000 206.023
56.30000 205.393
56.31000 199.608
56.32000 190.434
56.33000 181.495
56.34000 181.266
56.35000 184.733
56.36000 187.841
56.37000 186.457
56.38000 183.723
56.39000 181.123
56.40000 179.483
56.41000 178.034
56.42000 176.819
56.43000 175.234
56.44000 173.876
56.45000 172.055
56.46000 168.810
56.47000 165.465
56.48000 164.342
56.49000 167.850
56.50000 171.503
56.51000 173.639
56.52000 167.784
56.53000 163.625
56.54000 159.519
56.55000 155.462
56.56000 151.494
56.57000 153.266
56.58000 158.464
56.59000 163.495
56.60000 163.286
56.61000 161.089
56.62000 159.507
56.63000 164.594
56.64000 171.500
56.65000 176.543
56.66000 169.558
56.67000 160.421
56.68000 152.908
56.69000 154.847
56.70000 157.296
56.71000 158.225
56.72000 154.902
56.73000 151.325
56.74000 149.085
56.75000 149.379
56.76000 149.735
56.77000 149.933
56.78000 153.778
56.79000 156.441
56.80000 155.322
56.81000 151.119
56.82000 146.991
56.83000 146.315
56.84000 147.513
56.85000 148.664
56.86000 149.453
56.87000 150.066
56.88000 150.381
56.89000 147.866
56.90000 144.652
56.91000 141.435
56.92000 138.203
56.93000 134.969
56.94000 132.364
56.95000 137.616
56.96000 142.495
56.97000 146.513
56.98000 148.336
56.99000 150.050
57.00000 150.172
57.01000 147.547
57.02000 144.874
57.03000 143.448
57.04000 145.653
57.05000 147.139
57.06000 145.312
57.07000 141.043
57.08000 136.885
57.09000 136.606
57.10000 138.243
57.11000 139.802
57.12000 144.147
57.13000 149.037
57.14000 153.344
57.15000 152.807
57.16000 151.184
57.17000 149.375
57.18000 146.595
57.19000 143.676
57.20000 141.376
57.21000 143.436
57.22000 145.381
57.23000 146.894
57.24000 147.404
57.25000 147.873
57.26000 146.846
57.27000 143.474
57.28000 140.073
57.29000 138.351
57.30000 140.515
57.31000 141.944
57.32000 141.324
57.33000 139.337
57.34000 137.468
57.35000 138.839
57.36000 141.670
57.37000 144.341
57.38000 145.282
57.39000 145.662
57.40000 145.400
57.41000 140.401
57.42000 134.444
57.43000 130.181
57.44000 133.857
57.45000 138.542
57.46000 142.150
57.47000 136.532
57.48000 131.559
57.49000 128.438
57.50000 129.232
57.51000 130.152
57.52000 133.884
57.53000 141.613
57.54000 149.370
57.55000 150.724
57.56000 146.185
57.57000 141.674
57.58000 139.151
57.59000 137.832
57.60000 136.616
57.61000 137.659
57.62000 139.630
57.63000 141.470
57.64000 144.412
57.65000 147.357
57.66000 149.390
57.67000 145.430
57.68000 140.379
57.69000 136.701
57.70000 138.842
57.71000 141.637
57.72000 143.736
57.73000 143.457
57.74000 143.126
57.75000 142.419
57.76000 140.988
57.77000 139.539
57.78000 138.420
57.79000 137.725
57.80000 137.033
57.81000 135.034
57.82000 131.960
57.83000 129.009
57.84000 131.937
57.85000 138.106
57.86000 143.994
57.87000 144.730
57.88000 143.543
57.89000 142.446
57.90000 138.598
57.91000 134.527
57.92000 131.299
57.93000 133.032
57.94000 135.575
57.95000 138.053
57.96000 140.278
57.97000 142.478
57.98000 144.087
57.99000 140.481
58.00000 137.495
58.01000 136.145
58.02000 137.666
58.03000 139.240
58.04000 141.382
58.05000 144.185
58.06000 146.981
58.07000 146.824
58.08000 144.474
58.09000 142.142
58.10000 140.503
58.11000 139.211
58.12000 138.128
58.13000 140.265
58.14000 143.497
58.15000 146.446
58.16000 142.676
58.17000 137.975
58.18000 134.279
58.19000 135.892
58.20000 138.280
58.21000 140.503
58.22000 142.149
58.23000 143.746
58.24000 144.880
58.25000 142.058
58.26000 139.783
58.27000 138.412
58.28000 138.477
58.29000 138.561
58.30000 140.676
58.31000 144.912
58.32000 149.125
58.33000 145.732
58.34000 137.282
58.35000 129.203
58.36000 131.612
58.37000 138.814
58.38000 145.434
58.39000 144.425
58.40000 141.053
58.41000 138.016
58.42000 139.667
58.43000 141.961
58.44000 143.835
58.45000 143.712
58.46000 143.329
58.47000 142.841
58.48000 142.020
58.49000 141.174
58.50000 140.590
58.51000 138.295
58.52000 136.528
58.53000 134.988
58.54000 133.775
58.55000 132.565
58.56000 133.082
58.57000 135.216
58.58000 137.333
58.59000 136.846
58.60000 134.795
58.61000 132.768
58.62000 131.317
58.63000 130.105
58.64000 129.407
58.65000 134.527
58.66000 141.285
58.67000 147.287
58.68000 140.525
58.69000 132.612
58.70000 127.613
58.71000 135.159
58.72000 144.145
58.73000 149.632
58.74000 145.031
58.75000 139.797
58.76000 136.303
58.77000 141.916
58.78000 146.250
58.79000 148.287
58.80000 147.321
58.81000 146.338
58.82000 143.122
58.83000 138.024
58.84000 132.990
58.85000 132.446
58.86000 134.364
58.87000 136.066
58.88000 133.670
58.89000 129.720
58.90000 126.721
58.91000 133.103
58.92000 141.882
58.93000 149.561
58.94000 145.199
58.95000 139.746
58.96000 134.950
58.97000 132.716
58.98000 130.740
58.99000 128.983
59.00000 127.803
59.01000 126.653
59.02000 125.912
59.03000 124.964
59.04000 124.269
59.05000 125.822
59.06000 130.028
59.07000 134.226
59.08000 135.575
59.09000 134.754
59.10000 133.948
59.11000 136.650
59.12000 140.988
59.13000 145.014
59.14000 144.120
59.15000 141.526
59.16000 139.050
59.17000 137.595
59.18000 136.375
59.19000 135.325
59.20000 134.587
59.21000 134.001
59.22000 133.355
59.23000 132.494
59.24000 131.614
59.25000 130.723
59.26000 129.802
59.27000 128.880
59.28000 128.307
59.29000 126.803
59.30000 125.711
59.31000 126.696
59.32000 129.887
59.33000 133.085
59.34000 137.027
59.35000 141.482
59.36000 145.836
59.37000 139.978
59.38000 129.826
59.39000 120.350
59.40000 119.985
59.41000 122.483
59.42000 124.966
59.43000 127.332
59.44000 129.673
59.45000 131.653
59.46000 130.697
59.47000 129.573
59.48000 129.389
59.49000 132.230
59.50000 135.301
59.51000 137.362
59.52000 137.223
59.53000 137.007
59.54000 136.878
59.55000 134.409
59.56000 132.643
59.57000 132.845
59.58000 134.922
59.59000 136.965
59.60000 136.386
59.61000 134.167
59.62000 132.012
59.63000 129.755
59.64000 127.571
59.65000 125.572
59.66000 125.729
59.67000 126.502
59.68000 127.605
59.69000 130.965
59.70000 134.750
59.71000 137.892
59.72000 135.522
59.73000 133.029
59.74000 130.951
59.75000 130.086
59.76000 129.298
59.77000 129.186
59.78000 130.415
59.79000 131.680
59.80000 132.404
59.81000 130.928
59.82000 129.895
59.83000 131.883
59.84000 136.461
59.85000 140.931
59.86000 139.572
59.87000 134.901
59.88000 130.397
59.89000 128.533
59.90000 127.737
59.91000 127.178
59.92000 129.020
59.93000 131.486
59.94000 133.939
59.95000 136.320
59.96000 138.689
59.97000 140.617
59.98000 135.220
59.99000 130.197
60.00000 125.748
60.01000 122.826
60.02000 119.988
60.03000 118.810
60.04000 120.630
60.05000 122.513
60.06000 123.540
60.07000 128.553
60.08000 131.999
60.09000 134.503
60.10000 136.278
60.11000 137.966
60.12000 136.215
60.13000 132.685
60.14000 129.309
60.15000 128.842
60.16000 129.357
60.17000 130.126
60.18000 133.140
60.19000 136.682
60.20000 139.093
60.21000 135.323
60.22000 130.617
60.23000 126.867
60.24000 127.637
60.25000 128.584
60.26000 128.740
60.27000 126.973
60.28000 125.119
60.29000 125.410
60.30000 129.223
60.31000 133.086
60.32000 135.094
60.33000 133.213
60.34000 131.968
60.35000 134.071
60.36000 138.519
60.37000 142.772
60.38000 141.050
60.39000 136.514
60.40000 132.214
60.41000 132.886
60.42000 134.968
60.43000 136.629
60.44000 135.000
60.45000 132.672
60.46000 131.050
60.47000 132.901
60.48000 135.221
60.49000 137.028
60.50000 134.660
60.51000 132.517
60.52000 130.734
60.53000 129.746
60.54000 128.788
60.55000 128.530
60.56000 129.315
60.57000 130.111
60.58000 129.182
60.59000 126.581
60.60000 124.024
60.61000 125.032
60.62000 128.305
60.63000 131.533
60.64000 133.692
60.65000 135.392
60.66000 136.988
60.67000 137.296
60.68000 137.236
60.69000 136.954
60.70000 135.122
60.71000 132.993
60.72000 131.007
60.73000 129.656
60.74000 128.382
60.75000 127.412
60.76000 128.974
60.77000 130.335
60.78000 131.242
60.79000 131.236
60.80000 131.205
60.81000 131.274
60.82000 131.478
60.83000 131.683
60.84000 129.648
60.85000 125.666
60.86000 121.803
60.87000 124.678
60.88000 131.441
60.89000 137.933
60.90000 138.978
60.91000 137.894
60.92000 136.888
60.93000 135.808
60.94000 134.817
60.95000 134.126
60.96000 135.289
60.97000 136.773
60.98000 137.519
60.99000 135.297
61.00000 132.764
61.01000 130.887
61.02000 132.535
61.03000 133.967
61.04000 134.646
61.05000 133.942
61.06000 133.208
61.07000 133.124
61.08000 133.836
61.09000 134.548
61.10000 134.628
61.11000 134.213
61.12000 133.794
61.13000 133.190
61.14000 132.488
61.15000 131.813
61.16000 131.582
61.17000 131.510
61.18000 131.443
61.19000 135.634
61.20000 140.279
61.21000 143.601
61.22000 139.559
61.23000 134.381
61.24000 130.950
61.25000 133.894
61.26000 137.424
61.27000 139.968
61.28000 145.832
61.29000 150.442
61.30000 149.571
61.31000 139.557
61.32000 129.401
61.33000 123.808
61.34000 123.234
61.35000 122.665
61.36000 128.561
61.37000 138.956
61.38000 149.009
61.39000 148.186
61.40000 142.163
61.41000 136.656
61.42000 138.458
61.43000 142.630
61.44000 146.411
61.45000 144.179
61.46000 141.065
61.47000 138.973
61.48000 141.993
61.49000 145.716
61.50000 149.914
61.51000 155.691
61.52000 161.594
61.53000 165.724
61.54000 171.752
61.55000 176.363
61.56000 183.697
61.57000 195.159
61.58000 206.662
61.59000 218.085
61.60000 229.428
61.61000 240.693
61.62000 244.739
61.63000 244.135
61.64000 243.730
61.65000 248.332
61.66000 255.117
61.67000 261.676
61.68000 265.501
61.69000 268.520
61.70000 271.220
61.71000 272.483
61.72000 273.339
61.73000 273.785
61.74000 272.380
61.75000 270.749
61.76000 266.952
61.77000 256.616
61.78000 245.836
61.79000 238.525
61.80000 223.165
61.81000 211.532
61.82000 199.834
61.83000 188.047
61.84000 176.263
61.85000 168.221
61.86000 163.500
61.87000 158.829
61.88000 152.123
61.89000 144.400
61.90000 137.130
61.91000 139.179
61.92000 144.927
61.93000 150.158
61.94000 149.947
61.95000 148.278
61.96000 146.807
61.97000 146.741
61.98000 146.896
61.99000 147.271
62.00000 148.547
62.01000 149.921
62.02000 150.239
62.03000 147.656
62.04000 144.906
62.05000 143.103
62.06000 143.903
62.07000 144.534
62.08000 145.079
62.09000 145.517
62.10000 145.948
62.11000 143.862
62.12000 139.765
62.13000 135.729
62.14000 134.323
62.15000 134.320
62.16000 134.316
62.17000 134.293
62.18000 134.264
62.19000 134.195
62.20000 133.760
62.21000 133.237
62.22000 132.784
62.23000 135.236
62.24000 137.713
62.25000 138.988
62.26000 135.804
62.27000 132.201
62.28000 130.429
62.29000 133.241
62.30000 136.271
62.31000 138.189
62.32000 143.080
62.33000 146.661
62.34000 147.568
62.35000 145.484
62.36000 143.396
62.37000 141.156
62.38000 138.806
62.39000 136.503
62.40000 138.984
62.41000 143.605
62.42000 147.866
62.43000 146.890
62.44000 144.190
62.45000 141.520
62.46000 139.088
62.47000 136.709
62.48000 134.679
62.49000 137.691
62.50000 140.820
62.51000 143.468
62.52000 144.495
62.53000 145.389
62.54000 145.750
62.55000 144.892
62.56000 143.988
62.57000 143.437
62.58000 145.996
62.59000 147.849
62.60000 150.423
62.61000 153.723
62.62000 156.958
62.63000 154.200
62.64000 147.511
62.65000 140.995
62.66000 135.973
62.67000 131.813
62.68000 128.145
62.69000 130.596
62.70000 134.878
62.71000 139.221
62.72000 144.009
62.73000 148.884
62.74000 152.968
62.75000 148.600
62.76000 144.094
62.77000 140.758
62.78000 141.008
62.79000 141.507
62.80000 141.975
62.81000 142.379
62.82000 142.781
62.83000 143.016
62.84000 145.254
62.85000 146.836
62.86000 144.146
62.87000 137.603
62.88000 131.229
62.89000 135.520
62.90000 146.160
62.91000 156.455
62.92000 156.696
62.93000 153.097
62.94000 149.376
62.95000 144.342
62.96000 138.950
62.97000 135.427
62.98000 143.927
62.99000 154.572
63.00000 163.319
63.01000 149.862
63.02000 136.807
63.03000 129.364
63.04000 137.580
63.05000 146.722
63.06000 150.259
63.07000 143.194
63.08000 135.877
63.09000 131.789
63.10000 141.189
63.11000 147.714
63.12000 149.112
63.13000 146.341
63.14000 143.671
63.15000 145.604
63.16000 150.030
63.17000 154.279
63.18000 153.725
63.19000 151.556
63.20000 149.571
63.21000 149.318
63.22000 149.491
63.23000 149.368
63.24000 147.538
63.25000 145.435
63.26000 143.741
63.27000 148.421
63.28000 152.715
63.29000 155.553
63.30000 154.692
63.31000 153.648
63.32000 152.006
63.33000 149.338
63.34000 146.651
63.35000 145.221
63.36000 147.673
63.37000 149.337
63.38000 149.407
63.39000 148.306
63.40000 147.322
63.41000 150.370
63.42000 155.404
63.43000 160.198
63.44000 154.346
63.45000 145.633
63.46000 137.890
63.47000 138.191
63.48000 140.287
63.49000 142.982
63.50000 148.772
63.51000 155.005
63.52000 159.913
63.53000 156.511
63.54000 153.230
63.55000 150.929
63.56000 150.900
63.57000 150.962
63.58000 150.664
63.59000 149.802
63.60000 148.933
63.61000 148.494
63.62000 150.093
63.63000 151.132
63.64000 149.118
63.65000 145.070
63.66000 141.246
63.67000 143.524
63.68000 148.539
63.69000 153.271
63.70000 153.223
63.71000 151.847
63.72000 150.649
63.73000 150.764
63.74000 151.142
63.75000 151.494
63.76000 151.721
63.77000 151.932
63.78000 152.095
63.79000 153.965
63.80000 155.542
63.81000 155.605
63.82000 152.475
63.83000 149.242
63.84000 149.945
63.85000 156.226
63.86000 162.546
63.87000 165.695
63.88000 165.934
63.89000 166.120
63.90000 162.785
63.91000 157.322
63.92000 152.082
63.93000 151.775
63.94000 153.484
63.95000 155.079
63.96000 156.474
63.97000 157.688
63.98000 158.893
63.99000 160.041
64.00000 161.179
64.01000 162.122
64.02000 162.241
64.03000 162.268
64.04000 162.288
64.05000 162.657
64.06000 162.962
64.07000 161.523
64.08000 156.732
64.09000 151.859
64.10000 150.170
64.11000 152.565
64.12000 154.972
64.13000 158.085
64.14000 161.769
64.15000 165.396
64.16000 166.306
64.17000 165.724
64.18000 165.068
64.19000 163.090
64.20000 160.618
64.21000 158.336
64.22000 157.750
64.23000 157.605
64.24000 157.702
64.25000 159.218
64.26000 160.966
64.27000 162.425
64.28000 162.779
64.29000 163.024
64.30000 163.204
64.31000 163.234
64.32000 163.252
64.33000 165.179
64.34000 170.442
64.35000 175.767
64.36000 178.040
64.37000 176.783
64.38000 175.524
64.39000 176.012
64.40000 177.792
64.41000 179.423
64.42000 175.669
64.43000 169.220
64.44000 163.110
64.45000 162.174
64.46000 162.992
64.47000 163.739
64.48000 166.113
64.49000 168.545
64.50000 170.733
64.51000 171.628
64.52000 172.336
64.53000 172.168
64.54000 168.958
64.55000 165.488
64.56000 163.025
64.57000 166.997
64.58000 170.223
64.59000 174.295
64.60000 179.709
64.61000 185.140
64.62000 185.031
64.63000 179.155
64.64000 173.310
64.65000 172.759
64.66000 175.752
64.67000 178.728
64.68000 181.249
64.69000 183.562
64.70000 185.449
64.71000 181.774
64.72000 176.382
64.73000 171.527
64.74000 171.544
64.75000 172.434
64.76000 173.174
64.77000 173.198
64.78000 173.131
64.79000 174.060
64.80000 178.138
64.81000 182.448
64.82000 185.416
64.83000 186.824
64.84000 187.841
64.85000 185.881
64.86000 179.633
64.87000 173.353
64.88000 174.097
64.89000 181.402
64.90000 188.644
64.91000 189.603
64.92000 186.760
64.93000 184.147
64.94000 186.787
64.95000 191.607
64.96000 195.836
64.97000 193.392
64.98000 189.075
64.99000 185.244
65.00000 185.226
65.01000 185.820
65.02000 186.466
65.03000 187.333
65.04000 188.225
65.05000 188.561
65.06000 187.298
65.07000 185.934
65.08000 185.025
65.09000 190.812
65.10000 195.225
65.11000 197.130
65.12000 195.766
65.13000 194.392
65.14000 195.000
65.15000 197.275
65.16000 199.520
65.17000 202.682
65.18000 206.260
65.19000 209.874
65.20000 214.191
65.21000 218.773
65.22000 222.904
65.23000 222.594
65.24000 221.154
65.25000 219.894
65.26000 218.490
65.27000 217.266
65.28000 216.407
65.29000 216.965
65.30000 217.666
65.31000 219.602
65.32000 224.777
65.33000 230.121
65.34000 233.562
65.35000 234.096
65.36000 234.445
65.37000 237.360
65.38000 243.295
65.39000 249.213
65.40000 250.108
65.41000 247.191
65.42000 244.324
65.43000 247.878
65.44000 254.463
65.45000 260.481
65.46000 257.576
65.47000 251.597
65.48000 247.116
65.49000 255.581
65.50000 267.032
65.51000 276.882
65.52000 279.756
65.53000 281.315
65.54000 282.152
65.55000 280.441
65.56000 278.508
65.57000 279.894
65.58000 289.197
65.59000 298.841
65.60000 304.825
65.61000 309.467
65.62000 312.794
65.63000 315.220
65.64000 316.691
65.65000 318.320
65.66000 338.855
65.67000 372.384
65.68000 405.146
65.69000 430.565
65.70000 451.659
65.71000 474.198
65.72000 516.103
65.73000 564.078
65.74000 612.740
65.75000 666.655
65.76000 721.664
65.77000 768.162
65.78000 825.450
65.79000 874.559
65.80000 917.355
65.81000 939.898
65.82000 960.915
65.83000 983.340
65.84000 1008.824
65.85000 1034.414
65.86000 1049.668
65.87000 1060.212
65.88000 1067.654
65.89000 1066.434
65.90000 1056.982
65.91000 1047.481
65.92000 1034.274
65.93000 1018.754
65.94000 1003.686
65.95000 958.006
65.96000 902.406
65.97000 846.612
65.98000 788.575
65.99000 729.899
66.00000 672.424
66.01000 623.119
66.02000 575.349
66.03000 535.716
66.04000 481.409
66.05000 435.115
66.06000 396.483
66.07000 380.216
66.08000 365.384
66.09000 353.785
66.10000 348.585
66.11000 343.557
66.12000 340.686
66.13000 328.438
66.14000 319.865
66.15000 314.877
66.16000 312.956
66.17000 311.080
66.18000 311.620
66.19000 313.529
66.20000 315.369
66.21000 316.701
66.22000 317.769
66.23000 318.847
66.24000 320.013
66.25000 321.202
66.26000 323.701
66.27000 334.152
66.28000 345.945
66.29000 355.536
66.30000 365.799
66.31000 374.233
66.32000 384.159
66.33000 398.051
66.34000 412.158
66.35000 421.337
66.36000 421.640
66.37000 421.762
66.38000 421.829
66.39000 433.959
66.40000 442.280
66.41000 444.806
66.42000 442.863
66.43000 440.996
66.44000 442.126
66.45000 444.803
66.46000 447.362
66.47000 445.417
66.48000 442.141
66.49000 438.752
66.50000 434.367
66.51000 429.748
66.52000 423.169
66.53000 405.906
66.54000 387.031
66.55000 372.004
66.56000 366.436
66.57000 362.629
66.58000 358.671
66.59000 354.348
66.60000 350.010
66.61000 342.921
66.62000 331.330
66.63000 319.673
66.64000 313.626
66.65000 318.371
66.66000 321.552
66.67000 321.542
66.68000 319.305
66.69000 317.151
66.70000 317.561
66.71000 319.176
66.72000 320.706
66.73000 320.526
66.74000 319.859
66.75000 320.078
66.76000 327.195
66.77000 335.773
66.78000 341.761
66.79000 335.036
66.80000 326.601
66.81000 320.037
66.82000 325.940
66.83000 331.406
66.84000 335.312
66.85000 335.779
66.86000 336.122
66.87000 337.765
66.88000 341.341
66.89000 344.934
66.90000 347.049
66.91000 347.735
66.92000 348.422
66.93000 349.268
66.94000 350.215
66.95000 351.145
66.96000 351.649
66.97000 351.972
66.98000 352.275
66.99000 350.094
67.00000 347.452
67.01000 345.730
67.02000 350.383
67.03000 356.254
67.04000 361.061
67.05000 361.152
67.06000 360.682
67.07000 360.325
67.08000 361.621
67.09000 362.726
67.10000 362.672
67.11000 360.289
67.12000 357.840
67.13000 357.418
67.14000 359.726
67.15000 362.048
67.16000 361.930
67.17000 359.696
67.18000 357.548
67.19000 360.157
67.20000 365.504
67.21000 370.636
67.22000 371.504
67.23000 370.708
67.24000 369.970
67.25000 375.863
67.26000 382.746
67.27000 389.103
67.28000 392.207
67.29000 394.753
67.30000 395.563
67.31000 389.409
67.32000 382.525
67.33000 377.430
67.34000 377.025
67.35000 376.913
67.36000 380.534
67.37000 390.984
67.38000 401.579
67.39000 409.006
67.40000 412.575
67.41000 416.129
67.42000 417.602
67.43000 417.445
67.44000 417.280
67.45000 416.842
67.46000 416.260
67.47000 416.309
67.48000 426.839
67.49000 441.090
67.50000 454.168
67.51000 446.520
67.52000 435.299
67.53000 426.397
67.54000 430.356
67.55000 436.291
67.56000 441.726
67.57000 445.345
67.58000 448.797
67.59000 451.283
67.60000 448.447
67.61000 446.087
67.62000 444.439
67.63000 443.971
67.64000 443.522
67.65000 445.086
67.66000 448.857
67.67000 452.613
67.68000 457.823
67.69000 464.004
67.70000 470.107
67.71000 473.792
67.72000 476.323
67.73000 478.799
67.74000 480.497
67.75000 481.944
67.76000 483.254
67.77000 474.028
67.78000 463.892
67.79000 457.242
67.80000 467.989
67.81000 481.120
67.82000 492.104
67.83000 495.987
67.84000 499.307
67.85000 501.629
67.86000 502.806
67.87000 503.663
67.88000 504.812
67.89000 506.401
67.90000 507.995
67.91000 513.376
67.92000 522.485
67.93000 531.530
67.94000 536.640
67.95000 539.178
67.96000 541.424
67.97000 536.375
67.98000 528.155
67.99000 521.074
68.00000 527.767
68.01000 538.509
68.02000 548.110
68.03000 544.852
68.04000 539.833
68.05000 536.700
68.06000 542.060
68.07000 548.451
68.08000 555.975
68.09000 566.904
68.10000 578.064
68.11000 585.624
68.12000 588.961
68.13000 591.355
68.14000 592.217
68.15000 590.983
68.16000 589.736
68.17000 589.031
68.18000 588.806
68.19000 588.584
68.20000 596.993
68.21000 610.144
68.22000 622.655
68.23000 622.015
68.24000 616.172
68.25000 611.312
68.26000 616.783
68.27000 625.012
68.28000 632.261
68.29000 639.169
68.30000 645.070
68.31000 649.015
68.32000 644.989
68.33000 640.110
68.34000 640.697
68.35000 656.261
68.36000 672.682
68.37000 683.439
68.38000 682.915
68.39000 682.344
68.40000 690.099
68.41000 708.157
68.42000 726.209
68.43000 733.286
68.44000 731.612
68.45000 729.964
68.46000 735.950
68.47000 745.695
68.48000 755.854
68.49000 773.092
68.50000 792.882
68.51000 810.437
68.52000 807.448
68.53000 799.487
68.54000 792.584
68.55000 815.995
68.56000 839.967
68.57000 865.555
68.58000 897.118
68.59000 929.240
68.60000 961.030
68.61000 991.988
68.62000 1022.906
68.63000 1042.444
68.64000 1095.072
68.65000 1133.597
68.66000 1176.914
68.67000 1225.577
68.68000 1274.301
68.69000 1331.929
68.70000 1395.978
68.71000 1458.740
68.72000 1514.256
68.73000 1564.284
68.74000 1614.053
68.75000 1660.061
68.76000 1704.835
68.77000 1749.652
68.78000 1794.813
68.79000 1840.048
68.80000 1878.616
68.81000 1961.316
68.82000 2036.079
68.83000 2113.272
68.84000 2198.626
68.85000 2284.641
68.86000 2391.128
68.87000 2544.169
68.88000 2699.011
68.89000 2793.154
68.90000 3224.592
68.91000 3535.267
68.92000 4194.602
68.93000 5203.153
68.94000 6220.989
68.95000 8100.816
68.96000 10544.065
68.97000 12923.854
68.98000 16680.891
68.99000 20841.814
69.00000 25029.598
69.01000 29550.262
69.02000 34170.289
69.03000 38645.063
69.04000 42075.766
69.05000 45300.133
69.06000 47999.973
69.07000 49932.715
69.08000 51460.375
69.09000 52703.813
69.10000 53078.801
69.11000 53393.438
69.12000 53718.891
69.13000 54066.750
69.14000 54415.293
69.15000 54618.609
69.16000 55678.336
69.17000 56427.160
69.18000 56765.883
69.19000 56735.773
69.20000 56686.754
69.21000 55459.023
69.22000 53531.617
69.23000 51667.043
69.24000 48530.215
69.25000 45084.859
69.26000 41702.613
69.27000 38997.980
69.28000 36477.098
69.29000 34059.004
69.30000 32299.752
69.31000 30657.641
69.32000 29308.973
69.33000 28413.600
69.34000 27718.980
69.35000 27063.270
69.36000 26515.795
69.37000 25974.686
69.38000 25195.004
69.39000 23965.363
69.40000 22725.158
69.41000 22033.232
69.42000 18829.230
69.43000 16606.189
69.44000 14366.219
69.45000 12112.525
69.46000 9870.833
69.47000 8169.542
69.48000 6759.976
69.49000 5406.769
69.50000 4459.536
69.51000 3712.595
69.52000 2999.948
69.53000 2609.156
69.54000 2297.519
69.55000 2009.533
69.56000 1857.330
69.57000 1726.767
69.58000 1621.725
69.59000 1536.988
69.60000 1469.829
69.61000 1406.071
69.62000 1350.928
69.63000 1296.207
69.64000 1244.398
69.65000 1197.586
69.66000 1150.859
69.67000 1126.013
69.68000 1093.659
69.69000 1071.633
69.70000 1049.818
69.71000 1028.159
69.72000 1006.420
69.73000 981.929
69.74000 956.087
69.75000 931.488
69.76000 911.773
69.77000 895.028
69.78000 878.979
69.79000 868.687
69.80000 859.676
69.81000 849.956
69.82000 836.578
69.83000 822.680
69.84000 811.742
69.85000 798.967
69.86000 788.611
69.87000 776.822
69.88000 761.722
69.89000 746.491
69.90000 736.284
69.91000 733.911
69.92000 731.629
69.93000 730.477
69.94000 704.346
69.95000 686.960
69.96000 678.605
69.97000 676.246
69.98000 673.802
69.99000 669.070
70.00000 663.312
