20.00000 555.182
20.01000 556.083
20.02000 557.113
20.03000 557.627
20.04000 556.125
20.05000 554.420
20.06000 553.167
20.07000 558.859
20.08000 563.543
20.09000 566.085
20.10000 564.808
20.11000 563.456
20.12000 559.268
20.13000 551.725
20.14000 544.195
20.15000 541.622
20.16000 542.822
20.17000 544.167
20.18000 551.015
20.19000 560.671
20.20000 569.547
20.21000 566.039
20.22000 558.246
20.23000 551.117
20.24000 554.870
20.25000 560.448
20.26000 566.374
20.27000 574.171
20.28000 582.247
20.29000 588.345
20.30000 587.423
20.31000 585.883
20.32000 584.783
20.33000 571.102
20.34000 560.245
20.35000 550.733
20.36000 543.402
20.37000 536.101
20.38000 536.820
20.39000 546.081
20.40000 555.299
20.41000 559.436
20.42000 560.056
20.43000 560.705
20.44000 562.200
20.45000 564.089
20.46000 565.318
20.47000 557.640
20.48000 547.157
20.49000 537.691
20.50000 541.789
20.51000 547.888
20.52000 552.460
20.53000 549.624
20.54000 545.805
20.55000 542.486
20.56000 540.773
20.57000 539.182
20.58000 538.079
20.59000 539.433
20.60000 540.517
20.61000 545.034
20.62000 554.602
20.63000 564.213
20.64000 565.508
20.65000 558.858
20.66000 552.260
20.67000 548.909
20.68000 547.616
20.69000 546.048
20.70000 537.977
20.71000 527.153
20.72000 517.714
20.73000 524.376
20.74000 535.649
20.75000 545.687
20.76000 546.650
20.77000 545.999
20.78000 545.632
20.79000 546.516
20.80000 547.547
20.81000 549.225
20.82000 552.802
20.83000 556.501
20.84000 558.986
20.85000 536.748
20.86000 519.730
20.87000 515.898
20.88000 529.630
20.89000 543.436
20.90000 548.384
20.91000 545.717
20.92000 543.082
20.93000 541.376
20.94000 540.228
20.95000 539.091
20.96000 538.172
20.97000 537.336
20.98000 537.516
20.99000 547.974
21.00000 561.104
21.01000 572.622
21.02000 564.186
21.03000 554.035
21.04000 545.576
21.05000 543.830
21.06000 542.778
21.07000 544.827
21.08000 555.161
21.09000 565.947
21.10000 572.945
21.11000 569.502
21.12000 566.823
21.13000 561.899
21.14000 554.271
21.15000 546.670
21.16000 547.141
21.17000 553.874
21.18000 560.497
21.19000 561.574
21.20000 559.836
21.21000 557.964
21.22000 553.932
21.23000 549.141
21.24000 544.560
21.25000 541.847
21.26000 539.573
21.27000 537.611
21.28000 547.650
21.29000 557.717
21.30000 563.812
21.31000 555.599
21.32000 546.097
21.33000 538.762
21.34000 536.695
21.35000 534.866
21.36000 533.722
21.37000 547.171
21.38000 557.032
21.39000 558.836
21.40000 551.910
21.41000 545.016
21.42000 542.866
21.43000 544.044
21.44000 545.197
21.45000 542.527
21.46000 538.234
21.47000 534.649
21.48000 540.868
21.49000 550.221
21.50000 558.100
21.51000 554.423
21.52000 548.284
21.53000 543.075
21.54000 546.388
21.55000 550.134
21.56000 552.423
21.57000 549.949
21.58000 547.105
21.59000 546.058
21.60000 548.996
21.61000 552.080
21.62000 553.934
21.63000 557.882
21.64000 560.704
21.65000 566.021
21.66000 573.765
21.67000 581.445
21.68000 583.955
21.69000 583.173
21.70000 582.413
21.71000 591.812
21.72000 604.904
21.73000 617.505
21.74000 624.254
21.75000 629.301
21.76000 634.493
21.77000 640.698
21.78000 647.099
21.79000 652.431
21.80000 662.739
21.81000 671.773
21.82000 682.973
21.83000 700.626
21.84000 718.708
21.85000 731.847
21.86000 735.004
21.87000 737.875
21.88000 739.531
21.89000 757.290
21.90000 769.787
21.91000 782.079
21.92000 794.190
21.93000 806.197
21.94000 812.249
21.95000 814.857
21.96000 817.375
21.97000 829.699
21.98000 844.926
21.99000 858.257
22.00000 851.988
22.01000 840.543
22.02000 830.941
22.03000 832.802
22.04000 836.642
22.05000 839.778
22.06000 837.724
22.07000 835.595
22.08000 832.310
22.09000 825.889
22.10000 819.292
22.11000 811.050
22.12000 799.783
22.13000 788.451
22.14000 782.208
22.15000 770.779
22.16000 762.903
22.17000 757.129
22.18000 753.013
22.19000 748.693
22.20000 735.845
22.21000 718.512
22.22000 701.908
22.23000 696.979
22.24000 696.267
22.25000 694.959
22.26000 688.250
22.27000 680.249
22.28000 672.042
22.29000 662.690
22.30000 653.160
22.31000 645.538
22.32000 622.571
22.33000 602.863
22.34000 589.330
22.35000 591.052
22.36000 593.482
22.37000 597.245
22.38000 603.233
22.39000 609.256
22.40000 612.415
22.41000 594.630
22.42000 582.631
22.43000 579.141
22.44000 581.718
22.45000 584.079
22.46000 579.505
22.47000 571.609
22.48000 564.112
22.49000 565.444
22.50000 569.321
22.51000 571.845
22.52000 563.553
22.53000 552.920
22.54000 544.196
22.55000 545.058
22.56000 547.241
22.57000 548.948
22.58000 541.521
22.59000 535.010
22.60000 533.510
22.61000 543.288
22.62000 553.491
22.63000 554.041
22.64000 539.939
22.65000 525.684
22.66000 516.603
22.67000 512.642
22.68000 508.824
22.69000 517.697
22.70000 534.778
22.71000 551.011
22.72000 545.709
22.73000 531.009
22.74000 517.185
22.75000 514.952
22.76000 516.041
22.77000 517.271
22.78000 519.503
22.79000 521.931
22.80000 522.645
22.81000 515.597
22.82000 507.601
22.83000 501.495
22.84000 503.845
22.85000 506.153
22.86000 509.618
22.87000 515.458
22.88000 521.368
22.89000 521.539
22.90000 513.814
22.91000 506.044
22.92000 504.949
22.93000 509.782
22.94000 514.479
22.95000 510.999
22.96000 502.717
22.97000 494.675
22.98000 491.603
22.99000 490.508
23.00000 489.488
23.01000 493.039
23.02000 497.356
23.03000 500.354
23.04000 495.003
23.05000 488.185
23.06000 484.115
23.07000 491.304
23.08000 499.705
23.09000 505.959
23.10000 512.018
23.11000 516.723
23.12000 520.119
23.13000 521.070
23.14000 521.964
23.15000 524.431
23.16000 528.851
23.17000 533.270
23.18000 528.529
23.19000 516.497
23.20000 504.559
23.21000 496.695
23.22000 491.008
23.23000 486.054
23.24000 493.745
23.25000 506.017
23.26000 517.307
23.27000 518.194
23.28000 516.726
23.29000 514.673
23.30000 509.304
23.31000 503.414
23.32000 498.699
23.33000 498.352
23.34000 498.417
23.35000 498.464
23.36000 502.276
23.37000 505.343
23.38000 507.979
23.39000 509.883
23.40000 511.775
23.41000 509.113
23.42000 501.345
23.43000 493.600
23.44000 488.354
23.45000 484.948
23.46000 481.794
23.47000 487.017
23.48000 496.314
23.49000 505.098
23.50000 506.395
23.51000 505.223
23.52000 504.158
23.53000 509.833
23.54000 516.159
23.55000 520.180
23.56000 512.439
23.57000 503.046
23.58000 496.766
23.59000 500.993
23.60000 506.078
23.61000 509.657
23.62000 507.898
23.63000 506.406
23.64000 502.532
23.65000 494.984
23.66000 487.395
23.67000 482.343
23.68000 479.847
23.69000 477.366
23.70000 482.347
23.71000 492.087
23.72000 501.348
23.73000 498.018
23.74000 489.109
23.75000 481.361
23.76000 488.108
23.77000 499.203
23.78000 509.151
23.79000 508.112
23.80000 505.298
23.81000 502.872
23.82000 502.234
23.83000 501.819
23.84000 500.362
23.85000 495.706
23.86000 490.826
23.87000 487.496
23.88000 494.850
23.89000 500.595
23.90000 502.080
23.91000 497.609
23.92000 493.100
23.93000 492.082
23.94000 494.221
23.95000 496.338
23.96000 496.757
23.97000 496.174
23.98000 495.453
23.99000 491.778
24.00000 486.911
24.01000 482.347
24.02000 481.056
24.03000 480.658
24.04000 480.305
24.05000 482.163
24.06000 484.108
24.07000 486.434
24.08000 490.341
24.09000 494.423
24.10000 495.889
24.11000 490.043
24.12000 483.763
24.13000 479.620
24.14000 485.418
24.15000 489.867
24.16000 492.803
24.17000 493.825
24.18000 494.845
24.19000 497.820
24.20000 502.389
24.21000 506.894
24.22000 507.683
24.23000 506.491
24.24000 505.004
24.25000 498.290
24.26000 489.653
24.27000 481.513
24.28000 478.076
24.29000 475.802
24.30000 473.823
24.31000 472.908
24.32000 472.274
24.33000 472.006
24.34000 473.127
24.35000 474.380
24.36000 475.011
24.37000 474.054
24.38000 473.019
24.39000 472.359
24.40000 479.013
24.41000 483.943
24.42000 484.137
24.43000 478.931
24.44000 473.739
24.45000 471.953
24.46000 472.676
24.47000 473.385
24.48000 476.836
24.49000 481.468
24.50000 485.695
24.51000 483.875
24.52000 480.029
24.53000 476.648
24.54000 477.131
24.55000 478.478
24.56000 479.631
24.57000 476.585
24.58000 473.509
24.59000 471.834
24.60000 474.962
24.61000 478.493
24.62000 482.734
24.63000 488.625
24.64000 494.584
24.65000 498.237
24.66000 495.950
24.67000 494.262
24.68000 488.509
24.69000 478.590
24.70000 468.754
24.71000 467.395
24.72000 471.695
24.73000 475.888
24.74000 480.524
24.75000 485.143
24.76000 489.350
24.77000 488.285
24.78000 485.615
24.79000 483.081
24.80000 481.554
24.81000 480.231
24.82000 479.118
24.83000 477.136
24.84000 475.392
24.85000 475.605
24.86000 481.918
24.87000 488.669
24.88000 491.834
24.89000 487.419
24.90000 482.760
24.91000 480.017
24.92000 478.990
24.93000 478.273
24.94000 475.107
24.95000 469.688
24.96000 464.373
24.97000 466.071
24.98000 472.019
24.99000 477.781
25.00000 479.218
25.01000 478.899
25.02000 477.990
25.03000 470.541
25.04000 461.282
25.05000 453.143
25.06000 452.357
25.07000 452.909
25.08000 453.365
25.09000 458.725
25.10000 463.592
25.11000 467.720
25.12000 469.752
25.13000 471.656
25.14000 471.999
25.15000 469.339
25.16000 466.605
25.17000 465.064
25.18000 458.980
25.19000 454.755
25.20000 455.939
25.21000 461.606
25.22000 467.128
25.23000 465.708
25.24000 460.464
25.25000 455.422
25.26000 455.085
25.27000 456.416
25.28000 457.889
25.29000 460.729
25.30000 463.912
25.31000 466.257
25.32000 463.676
25.33000 460.290
25.34000 457.554
25.35000 461.899
25.36000 466.000
25.37000 469.439
25.38000 471.164
25.39000 472.803
25.40000 473.790
25.41000 473.637
25.42000 473.463
25.43000 473.370
25.44000 481.369
25.45000 486.801
25.46000 484.489
25.47000 476.382
25.48000 468.454
25.49000 467.036
25.50000 468.880
25.51000 470.638
25.52000 467.195
25.53000 462.360
25.54000 458.202
25.55000 459.785
25.56000 462.675
25.57000 463.988
25.58000 456.979
25.59000 448.756
25.60000 442.253
25.61000 439.919
25.62000 438.331
25.63000 440.104
25.64000 449.791
25.65000 459.809
25.66000 468.900
25.67000 476.515
25.68000 484.112
25.69000 487.991
25.70000 479.814
25.71000 474.349
25.72000 471.777
25.73000 471.164
25.74000 470.750
25.75000 475.955
25.76000 483.724
25.77000 491.066
25.78000 482.026
25.79000 469.074
25.80000 457.243
25.81000 453.841
25.82000 452.171
25.83000 450.758
25.84000 450.567
25.85000 450.536
25.86000 450.511
25.87000 459.034
25.88000 466.294
25.89000 469.199
25.90000 462.760
25.91000 456.009
25.92000 451.300
25.93000 449.540
25.94000 447.805
25.95000 446.551
25.96000 445.749
25.97000 445.014
25.98000 449.058
25.99000 456.043
26.00000 462.690
26.01000 461.636
26.02000 457.378
26.03000 453.395
26.04000 455.586
26.05000 459.153
26.06000 461.773
26.07000 458.057
26.08000 453.169
26.09000 450.360
26.10000 456.497
26.11000 463.659
26.12000 469.057
26.13000 455.304
26.14000 443.594
26.15000 436.406
26.16000 438.052
26.17000 439.928
26.18000 447.611
26.19000 462.880
26.20000 478.168
26.21000 480.001
26.22000 470.527
26.23000 461.112
26.24000 454.732
26.25000 450.048
26.26000 445.608
26.27000 445.732
26.28000 447.587
26.29000 449.303
26.30000 450.622
26.31000 451.715
26.32000 452.185
26.33000 448.921
26.34000 445.037
26.35000 441.989
26.36000 442.196
26.37000 442.731
26.38000 443.123
26.39000 444.743
26.40000 446.045
26.41000 447.572
26.42000 449.500
26.43000 451.436
26.44000 452.214
26.45000 451.628
26.46000 451.040
26.47000 450.579
26.48000 450.215
26.49000 449.884
26.50000 450.770
26.51000 452.274
26.52000 453.709
26.53000 454.043
26.54000 453.999
26.55000 453.957
26.56000 454.450
26.57000 454.997
26.58000 454.771
26.59000 450.388
26.60000 445.389
26.61000 442.427
26.62000 446.670
26.63000 451.545
26.64000 455.025
26.65000 449.682
26.66000 445.315
26.67000 443.965
26.68000 447.491
26.69000 451.082
26.70000 450.920
26.71000 446.773
26.72000 442.645
26.73000 440.007
26.74000 438.413
26.75000 436.937
26.76000 438.912
26.77000 442.488
26.78000 445.592
26.79000 442.359
26.80000 437.136
26.81000 432.422
26.82000 437.466
26.83000 443.688
26.84000 448.083
26.85000 443.641
26.86000 438.030
26.87000 433.161
26.88000 430.675
26.89000 428.370
26.90000 426.773
26.91000 425.927
26.92000 425.311
26.93000 429.827
26.94000 441.870
26.95000 453.978
26.96000 454.330
26.97000 443.487
26.98000 432.731
26.99000 430.045
27.00000 432.361
27.01000 434.431
27.02000 430.697
27.03000 424.513
27.04000 419.204
27.05000 424.038
27.06000 431.768
27.07000 438.648
27.08000 446.569
27.09000 453.619
27.10000 457.235
27.11000 445.847
27.12000 432.705
27.13000 425.659
27.14000 436.447
27.15000 448.383
27.16000 456.390
27.17000 437.933
27.18000 423.697
27.19000 419.145
27.20000 427.454
27.21000 435.818
27.22000 439.266
27.23000 438.501
27.24000 437.745
27.25000 435.916
27.26000 433.537
27.27000 431.149
27.28000 428.567
27.29000 425.910
27.30000 424.371
27.31000 434.087
27.32000 446.722
27.33000 457.800
27.34000 455.620
27.35000 451.825
27.36000 447.270
27.37000 439.707
27.38000 431.836
27.39000 425.780
27.40000 424.562
27.41000 423.606
27.42000 422.986
27.43000 431.059
27.44000 437.098
27.45000 438.580
27.46000 434.597
27.47000 430.620
27.48000 430.791
27.49000 434.168
27.50000 437.490
27.51000 438.863
27.52000 439.217
27.53000 439.730
27.54000 442.812
27.55000 446.795
27.56000 449.256
27.57000 438.272
27.58000 424.129
27.59000 411.926
27.60000 411.952
27.61000 413.543
27.62000 414.583
27.63000 413.644
27.64000 412.527
27.65000 412.216
27.66000 413.859
27.67000 415.590
27.68000 416.671
27.69000 422.945
27.70000 427.525
27.71000 429.982
27.72000 430.145
27.73000 430.314
27.74000 431.316
27.75000 432.900
27.76000 434.450
27.77000 431.592
27.78000 426.861
27.79000 422.781
27.80000 427.679
27.81000 435.441
27.82000 441.835
27.83000 437.551
27.84000 431.000
27.85000 425.444
27.86000 429.162
27.87000 433.326
27.88000 435.282
27.89000 430.034
27.90000 424.227
27.91000 420.025
27.92000 419.370
27.93000 418.844
27.94000 418.528
27.95000 425.647
27.96000 430.757
27.97000 431.741
27.98000 428.727
27.99000 425.764
28.00000 426.978
28.01000 430.843
28.02000 434.600
28.03000 425.290
28.04000 411.112
28.05000 398.585
28.06000 405.618
28.07000 418.323
28.08000 429.167
28.09000 427.094
28.10000 422.548
28.11000 418.763
28.12000 422.615
28.13000 426.560
28.14000 429.420
28.15000 429.060
28.16000 428.486
28.17000 428.692
28.18000 430.468
28.19000 432.288
28.20000 433.336
28.21000 419.153
28.22000 409.179
28.23000 407.089
28.24000 411.869
28.25000 416.624
28.26000 419.937
28.27000 422.418
28.28000 424.814
28.29000 426.751
28.30000 428.407
28.31000 429.705
28.32000 427.310
28.33000 423.943
28.34000 420.659
28.35000 417.888
28.36000 415.205
28.37000 413.014
28.38000 420.141
28.39000 426.772
28.40000 431.091
28.41000 429.158
28.42000 426.876
28.43000 424.890
28.44000 423.446
28.45000 422.014
28.46000 421.227
28.47000 416.366
28.48000 413.037
28.49000 416.601
28.50000 425.584
28.51000 434.317
28.52000 432.741
28.53000 425.755
28.54000 419.066
28.55000 414.110
28.56000 410.064
28.57000 406.837
28.58000 410.999
28.59000 416.925
28.60000 421.356
28.61000 417.485
28.62000 412.335
28.63000 408.219
28.64000 410.593
28.65000 412.993
28.66000 413.741
28.67000 410.421
28.68000 406.914
28.69000 408.107
28.70000 417.136
28.71000 426.286
28.72000 431.078
28.73000 417.000
28.74000 407.528
28.75000 407.720
28.76000 414.782
28.77000 421.547
28.78000 418.879
28.79000 411.706
28.80000 404.896
28.81000 404.727
28.82000 406.556
28.83000 407.727
28.84000 403.668
28.85000 398.480
28.86000 394.391
28.87000 395.804
28.88000 397.971
28.89000 399.665
28.90000 405.429
28.91000 410.286
28.92000 413.627
28.93000 413.565
28.94000 413.375
28.95000 414.019
28.96000 415.924
28.97000 417.843
28.98000 414.852
28.99000 407.018
29.00000 399.260
29.01000 397.999
29.02000 400.927
29.03000 404.008
29.04000 410.945
29.05000 419.560
29.06000 427.659
29.07000 423.722
29.08000 416.889
29.09000 410.791
29.10000 409.886
29.11000 409.993
29.12000 412.194
29.13000 423.854
29.14000 436.664
29.15000 446.440
29.16000 429.350
29.17000 414.447
29.18000 404.900
29.19000 406.300
29.20000 408.025
29.21000 408.960
29.22000 408.810
29.23000 408.653
29.24000 407.865
29.25000 406.520
29.26000 405.218
29.27000 406.513
29.28000 409.328
29.29000 411.767
29.30000 406.481
29.31000 398.131
29.32000 390.363
29.33000 391.019
29.34000 393.648
29.35000 395.860
29.36000 395.446
29.37000 394.571
29.38000 394.212
29.39000 395.958
29.40000 397.930
29.41000 399.397
29.42000 398.599
29.43000 397.877
29.44000 396.934
29.45000 395.577
29.46000 394.211
29.47000 397.436
29.48000 406.353
29.49000 415.271
29.50000 412.751
29.51000 401.143
29.52000 389.827
29.53000 391.089
29.54000 399.053
29.55000 406.674
29.56000 408.437
29.57000 408.083
29.58000 407.758
29.59000 408.963
29.60000 410.372
29.61000 412.959
29.62000 422.209
29.63000 432.504
29.64000 438.653
29.65000 429.439
29.66000 418.783
29.67000 411.071
29.68000 405.593
29.69000 401.468
29.70000 401.141
29.71000 407.238
29.72000 413.441
29.73000 412.715
29.74000 404.244
29.75000 395.799
29.76000 397.051
29.77000 405.237
29.78000 413.266
29.79000 416.140
29.80000 416.515
29.81000 416.858
29.82000 416.750
29.83000 416.494
29.84000 416.262
29.85000 415.803
29.86000 415.353
29.87000 416.285
29.88000 424.244
29.89000 433.186
29.90000 440.545
29.91000 442.575
29.92000 444.171
29.93000 445.293
29.94000 439.327
29.95000 434.600
29.96000 430.597
29.97000 427.711
29.98000 424.837
29.99000 427.307
30.00000 435.142
30.01000 442.928
30.02000 444.561
30.03000 442.199
30.04000 439.764
30.05000 435.442
30.06000 430.284
30.07000 425.884
30.08000 430.895
30.09000 438.721
30.10000 445.735
30.11000 445.236
30.12000 443.500
30.13000 440.404
30.14000 431.061
30.15000 420.942
30.16000 412.810
30.17000 410.757
30.18000 409.129
30.19000 408.019
30.20000 410.090
30.21000 411.710
30.22000 413.715
30.23000 416.256
30.24000 418.801
30.25000 422.116
30.26000 426.127
30.27000 430.098
30.28000 430.457
30.29000 428.705
30.30000 426.965
30.31000 425.461
30.32000 424.053
30.33000 422.198
30.34000 415.536
30.35000 407.567
30.36000 400.528
30.37000 408.731
30.38000 418.158
30.39000 426.826
30.40000 432.345
30.41000 437.518
30.42000 440.162
30.43000 435.753
30.44000 430.927
30.45000 427.746
30.46000 413.872
30.47000 403.460
30.48000 401.000
30.49000 408.563
30.50000 416.141
30.51000 416.787
30.52000 411.804
30.53000 406.891
30.54000 412.562
30.55000 423.634
30.56000 434.285
30.57000 437.509
30.58000 438.009
30.59000 438.000
30.60000 433.194
30.61000 427.207
30.62000 421.999
30.63000 425.427
30.64000 429.529
30.65000 432.378
30.66000 430.510
30.67000 428.190
30.68000 426.870
30.69000 428.090
30.70000 429.435
30.71000 430.290
30.72000 437.313
30.73000 442.493
30.74000 443.360
30.75000 439.326
30.76000 435.292
30.77000 432.245
30.78000 429.923
30.79000 427.645
30.80000 437.214
30.81000 452.054
30.82000 466.194
30.83000 469.924
30.84000 470.178
30.85000 470.564
30.86000 472.045
30.87000 473.770
30.88000 475.246
30.89000 482.841
30.90000 489.980
30.91000 498.720
30.92000 512.931
30.93000 527.597
30.94000 541.554
30.95000 553.875
30.96000 566.129
30.97000 573.633
30.98000 590.962
30.99000 603.452
31.00000 624.361
31.01000 653.875
31.02000 683.411
31.03000 715.220
31.04000 748.541
31.05000 781.034
31.06000 828.048
31.07000 879.165
31.08000 929.047
31.09000 963.205
31.10000 992.587
31.11000 1025.078
31.12000 1080.409
31.13000 1140.339
31.14000 1190.690
31.15000 1267.287
31.16000 1333.871
31.17000 1404.033
31.18000 1485.323
31.19000 1567.408
31.20000 1646.595
31.21000 1719.675
31.22000 1792.559
31.23000 1835.406
31.24000 1929.667
31.25000 1996.404
31.26000 2073.724
31.27000 2160.747
31.28000 2247.527
31.29000 2318.114
31.30000 2378.920
31.31000 2437.820
31.32000 2457.917
31.33000 2461.930
31.34000 2467.724
31.35000 2493.141
31.36000 2523.973
31.37000 2547.588
31.38000 2523.981
31.39000 2491.814
31.40000 2465.299
31.41000 2427.671
31.42000 2395.679
31.43000 2355.741
31.44000 2293.319
31.45000 2229.531
31.46000 2167.992
31.47000 2110.767
31.48000 2053.649
31.49000 2021.514
31.50000 1906.121
31.51000 1825.837
31.52000 1758.647
31.53000 1702.271
31.54000 1645.817
31.55000 1585.686
31.56000 1523.534
31.57000 1463.780
31.58000 1395.287
31.59000 1328.065
31.60000 1262.134
31.61000 1208.611
31.62000 1158.196
31.63000 1108.093
31.64000 1059.817
31.65000 1011.838
31.66000 973.089
31.67000 925.294
31.68000 885.717
31.69000 849.366
31.70000 821.326
31.71000 793.708
31.72000 769.550
31.73000 751.432
31.74000 733.424
31.75000 723.762
31.76000 698.169
31.77000 680.681
31.78000 663.086
31.79000 645.411
31.80000 627.609
31.81000 605.223
31.82000 580.545
31.83000 557.018
31.84000 550.718
31.85000 550.292
31.86000 547.612
31.87000 525.884
31.88000 499.837
31.89000 478.922
31.90000 485.007
31.91000 495.014
31.92000 502.923
31.93000 480.061
31.94000 459.601
31.95000 445.519
31.96000 446.413
31.97000 447.930
31.98000 446.413
31.99000 440.084
32.00000 433.694
32.01000 430.437
32.02000 445.812
32.03000 455.985
32.04000 450.310
32.05000 433.923
32.06000 418.013
32.07000 415.500
32.08000 419.086
32.09000 422.473
32.10000 418.707
32.11000 413.224
32.12000 408.094
32.13000 405.599
32.14000 403.645
32.15000 402.232
32.16000 403.391
32.17000 404.882
32.18000 406.034
32.19000 408.606
32.20000 410.728
32.21000 410.340
32.22000 404.580
32.23000 398.642
32.24000 394.341
32.25000 392.397
32.26000 390.473
32.27000 391.413
32.28000 395.024
32.29000 398.484
32.30000 391.202
32.31000 377.331
32.32000 364.188
32.33000 367.563
32.34000 377.789
32.35000 387.351
32.36000 390.816
32.37000 392.410
32.38000 393.215
32.39000 388.765
32.40000 383.346
32.41000 380.585
32.42000 389.222
32.43000 399.160
32.44000 406.645
32.45000 395.080
32.46000 385.098
32.47000 378.363
32.48000 377.953
32.49000 377.708
32.50000 376.510
32.51000 374.072
32.52000 371.632
32.53000 372.408
32.54000 375.875
32.55000 379.327
32.56000 381.989
32.57000 384.210
32.58000 386.163
32.59000 383.081
32.60000 378.096
32.61000 373.486
32.62000 377.172
32.63000 382.378
32.64000 386.479
32.65000 383.985
32.66000 380.399
32.67000 377.584
32.68000 377.764
32.69000 378.244
32.70000 378.596
32.71000 366.158
32.72000 356.032
32.73000 350.342
32.74000 352.517
32.75000 354.843
32.76000 363.031
32.77000 378.113
32.78000 393.165
32.79000 393.930
32.80000 383.926
32.81000 374.241
32.82000 376.518
32.83000 384.865
32.84000 392.813
32.85000 394.498
32.86000 394.027
32.87000 393.596
32.88000 402.753
32.89000 412.849
32.90000 419.796
32.91000 409.884
32.92000 397.476
32.93000 389.582
32.94000 397.601
32.95000 407.009
32.96000 413.718
32.97000 408.017
32.98000 403.262
32.99000 401.105
33.00000 403.133
33.01000 405.216
33.02000 400.461
33.03000 388.470
33.04000 376.538
33.05000 374.160
33.06000 378.295
33.07000 382.137
33.08000 377.447
33.09000 368.814
33.10000 360.672
33.11000 359.097
33.12000 359.579
33.13000 360.013
33.14000 356.882
33.15000 353.480
33.16000 350.288
33.17000 348.112
33.18000 346.070
33.19000 345.487
33.20000 349.582
33.21000 354.028
33.22000 357.105
33.23000 351.965
33.24000 347.885
33.25000 347.452
33.26000 352.350
33.27000 357.293
33.28000 355.582
33.29000 347.555
33.30000 339.593
33.31000 339.094
33.32000 343.169
33.33000 347.334
33.34000 353.592
33.35000 360.732
33.36000 366.904
33.37000 361.912
33.38000 353.742
33.39000 346.473
33.40000 349.147
33.41000 353.088
33.42000 355.833
33.43000 353.367
33.44000 350.295
33.45000 346.690
33.46000 341.532
33.47000 336.274
33.48000 332.750
33.49000 339.254
33.50000 344.281
33.51000 344.967
33.52000 339.906
33.53000 334.816
33.54000 328.609
33.55000 321.448
33.56000 314.372
33.57000 322.104
33.58000 337.819
33.59000 352.561
33.60000 348.537
33.61000 337.314
33.62000 327.160
33.63000 327.724
33.64000 331.060
33.65000 333.983
33.66000 332.392
33.67000 330.374
33.68000 330.097
33.69000 336.691
33.70000 343.988
33.71000 345.761
33.72000 332.860
33.73000 319.169
33.74000 310.304
33.75000 332.620
33.76000 349.409
33.77000 352.574
33.78000 339.446
33.79000 326.319
33.80000 321.377
33.81000 322.744
33.82000 324.088
33.83000 329.180
33.84000 335.974
33.85000 342.117
33.86000 337.771
33.87000 329.760
33.88000 322.567
33.89000 322.577
33.90000 324.273
33.91000 325.735
33.92000 331.231
33.93000 336.406
33.94000 339.129
33.95000 333.065
33.96000 326.216
33.97000 322.128
33.98000 324.719
33.99000 327.607
34.00000 329.409
34.01000 329.852
34.02000 330.157
34.03000 330.837
34.04000 331.922
34.05000 332.978
34.06000 330.457
34.07000 325.439
34.08000 320.531
34.09000 319.369
34.10000 319.942
34.11000 320.601
34.12000 322.454
34.13000 324.686
34.14000 327.012
34.15000 330.064
34.16000 333.269
34.17000 335.986
34.18000 334.643
34.19000 333.061
34.20000 332.570
34.21000 335.629
34.22000 338.961
34.23000 339.719
34.24000 334.802
34.25000 329.681
34.26000 326.609
34.27000 330.260
34.28000 332.899
34.29000 331.147
34.30000 325.154
34.31000 319.197
34.32000 316.135
34.33000 314.906
34.34000 313.710
34.35000 313.372
34.36000 313.398
34.37000 313.486
34.38000 314.304
34.39000 315.333
34.40000 316.255
34.41000 316.433
34.42000 316.470
34.43000 316.501
34.44000 321.605
34.45000 326.329
34.46000 329.305
34.47000 327.105
34.48000 324.564
34.49000 323.361
34.50000 324.847
34.51000 326.408
34.52000 327.306
34.53000 329.044
34.54000 330.258
34.55000 327.864
34.56000 322.335
34.57000 316.964
34.58000 320.312
34.59000 328.674
34.60000 336.743
34.61000 334.006
34.62000 327.466
34.63000 321.242
34.64000 318.248
34.65000 316.101
34.66000 315.029
34.67000 320.589
34.68000 327.288
34.69000 332.752
34.70000 332.466
34.71000 331.740
34.72000 329.946
34.73000 325.270
34.74000 320.433
34.75000 315.549
34.76000 310.576
34.77000 305.601
34.78000 302.869
34.79000 306.984
34.80000 309.811
34.81000 308.091
34.82000 302.808
34.83000 297.672
34.84000 298.541
34.85000 302.552
34.86000 306.392
34.87000 309.186
34.88000 311.443
34.89000 313.290
34.90000 311.444
34.91000 308.718
34.92000 306.140
34.93000 304.376
34.94000 302.738
34.95000 301.430
34.96000 303.943
34.97000 306.255
34.98000 308.613
34.99000 311.085
35.00000 313.562
35.01000 317.168
35.02000 322.651
35.03000 328.163
35.04000 331.045
35.05000 324.059
35.06000 319.354
35.07000 318.342
35.08000 319.947
35.09000 321.302
35.10000 314.739
35.11000 304.406
35.12000 294.600
35.13000 295.537
35.14000 299.601
35.15000 303.246
35.16000 303.560
35.17000 303.158
35.18000 304.098
35.19000 311.726
35.20000 320.270
35.21000 326.943
35.22000 316.868
35.23000 307.775
35.24000 303.134
35.25000 308.456
35.26000 314.148
35.27000 316.566
35.28000 314.044
35.29000 311.473
35.30000 309.207
35.31000 307.242
35.32000 305.281
35.33000 303.653
35.34000 302.239
35.35000 300.962
35.36000 303.110
35.37000 306.744
35.38000 310.159
35.39000 308.250
35.40000 305.081
35.41000 302.551
35.42000 304.530
35.43000 307.385
35.44000 309.654
35.45000 309.284
35.46000 308.593
35.47000 308.067
35.48000 313.379
35.49000 317.873
35.50000 319.831
35.51000 316.619
35.52000 313.255
35.53000 308.018
35.54000 300.221
35.55000 292.413
35.56000 289.693
35.57000 291.466
35.58000 293.251
35.59000 295.721
35.60000 298.591
35.61000 301.424
35.62000 303.483
35.63000 305.236
35.64000 306.866
35.65000 305.062
35.66000 302.607
35.67000 300.255
35.68000 298.561
35.69000 296.981
35.70000 296.045
35.71000 297.738
35.72000 299.711
35.73000 301.177
35.74000 307.258
35.75000 312.190
35.76000 313.016
35.77000 306.221
35.78000 299.255
35.79000 295.392
35.80000 295.364
35.81000 295.348
35.82000 299.422
35.83000 306.723
35.84000 313.898
35.85000 315.730
35.86000 314.723
35.87000 313.668
35.88000 311.789
35.89000 309.613
35.90000 307.612
35.91000 299.328
35.92000 290.572
35.93000 283.893
35.94000 288.916
35.95000 295.768
35.96000 301.052
35.97000 300.542
35.98000 299.491
35.99000 298.731
36.00000 293.945
36.01000 290.126
36.02000 290.087
36.03000 296.428
36.04000 302.872
36.05000 307.552
36.06000 310.266
36.07000 312.969
36.08000 311.802
36.09000 307.885
36.10000 304.115
36.11000 305.205
36.12000 308.643
36.13000 311.593
36.14000 307.480
36.15000 301.052
36.16000 295.216
36.17000 293.731
36.18000 293.261
36.19000 292.428
36.20000 289.755
36.21000 286.826
36.22000 287.205
36.23000 298.682
36.24000 311.058
36.25000 319.750
36.26000 309.622
36.27000 301.403
36.28000 296.762
36.29000 297.604
36.30000 298.506
36.31000 296.478
36.32000 291.519
36.33000 286.592
36.34000 288.639
36.35000 295.143
36.36000 301.514
36.37000 304.463
36.38000 305.903
36.39000 307.103
36.40000 305.332
36.41000 302.675
36.42000 300.294
36.43000 297.046
36.44000 294.061
36.45000 291.862
36.46000 293.263
36.47000 295.110
36.48000 295.983
36.49000 293.888
36.50000 291.586
36.51000 290.019
36.52000 291.561
36.53000 292.785
36.54000 295.863
36.55000 301.520
36.56000 307.191
36.57000 309.801
36.58000 309.661
36.59000 309.523
36.60000 303.148
36.61000 293.289
36.62000 283.841
36.63000 283.048
36.64000 285.730
36.65000 288.549
36.66000 292.837
36.67000 297.522
36.68000 301.659
36.69000 305.641
36.70000 309.054
36.71000 311.237
36.72000 308.326
36.73000 304.860
36.74000 301.034
36.75000 296.210
36.76000 291.326
36.77000 288.110
36.78000 297.551
36.79000 304.724
36.80000 308.088
36.81000 306.666
36.82000 305.226
36.83000 302.390
36.84000 298.423
36.85000 294.514
36.86000 294.086
36.87000 295.495
36.88000 296.725
36.89000 294.812
36.90000 291.749
36.91000 288.405
36.92000 282.421
36.93000 275.788
36.94000 270.023
36.95000 273.346
36.96000 277.414
36.97000 282.356
36.98000 290.573
36.99000 299.102
37.00000 302.923
37.01000 294.824
37.02000 286.142
37.03000 280.625
37.04000 289.574
37.05000 296.253
37.06000 298.886
37.07000 296.934
37.08000 294.994
37.09000 296.023
37.10000 299.224
37.11000 302.363
37.12000 302.520
37.13000 301.261
37.14000 300.131
37.15000 300.916
37.16000 302.338
37.17000 302.988
37.18000 297.260
37.19000 290.114
37.20000 284.006
37.21000 283.433
37.22000 283.613
37.23000 284.305
37.24000 286.744
37.25000 289.327
37.26000 290.614
37.27000 288.908
37.28000 287.082
37.29000 285.965
37.30000 287.531
37.31000 288.675
37.32000 289.486
37.33000 289.960
37.34000 290.416
37.35000 289.150
37.36000 286.740
37.37000 284.391
37.38000 283.933
37.39000 284.303
37.40000 284.903
37.41000 288.426
37.42000 292.835
37.43000 296.581
37.44000 295.482
37.45000 293.411
37.46000 291.672
37.47000 288.174
37.48000 285.077
37.49000 284.381
37.50000 291.127
37.51000 298.404
37.52000 301.038
37.53000 293.918
37.54000 286.488
37.55000 282.126
37.56000 282.134
37.57000 282.164
37.58000 285.709
37.59000 292.466
37.60000 299.142
37.61000 300.413
37.62000 298.428
37.63000 296.506
37.64000 289.867
37.65000 281.770
37.66000 274.566
37.67000 277.155
37.68000 282.438
37.69000 286.799
37.70000 285.138
37.71000 282.389
37.72000 280.124
37.73000 280.511
37.74000 281.073
37.75000 280.873
37.76000 278.522
37.77000 276.042
37.78000 276.054
37.79000 280.833
37.80000 285.729
37.81000 288.479
37.82000 291.570
37.83000 293.715
37.84000 295.691
37.85000 297.528
37.86000 299.188
37.87000 292.477
37.88000 281.182
37.89000 270.326
37.90000 269.856
37.91000 273.026
37.92000 276.074
37.93000 277.947
37.94000 279.527
37.95000 281.074
37.96000 282.434
37.97000 283.763
37.98000 284.835
37.99000 284.374
38.00000 283.877
38.01000 283.585
38.02000 283.820
38.03000 284.082
38.04000 283.510
38.05000 281.488
38.06000 279.440
38.07000 278.342
38.08000 273.538
38.09000 270.295
38.10000 274.246
38.11000 283.549
38.12000 292.664
38.13000 295.082
38.14000 294.161
38.15000 293.283
38.16000 289.952
38.17000 286.096
38.18000 283.019
38.19000 286.507
38.20000 291.479
38.21000 295.327
38.22000 293.281
38.23000 290.381
38.24000 288.091
38.25000 292.832
38.26000 297.116
38.27000 301.909
38.28000 307.893
38.29000 313.926
38.30000 315.325
38.31000 309.395
38.32000 303.373
38.33000 300.308
38.34000 307.774
38.35000 312.804
38.36000 320.328
38.37000 329.532
38.38000 338.685
38.39000 346.400
38.40000 353.463
38.41000 360.132
38.42000 366.219
38.43000 371.638
38.44000 377.231
38.45000 384.110
38.46000 391.251
38.47000 398.448
38.48000 405.910
38.49000 413.405
38.50000 419.187
38.51000 424.299
38.52000 428.310
38.53000 436.483
38.54000 453.531
38.55000 470.872
38.56000 483.085
38.57000 487.940
38.58000 492.737
38.59000 495.934
38.60000 497.644
38.61000 499.407
38.62000 504.952
38.63000 512.811
38.64000 520.377
38.65000 521.366
38.66000 519.633
38.67000 518.014
38.68000 520.474
38.69000 523.742
38.70000 526.474
38.71000 525.641
38.72000 524.152
38.73000 521.698
38.74000 515.118
38.75000 508.068
38.76000 502.762
38.77000 497.150
38.78000 492.745
38.79000 484.937
38.80000 470.518
38.81000 455.929
38.82000 449.782
38.83000 454.598
38.84000 459.454
38.85000 452.595
38.86000 435.976
38.87000 419.464
38.88000 408.241
38.89000 399.961
38.90000 391.879
38.91000 387.507
38.92000 384.533
38.93000 381.783
38.94000 367.352
38.95000 351.732
38.96000 337.543
38.97000 331.851
38.98000 327.560
38.99000 324.925
39.00000 328.699
39.01000 333.113
39.02000 336.348
39.03000 325.853
39.04000 317.197
39.05000 309.308
39.06000 302.776
39.07000 296.270
39.08000 289.601
39.09000 282.739
39.10000 275.896
39.11000 276.228
39.12000 281.947
39.13000 287.461
39.14000 285.383
39.15000 279.462
39.16000 274.227
39.17000 279.699
39.18000 288.846
39.19000 297.203
39.20000 288.650
39.21000 277.605
39.22000 268.232
39.23000 267.779
39.24000 268.640
39.25000 269.972
39.26000 272.957
39.27000 276.086
39.28000 278.315
39.29000 276.725
39.30000 275.388
39.31000 274.636
39.32000 274.823
39.33000 275.023
39.34000 273.372
39.35000 269.769
39.36000 266.184
39.37000 266.275
39.38000 268.854
39.39000 271.417
39.40000 273.562
39.41000 275.513
39.42000 277.313
39.43000 277.102
39.44000 276.262
39.45000 275.505
39.46000 272.171
39.47000 268.775
39.48000 265.498
39.49000 262.791
39.50000 260.159
39.51000 258.887
39.52000 261.961
39.53000 265.360
39.54000 267.710
39.55000 268.192
39.56000 268.507
39.57000 266.962
39.58000 262.709
39.59000 258.434
39.60000 258.471
39.61000 262.589
39.62000 266.672
39.63000 266.306
39.64000 263.231
39.65000 260.256
39.66000 259.599
39.67000 259.916
39.68000 260.542
39.69000 264.719
39.70000 269.905
39.71000 274.516
39.72000 272.929
39.73000 270.546
39.74000 267.612
39.75000 262.284
39.76000 256.679
39.77000 253.458
39.78000 257.174
39.79000 261.333
39.80000 264.116
39.81000 263.197
39.82000 262.441
39.83000 260.730
39.84000 257.758
39.85000 254.780
39.86000 251.851
39.87000 248.963
39.88000 246.110
39.89000 248.820
39.90000 254.523
39.91000 260.045
39.92000 262.107
39.93000 262.845
39.94000 263.402
39.95000 262.159
39.96000 260.452
39.97000 258.957
39.98000 257.501
39.99000 256.257
40.00000 255.009
40.01000 253.746
40.02000 252.480
40.03000 251.167
40.04000 249.728
40.05000 248.283
40.06000 247.348
40.07000 249.220
40.08000 250.630
40.09000 251.178
40.10000 250.698
40.11000 250.222
40.12000 251.097
40.13000 253.010
40.14000 254.892
40.15000 255.141
40.16000 254.569
40.17000 253.979
40.18000 253.081
40.19000 252.076
40.20000 251.053
40.21000 249.875
40.22000 248.660
40.23000 247.614
40.24000 249.890
40.25000 252.243
40.26000 253.357
40.27000 250.043
40.28000 246.335
40.29000 243.956
40.30000 244.780
40.31000 245.746
40.32000 246.348
40.33000 247.764
40.34000 248.793
40.35000 250.991
40.36000 254.445
40.37000 257.831
40.38000 252.709
40.39000 241.668
40.40000 230.871
40.41000 234.813
40.42000 245.205
40.43000 255.092
40.44000 258.083
40.45000 258.886
40.46000 259.173
40.47000 255.452
40.48000 250.885
40.49000 247.016
40.50000 245.730
40.51000 244.941
40.52000 244.728
40.53000 246.380
40.54000 248.176
40.55000 247.888
40.56000 243.017
40.57000 237.984
40.58000 234.968
40.59000 240.506
40.60000 244.495
40.61000 248.882
40.62000 253.652
40.63000 258.356
40.64000 257.742
40.65000 253.772
40.66000 249.915
40.67000 244.798
40.68000 239.427
40.69000 234.637
40.70000 236.681
40.71000 240.696
40.72000 244.536
40.73000 247.170
40.74000 249.574
40.75000 251.574
40.76000 253.100
40.77000 254.317
40.78000 255.515
40.79000 256.655
40.80000 257.791
40.81000 258.238
40.82000 257.304
40.83000 256.332
40.84000 255.773
40.85000 244.202
40.86000 236.074
40.87000 229.841
40.88000 225.249
40.89000 220.759
40.90000 221.914
40.91000 226.305
40.92000 230.542
40.93000 235.052
40.94000 239.396
40.95000 243.380
40.96000 243.682
40.97000 243.021
40.98000 242.509
40.99000 242.911
41.00000 243.469
41.01000 243.925
41.02000 242.428
41.03000 241.039
41.04000 239.486
41.05000 237.497
41.06000 235.483
41.07000 235.062
41.08000 237.543
41.09000 240.086
41.10000 241.481
41.11000 242.147
41.12000 242.605
41.13000 243.219
41.14000 243.954
41.15000 244.682
41.16000 245.088
41.17000 245.326
41.18000 245.555
41.19000 244.414
41.20000 242.900
41.21000 241.495
41.22000 241.073
41.23000 240.884
41.24000 240.864
41.25000 241.781
41.26000 242.841
41.27000 243.688
41.28000 241.078
41.29000 238.717
41.30000 240.190
41.31000 251.053
41.32000 262.345
41.33000 265.938
41.34000 256.773
41.35000 247.416
41.36000 242.531
41.37000 235.176
41.38000 230.232
41.39000 229.812
41.40000 232.588
41.41000 235.350
41.42000 237.648
41.43000 239.727
41.44000 241.699
41.45000 244.789
41.46000 247.971
41.47000 250.188
41.48000 244.774
41.49000 237.722
41.50000 232.631
41.51000 237.287
41.52000 243.272
41.53000 247.943
41.54000 249.460
41.55000 250.472
41.56000 248.952
41.57000 241.782
41.58000 234.402
41.59000 229.884
41.60000 229.671
41.61000 229.500
41.62000 229.460
41.63000 229.548
41.64000 229.635
41.65000 229.587
41.66000 229.454
41.67000 229.216
41.68000 226.350
41.69000 222.347
41.70000 218.585
41.71000 224.894
41.72000 233.343
41.73000 240.597
41.74000 239.471
41.75000 236.722
41.76000 234.096
41.77000 232.022
41.78000 230.014
41.79000 228.484
41.80000 231.461
41.81000 234.043
41.82000 235.227
41.83000 233.567
41.84000 231.823
41.85000 233.241
41.86000 238.968
41.87000 244.717
41.88000 245.027
41.89000 240.556
41.90000 236.155
41.91000 235.892
41.92000 238.039
41.93000 240.063
41.94000 239.603
41.95000 238.163
41.96000 236.825
41.97000 237.313
41.98000 238.192
41.99000 238.473
42.00000 235.001
42.01000 230.876
42.02000 228.014
42.03000 230.281
42.04000 233.095
42.05000 235.184
42.06000 238.867
42.07000 241.800
42.08000 244.525
42.09000 246.866
42.10000 249.198
42.11000 247.841
42.12000 241.935
42.13000 236.028
42.14000 234.424
42.15000 236.228
42.16000 238.012
42.17000 238.905
42.18000 239.328
42.19000 239.884
42.20000 242.713
42.21000 246.358
42.22000 249.708
42.23000 248.124
42.24000 245.647
42.25000 242.572
42.26000 236.131
42.27000 229.166
42.28000 224.653
42.29000 229.173
42.30000 234.532
42.31000 238.405
42.32000 232.441
42.33000 227.511
42.34000 226.344
42.35000 231.512
42.36000 236.780
42.37000 239.608
42.38000 239.723
42.39000 239.836
42.40000 237.987
42.41000 234.760
42.42000 231.591
42.43000 230.323
42.44000 229.971
42.45000 229.443
42.46000 226.380
42.47000 222.487
42.48000 218.955
42.49000 222.487
42.50000 226.965
42.51000 231.091
42.52000 233.434
42.53000 235.530
42.54000 236.921
42.55000 235.954
42.56000 234.798
42.57000 233.986
42.58000 231.396
42.59000 229.384
42.60000 229.978
42.61000 234.555
42.62000 239.175
42.63000 239.584
42.64000 235.794
42.65000 232.028
42.66000 230.275
42.67000 229.839
42.68000 229.386
42.69000 228.492
42.70000 227.405
42.71000 226.469
42.72000 227.386
42.73000 228.854
42.74000 230.168
42.75000 231.784
42.76000 233.246
42.77000 234.211
42.78000 232.906
42.79000 231.322
42.80000 230.242
42.81000 230.697
42.82000 231.257
42.83000 231.638
42.84000 224.944
42.85000 219.786
42.86000 217.394
42.87000 218.834
42.88000 220.300
42.89000 222.398
42.90000 225.064
42.91000 227.702
42.92000 230.123
42.93000 232.365
42.94000 234.368
42.95000 231.345
42.96000 226.311
42.97000 221.986
42.98000 225.237
42.99000 230.535
43.00000 235.211
43.01000 233.599
43.02000 231.249
43.03000 229.472
43.04000 230.063
43.05000 230.911
43.06000 233.139
43.07000 239.192
43.08000 245.468
43.09000 249.596
43.10000 239.848
43.11000 232.433
43.12000 227.118
43.13000 224.433
43.14000 221.768
43.15000 223.639
43.16000 229.170
43.17000 234.621
43.18000 233.418
43.19000 228.775
43.20000 224.455
43.21000 225.778
43.22000 229.158
43.23000 232.228
43.24000 232.394
43.25000 231.849
43.26000 231.376
43.27000 229.019
43.28000 226.755
43.29000 224.336
43.30000 221.338
43.31000 218.286
43.32000 216.817
43.33000 219.348
43.34000 222.072
43.35000 223.802
43.36000 224.492
43.37000 224.980
43.38000 225.091
43.39000 224.776
43.40000 224.462
43.41000 224.531
43.42000 224.878
43.43000 225.219
43.44000 225.699
43.45000 226.227
43.46000 226.811
43.47000 228.218
43.48000 229.899
43.49000 231.052
43.50000 227.866
43.51000 223.718
43.52000 220.173
43.53000 218.507
43.54000 217.327
43.55000 216.795
43.56000 218.466
43.57000 220.320
43.58000 222.484
43.59000 225.364
43.60000 228.272
43.61000 230.048
43.62000 235.083
43.63000 238.711
43.64000 236.552
43.65000 228.519
43.66000 220.549
43.67000 218.828
43.68000 221.241
43.69000 223.592
43.70000 219.927
43.71000 213.868
43.72000 208.154
43.73000 206.782
43.74000 206.722
43.75000 206.694
43.76000 206.905
43.77000 207.164
43.78000 207.381
43.79000 215.672
43.80000 223.419
43.81000 227.787
43.82000 221.711
43.83000 214.895
43.84000 211.054
43.85000 213.448
43.86000 216.038
43.87000 217.557
43.88000 215.780
43.89000 214.512
43.90000 213.715
43.91000 213.348
43.92000 213.031
43.93000 215.932
43.94000 220.766
43.95000 225.447
43.96000 225.354
43.97000 223.433
43.98000 221.879
43.99000 224.344
44.00000 227.912
44.01000 230.361
44.02000 225.536
44.03000 219.402
44.04000 214.352
44.05000 218.098
44.06000 221.982
44.07000 224.371
44.08000 222.551
44.09000 220.479
44.10000 219.189
44.11000 219.392
44.12000 219.631
44.13000 219.765
44.14000 222.613
44.15000 224.595
44.16000 226.188
44.17000 227.462
44.18000 228.798
44.19000 233.003
44.20000 238.775
44.21000 244.322
44.22000 237.296
44.23000 226.360
44.24000 216.774
44.25000 220.058
44.26000 226.544
44.27000 232.014
44.28000 231.570
44.29000 230.170
44.30000 229.041
44.31000 224.908
44.32000 221.314
44.33000 220.191
44.34000 225.399
44.35000 230.925
44.36000 232.884
44.37000 228.650
44.38000 224.305
44.39000 221.981
44.40000 225.528
44.41000 227.960
44.42000 232.098
44.43000 237.501
44.44000 242.794
44.45000 244.219
44.46000 243.723
44.47000 243.249
44.48000 245.285
44.49000 247.955
44.50000 250.588
44.51000 252.899
44.52000 255.137
44.53000 257.715
44.54000 262.067
44.55000 266.675
44.56000 270.311
44.57000 269.320
44.58000 268.211
44.59000 269.676
44.60000 277.153
44.61000 284.877
44.62000 291.580
44.63000 296.674
44.64000 301.749
44.65000 304.327
44.66000 309.459
44.67000 312.855
44.68000 311.661
44.69000 307.383
44.70000 303.479
44.71000 309.922
44.72000 321.050
44.73000 331.556
44.74000 342.227
44.75000 352.062
44.76000 361.190
44.77000 365.056
44.78000 367.852
44.79000 371.347
44.80000 378.137
44.81000 385.349
44.82000 390.909
44.83000 395.672
44.84000 399.399
44.85000 406.259
44.86000 419.781
44.87000 433.521
44.88000 438.976
44.89000 432.580
44.90000 426.095
44.91000 426.302
44.92000 432.710
44.93000 438.997
44.94000 436.967
44.95000 429.864
44.96000 423.149
44.97000 425.142
44.98000 430.725
44.99000 435.943
45.00000 431.224
45.01000 424.429
45.02000 418.726
45.03000 420.256
45.04000 423.111
45.05000 424.165
45.06000 417.538
45.07000 410.042
45.08000 404.405
45.09000 398.566
45.10000 393.990
45.11000 390.951
45.12000 390.887
45.13000 390.898
45.14000 387.288
45.15000 378.989
45.16000 370.680
45.17000 362.816
45.18000 355.344
45.19000 347.992
45.20000 346.539
45.21000 348.355
45.22000 350.313
45.23000 354.896
45.24000 360.465
45.25000 365.612
45.26000 355.165
45.27000 342.247
45.28000 330.912
45.29000 328.949
45.30000 328.527
45.31000 326.823
45.32000 320.167
45.33000 313.019
45.34000 307.784
45.35000 307.210
45.36000 306.953
45.37000 307.373
45.38000 308.987
45.39000 310.623
45.40000 311.156
45.41000 310.401
45.42000 309.645
45.43000 302.350
45.44000 290.211
45.45000 278.421
45.46000 279.526
45.47000 287.138
45.48000 294.209
45.49000 292.867
45.50000 288.647
45.51000 284.793
45.52000 282.663
45.53000 281.124
45.54000 279.230
45.55000 275.454
45.56000 271.400
45.57000 266.143
45.58000 256.664
45.59000 246.820
45.60000 239.813
45.61000 242.590
45.62000 245.023
45.63000 247.777
45.64000 251.046
45.65000 254.321
45.66000 254.539
45.67000 251.545
45.68000 248.566
45.69000 245.789
45.70000 243.183
45.71000 240.645
45.72000 240.087
45.73000 240.438
45.74000 240.845
45.75000 241.997
45.76000 243.380
45.77000 244.627
45.78000 250.022
45.79000 255.510
45.80000 259.315
45.81000 255.053
45.82000 249.737
45.83000 246.132
45.84000 247.984
45.85000 250.242
45.86000 251.802
45.87000 238.427
45.88000 227.990
45.89000 222.442
45.90000 223.997
45.91000 225.611
45.92000 225.511
45.93000 223.796
45.94000 222.095
45.95000 218.332
45.96000 213.384
45.97000 208.857
45.98000 214.076
45.99000 223.375
46.00000 231.477
46.01000 225.890
46.02000 216.429
46.03000 208.020
46.04000 211.935
46.05000 217.325
46.06000 220.509
46.07000 214.143
46.08000 206.673
46.09000 202.460
46.10000 207.691
46.11000 213.521
46.12000 217.420
46.13000 213.391
46.14000 210.248
46.15000 209.271
46.16000 211.144
46.17000 213.026
46.18000 213.023
46.19000 211.420
46.20000 209.836
46.21000 209.578
46.22000 210.054
46.23000 210.541
46.24000 211.238
46.25000 212.014
46.26000 212.534
46.27000 210.507
46.28000 207.824
46.29000 205.476
46.30000 202.783
46.31000 200.425
46.32000 198.548
46.33000 198.559
46.34000 198.762
46.35000 199.958
46.36000 203.778
46.37000 207.739
46.38000 210.298
46.39000 208.921
46.40000 207.857
46.41000 203.627
46.42000 195.634
46.43000 187.678
46.44000 190.070
46.45000 200.388
46.46000 210.532
46.47000 212.791
46.48000 211.069
46.49000 209.170
46.50000 204.441
46.51000 198.728
46.52000 193.516
46.53000 192.672
46.54000 192.845
46.55000 192.994
46.56000 190.019
46.57000 187.101
46.58000 185.718
46.59000 189.800
46.60000 194.366
46.61000 198.916
46.62000 203.426
46.63000 207.935
46.64000 210.742
46.65000 205.152
46.66000 201.039
46.67000 199.191
46.68000 199.763
46.69000 200.341
46.70000 201.587
46.71000 203.296
46.72000 204.966
46.73000 205.117
46.74000 204.582
46.75000 204.196
46.76000 205.827
46.77000 208.097
46.78000 209.629
46.79000 205.471
46.80000 200.115
46.81000 195.581
46.82000 200.645
46.83000 205.957
46.84000 209.386
46.85000 206.723
46.86000 203.595
46.87000 200.495
46.88000 197.453
46.89000 194.414
46.90000 192.596
46.91000 194.361
46.92000 195.637
46.93000 198.205
46.94000 202.011
46.95000 205.762
46.96000 205.104
46.97000 201.672
46.98000 198.338
46.99000 194.211
47.00000 189.971
47.01000 185.862
47.02000 183.287
47.03000 181.152
47.04000 179.675
47.05000 182.707
47.06000 186.594
47.07000 189.825
47.08000 192.712
47.09000 195.066
47.10000 196.227
47.11000 193.874
47.12000 191.293
47.13000 189.173
47.14000 187.975
47.15000 186.802
47.16000 186.130
47.17000 187.512
47.18000 188.485
47.19000 189.352
47.20000 190.127
47.21000 190.864
47.22000 189.495
47.23000 186.922
47.24000 184.441
47.25000 185.033
47.26000 186.710
47.27000 188.583
47.28000 192.457
47.29000 196.853
47.30000 199.818
47.31000 194.005
47.32000 186.696
47.33000 180.741
47.34000 184.515
47.35000 188.425
47.36000 191.568
47.37000 192.656
47.38000 193.631
47.39000 193.343
47.40000 190.759
47.41000 188.128
47.42000 186.686
47.43000 193.947
47.44000 198.937
47.45000 199.839
47.46000 197.558
47.47000 195.293
47.48000 193.660
47.49000 192.358
47.50000 191.111
47.51000 192.576
47.52000 194.833
47.53000 196.598
47.54000 193.981
47.55000 190.327
47.56000 187.492
47.57000 189.162
47.58000 191.519
47.59000 193.399
47.60000 190.743
47.61000 188.269
47.62000 187.617
47.63000 191.418
47.64000 195.422
47.65000 194.823
47.66000 186.619
47.67000 178.302
47.68000 173.967
47.69000 187.116
47.70000 195.966
47.71000 198.756
47.72000 197.275
47.73000 195.766
47.74000 193.390
47.75000 190.604
47.76000 187.961
47.77000 183.171
47.78000 178.119
47.79000 173.838
47.80000 175.637
47.81000 178.736
47.82000 181.603
47.83000 183.325
47.84000 184.892
47.85000 186.113
47.86000 188.163
47.87000 189.848
47.88000 192.771
47.89000 198.449
47.90000 204.229
47.91000 207.159
47.92000 205.814
47.93000 204.428
47.94000 197.933
47.95000 186.451
47.96000 175.100
47.97000 174.852
47.98000 181.700
47.99000 188.309
48.00000 189.006
48.01000 187.153
48.02000 185.412
48.03000 183.628
48.04000 181.988
48.05000 180.334
48.06000 178.576
48.07000 176.799
48.08000 175.977
48.09000 179.429
48.10000 183.397
48.11000 186.417
48.12000 187.064
48.13000 187.449
48.14000 188.685
48.15000 191.650
48.16000 194.665
48.17000 193.299
48.18000 185.980
48.19000 178.631
48.20000 178.875
48.21000 185.772
48.22000 192.535
48.23000 191.567
48.24000 186.112
48.25000 180.747
48.26000 177.232
48.27000 174.444
48.28000 171.853
48.29000 173.001
48.30000 174.931
48.31000 176.985
48.32000 179.805
48.33000 182.758
48.34000 185.646
48.35000 188.272
48.36000 190.871
48.37000 192.798
48.38000 183.778
48.39000 176.289
48.40000 172.651
48.41000 176.118
48.42000 179.740
48.43000 183.252
48.44000 186.627
48.45000 189.996
48.46000 188.676
48.47000 183.669
48.48000 178.628
48.49000 172.166
48.50000 164.955
48.51000 158.334
48.52000 161.682
48.53000 168.601
48.54000 174.957
48.55000 177.755
48.56000 179.490
48.57000 181.361
48.58000 183.996
48.59000 186.749
48.60000 188.622
48.61000 187.261
48.62000 185.599
48.63000 184.400
48.64000 182.205
48.65000 180.486
48.66000 179.097
48.67000 178.262
48.68000 177.436
48.69000 177.163
48.70000 177.503
48.71000 177.841
48.72000 176.875
48.73000 174.993
48.74000 173.196
48.75000 174.139
48.76000 176.399
48.77000 178.367
48.78000 176.155
48.79000 172.580
48.80000 169.337
48.81000 173.453
48.82000 178.497
48.83000 182.943
48.84000 184.374
48.85000 185.388
48.86000 185.595
48.87000 183.111
48.88000 180.411
48.89000 178.519
48.90000 169.844
48.91000 163.086
48.92000 160.985
48.93000 165.983
48.94000 171.055
48.95000 172.968
48.96000 171.742
48.97000 170.523
48.98000 170.731
48.99000 171.846
49.00000 173.067
49.01000 176.974
49.02000 182.059
49.03000 186.895
49.04000 188.681
49.05000 189.563
49.06000 190.352
49.07000 184.990
49.08000 179.259
49.09000 175.188
49.10000 178.666
49.11000 183.071
49.12000 185.173
49.13000 180.281
49.14000 174.909
49.15000 171.259
49.16000 175.026
49.17000 178.004
49.18000 177.782
49.19000 173.139
49.20000 168.473
49.21000 170.251
49.22000 177.781
49.23000 185.233
49.24000 188.061
49.25000 188.161
49.26000 188.175
49.27000 186.400
49.28000 183.911
49.29000 181.771
49.30000 183.338
49.31000 185.902
49.32000 188.165
49.33000 184.823
49.34000 181.089
49.35000 177.968
49.36000 177.374
49.37000 177.053
49.38000 177.196
49.39000 178.619
49.40000 180.116
49.41000 181.101
49.42000 176.605
49.43000 173.204
49.44000 173.088
49.45000 177.076
49.46000 181.066
49.47000 181.675
49.48000 179.561
49.49000 177.477
49.50000 179.426
49.51000 183.416
49.52000 187.127
49.53000 186.001
49.54000 183.115
49.55000 180.119
49.56000 176.095
49.57000 171.820
49.58000 168.107
49.59000 170.602
49.60000 173.564
49.61000 175.684
49.62000 174.660
49.63000 173.338
49.64000 172.238
49.65000 171.696
49.66000 171.182
49.67000 170.855
49.68000 171.447
49.69000 171.888
49.70000 172.577
49.71000 173.547
49.72000 174.506
49.73000 173.745
49.74000 171.733
49.75000 169.760
49.76000 168.385
49.77000 167.343
49.78000 166.205
49.79000 163.676
49.80000 160.686
49.81000 158.421
49.82000 162.091
49.83000 167.074
49.84000 171.328
49.85000 170.377
49.86000 168.958
49.87000 168.503
49.88000 171.314
49.89000 174.393
49.90000 176.972
49.91000 178.407
49.92000 179.796
49.93000 180.644
49.94000 174.254
49.95000 169.626
49.96000 165.321
49.97000 161.342
49.98000 157.422
49.99000 159.186
50.00000 164.698
50.01000 170.070
50.02000 174.697
50.03000 178.796
50.04000 182.481
50.05000 180.956
50.06000 177.862
50.07000 174.858
50.08000 172.501
50.09000 170.273
50.10000 168.405
50.11000 168.539
50.12000 168.860
50.13000 169.613
50.14000 171.701
50.15000 173.882
50.16000 177.219
50.17000 182.969
50.18000 188.794
50.19000 192.206
50.20000 194.080
50.21000 195.390
50.22000 192.438
50.23000 185.616
50.24000 178.899
50.25000 178.958
50.26000 183.074
50.27000 187.059
50.28000 188.002
50.29000 187.728
50.30000 187.164
50.31000 183.451
50.32000 178.878
50.33000 175.980
50.34000 183.935
50.35000 193.839
50.36000 201.987
50.37000 201.860
50.38000 201.004
50.39000 201.473
50.40000 205.659
50.41000 210.067
50.42000 211.702
50.43000 208.064
50.44000 204.298
50.45000 202.188
50.46000 206.830
50.47000 210.060
50.48000 211.591
50.49000 211.733
50.50000 211.957
50.51000 216.000
50.52000 222.120
50.53000 228.001
50.54000 231.908
50.55000 234.883
50.56000 237.272
50.57000 234.088
50.58000 229.521
50.59000 225.569
50.60000 225.184
50.61000 225.372
50.62000 225.524
50.63000 224.273
50.64000 223.147
50.65000 222.121
50.66000 221.353
50.67000 220.597
50.68000 222.130
50.69000 227.623
50.70000 233.186
50.71000 236.158
50.72000 229.920
50.73000 225.671
50.74000 223.393
50.75000 222.572
50.76000 221.766
50.77000 221.486
50.78000 221.466
50.79000 221.447
50.80000 218.239
50.81000 214.274
50.82000 210.584
50.83000 209.193
50.84000 208.318
50.85000 207.008
50.86000 203.431
50.87000 199.528
50.88000 196.450
50.89000 204.371
50.90000 211.466
50.91000 215.901
50.92000 214.141
50.93000 212.128
50.94000 212.887
50.95000 218.007
50.96000 223.179
50.97000 225.803
50.98000 210.558
50.99000 200.401
51.00000 196.139
51.01000 195.826
51.02000 195.511
51.03000 195.157
51.04000 194.785
51.05000 194.434
51.06000 193.615
51.07000 192.731
51.08000 191.202
51.09000 184.889
51.10000 177.604
51.11000 171.757
51.12000 172.663
51.13000 174.432
51.14000 175.795
51.15000 183.344
51.16000 189.676
51.17000 192.254
51.18000 186.866
51.19000 181.218
51.20000 178.697
51.21000 180.637
51.22000 182.609
51.23000 180.633
51.24000 175.013
51.25000 169.456
51.26000 168.183
51.27000 169.516
51.28000 170.867
51.29000 172.623
51.30000 174.545
51.31000 176.340
51.32000 175.677
51.33000 174.455
51.34000 173.404
51.35000 173.479
51.36000 173.758
51.37000 173.888
51.38000 173.381
51.39000 172.801
51.40000 172.366
51.41000 173.540
51.42000 174.535
51.43000 175.184
51.44000 175.166
51.45000 175.131
51.46000 176.293
51.47000 179.002
51.48000 181.714
51.49000 179.400
51.50000 172.925
51.51000 166.477
51.52000 161.343
51.53000 156.937
51.54000 152.786
51.55000 153.316
51.56000 155.601
51.57000 157.711
51.58000 162.505
51.59000 167.413
51.60000 171.543
51.61000 171.080
51.62000 169.864
51.63000 168.508
51.64000 166.611
51.65000 164.660
51.66000 163.232
51.67000 169.470
51.68000 174.588
51.69000 175.714
51.70000 169.824
51.71000 163.803
51.72000 159.696
51.73000 157.819
51.74000 155.951
51.75000 158.910
51.76000 165.452
51.77000 171.781
51.78000 170.336
51.79000 164.980
51.80000 159.845
51.81000 158.133
51.82000 157.589
51.83000 157.093
51.84000 155.785
51.85000 154.460
51.86000 154.979
51.87000 165.276
51.88000 177.005
51.89000 185.656
51.90000 183.549
51.91000 180.516
51.92000 178.358
51.93000 174.662
51.94000 171.798
51.95000 166.549
51.96000 157.492
51.97000 148.385
51.98000 147.495
51.99000 155.215
52.00000 162.895
52.01000 166.642
52.02000 167.700
52.03000 168.634
52.04000 166.050
52.05000 161.853
52.06000 157.976
52.07000 158.317
52.08000 159.968
52.09000 161.455
52.10000 159.338
52.11000 156.828
52.12000 156.023
52.13000 163.362
52.14000 171.761
52.15000 176.316
52.16000 168.655
52.17000 160.087
52.18000 154.176
52.19000 154.962
52.20000 155.724
52.21000 155.086
52.22000 152.419
52.23000 149.737
52.24000 151.800
52.25000 158.322
52.26000 164.790
52.27000 163.577
52.28000 157.731
52.29000 152.146
52.30000 152.554
52.31000 155.466
52.32000 158.179
52.33000 158.637
52.34000 158.459
52.35000 158.301
52.36000 155.321
52.37000 152.280
52.38000 150.532
52.39000 154.359
52.40000 158.829
52.41000 161.696
52.42000 159.928
52.43000 157.867
52.44000 156.490
52.45000 154.399
52.46000 152.835
52.47000 153.009
52.48000 155.465
52.49000 157.927
52.50000 158.657
52.51000 157.920
52.52000 157.193
52.53000 154.082
52.54000 149.746
52.55000 145.668
52.56000 146.475
52.57000 149.141
52.58000 151.826
52.59000 154.701
52.60000 157.625
52.61000 160.184
52.62000 166.412
52.63000 172.276
52.64000 175.523
52.65000 168.532
52.66000 160.506
52.67000 154.166
52.68000 152.266
52.69000 150.602
52.70000 149.528
52.71000 154.227
52.72000 157.743
52.73000 158.764
52.74000 156.828
52.75000 154.896
52.76000 155.017
52.77000 156.704
52.78000 158.363
52.79000 159.965
52.80000 161.486
52.81000 162.874
52.82000 162.150
52.83000 160.693
52.84000 159.022
52.85000 155.481
52.86000 151.506
52.87000 148.083
52.88000 148.991
52.89000 150.308
52.90000 152.563
52.91000 158.149
52.92000 164.029
52.93000 166.551
52.94000 161.015
52.95000 155.127
52.96000 151.466
52.97000 156.036
52.98000 159.408
52.99000 161.142
53.00000 161.128
53.01000 161.126
53.02000 162.595
53.03000 165.082
53.04000 167.512
53.05000 163.467
53.06000 156.703
53.07000 150.322
53.08000 149.121
53.09000 149.553
53.10000 149.773
53.11000 148.361
53.12000 146.606
53.13000 145.122
53.14000 147.912
53.15000 150.723
53.16000 152.973
53.17000 153.415
53.18000 153.719
53.19000 154.304
53.20000 155.503
53.21000 156.723
53.22000 157.453
53.23000 162.723
53.24000 166.490
53.25000 164.691
53.26000 157.567
53.27000 150.490
53.28000 147.011
53.29000 145.788
53.30000 144.601
53.31000 152.203
53.32000 162.960
53.33000 172.496
53.34000 167.813
53.35000 159.055
53.36000 150.877
53.37000 146.673
53.38000 143.220
53.39000 140.352
53.40000 142.790
53.41000 145.322
53.42000 147.441
53.43000 148.344
53.44000 149.169
53.45000 151.357
53.46000 156.258
53.47000 161.234
53.48000 164.083
53.49000 161.326
53.50000 159.384
53.51000 158.951
53.52000 159.817
53.53000 160.647
53.54000 159.552
53.55000 157.358
53.56000 155.243
53.57000 157.408
53.58000 160.999
53.59000 164.217
53.60000 163.667
53.61000 162.135
53.62000 160.930
53.63000 161.726
53.64000 162.861
53.65000 163.786
53.66000 164.983
53.67000 165.984
53.68000 166.047
53.69000 163.603
53.70000 161.021
53.71000 159.250
53.72000 158.948
53.73000 158.677
53.74000 158.529
53.75000 159.320
53.76000 159.869
53.77000 161.158
53.78000 163.024
53.79000 164.785
53.80000 162.412
53.81000 157.893
53.82000 153.571
53.83000 157.012
53.84000 162.760
53.85000 167.602
53.86000 164.397
53.87000 159.295
53.88000 154.858
53.89000 154.076
53.90000 153.849
53.91000 153.668
53.92000 150.209
53.93000 147.179
53.94000 145.638
53.95000 147.722
53.96000 149.969
53.97000 152.383
53.98000 155.073
53.99000 157.767
54.00000 159.170
54.01000 155.122
54.02000 152.391
54.03000 150.354
54.04000 148.804
54.05000 147.335
54.06000 148.360
54.07000 150.564
54.08000 152.653
54.09000 155.603
54.10000 158.576
54.11000 161.029
54.12000 159.397
54.13000 156.895
54.14000 154.832
54.15000 154.939
54.16000 155.340
54.17000 155.652
54.18000 148.449
54.19000 142.242
54.20000 140.234
54.21000 147.544
54.22000 155.193
54.23000 159.523
54.24000 158.890
54.25000 158.208
54.26000 158.215
54.27000 158.891
54.28000 159.557
54.29000 159.389
54.30000 158.689
54.31000 158.043
54.32000 158.736
54.33000 160.005
54.34000 161.197
54.35000 158.300
54.36000 154.573
54.37000 151.173
54.38000 150.051
54.39000 149.368
54.40000 148.973
54.41000 149.863
54.42000 150.908
54.43000 151.704
54.44000 154.817
54.45000 157.388
54.46000 158.615
54.47000 157.128
54.48000 155.563
54.49000 154.937
54.50000 155.586
54.51000 156.242
54.52000 155.985
54.53000 154.933
54.54000 153.897
54.55000 153.767
54.56000 154.161
54.57000 154.541
54.58000 154.629
54.59000 154.603
54.60000 154.579
54.61000 152.344
54.62000 149.801
54.63000 147.528
54.64000 146.934
54.65000 146.631
54.66000 146.487
54.67000 146.981
54.68000 147.543
54.69000 147.960
54.70000 153.959
54.71000 158.861
54.72000 160.681
54.73000 156.829
54.74000 152.853
54.75000 149.104
54.76000 145.633
54.77000 142.169
54.78000 141.323
54.79000 142.536
54.80000 143.757
54.81000 145.334
54.82000 147.098
54.83000 148.968
54.84000 152.606
54.85000 156.875
54.86000 160.796
54.87000 157.359
54.88000 152.720
54.89000 149.327
54.90000 152.889
54.91000 157.528
54.92000 159.553
54.93000 152.009
54.94000 143.582
54.95000 137.504
54.96000 147.580
54.97000 155.880
54.98000 159.308
54.99000 154.584
55.00000 149.733
55.01000 148.975
55.02000 152.732
55.03000 156.477
55.04000 155.417
55.05000 150.970
55.06000 146.684
55.07000 147.590
55.08000 150.985
55.09000 154.428
55.10000 158.559
55.11000 162.914
55.12000 166.863
55.13000 164.357
55.14000 160.911
55.15000 158.282
55.16000 159.757
55.17000 161.798
55.18000 163.503
55.19000 164.087
55.20000 164.581
55.21000 164.927
55.22000 168.369
55.23000 171.061
55.24000 170.249
55.25000 164.113
55.26000 157.922
55.27000 156.566
55.28000 159.999
55.29000 163.408
55.30000 166.351
55.31000 168.949
55.32000 171.494
55.33000 172.671
55.34000 173.250
55.35000 173.907
55.36000 175.520
55.37000 177.417
55.38000 179.114
55.39000 179.482
55.40000 179.576
55.41000 181.107
55.42000 189.154
55.43000 197.998
55.44000 203.677
55.45000 199.777
55.46000 195.223
55.47000 192.132
55.48000 206.181
55.49000 217.046
55.50000 223.170
55.51000 222.769
55.52000 222.326
55.53000 221.380
55.54000 219.986
55.55000 218.606
55.56000 222.993
55.57000 230.598
55.58000 238.126
55.59000 244.041
55.60000 249.315
55.61000 254.957
55.62000 264.488
55.63000 275.065
55.64000 284.390
55.65000 287.567
55.66000 289.375
55.67000 292.583
55.68000 301.538
55.69000 311.113
55.70000 320.091
55.71000 327.425
55.72000 334.664
55.73000 339.416
55.74000 346.716
55.75000 352.130
55.76000 361.698
55.77000 376.439
55.78000 391.172
55.79000 398.011
55.80000 398.518
55.81000 399.017
55.82000 394.412
55.83000 387.296
55.84000 380.765
55.85000 384.362
55.86000 391.630
55.87000 398.068
55.88000 396.817
55.89000 393.695
55.90000 390.985
55.91000 397.251
55.92000 403.795
55.93000 408.109
55.94000 404.130
55.95000 399.369
55.96000 395.302
55.97000 392.976
55.98000 390.733
55.99000 389.313
56.00000 372.591
56.01000 360.279
56.02000 353.008
56.03000 351.395
56.04000 349.763
56.05000 344.279
56.06000 335.999
56.07000 327.883
56.08000 325.099
56.09000 324.918
56.10000 324.416
56.11000 319.241
56.12000 312.524
56.13000 305.943
56.14000 300.478
56.15000 295.259
56.16000 290.804
56.17000 289.072
56.18000 287.936
56.19000 283.923
56.20000 270.188
56.21000 255.657
56.22000 244.868
56.23000 242.634
56.24000 240.735
56.25000 239.577
56.26000 239.707
56.27000 239.810
56.28000 238.662
56.29000 236.253
56.30000 233.821
56.31000 229.090
56.32000 222.849
56.33000 216.768
56.34000 212.184
56.35000 208.444
56.36000 204.501
56.37000 198.014
56.38000 190.764
56.39000 184.108
56.40000 181.749
56.41000 180.244
56.42000 178.983
56.43000 180.034
56.44000 181.149
56.45000 182.437
56.46000 184.260
56.47000 186.120
56.48000 184.538
56.49000 175.781
56.50000 166.802
56.51000 161.550
56.52000 169.209
56.53000 174.660
56.54000 177.638
56.55000 178.376
56.56000 179.068
56.57000 176.789
56.58000 172.737
56.59000 168.815
56.60000 167.267
56.61000 166.710
56.62000 165.879
56.63000 162.080
56.64000 157.472
56.65000 153.890
56.66000 156.938
56.67000 161.172
56.68000 164.653
56.69000 162.012
56.70000 159.287
56.71000 155.783
56.72000 150.098
56.73000 144.284
56.74000 142.099
56.75000 146.802
56.76000 151.669
56.77000 154.391
56.78000 151.666
56.79000 149.768
56.80000 148.988
56.81000 149.119
56.82000 149.206
56.83000 147.275
56.84000 144.249
56.85000 141.342
56.86000 143.715
56.87000 147.755
56.88000 151.565
56.89000 153.201
56.90000 154.298
56.91000 154.369
56.92000 148.499
56.93000 141.676
56.94000 136.179
56.95000 143.959
56.96000 151.313
56.97000 156.528
56.98000 156.288
56.99000 155.779
57.00000 155.388
57.01000 155.205
57.02000 155.025
57.03000 154.929
57.04000 149.689
57.05000 146.108
57.06000 141.431
57.07000 135.946
57.08000 130.590
57.09000 129.703
57.10000 131.025
57.11000 132.284
57.12000 135.384
57.13000 138.827
57.14000 142.243
57.15000 145.439
57.16000 148.586
57.17000 150.651
57.18000 147.099
57.19000 142.742
57.20000 139.308
57.21000 136.026
57.22000 133.406
57.23000 132.995
57.24000 137.716
57.25000 142.645
57.26000 144.297
57.27000 140.814
57.28000 137.268
57.29000 135.472
57.30000 145.716
57.31000 152.507
57.32000 152.309
57.33000 147.444
57.34000 142.668
57.35000 140.319
57.36000 139.062
57.37000 137.877
57.38000 139.132
57.39000 140.965
57.40000 142.569
57.41000 142.478
57.42000 142.046
57.43000 141.740
57.44000 142.033
57.45000 142.401
57.46000 142.685
57.47000 144.411
57.48000 145.859
57.49000 145.913
57.50000 143.018
57.51000 140.029
57.52000 139.105
57.53000 141.118
57.54000 143.153
57.55000 141.666
57.56000 136.939
57.57000 132.287
57.58000 132.682
57.59000 136.138
57.60000 139.608
57.61000 143.404
57.62000 147.332
57.63000 151.001
57.64000 145.599
57.65000 138.422
57.66000 132.293
57.67000 133.058
57.68000 135.079
57.69000 136.657
57.70000 136.366
57.71000 135.864
57.72000 135.487
57.73000 138.723
57.74000 141.425
57.75000 142.146
57.76000 139.055
57.77000 135.868
57.78000 136.396
57.79000 141.701
57.80000 147.019
57.81000 146.623
57.82000 141.506
57.83000 136.448
57.84000 134.242
57.85000 133.610
57.86000 133.236
57.87000 137.587
57.88000 143.704
57.89000 149.353
57.90000 147.059
57.91000 143.210
57.92000 139.600
57.93000 137.393
57.94000 135.415
57.95000 133.521
57.96000 131.948
57.97000 130.407
57.98000 129.281
57.99000 135.467
58.00000 140.527
58.01000 144.763
58.02000 147.554
58.03000 150.319
58.04000 149.574
58.05000 144.755
58.06000 139.944
58.07000 140.528
58.08000 145.121
58.09000 149.531
58.10000 147.338
58.11000 141.830
58.12000 136.650
58.13000 136.506
58.14000 138.075
58.15000 139.507
58.16000 142.295
58.17000 145.042
58.18000 146.541
58.19000 141.442
58.20000 135.380
58.21000 131.566
58.22000 135.583
58.23000 140.272
58.24000 143.604
58.25000 141.294
58.26000 139.355
58.27000 137.618
58.28000 136.205
58.29000 134.796
58.30000 134.452
58.31000 135.220
58.32000 135.984
58.33000 135.748
58.34000 134.845
58.35000 134.002
58.36000 134.832
58.37000 136.429
58.38000 138.009
58.39000 139.387
58.40000 140.702
58.41000 141.887
58.42000 144.712
58.43000 147.485
58.44000 149.321
58.45000 146.692
58.46000 143.482
58.47000 141.370
58.48000 142.733
58.49000 144.353
58.50000 145.469
58.51000 143.235
58.52000 141.472
58.53000 137.747
58.54000 131.187
58.55000 124.606
58.56000 122.764
58.57000 125.363
58.58000 127.940
58.59000 133.087
58.60000 139.690
58.61000 145.986
58.62000 145.237
58.63000 141.554
58.64000 137.844
58.65000 133.827
58.66000 129.723
58.67000 126.079
58.68000 131.555
58.69000 137.768
58.70000 142.478
58.71000 140.720
58.72000 138.220
58.73000 136.674
58.74000 137.880
58.75000 139.258
58.76000 140.178
58.77000 136.333
58.78000 133.393
58.79000 131.390
58.80000 130.613
58.81000 129.842
58.82000 129.273
58.83000 128.876
58.84000 128.483
58.85000 129.960
58.86000 132.418
58.87000 134.814
58.88000 136.026
58.89000 136.789
58.90000 137.447
58.91000 137.071
58.92000 136.430
58.93000 135.870
58.94000 132.083
58.95000 128.379
58.96000 125.951
58.97000 128.496
58.98000 131.542
58.99000 134.418
59.00000 136.849
59.01000 139.256
59.02000 140.808
59.03000 134.335
59.04000 129.493
59.05000 129.479
59.06000 135.165
59.07000 140.852
59.08000 144.675
59.09000 147.079
59.10000 149.442
59.11000 147.328
59.12000 143.081
59.13000 139.176
59.14000 140.678
59.15000 144.048
59.16000 146.944
59.17000 145.726
59.18000 143.557
59.19000 141.690
59.20000 139.567
59.21000 137.737
59.22000 135.795
59.23000 133.455
59.24000 131.080
59.25000 130.749
59.26000 135.310
59.27000 140.082
59.28000 143.047
59.29000 135.177
59.30000 129.405
59.31000 126.637
59.32000 127.062
59.33000 127.494
59.34000 128.674
59.35000 130.369
59.36000 132.027
59.37000 134.882
59.38000 138.151
59.39000 141.142
59.40000 140.392
59.41000 138.467
59.42000 136.321
59.43000 132.483
59.44000 128.292
59.45000 124.747
59.46000 126.961
59.47000 129.452
59.48000 131.104
59.49000 130.055
59.50000 128.803
59.51000 128.248
59.52000 129.216
59.53000 130.238
59.54000 130.847
59.55000 136.436
59.56000 140.430
59.57000 139.512
59.58000 133.912
59.59000 128.331
59.60000 124.317
59.61000 121.281
59.62000 118.334
59.63000 121.425
59.64000 126.782
59.65000 131.610
59.66000 130.296
59.67000 127.228
59.68000 124.478
59.69000 123.901
59.70000 123.734
59.71000 123.595
59.72000 125.846
59.73000 127.938
59.74000 130.033
59.75000 132.138
59.76000 134.244
59.77000 134.433
59.78000 130.818
59.79000 127.098
59.80000 124.971
59.81000 134.237
59.82000 140.735
59.83000 139.669
59.84000 132.119
59.85000 124.672
59.86000 122.687
59.87000 123.808
59.88000 124.889
59.89000 126.664
59.90000 128.584
59.91000 130.501
59.92000 132.387
59.93000 134.263
59.94000 135.348
59.95000 131.604
59.96000 127.042
59.97000 123.330
59.98000 121.743
59.99000 120.625
60.00000 120.027
60.01000 120.813
60.02000 121.674
60.03000 121.340
60.04000 118.846
60.05000 116.308
60.06000 114.923
60.07000 125.069
60.08000 132.042
60.09000 135.674
60.10000 136.721
60.11000 137.777
60.12000 139.236
60.13000 140.903
60.14000 142.497
60.15000 144.275
60.16000 145.990
60.17000 147.332
60.18000 145.368
60.19000 142.628
60.20000 140.551
60.21000 142.103
60.22000 144.205
60.23000 145.879
60.24000 142.630
60.25000 139.652
60.26000 136.426
60.27000 132.595
60.28000 128.737
60.29000 126.450
60.30000 126.743
60.31000 127.073
60.32000 127.245
60.33000 132.884
60.34000 136.669
60.35000 137.222
60.36000 135.511
60.37000 133.825
60.38000 132.910
60.39000 132.359
60.40000 131.837
60.41000 132.461
60.42000 133.374
60.43000 134.140
60.44000 133.754
60.45000 133.124
60.46000 132.021
60.47000 128.592
60.48000 124.850
60.49000 121.936
60.50000 120.253
60.51000 118.989
60.52000 119.011
60.53000 121.877
60.54000 124.846
60.55000 128.393
60.56000 132.800
60.57000 137.215
60.58000 137.569
60.59000 133.985
60.60000 130.418
60.61000 128.319
60.62000 127.154
60.63000 126.104
60.64000 127.887
60.65000 130.884
60.66000 133.699
60.67000 131.840
60.68000 128.909
60.69000 126.024
60.70000 123.460
60.71000 120.958
60.72000 120.139
60.73000 126.809
60.74000 134.372
60.75000 140.122
60.76000 135.007
60.77000 130.418
60.78000 127.932
60.79000 129.686
60.80000 131.560
60.81000 133.498
60.82000 135.523
60.83000 137.547
60.84000 138.386
60.85000 138.191
60.86000 138.028
60.87000 139.599
60.88000 142.172
60.89000 144.492
60.90000 141.748
60.91000 137.024
60.92000 132.637
60.93000 131.826
60.94000 131.945
60.95000 132.313
60.96000 134.224
60.97000 136.400
60.98000 138.363
60.99000 139.468
61.00000 140.482
61.01000 141.234
61.02000 141.291
61.03000 141.306
61.04000 139.492
61.05000 134.321
61.06000 129.078
61.07000 128.100
61.08000 132.328
61.09000 136.560
61.10000 137.008
61.11000 134.491
61.12000 132.061
61.13000 133.194
61.14000 136.198
61.15000 139.033
61.16000 139.049
61.17000 138.059
61.18000 137.151
61.19000 138.798
61.20000 140.810
61.21000 141.977
61.22000 138.442
61.23000 134.182
61.24000 131.197
61.25000 132.873
61.26000 134.977
61.27000 136.493
61.28000 140.114
61.29000 142.962
61.30000 143.360
61.31000 139.670
61.32000 135.917
61.33000 134.034
61.34000 134.209
61.35000 134.383
61.36000 134.970
61.37000 135.840
61.38000 136.652
61.39000 135.605
61.40000 133.669
61.41000 131.771
61.42000 130.403
61.43000 129.206
61.44000 128.122
61.45000 134.323
61.46000 141.179
61.47000 147.750
61.48000 152.890
61.49000 157.833
61.50000 163.556
61.51000 171.866
61.52000 180.382
61.53000 186.341
61.54000 204.746
61.55000 219.013
61.56000 232.727
61.57000 245.602
61.58000 258.468
61.59000 269.590
61.60000 278.988
61.61000 288.322
61.62000 300.985
61.63000 315.565
61.64000 329.862
61.65000 336.998
61.66000 341.015
61.67000 344.518
61.68000 341.766
61.69000 337.170
61.70000 333.060
61.71000 325.472
61.72000 318.265
61.73000 312.762
61.74000 314.957
61.75000 318.091
61.76000 316.652
61.77000 301.410
61.78000 285.230
61.79000 274.257
61.80000 251.135
61.81000 233.623
61.82000 217.639
61.83000 203.754
61.84000 189.885
61.85000 180.955
61.86000 176.403
61.87000 171.900
61.88000 168.382
61.89000 165.508
61.90000 162.725
61.91000 161.820
61.92000 161.661
61.93000 160.972
61.94000 154.705
61.95000 146.943
61.96000 140.103
61.97000 139.153
61.98000 139.225
61.99000 139.505
62.00000 140.639
62.01000 141.865
62.02000 143.085
62.03000 144.288
62.04000 145.491
62.05000 146.279
62.06000 145.404
62.07000 144.732
62.08000 145.872
62.09000 149.262
62.10000 152.645
62.11000 151.600
62.12000 147.016
62.13000 142.499
62.14000 144.317
62.15000 149.358
62.16000 154.028
62.17000 152.315
62.18000 148.294
62.19000 144.620
62.20000 144.140
62.21000 144.435
62.22000 144.691
62.23000 146.318
62.24000 147.887
62.25000 149.668
62.26000 152.234
62.27000 154.874
62.28000 153.961
62.29000 144.157
62.30000 133.927
62.31000 127.455
62.32000 133.749
62.33000 138.463
62.34000 142.976
62.35000 147.261
62.36000 151.530
62.37000 153.024
62.38000 152.513
62.39000 152.012
62.40000 147.295
62.41000 140.788
62.42000 134.629
62.43000 133.544
62.44000 134.128
62.45000 134.717
62.46000 135.344
62.47000 135.978
62.48000 136.520
62.49000 139.302
62.50000 141.907
62.51000 143.170
62.52000 139.909
62.53000 136.280
62.54000 134.701
62.55000 137.795
62.56000 141.072
62.57000 143.067
62.58000 143.158
62.59000 143.209
62.60000 144.677
62.61000 147.568
62.62000 150.396
62.63000 147.239
62.64000 140.158
62.65000 133.259
62.66000 136.101
62.67000 142.918
62.68000 149.183
62.69000 148.582
62.70000 145.925
62.71000 143.501
62.72000 142.759
62.73000 142.350
62.74000 142.007
62.75000 144.543
62.76000 146.950
62.77000 149.778
62.78000 153.898
62.79000 158.108
62.80000 159.625
62.81000 155.547
62.82000 151.296
62.83000 148.813
62.84000 149.263
62.85000 149.593
62.86000 148.517
62.87000 146.172
62.88000 143.846
62.89000 142.644
62.90000 142.113
62.91000 141.598
62.92000 143.484
62.93000 146.178
62.94000 148.438
62.95000 146.012
62.96000 142.310
62.97000 139.258
62.98000 140.382
62.99000 142.250
63.00000 143.786
63.01000 149.628
63.02000 154.816
63.03000 157.939
63.04000 155.304
63.05000 152.329
63.06000 149.864
63.07000 148.367
63.08000 146.892
63.09000 146.068
63.10000 148.003
63.11000 149.348
63.12000 150.197
63.13000 150.642
63.14000 151.035
63.15000 149.031
63.16000 145.729
63.17000 142.559
63.18000 143.742
63.19000 146.344
63.20000 148.739
63.21000 149.192
63.22000 149.166
63.23000 149.093
63.24000 148.751
63.25000 148.366
63.26000 148.056
63.27000 149.561
63.28000 150.923
63.29000 150.997
63.30000 147.796
63.31000 144.433
63.32000 142.176
63.33000 141.821
63.34000 141.499
63.35000 141.328
63.36000 147.878
63.37000 152.314
63.38000 151.611
63.39000 147.130
63.40000 142.828
63.41000 144.701
63.42000 149.617
63.43000 154.297
63.44000 151.727
63.45000 147.104
63.46000 143.085
63.47000 144.082
63.48000 146.200
63.49000 148.563
63.50000 152.196
63.51000 156.010
63.52000 159.015
63.53000 157.501
63.54000 155.987
63.55000 155.260
63.56000 156.357
63.57000 157.528
63.58000 157.431
63.59000 155.353
63.60000 153.251
63.61000 152.188
63.62000 148.145
63.63000 145.451
63.64000 143.901
63.65000 143.112
63.66000 142.371
63.67000 142.906
63.68000 144.014
63.69000 145.060
63.70000 146.041
63.71000 146.923
63.72000 147.717
63.73000 147.877
63.74000 147.909
63.75000 148.436
63.76000 151.276
63.77000 154.409
63.78000 156.820
63.79000 155.957
63.80000 155.089
63.81000 154.424
63.82000 154.190
63.83000 153.969
63.84000 152.513
63.85000 149.308
63.86000 146.091
63.87000 148.435
63.88000 155.879
63.89000 163.247
63.90000 165.551
63.91000 164.794
63.92000 163.961
63.93000 161.475
63.94000 158.313
63.95000 155.360
63.96000 158.195
63.97000 162.216
63.98000 164.908
63.99000 158.898
64.00000 151.310
64.01000 146.262
64.02000 151.944
64.03000 158.827
64.04000 163.991
64.05000 155.097
64.06000 147.481
64.07000 145.712
64.08000 155.171
64.09000 164.908
64.10000 168.106
64.11000 162.915
64.12000 157.699
64.13000 156.885
64.14000 159.701
64.15000 162.517
64.16000 165.327
64.17000 168.135
64.18000 170.701
64.19000 168.858
64.20000 165.373
64.21000 162.155
64.22000 161.552
64.23000 161.600
64.24000 161.053
64.25000 157.024
64.26000 152.428
64.27000 149.513
64.28000 153.032
64.29000 157.183
64.30000 160.216
64.31000 171.255
64.32000 180.082
64.33000 183.512
64.34000 177.513
64.35000 171.342
64.36000 169.022
64.37000 171.162
64.38000 173.301
64.39000 171.167
64.40000 165.881
64.41000 160.728
64.42000 160.334
64.43000 162.322
64.44000 164.371
64.45000 167.361
64.46000 170.670
64.47000 173.688
64.48000 173.878
64.49000 173.476
64.50000 172.612
64.51000 169.306
64.52000 165.645
64.53000 163.678
64.54000 167.593
64.55000 172.010
64.56000 175.147
64.57000 176.860
64.58000 178.119
64.59000 179.787
64.60000 182.105
64.61000 184.432
64.62000 185.730
64.63000 185.957
64.64000 186.183
64.65000 181.562
64.66000 173.760
64.67000 166.354
64.68000 170.080
64.69000 178.879
64.70000 187.251
64.71000 190.039
64.72000 191.103
64.73000 192.061
64.74000 188.672
64.75000 184.919
64.76000 182.516
64.77000 186.522
64.78000 191.357
64.79000 195.168
64.80000 195.747
64.81000 196.089
64.82000 196.324
64.83000 192.538
64.84000 189.595
64.85000 189.556
64.86000 193.698
64.87000 197.874
64.88000 201.700
64.89000 205.200
64.90000 208.669
64.91000 210.251
64.92000 210.665
64.93000 210.930
64.94000 207.798
64.95000 203.255
64.96000 199.301
64.97000 201.982
64.98000 206.525
64.99000 210.558
65.00000 213.570
65.01000 216.017
65.02000 218.220
65.03000 219.374
65.04000 220.408
65.05000 221.400
65.06000 222.271
65.07000 223.133
65.08000 223.708
65.09000 224.769
65.10000 225.564
65.11000 227.203
65.12000 229.945
65.13000 232.691
65.14000 235.594
65.15000 238.628
65.16000 241.624
65.17000 247.499
65.18000 254.787
65.19000 261.725
65.20000 262.103
65.21000 259.998
65.22000 258.695
65.23000 265.280
65.24000 273.872
65.25000 281.385
65.26000 279.789
65.27000 277.128
65.28000 275.819
65.29000 279.768
65.30000 284.244
65.31000 287.571
65.32000 287.889
65.33000 288.049
65.34000 288.153
65.35000 305.531
65.36000 318.461
65.37000 323.528
65.38000 319.340
65.39000 315.149
65.40000 313.655
65.41000 314.209
65.42000 314.753
65.43000 316.921
65.44000 319.813
65.45000 323.145
65.46000 333.399
65.47000 346.038
65.48000 357.128
65.49000 354.846
65.50000 349.480
65.51000 344.864
65.52000 354.586
65.53000 364.615
65.54000 371.598
65.55000 367.833
65.56000 363.130
65.57000 363.807
65.58000 377.325
65.59000 391.396
65.60000 400.126
65.61000 414.499
65.62000 424.894
65.63000 435.814
65.64000 447.289
65.65000 458.876
65.66000 483.684
65.67000 517.581
65.68000 550.702
65.69000 598.831
65.70000 651.582
65.71000 705.655
65.72000 777.433
65.73000 854.761
65.74000 932.684
65.75000 1015.144
65.76000 1098.551
65.77000 1169.054
65.78000 1228.467
65.79000 1276.941
65.80000 1325.790
65.81000 1375.840
65.82000 1425.981
65.83000 1466.626
65.84000 1486.630
65.85000 1505.918
65.86000 1517.416
65.87000 1506.136
65.88000 1498.001
65.89000 1491.600
65.90000 1486.846
65.91000 1481.693
65.92000 1446.276
65.93000 1391.983
65.94000 1339.270
65.95000 1255.231
65.96000 1162.937
65.97000 1071.579
65.98000 991.020
65.99000 913.537
66.00000 837.170
66.01000 768.386
66.02000 701.027
66.03000 645.142
66.04000 586.371
66.05000 537.525
66.06000 493.169
66.07000 461.920
66.08000 431.512
66.09000 407.924
66.10000 397.835
66.11000 388.112
66.12000 382.559
66.13000 366.942
66.14000 356.027
66.15000 355.934
66.16000 365.092
66.17000 374.044
66.18000 372.123
66.19000 364.037
66.20000 356.243
66.21000 355.813
66.22000 358.067
66.23000 360.865
66.24000 369.127
66.25000 378.803
66.26000 389.809
66.27000 408.894
66.28000 429.341
66.29000 445.971
66.30000 468.183
66.31000 486.782
66.32000 503.599
66.33000 515.680
66.34000 527.506
66.35000 537.563
66.36000 544.434
66.37000 551.240
66.38000 554.952
66.39000 560.041
66.40000 563.522
66.41000 563.442
66.42000 560.613
66.43000 557.798
66.44000 555.508
66.45000 553.489
66.46000 551.558
66.47000 542.682
66.48000 532.161
66.49000 521.730
66.50000 512.089
66.51000 502.633
66.52000 491.503
66.53000 471.243
66.54000 449.606
66.55000 432.380
66.56000 419.042
66.57000 408.568
66.58000 397.873
66.59000 386.642
66.60000 375.386
66.61000 369.346
66.62000 371.848
66.63000 374.474
66.64000 375.835
66.65000 373.083
66.66000 371.212
66.67000 367.838
66.68000 363.414
66.69000 359.290
66.70000 364.262
66.71000 373.507
66.72000 382.268
66.73000 379.480
66.74000 373.527
66.75000 367.592
66.76000 361.809
66.77000 356.058
66.78000 352.339
66.79000 358.596
66.80000 366.193
66.81000 372.106
66.82000 370.733
66.83000 369.191
66.84000 368.624
66.85000 370.205
66.86000 371.863
66.87000 372.421
66.88000 371.345
66.89000 370.252
66.90000 372.641
66.91000 378.396
66.92000 384.105
66.93000 386.134
66.94000 385.833
66.95000 385.308
66.96000 379.334
66.97000 371.029
66.98000 363.235
66.99000 371.046
67.00000 382.280
67.01000 392.652
67.02000 397.057
67.03000 400.322
67.04000 402.734
67.05000 401.365
67.06000 399.547
67.07000 398.165
67.08000 405.146
67.09000 411.067
67.10000 412.799
67.11000 406.111
67.12000 399.186
67.13000 398.754
67.14000 407.067
67.15000 415.422
67.16000 420.708
67.17000 423.320
67.18000 425.873
67.19000 425.041
67.20000 422.261
67.21000 419.941
67.22000 426.754
67.23000 437.127
67.24000 446.758
67.25000 447.781
67.26000 446.664
67.27000 445.336
67.28000 442.699
67.29000 439.838
67.30000 437.519
67.31000 437.373
67.32000 437.455
67.33000 437.516
67.34000 446.341
67.35000 453.567
67.36000 457.333
67.37000 454.769
67.38000 452.070
67.39000 450.694
67.40000 450.926
67.41000 451.162
67.42000 458.800
67.43000 472.175
67.44000 485.254
67.45000 486.183
67.46000 480.750
67.47000 475.442
67.48000 472.207
67.49000 469.709
67.50000 467.417
67.51000 475.366
67.52000 484.629
67.53000 492.171
67.54000 490.173
67.55000 486.709
67.56000 486.896
67.57000 500.373
67.58000 515.065
67.59000 525.644
67.60000 522.129
67.61000 518.941
67.62000 514.053
67.63000 506.338
67.64000 498.579
67.65000 501.589
67.66000 516.406
67.67000 531.167
67.68000 539.283
67.69000 542.649
67.70000 545.944
67.71000 546.992
67.72000 546.969
67.73000 546.528
67.74000 540.207
67.75000 531.985
67.76000 524.534
67.77000 533.879
67.78000 545.308
67.79000 555.914
67.80000 562.409
67.81000 568.343
67.82000 572.966
67.83000 573.255
67.84000 573.202
67.85000 573.164
67.86000 567.284
67.87000 562.676
67.88000 564.194
67.89000 574.965
67.90000 585.829
67.91000 592.123
67.92000 593.920
67.93000 595.705
67.94000 598.274
67.95000 601.298
67.96000 604.230
67.97000 604.818
67.98000 604.390
67.99000 604.148
68.00000 606.168
68.01000 608.854
68.02000 611.255
68.03000 615.664
68.04000 619.846
68.05000 625.187
68.06000 635.742
68.07000 646.930
68.08000 652.906
68.09000 643.199
68.10000 632.430
68.11000 625.135
68.12000 638.333
68.13000 648.622
68.14000 659.337
68.15000 670.635
68.16000 681.932
68.17000 687.087
68.18000 686.810
68.19000 686.537
68.20000 695.965
68.21000 710.723
68.22000 725.006
68.23000 729.539
68.24000 730.214
68.25000 730.408
68.26000 725.558
68.27000 719.361
68.28000 713.902
68.29000 729.798
68.30000 746.707
68.31000 762.039
68.32000 770.938
68.33000 779.149
68.34000 783.649
68.35000 777.977
68.36000 771.723
68.37000 767.627
68.38000 785.301
68.39000 798.652
68.40000 809.887
68.41000 818.503
68.42000 827.112
68.43000 835.537
68.44000 843.817
68.45000 851.973
68.46000 867.588
68.47000 886.581
68.48000 905.125
68.49000 916.005
68.50000 924.121
68.51000 933.201
68.52000 951.138
68.53000 971.220
68.54000 988.632
68.55000 1019.759
68.56000 1048.089
68.57000 1077.887
68.58000 1113.113
68.59000 1148.847
68.60000 1188.179
68.61000 1236.494
68.62000 1285.236
68.63000 1316.036
68.64000 1399.662
68.65000 1460.880
68.66000 1525.854
68.67000 1595.018
68.68000 1664.236
68.69000 1741.348
68.70000 1824.150
68.71000 1905.289
68.72000 1988.506
68.73000 2069.524
68.74000 2151.568
68.75000 2248.446
68.76000 2350.192
68.77000 2449.643
68.78000 2530.505
68.79000 2607.297
68.80000 2672.768
68.81000 2852.685
68.82000 3017.500
68.83000 3188.127
68.84000 3378.284
68.85000 3570.022
68.86000 3805.368
68.87000 4139.882
68.88000 4478.230
68.89000 4683.945
68.90000 5821.346
68.91000 6640.709
68.92000 8097.570
68.93000 10192.947
68.94000 12303.119
68.95000 15787.125
68.96000 20169.105
68.97000 24437.271
68.98000 30280.082
68.99000 36512.566
69.00000 42741.516
69.01000 48926.629
69.02000 55098.660
69.03000 61043.324
69.04000 65353.703
69.05000 69341.109
69.06000 72679.859
69.07000 74538.922
69.08000 75931.969
69.09000 77132.414
69.10000 77744.359
69.11000 78315.414
69.12000 78922.719
69.13000 79605.141
69.14000 80289.859
69.15000 80689.273
69.16000 81783.031
69.17000 82554.617
69.18000 82294.375
69.19000 81106.164
69.20000 79894.516
69.21000 77222.156
69.22000 73682.711
69.23000 70258.656
69.24000 66238.031
69.25000 62214.320
69.26000 58227.520
69.27000 54637.008
69.28000 51153.957
69.29000 47849.844
69.30000 45692.660
69.31000 43739.395
69.32000 42135.180
69.33000 40863.992
69.34000 39849.969
69.35000 38774.633
69.36000 37528.734
69.37000 36272.801
69.38000 34614.043
69.39000 32195.531
69.40000 29759.184
69.41000 28399.910
69.42000 23909.555
69.43000 20795.598
69.44000 17932.041
69.45000 15271.446
69.46000 12621.429
69.47000 10447.671
69.48000 8531.013
69.49000 6690.988
69.50000 5487.906
69.51000 4580.736
69.52000 3716.535
69.53000 3255.597
69.54000 2893.838
69.55000 2555.515
69.56000 2351.750
69.57000 2169.430
69.58000 2022.750
69.59000 1906.933
69.60000 1815.386
69.61000 1730.451
69.62000 1662.273
69.63000 1594.916
69.64000 1531.326
69.65000 1474.201
69.66000 1417.186
69.67000 1386.869
69.68000 1345.358
69.69000 1317.035
69.70000 1278.335
69.71000 1232.032
69.72000 1186.319
69.73000 1160.765
69.74000 1145.117
69.75000 1130.222
69.76000 1090.349
69.77000 1045.731
69.78000 1004.297
69.79000 989.184
69.80000 979.931
69.81000 971.072
69.82000 964.253
69.83000 957.724
69.84000 952.586
69.85000 916.825
69.86000 886.143
69.87000 863.808
69.88000 860.743
69.89000 858.450
69.90000 849.026
69.91000 828.489
69.92000 807.822
69.93000 797.388
69.94000 800.370
69.95000 802.247
69.96000 792.441
69.97000 774.877
69.98000 757.658
69.99000 749.734
70.00000 745.969
