20.00000 547.725
20.01000 548.439
20.02000 549.255
20.03000 550.283
20.04000 552.141
20.05000 554.083
20.06000 555.509
20.07000 560.022
20.08000 563.638
20.09000 565.037
20.10000 562.485
20.11000 559.856
20.12000 553.832
20.13000 543.789
20.14000 533.764
20.15000 530.938
20.16000 533.588
20.17000 536.090
20.18000 532.983
20.19000 527.014
20.20000 521.550
20.21000 524.116
20.22000 529.461
20.23000 534.349
20.24000 536.597
20.25000 538.051
20.26000 539.902
20.27000 543.893
20.28000 548.203
20.29000 551.336
20.30000 550.299
20.31000 548.894
20.32000 547.891
20.33000 550.583
20.34000 552.761
20.35000 550.840
20.36000 542.276
20.37000 533.621
20.38000 531.935
20.39000 537.673
20.40000 543.385
20.41000 546.871
20.42000 548.797
20.43000 550.709
20.44000 552.203
20.45000 553.503
20.46000 554.507
20.47000 551.518
20.48000 547.271
20.49000 543.437
20.50000 544.075
20.51000 545.460
20.52000 545.477
20.53000 538.862
20.54000 531.367
20.55000 527.016
20.56000 532.797
20.57000 539.348
20.58000 543.889
20.59000 558.187
20.60000 569.209
20.61000 574.317
20.62000 570.727
20.63000 567.059
20.64000 563.415
20.65000 559.795
20.66000 556.204
20.67000 557.035
20.68000 560.576
20.69000 563.664
20.70000 556.011
20.71000 543.809
20.72000 533.026
20.73000 538.743
20.74000 549.184
20.75000 558.482
20.76000 548.647
20.77000 536.964
20.78000 529.922
20.79000 543.227
20.80000 558.920
20.81000 567.780
20.82000 556.597
20.83000 544.116
20.84000 535.736
20.85000 532.568
20.86000 530.321
20.87000 530.857
20.88000 535.098
20.89000 539.353
20.90000 540.746
20.91000 539.681
20.92000 538.629
20.93000 544.750
20.94000 554.708
20.95000 564.593
20.96000 573.071
20.97000 581.006
20.98000 586.884
20.99000 571.942
21.00000 551.587
21.01000 533.732
21.02000 532.083
21.03000 533.027
21.04000 536.121
21.05000 547.747
21.06000 560.253
21.07000 566.529
21.08000 556.162
21.09000 544.888
21.10000 537.574
21.11000 540.059
21.12000 542.027
21.13000 542.846
21.14000 542.282
21.15000 541.706
21.16000 538.639
21.17000 533.642
21.18000 528.727
21.19000 530.511
21.20000 535.599
21.21000 540.229
21.22000 537.395
21.23000 531.939
21.24000 526.781
21.25000 524.273
21.26000 522.389
21.27000 520.763
21.28000 523.313
21.29000 526.015
21.30000 529.612
21.31000 536.434
21.32000 543.546
21.33000 546.551
21.34000 539.561
21.35000 532.122
21.36000 527.468
21.37000 530.234
21.38000 532.309
21.39000 533.002
21.40000 532.197
21.41000 531.436
21.42000 536.407
21.43000 545.402
21.44000 554.203
21.45000 552.125
21.46000 545.205
21.47000 538.303
21.48000 531.663
21.49000 525.106
21.50000 520.054
21.51000 526.791
21.52000 536.040
21.53000 543.887
21.54000 547.037
21.55000 549.146
21.56000 549.376
21.57000 543.454
21.58000 537.052
21.59000 534.136
21.60000 538.949
21.61000 544.042
21.62000 547.105
21.63000 551.823
21.64000 555.189
21.65000 558.688
21.66000 562.314
21.67000 565.819
21.68000 559.321
21.69000 546.456
21.70000 533.946
21.71000 539.543
21.72000 552.268
21.73000 564.105
21.74000 565.369
21.75000 563.557
21.76000 562.063
21.77000 562.776
21.78000 563.913
21.79000 564.861
21.80000 573.670
21.81000 581.748
21.82000 588.043
21.83000 589.025
21.84000 589.654
21.85000 590.753
21.86000 592.800
21.87000 594.875
21.88000 596.070
21.89000 586.908
21.90000 580.464
21.91000 584.965
21.92000 599.032
21.93000 612.951
21.94000 618.528
21.95000 619.280
21.96000 620.006
21.97000 621.735
21.98000 623.734
21.99000 625.639
22.00000 626.576
22.01000 627.258
22.02000 628.911
22.03000 636.603
22.04000 645.338
22.05000 652.473
22.06000 648.966
22.07000 645.179
22.08000 640.994
22.09000 635.732
22.10000 630.409
22.11000 628.832
22.12000 634.141
22.13000 639.599
22.14000 642.605
22.15000 658.582
22.16000 669.576
22.17000 669.895
22.18000 661.798
22.19000 653.681
22.20000 644.697
22.21000 635.258
22.22000 626.216
22.23000 626.126
22.24000 629.020
22.25000 631.206
22.26000 626.977
22.27000 621.211
22.28000 615.529
22.29000 610.310
22.30000 605.162
22.31000 601.045
22.32000 603.095
22.33000 605.211
22.34000 606.705
22.35000 606.660
22.36000 606.544
22.37000 607.596
22.38000 610.600
22.39000 613.635
22.40000 615.227
22.41000 585.728
22.42000 565.836
22.43000 561.259
22.44000 567.604
22.45000 573.718
22.46000 572.469
22.47000 567.693
22.48000 563.158
22.49000 561.021
22.50000 559.769
22.51000 559.055
22.52000 562.649
22.53000 567.176
22.54000 569.946
22.55000 563.900
22.56000 556.639
22.57000 550.960
22.58000 543.428
22.59000 537.297
22.60000 535.271
22.61000 542.484
22.62000 550.046
22.63000 553.880
22.64000 552.053
22.65000 550.167
22.66000 546.876
22.67000 542.192
22.68000 537.455
22.69000 527.948
22.70000 515.357
22.71000 503.158
22.72000 500.919
22.73000 503.027
22.74000 505.010
22.75000 506.044
22.76000 506.732
22.77000 507.589
22.78000 509.637
22.79000 511.918
22.80000 514.178
22.81000 516.339
22.82000 518.489
22.83000 520.130
22.84000 529.621
22.85000 537.525
22.86000 541.928
22.87000 539.153
22.88000 536.164
22.89000 525.023
22.90000 502.665
22.91000 480.249
22.92000 477.753
22.93000 492.945
22.94000 507.987
22.95000 513.980
22.96000 514.658
22.97000 515.301
22.98000 515.197
22.99000 514.796
23.00000 514.424
23.01000 506.848
23.02000 498.257
23.03000 491.945
23.04000 500.061
23.05000 510.711
23.06000 517.507
23.07000 508.500
23.08000 497.792
23.09000 489.821
23.10000 486.859
23.11000 484.780
23.12000 486.963
23.13000 497.103
23.14000 507.423
23.15000 507.888
23.16000 496.095
23.17000 484.286
23.18000 486.153
23.19000 498.927
23.20000 511.466
23.21000 513.780
23.22000 510.632
23.23000 507.355
23.24000 501.854
23.25000 495.547
23.26000 489.744
23.27000 492.116
23.28000 496.012
23.29000 499.497
23.30000 500.646
23.31000 501.427
23.32000 501.724
23.33000 500.225
23.34000 498.557
23.35000 497.348
23.36000 504.746
23.37000 510.745
23.38000 512.272
23.39000 506.208
23.40000 500.019
23.41000 500.384
23.42000 508.098
23.43000 515.790
23.44000 512.533
23.45000 501.438
23.46000 490.464
23.47000 483.527
23.48000 478.552
23.49000 474.198
23.50000 478.877
23.51000 486.535
23.52000 493.494
23.53000 487.979
23.54000 480.680
23.55000 475.363
23.56000 480.166
23.57000 486.389
23.58000 491.307
23.59000 491.814
23.60000 491.962
23.61000 492.066
23.62000 490.705
23.63000 489.630
23.64000 487.817
23.65000 484.865
23.66000 481.901
23.67000 483.655
23.68000 490.159
23.69000 496.623
23.70000 499.605
23.71000 500.290
23.72000 500.821
23.73000 497.328
23.74000 492.051
23.75000 487.111
23.76000 486.387
23.77000 486.928
23.78000 487.412
23.79000 485.709
23.80000 483.840
23.81000 483.581
23.82000 490.730
23.83000 498.803
23.84000 505.002
23.85000 505.448
23.86000 505.490
23.87000 505.519
23.88000 503.790
23.89000 502.457
23.90000 500.553
23.91000 497.852
23.92000 495.147
23.93000 494.180
23.94000 494.784
23.95000 495.381
23.96000 489.949
23.97000 481.110
23.98000 472.823
23.99000 476.362
24.00000 484.675
24.01000 491.445
24.02000 481.523
24.03000 467.052
24.04000 454.265
24.05000 460.836
24.06000 469.500
24.07000 477.094
24.08000 480.237
24.09000 482.890
24.10000 483.696
24.11000 479.340
24.12000 474.679
24.13000 471.603
24.14000 476.146
24.15000 479.629
24.16000 479.834
24.17000 475.891
24.18000 471.949
24.19000 473.675
24.20000 480.021
24.21000 486.278
24.22000 479.681
24.23000 466.494
24.24000 454.168
24.25000 457.092
24.26000 465.624
24.27000 473.537
24.28000 475.602
24.29000 476.221
24.30000 476.759
24.31000 474.947
24.32000 473.079
24.33000 471.250
24.34000 469.565
24.35000 467.895
24.36000 464.741
24.37000 457.809
24.38000 450.690
24.39000 446.157
24.40000 473.549
24.41000 493.865
24.42000 500.168
24.43000 490.489
24.44000 480.817
24.45000 475.269
24.46000 472.760
24.47000 470.298
24.48000 470.579
24.49000 472.154
24.50000 473.794
24.51000 476.413
24.52000 479.359
24.53000 482.402
24.54000 486.243
24.55000 490.263
24.56000 493.703
24.57000 491.358
24.58000 488.682
24.59000 486.875
24.60000 488.049
24.61000 489.473
24.62000 488.609
24.63000 482.440
24.64000 476.057
24.65000 472.142
24.66000 478.790
24.67000 483.641
24.68000 483.815
24.69000 479.192
24.70000 474.601
24.71000 473.195
24.72000 473.916
24.73000 474.619
24.74000 479.417
24.75000 485.759
24.76000 491.460
24.77000 488.945
24.78000 483.928
24.79000 479.931
24.80000 483.453
24.81000 488.493
24.82000 492.730
24.83000 486.504
24.84000 480.207
24.85000 474.134
24.86000 468.760
24.87000 463.437
24.88000 461.485
24.89000 466.656
24.90000 472.057
24.91000 475.236
24.92000 480.425
24.93000 484.094
24.94000 484.028
24.95000 480.526
24.96000 477.101
24.97000 478.833
24.98000 483.688
24.99000 488.392
25.00000 480.743
25.01000 468.712
25.02000 457.866
25.03000 460.123
25.04000 466.007
25.05000 472.249
25.06000 480.839
25.07000 489.857
25.08000 497.294
25.09000 498.367
25.10000 498.662
25.11000 495.513
25.12000 482.592
25.13000 469.075
25.14000 461.385
25.15000 464.905
25.16000 468.706
25.17000 470.846
25.18000 465.729
25.19000 462.161
25.20000 461.097
25.21000 462.109
25.22000 463.171
25.23000 466.640
25.24000 471.435
25.25000 476.046
25.26000 468.630
25.27000 457.471
25.28000 447.767
25.29000 452.099
25.30000 459.956
25.31000 465.629
25.32000 458.476
25.33000 449.229
25.34000 441.756
25.35000 448.216
25.36000 454.585
25.37000 460.992
25.38000 467.498
25.39000 474.010
25.40000 478.030
25.41000 477.689
25.42000 477.267
25.43000 477.041
25.44000 461.954
25.45000 451.681
25.46000 450.759
25.47000 456.837
25.48000 462.732
25.49000 462.044
25.50000 458.055
25.51000 454.251
25.52000 458.066
25.53000 464.008
25.54000 469.052
25.55000 466.473
25.56000 462.161
25.57000 457.444
25.58000 450.590
25.59000 443.424
25.60000 437.757
25.61000 449.549
25.62000 460.220
25.63000 466.757
25.64000 463.556
25.65000 459.947
25.66000 459.092
25.67000 462.616
25.68000 466.196
25.69000 468.024
25.70000 474.065
25.71000 478.039
25.72000 472.840
25.73000 461.424
25.74000 450.270
25.75000 446.559
25.76000 446.246
25.77000 445.951
25.78000 452.920
25.79000 461.382
25.80000 468.669
25.81000 467.133
25.82000 463.785
25.83000 460.776
25.84000 459.385
25.85000 458.203
25.86000 457.290
25.87000 457.939
25.88000 458.545
25.89000 459.146
25.90000 459.734
25.91000 460.321
25.92000 461.555
25.93000 463.720
25.94000 465.892
25.95000 465.503
25.96000 462.718
25.97000 459.901
25.98000 454.734
25.99000 448.123
26.00000 441.893
26.01000 444.371
26.02000 450.470
26.03000 456.176
26.04000 460.388
26.05000 463.833
26.06000 467.407
26.07000 471.835
26.08000 476.422
26.09000 477.481
26.10000 463.368
26.11000 447.517
26.12000 435.569
26.13000 435.170
26.14000 435.426
26.15000 436.095
26.16000 437.575
26.17000 439.076
26.18000 443.444
26.19000 451.557
26.20000 459.678
26.21000 464.023
26.22000 465.185
26.23000 466.283
26.24000 464.173
26.25000 460.269
26.26000 456.287
26.27000 450.835
26.28000 444.826
26.29000 439.267
26.30000 442.303
26.31000 447.001
26.32000 450.753
26.33000 448.844
26.34000 445.994
26.35000 445.008
26.36000 451.285
26.37000 458.292
26.38000 463.437
26.39000 456.328
26.40000 450.336
26.41000 447.881
26.42000 451.714
26.43000 455.670
26.44000 454.205
26.45000 446.345
26.46000 438.495
26.47000 435.964
26.48000 437.470
26.49000 438.969
26.50000 440.219
26.51000 441.341
26.52000 441.936
26.53000 434.195
26.54000 423.578
26.55000 413.871
26.56000 425.636
26.57000 440.500
26.58000 451.701
26.59000 443.228
26.60000 431.834
26.61000 422.554
26.62000 420.747
26.63000 419.595
26.64000 418.773
26.65000 433.739
26.66000 445.677
26.67000 452.167
26.68000 449.856
26.69000 447.426
26.70000 443.908
26.71000 439.235
26.72000 434.586
26.73000 436.247
26.74000 442.185
26.75000 447.859
26.76000 445.798
26.77000 440.152
26.78000 434.417
26.79000 427.483
26.80000 420.173
26.81000 413.576
26.82000 418.489
26.83000 424.917
26.84000 430.806
26.85000 434.081
26.86000 437.011
26.87000 438.078
26.88000 433.155
26.89000 427.779
26.90000 424.055
26.91000 423.392
26.92000 422.973
26.93000 424.157
26.94000 427.691
26.95000 431.246
26.96000 437.406
26.97000 446.046
26.98000 454.617
26.99000 459.608
27.00000 462.312
27.01000 464.642
27.02000 458.132
27.03000 447.890
27.04000 438.194
27.05000 434.817
27.06000 433.246
27.07000 431.847
27.08000 437.358
27.09000 443.275
27.10000 447.697
27.11000 445.580
27.12000 442.699
27.13000 441.322
27.14000 444.344
27.15000 447.650
27.16000 449.867
27.17000 447.971
27.18000 446.480
27.19000 445.382
27.20000 444.807
27.21000 444.232
27.22000 442.103
27.23000 438.643
27.24000 435.224
27.25000 437.429
27.26000 442.696
27.27000 447.717
27.28000 447.978
27.29000 446.409
27.30000 445.175
27.31000 447.319
27.32000 450.338
27.33000 452.985
27.34000 455.865
27.35000 458.372
27.36000 457.888
27.37000 445.568
27.38000 432.031
27.39000 422.835
27.40000 425.198
27.41000 428.188
27.42000 430.125
27.43000 425.840
27.44000 422.610
27.45000 418.914
27.46000 414.657
27.47000 410.430
27.48000 413.699
27.49000 422.764
27.50000 431.679
27.51000 433.918
27.52000 432.744
27.53000 431.527
27.54000 429.594
27.55000 427.411
27.56000 425.286
27.57000 423.673
27.58000 422.182
27.59000 420.895
27.60000 418.884
27.61000 417.085
27.62000 416.434
27.63000 419.904
27.64000 423.745
27.65000 425.296
27.66000 421.292
27.67000 417.039
27.68000 414.383
27.69000 416.909
27.70000 418.786
27.71000 420.267
27.72000 421.320
27.73000 422.350
27.74000 420.308
27.75000 416.117
27.76000 412.017
27.77000 415.650
27.78000 422.626
27.79000 429.177
27.80000 429.876
27.81000 428.708
27.82000 427.285
27.83000 423.874
27.84000 420.040
27.85000 416.788
27.86000 414.135
27.87000 411.978
27.88000 411.885
27.89000 418.524
27.90000 425.685
27.91000 430.747
27.92000 431.171
27.93000 431.426
27.94000 431.580
27.95000 419.217
27.96000 410.346
27.97000 407.335
27.98000 410.001
27.99000 412.707
28.00000 418.730
28.01000 426.856
28.02000 434.756
28.03000 431.547
28.04000 423.968
28.05000 417.062
28.06000 418.124
28.07000 421.497
28.08000 423.953
28.09000 420.053
28.10000 414.936
28.11000 410.675
28.12000 416.006
28.13000 421.370
28.14000 426.971
28.15000 433.277
28.16000 439.630
28.17000 442.267
28.18000 437.421
28.19000 432.363
28.20000 429.451
28.21000 432.036
28.22000 433.866
28.23000 435.517
28.24000 437.012
28.25000 438.423
28.26000 435.158
28.27000 429.196
28.28000 423.441
28.29000 423.809
28.30000 426.409
28.31000 428.672
28.32000 427.470
28.33000 425.357
28.34000 422.934
28.35000 418.599
28.36000 413.935
28.37000 410.127
28.38000 415.044
28.39000 419.817
28.40000 422.028
28.41000 417.314
28.42000 412.213
28.43000 408.408
28.44000 406.979
28.45000 405.601
28.46000 404.843
28.47000 416.444
28.48000 424.426
28.49000 424.466
28.50000 418.263
28.51000 412.171
28.52000 410.664
28.53000 411.563
28.54000 412.424
28.55000 414.529
28.56000 416.903
28.57000 419.091
28.58000 419.588
28.59000 419.681
28.60000 419.138
28.61000 415.053
28.62000 410.423
28.63000 406.722
28.64000 409.303
28.65000 411.853
28.66000 413.175
28.67000 411.470
28.68000 409.626
28.69000 412.423
28.70000 422.958
28.71000 433.611
28.72000 439.190
28.73000 428.901
28.74000 421.961
28.75000 419.715
28.76000 420.808
28.77000 421.769
28.78000 418.550
28.79000 413.336
28.80000 408.385
28.81000 409.452
28.82000 412.234
28.83000 414.443
28.84000 412.080
28.85000 408.731
28.86000 406.306
28.87000 408.507
28.88000 411.342
28.89000 413.558
28.90000 409.477
28.91000 405.820
28.92000 404.093
28.93000 406.693
28.94000 409.455
28.95000 410.122
28.96000 407.617
28.97000 405.079
28.98000 403.303
28.99000 402.277
29.00000 401.232
29.01000 398.473
29.02000 394.608
29.03000 390.841
29.04000 389.527
29.05000 389.280
29.06000 389.048
29.07000 399.697
29.08000 412.347
29.09000 422.909
29.10000 418.707
29.11000 411.630
29.12000 406.069
29.13000 407.353
29.14000 409.470
29.15000 411.086
29.16000 402.154
29.17000 394.552
29.18000 391.914
29.19000 399.422
29.20000 407.231
29.21000 409.785
29.22000 405.132
29.23000 400.437
29.24000 400.004
29.25000 403.343
29.26000 406.708
29.27000 411.643
29.28000 417.498
29.29000 423.031
29.30000 421.946
29.31000 418.236
29.32000 414.785
29.33000 408.630
29.34000 402.418
29.35000 396.605
29.36000 393.314
29.37000 390.466
29.38000 389.899
29.39000 398.657
29.40000 408.415
29.41000 415.672
29.42000 411.785
29.43000 408.263
29.44000 404.247
29.45000 399.308
29.46000 394.349
29.47000 389.926
29.48000 386.169
29.49000 382.420
29.50000 388.343
29.51000 401.935
29.52000 415.220
29.53000 415.288
29.54000 408.314
29.55000 401.719
29.56000 401.626
29.57000 403.881
29.58000 405.955
29.59000 395.519
29.60000 383.485
29.61000 374.456
29.62000 382.412
29.63000 393.034
29.64000 402.388
29.65000 407.045
29.66000 411.262
29.67000 414.314
29.68000 409.868
29.69000 406.180
29.70000 403.428
29.71000 402.261
29.72000 401.119
29.73000 402.103
29.74000 405.462
29.75000 408.811
29.76000 404.447
29.77000 394.599
29.78000 385.133
29.79000 388.271
29.80000 397.521
29.81000 406.309
29.82000 408.390
29.83000 408.265
29.84000 408.152
29.85000 406.899
29.86000 405.571
29.87000 403.888
29.88000 400.402
29.89000 396.665
29.90000 395.571
29.91000 403.375
29.92000 411.902
29.93000 417.897
29.94000 421.213
29.95000 423.647
29.96000 420.486
29.97000 408.725
29.98000 396.869
29.99000 393.895
30.00000 399.838
30.01000 405.743
30.02000 407.163
30.03000 405.667
30.04000 404.291
30.05000 406.060
30.06000 409.220
30.07000 412.145
30.08000 412.161
30.09000 411.307
30.10000 410.541
30.11000 415.382
30.12000 420.580
30.13000 424.614
30.14000 423.310
30.15000 421.342
30.16000 419.176
30.17000 416.398
30.18000 413.579
30.19000 411.657
30.20000 411.563
30.21000 411.535
30.22000 411.931
30.23000 412.917
30.24000 413.910
30.25000 418.651
30.26000 426.770
30.27000 434.808
30.28000 427.820
30.29000 412.232
30.30000 397.271
30.31000 395.655
30.32000 399.409
30.33000 402.966
30.34000 404.397
30.35000 405.250
30.36000 406.004
30.37000 414.898
30.38000 423.828
30.39000 428.803
30.40000 417.350
30.41000 404.099
30.42000 395.707
30.43000 400.860
30.44000 406.812
30.45000 410.735
30.46000 395.825
30.47000 384.509
30.48000 384.351
30.49000 398.260
30.50000 412.186
30.51000 414.855
30.52000 408.380
30.53000 401.997
30.54000 399.669
30.55000 399.538
30.56000 399.774
30.57000 406.475
30.58000 415.546
30.59000 423.510
30.60000 421.059
30.61000 416.041
30.62000 411.677
30.63000 411.727
30.64000 412.372
30.65000 412.465
30.66000 410.488
30.67000 408.311
30.68000 409.601
30.69000 419.694
30.70000 430.220
30.71000 436.916
30.72000 418.723
30.73000 405.193
30.74000 398.927
30.75000 400.919
30.76000 402.948
30.77000 410.096
30.78000 421.002
30.79000 431.699
30.80000 436.278
30.81000 437.786
30.82000 439.207
30.83000 439.328
30.84000 439.016
30.85000 438.765
30.86000 439.033
30.87000 439.415
30.88000 439.743
30.89000 442.794
30.90000 445.695
30.91000 448.647
30.92000 451.777
30.93000 454.922
30.94000 459.573
30.95000 467.707
30.96000 475.981
30.97000 481.048
30.98000 488.885
30.99000 494.519
31.00000 504.080
31.01000 517.652
31.02000 531.272
31.03000 549.653
31.04000 571.202
31.05000 592.216
31.06000 603.540
31.07000 610.203
31.08000 618.354
31.09000 645.454
31.10000 678.309
31.11000 711.844
31.12000 750.373
31.13000 789.908
31.14000 823.123
31.15000 850.184
31.16000 872.080
31.17000 903.103
31.18000 962.501
31.19000 1023.930
31.20000 1084.001
31.21000 1141.215
31.22000 1198.337
31.23000 1231.918
31.24000 1313.724
31.25000 1371.652
31.26000 1415.850
31.27000 1447.460
31.28000 1479.266
31.29000 1524.105
31.30000 1576.818
31.31000 1627.879
31.32000 1657.644
31.33000 1677.572
31.34000 1697.293
31.35000 1714.733
31.36000 1731.544
31.37000 1746.346
31.38000 1748.012
31.39000 1747.296
31.40000 1746.705
31.41000 1748.661
31.42000 1750.506
31.43000 1747.275
31.44000 1729.683
31.45000 1711.219
31.46000 1689.196
31.47000 1660.341
31.48000 1631.317
31.49000 1614.988
31.50000 1537.579
31.51000 1483.683
31.52000 1426.737
31.53000 1367.271
31.54000 1307.983
31.55000 1257.143
31.56000 1210.942
31.57000 1166.524
31.58000 1118.065
31.59000 1071.253
31.60000 1023.909
31.61000 971.454
31.62000 917.719
31.63000 866.531
31.64000 830.257
31.65000 796.408
31.66000 769.071
31.67000 735.087
31.68000 706.931
31.69000 681.633
31.70000 663.706
31.71000 646.152
31.72000 628.709
31.73000 611.458
31.74000 594.210
31.75000 584.956
31.76000 574.283
31.77000 566.962
31.78000 553.070
31.79000 534.275
31.80000 515.713
31.81000 505.489
31.82000 499.433
31.83000 493.658
31.84000 482.564
31.85000 470.602
31.86000 460.341
31.87000 464.462
31.88000 471.845
31.89000 474.660
31.90000 453.443
31.91000 428.734
31.92000 409.208
31.93000 416.951
31.94000 425.034
31.95000 428.712
31.96000 422.051
31.97000 414.959
31.98000 409.593
31.99000 406.967
32.00000 404.375
32.01000 403.053
32.02000 409.230
32.03000 413.350
32.04000 414.841
32.05000 414.553
32.06000 414.169
32.07000 411.085
32.08000 406.771
32.09000 402.696
32.10000 403.495
32.11000 405.608
32.12000 407.003
32.13000 403.025
32.14000 397.947
32.15000 392.446
32.16000 384.939
32.17000 377.173
32.18000 371.177
32.19000 374.944
32.20000 378.500
32.21000 380.995
32.22000 381.221
32.23000 381.373
32.24000 382.962
32.25000 386.621
32.26000 390.296
32.27000 385.920
32.28000 374.040
32.29000 362.371
32.30000 365.622
32.31000 378.028
32.32000 389.976
32.33000 391.548
32.34000 388.817
32.35000 386.263
32.36000 386.454
32.37000 387.327
32.38000 387.586
32.39000 383.749
32.40000 379.157
32.41000 376.012
32.42000 379.070
32.43000 382.835
32.44000 385.672
32.45000 372.701
32.46000 361.777
32.47000 357.552
32.48000 366.378
32.49000 375.542
32.50000 379.705
32.51000 377.355
32.52000 374.980
32.53000 373.792
32.54000 373.603
32.55000 373.431
32.56000 374.150
32.57000 375.366
32.58000 376.196
32.59000 369.825
32.60000 360.733
32.61000 352.323
32.62000 352.668
32.63000 354.978
32.64000 356.541
32.65000 353.653
32.66000 350.028
32.67000 348.924
32.68000 357.615
32.69000 367.287
32.70000 374.382
32.71000 365.913
32.72000 358.740
32.73000 358.022
32.74000 368.746
32.75000 379.690
32.76000 382.637
32.77000 376.181
32.78000 369.727
32.79000 367.613
32.80000 368.784
32.81000 370.106
32.82000 377.085
32.83000 386.936
32.84000 395.892
32.85000 390.812
32.86000 380.901
32.87000 371.844
32.88000 364.832
32.89000 359.021
32.90000 355.068
32.91000 361.053
32.92000 368.510
32.93000 373.954
32.94000 372.306
32.95000 370.039
32.96000 368.422
32.97000 374.299
32.98000 379.026
32.99000 382.273
33.00000 383.134
33.01000 383.964
33.02000 380.141
33.03000 371.396
33.04000 362.694
33.05000 356.890
33.06000 353.120
33.07000 349.508
33.08000 350.513
33.09000 353.651
33.10000 356.509
33.11000 355.629
33.12000 353.579
33.13000 351.729
33.14000 348.577
33.15000 345.571
33.16000 342.943
33.17000 342.144
33.18000 341.585
33.19000 340.927
33.20000 339.951
33.21000 338.950
33.22000 338.258
33.23000 346.119
33.24000 352.255
33.25000 354.545
33.26000 351.213
33.27000 347.832
33.28000 345.660
33.29000 344.636
33.30000 343.619
33.31000 337.046
33.32000 327.191
33.33000 317.900
33.34000 321.851
33.35000 331.378
33.36000 340.629
33.37000 346.696
33.38000 351.855
33.39000 356.446
33.40000 350.994
33.41000 344.625
33.42000 338.161
33.43000 331.285
33.44000 324.361
33.45000 319.162
33.46000 318.993
33.47000 319.147
33.48000 319.251
33.49000 325.109
33.50000 329.572
33.51000 332.831
33.52000 334.495
33.53000 336.156
33.54000 340.736
33.55000 347.808
33.56000 354.795
33.57000 350.062
33.58000 338.975
33.59000 328.451
33.60000 328.776
33.61000 333.264
33.62000 337.171
33.63000 335.242
33.64000 331.804
33.65000 328.792
33.66000 326.005
33.67000 323.646
33.68000 322.036
33.69000 323.384
33.70000 325.033
33.71000 325.718
33.72000 323.839
33.73000 321.821
33.74000 320.515
33.75000 332.458
33.76000 341.391
33.77000 340.859
33.78000 329.009
33.79000 317.168
33.80000 312.868
33.81000 314.382
33.82000 315.870
33.83000 323.304
33.84000 333.461
33.85000 342.683
33.86000 336.836
33.87000 325.724
33.88000 315.843
33.89000 316.794
33.90000 320.282
33.91000 323.290
33.92000 328.207
33.93000 332.621
33.94000 336.105
33.95000 336.257
33.96000 336.111
33.97000 334.587
33.98000 329.729
33.99000 324.723
34.00000 321.599
34.01000 328.960
34.02000 334.377
34.03000 331.280
34.04000 319.016
34.05000 306.843
34.06000 306.744
34.07000 315.067
34.08000 323.208
34.09000 322.956
34.10000 318.936
34.11000 315.427
34.12000 318.922
34.13000 324.644
34.14000 329.806
34.15000 330.614
34.16000 330.501
34.17000 330.406
34.18000 329.104
34.19000 327.877
34.20000 327.801
34.21000 331.471
34.22000 335.430
34.23000 335.984
34.24000 329.034
34.25000 321.814
34.26000 317.484
34.27000 320.563
34.28000 322.800
34.29000 324.231
34.30000 324.885
34.31000 325.497
34.32000 322.682
34.33000 317.699
34.34000 312.856
34.35000 314.561
34.36000 318.842
34.37000 322.541
34.38000 319.373
34.39000 314.219
34.40000 310.042
34.41000 312.620
34.42000 316.487
34.43000 319.704
34.44000 316.877
34.45000 313.940
34.46000 312.123
34.47000 313.620
34.48000 315.335
34.49000 318.890
34.50000 326.137
34.51000 333.489
34.52000 337.716
34.53000 322.620
34.54000 311.995
34.55000 306.458
34.56000 305.340
34.57000 304.318
34.58000 308.629
34.59000 316.006
34.60000 323.125
34.61000 326.796
34.62000 328.987
34.63000 330.921
34.64000 330.211
34.65000 328.808
34.66000 326.664
34.67000 319.942
34.68000 312.436
34.69000 306.312
34.70000 310.019
34.71000 313.892
34.72000 316.845
34.73000 317.316
34.74000 317.650
34.75000 317.448
34.76000 316.265
34.77000 315.061
34.78000 314.400
34.79000 318.091
34.80000 320.633
34.81000 321.777
34.82000 321.825
34.83000 321.780
34.84000 317.912
34.85000 312.043
34.86000 306.425
34.87000 310.328
34.88000 317.114
34.89000 323.569
34.90000 327.057
34.91000 329.838
34.92000 331.520
34.93000 327.117
34.94000 321.779
34.95000 317.515
34.96000 318.589
34.97000 319.850
34.98000 319.886
34.99000 316.910
35.00000 313.797
35.01000 312.676
35.02000 314.867
35.03000 317.109
35.04000 318.282
35.05000 313.645
35.06000 310.522
35.07000 309.632
35.08000 310.326
35.09000 310.983
35.10000 310.498
35.11000 309.469
35.12000 308.491
35.13000 311.231
35.14000 314.866
35.15000 318.094
35.16000 318.085
35.17000 317.381
35.18000 315.460
35.19000 307.480
35.20000 298.671
35.21000 291.790
35.22000 294.083
35.23000 296.490
35.24000 298.614
35.25000 300.105
35.26000 301.572
35.27000 304.396
35.28000 309.269
35.29000 314.162
35.30000 316.964
35.31000 317.710
35.32000 318.398
35.33000 314.109
35.34000 306.621
35.35000 299.566
35.36000 303.388
35.37000 311.930
35.38000 319.959
35.39000 323.761
35.40000 326.099
35.41000 327.729
35.42000 324.375
35.43000 320.054
35.44000 315.697
35.45000 311.176
35.46000 306.636
35.47000 303.174
35.48000 304.450
35.49000 305.707
35.50000 307.010
35.51000 308.406
35.52000 309.806
35.53000 308.414
35.54000 303.207
35.55000 297.980
35.56000 296.171
35.57000 297.379
35.58000 298.633
35.59000 302.553
35.60000 308.029
35.61000 313.155
35.62000 311.090
35.63000 306.183
35.64000 301.618
35.65000 300.310
35.66000 299.911
35.67000 300.276
35.68000 305.437
35.69000 311.434
35.70000 316.680
35.71000 318.863
35.72000 320.719
35.73000 322.098
35.74000 311.499
35.75000 302.727
35.76000 298.147
35.77000 301.350
35.78000 304.727
35.79000 302.884
35.80000 294.588
35.81000 286.289
35.82000 287.909
35.83000 297.385
35.84000 306.701
35.85000 309.081
35.86000 307.778
35.87000 306.578
35.88000 307.137
35.89000 308.329
35.90000 309.424
35.91000 309.768
35.92000 309.913
35.93000 310.165
35.94000 311.020
35.95000 311.971
35.96000 312.039
35.97000 308.849
35.98000 305.355
35.99000 302.828
36.00000 302.400
36.01000 302.149
36.02000 301.066
36.03000 298.581
36.04000 296.074
36.05000 296.484
36.06000 300.144
36.07000 303.794
36.08000 303.068
36.09000 299.226
36.10000 295.567
36.11000 297.931
36.12000 303.208
36.13000 308.016
36.14000 306.068
36.15000 301.904
36.16000 298.124
36.17000 299.255
36.18000 301.202
36.19000 302.233
36.20000 298.620
36.21000 294.358
36.22000 291.786
36.23000 294.886
36.24000 298.446
36.25000 300.945
36.26000 303.967
36.27000 306.270
36.28000 305.982
36.29000 301.721
36.30000 297.418
36.31000 294.928
36.32000 294.252
36.33000 293.580
36.34000 292.308
36.35000 290.668
36.36000 289.109
36.37000 289.649
36.38000 291.113
36.39000 292.409
36.40000 291.620
36.41000 290.209
36.42000 288.945
36.43000 295.244
36.44000 302.047
36.45000 306.515
36.46000 300.297
36.47000 292.757
36.48000 288.528
36.49000 294.409
36.50000 300.992
36.51000 305.473
36.52000 302.956
36.53000 300.916
36.54000 295.173
36.55000 284.283
36.56000 273.367
36.57000 273.816
36.58000 284.477
36.59000 295.031
36.60000 299.320
36.61000 299.881
36.62000 300.352
36.63000 298.913
36.64000 296.706
36.65000 295.070
36.66000 299.550
36.67000 305.687
36.68000 311.105
36.69000 305.292
36.70000 298.553
36.71000 293.323
36.72000 294.337
36.73000 296.033
36.74000 297.378
36.75000 297.752
36.76000 298.069
36.77000 298.278
36.78000 290.488
36.79000 284.612
36.80000 283.577
36.81000 288.625
36.82000 293.682
36.83000 294.657
36.84000 292.327
36.85000 290.031
36.86000 292.739
36.87000 297.990
36.88000 303.042
36.89000 304.588
36.90000 304.854
36.91000 304.607
36.92000 299.566
36.93000 293.348
36.94000 287.942
36.95000 294.076
36.96000 300.876
36.97000 305.944
36.98000 304.514
36.99000 302.464
37.00000 301.915
37.01000 305.167
37.02000 308.604
37.03000 310.789
37.04000 304.944
37.05000 300.600
37.06000 300.126
37.07000 304.040
37.08000 307.930
37.09000 307.020
37.10000 302.596
37.11000 298.257
37.12000 293.918
37.13000 289.739
37.14000 285.851
37.15000 286.261
37.16000 288.103
37.17000 290.472
37.18000 297.202
37.19000 304.901
37.20000 311.482
37.21000 300.635
37.22000 289.405
37.23000 280.807
37.24000 281.182
37.25000 282.300
37.26000 283.233
37.27000 283.740
37.28000 284.229
37.29000 284.529
37.30000 287.368
37.31000 289.421
37.32000 289.413
37.33000 287.307
37.34000 285.172
37.35000 280.193
37.36000 273.328
37.37000 266.635
37.38000 270.714
37.39000 279.208
37.40000 287.171
37.41000 288.406
37.42000 287.603
37.43000 287.124
37.44000 289.013
37.45000 291.378
37.46000 293.363
37.47000 292.486
37.48000 291.455
37.49000 288.413
37.50000 279.137
37.51000 269.417
37.52000 265.526
37.53000 273.880
37.54000 282.624
37.55000 287.758
37.56000 286.557
37.57000 285.678
37.58000 282.513
37.59000 277.261
37.60000 272.102
37.61000 273.108
37.62000 277.828
37.63000 282.398
37.64000 288.206
37.65000 294.177
37.66000 299.724
37.67000 300.625
37.68000 300.247
37.69000 299.630
37.70000 297.448
37.71000 294.983
37.72000 292.952
37.73000 286.364
37.74000 280.526
37.75000 276.502
37.76000 277.599
37.77000 279.006
37.78000 278.918
37.79000 275.974
37.80000 272.960
37.81000 271.266
37.82000 269.480
37.83000 268.250
37.84000 271.621
37.85000 278.778
37.86000 285.764
37.87000 284.679
37.88000 279.173
37.89000 273.880
37.90000 276.634
37.91000 282.011
37.92000 286.888
37.93000 286.983
37.94000 285.885
37.95000 284.135
37.96000 278.573
37.97000 272.394
37.98000 267.407
37.99000 277.764
38.00000 287.397
38.01000 293.500
38.02000 290.528
38.03000 287.098
38.04000 284.525
38.05000 283.443
38.06000 282.387
38.07000 281.821
38.08000 278.936
38.09000 276.977
38.10000 277.248
38.11000 279.180
38.12000 281.104
38.13000 282.787
38.14000 284.350
38.15000 285.839
38.16000 285.633
38.17000 284.911
38.18000 284.567
38.19000 287.402
38.20000 290.956
38.21000 293.547
38.22000 291.087
38.23000 287.896
38.24000 285.376
38.25000 287.332
38.26000 289.207
38.27000 291.004
38.28000 292.618
38.29000 294.225
38.30000 298.571
38.31000 307.250
38.32000 315.983
38.33000 320.428
38.34000 329.161
38.35000 334.978
38.36000 336.372
38.37000 334.786
38.38000 333.489
38.39000 340.255
38.40000 350.681
38.41000 360.527
38.42000 365.903
38.43000 369.574
38.44000 375.029
38.45000 393.782
38.46000 415.250
38.47000 434.814
38.48000 445.376
38.49000 454.779
38.50000 462.034
38.51000 496.856
38.52000 526.047
38.53000 546.510
38.54000 548.352
38.55000 549.578
38.56000 561.958
38.57000 590.338
38.58000 618.839
38.59000 641.467
38.60000 658.626
38.61000 675.817
38.62000 695.309
38.63000 716.208
38.64000 737.002
38.65000 755.440
38.66000 772.905
38.67000 789.232
38.68000 795.425
38.69000 798.477
38.70000 799.888
38.71000 790.404
38.72000 778.918
38.73000 769.549
38.74000 769.234
38.75000 769.947
38.76000 770.485
38.77000 761.932
38.78000 754.799
38.79000 742.534
38.80000 720.300
38.81000 697.811
38.82000 681.149
38.83000 672.052
38.84000 662.996
38.85000 647.632
38.86000 627.044
38.87000 606.366
38.88000 581.197
38.89000 553.531
38.90000 526.299
38.91000 507.142
38.92000 491.027
38.93000 476.127
38.94000 464.684
38.95000 455.196
38.96000 445.036
38.97000 430.889
38.98000 416.083
38.99000 401.572
39.00000 388.202
39.01000 374.946
39.02000 365.230
39.03000 359.196
39.04000 354.684
39.05000 348.625
39.06000 339.833
39.07000 330.989
39.08000 326.331
39.09000 326.578
39.10000 326.833
39.11000 324.918
39.12000 321.386
39.13000 317.862
39.14000 314.610
39.15000 311.498
39.16000 308.374
39.17000 305.082
39.18000 301.732
39.19000 298.671
39.20000 292.693
39.21000 286.790
39.22000 281.345
39.23000 278.348
39.24000 275.713
39.25000 274.636
39.26000 279.041
39.27000 283.922
39.28000 287.400
39.29000 282.865
39.30000 279.148
39.31000 276.156
39.32000 274.330
39.33000 272.519
39.34000 271.808
39.35000 272.257
39.36000 272.703
39.37000 272.242
39.38000 271.174
39.39000 270.176
39.40000 271.234
39.41000 273.239
39.42000 275.149
39.43000 275.781
39.44000 276.015
39.45000 276.225
39.46000 269.360
39.47000 262.043
39.48000 255.507
39.49000 252.726
39.50000 250.437
39.51000 249.840
39.52000 254.649
39.53000 259.863
39.54000 263.468
39.55000 261.212
39.56000 259.363
39.57000 259.336
39.58000 261.964
39.59000 264.614
39.60000 266.298
39.61000 267.067
39.62000 267.829
39.63000 264.557
39.64000 258.882
39.65000 253.490
39.66000 254.678
39.67000 258.630
39.68000 262.277
39.69000 262.411
39.70000 261.547
39.71000 260.780
39.72000 257.272
39.73000 253.782
39.74000 251.801
39.75000 256.375
39.76000 261.710
39.77000 265.839
39.78000 266.461
39.79000 266.859
39.80000 267.125
39.81000 265.823
39.82000 264.827
39.83000 260.553
39.84000 251.955
39.85000 243.349
39.86000 243.135
39.87000 250.065
39.88000 256.910
39.89000 259.001
39.90000 258.423
39.91000 257.700
39.92000 254.217
39.93000 249.678
39.94000 246.276
39.95000 254.231
39.96000 265.113
39.97000 274.646
39.98000 274.191
39.99000 272.363
40.00000 269.007
40.01000 259.642
40.02000 249.663
40.03000 245.212
40.04000 255.397
40.05000 266.367
40.06000 273.462
40.07000 264.850
40.08000 258.321
40.09000 258.241
40.10000 265.847
40.11000 273.435
40.12000 273.138
40.13000 266.782
40.14000 260.532
40.15000 258.560
40.16000 258.777
40.17000 258.818
40.18000 256.019
40.19000 252.231
40.20000 249.293
40.21000 253.819
40.22000 260.088
40.23000 265.491
40.24000 261.674
40.25000 257.264
40.26000 253.939
40.27000 254.487
40.28000 255.378
40.29000 257.308
40.30000 261.740
40.31000 266.284
40.32000 269.116
40.33000 257.706
40.34000 249.337
40.35000 245.853
40.36000 247.612
40.37000 249.377
40.38000 251.697
40.39000 254.404
40.40000 257.051
40.41000 257.617
40.42000 257.226
40.43000 256.708
40.44000 254.463
40.45000 251.670
40.46000 248.937
40.47000 246.669
40.48000 244.499
40.49000 242.661
40.50000 247.944
40.51000 253.166
40.52000 256.532
40.53000 253.871
40.54000 250.747
40.55000 248.250
40.56000 247.128
40.57000 246.056
40.58000 245.413
40.59000 248.071
40.60000 249.980
40.61000 249.630
40.62000 247.105
40.63000 244.601
40.64000 243.701
40.65000 243.814
40.66000 243.924
40.67000 246.291
40.68000 249.455
40.69000 252.109
40.70000 248.777
40.71000 243.720
40.72000 239.064
40.73000 237.176
40.74000 235.814
40.75000 234.682
40.76000 235.703
40.77000 236.759
40.78000 237.672
40.79000 238.160
40.80000 238.620
40.81000 239.469
40.82000 241.097
40.83000 242.746
40.84000 243.693
40.85000 232.703
40.86000 224.990
40.87000 228.951
40.88000 243.018
40.89000 256.813
40.90000 255.686
40.91000 246.002
40.92000 236.658
40.93000 238.909
40.94000 245.266
40.95000 250.798
40.96000 247.909
40.97000 242.817
40.98000 238.985
40.99000 242.910
41.00000 248.162
41.01000 252.444
41.02000 244.446
41.03000 236.861
41.04000 231.511
41.05000 232.169
41.06000 233.160
41.07000 235.781
41.08000 241.377
41.09000 247.035
41.10000 250.138
41.11000 246.065
41.12000 243.263
41.13000 243.447
41.14000 245.965
41.15000 248.393
41.16000 247.206
41.17000 244.132
41.18000 241.190
41.19000 240.088
41.20000 239.669
41.21000 239.281
41.22000 239.178
41.23000 239.142
41.24000 239.384
41.25000 241.163
41.26000 243.178
41.27000 244.786
41.28000 238.697
41.29000 233.214
41.30000 230.698
41.31000 235.448
41.32000 240.530
41.33000 245.625
41.34000 250.741
41.35000 255.857
41.36000 258.528
41.37000 244.181
41.38000 234.520
41.39000 231.573
41.40000 233.373
41.41000 235.138
41.42000 235.782
41.43000 235.894
41.44000 236.001
41.45000 235.123
41.46000 234.020
41.47000 233.107
41.48000 233.685
41.49000 234.584
41.50000 235.999
41.51000 239.982
41.52000 244.315
41.53000 247.696
41.54000 247.144
41.55000 246.456
41.56000 243.680
41.57000 236.241
41.58000 228.630
41.59000 225.106
41.60000 227.729
41.61000 230.413
41.62000 232.345
41.63000 233.541
41.64000 234.702
41.65000 232.845
41.66000 229.053
41.67000 225.410
41.68000 225.481
41.69000 227.160
41.70000 228.738
41.71000 231.409
41.72000 234.140
41.73000 236.806
41.74000 239.023
41.75000 241.152
41.76000 242.286
41.77000 238.951
41.78000 235.076
41.79000 232.124
41.80000 229.759
41.81000 227.929
41.82000 225.695
41.83000 222.644
41.84000 219.568
41.85000 219.915
41.86000 224.929
41.87000 229.967
41.88000 233.772
41.89000 236.487
41.90000 239.221
41.91000 242.999
41.92000 247.386
41.93000 251.313
41.94000 245.869
41.95000 236.730
41.96000 228.234
41.97000 230.133
41.98000 234.342
41.99000 237.911
42.00000 237.469
42.01000 236.330
42.02000 235.512
42.03000 236.004
42.04000 236.635
42.05000 237.103
42.06000 234.226
42.07000 231.843
42.08000 231.308
42.09000 234.195
42.10000 237.158
42.11000 238.035
42.12000 236.341
42.13000 234.642
42.14000 233.194
42.15000 231.949
42.16000 230.787
42.17000 233.179
42.18000 237.452
42.19000 241.236
42.20000 236.724
42.21000 229.232
42.22000 222.347
42.23000 224.395
42.24000 228.146
42.25000 231.677
42.26000 233.970
42.27000 236.071
42.28000 237.075
42.29000 234.042
42.30000 230.633
42.31000 228.170
42.32000 236.676
42.33000 243.598
42.34000 246.695
42.35000 243.355
42.36000 239.912
42.37000 238.220
42.38000 238.473
42.39000 238.727
42.40000 238.064
42.41000 236.755
42.42000 235.397
42.43000 232.436
42.44000 228.701
42.45000 225.088
42.46000 223.225
42.47000 221.935
42.48000 220.763
42.49000 217.101
42.50000 213.388
42.51000 211.271
42.52000 217.220
42.53000 224.290
42.54000 229.868
42.55000 230.455
42.56000 230.639
42.57000 230.769
42.58000 229.266
42.59000 228.082
42.60000 228.861
42.61000 232.642
42.62000 236.456
42.63000 235.931
42.64000 231.080
42.65000 226.262
42.66000 228.389
42.67000 234.940
42.68000 241.138
42.69000 238.258
42.70000 231.391
42.71000 225.151
42.72000 226.632
42.73000 230.410
42.74000 233.793
42.75000 231.937
42.76000 229.417
42.77000 226.085
42.78000 219.046
42.79000 211.550
42.80000 207.569
42.81000 214.286
42.82000 221.741
42.83000 226.812
42.84000 222.259
42.85000 218.641
42.86000 218.014
42.87000 221.530
42.88000 225.072
42.89000 227.474
42.90000 228.854
42.91000 230.221
42.92000 226.663
42.93000 220.334
42.94000 214.265
42.95000 213.659
42.96000 215.239
42.97000 216.972
42.98000 220.332
42.99000 224.132
43.00000 227.485
43.01000 230.584
43.02000 233.219
43.03000 234.287
43.04000 228.892
43.05000 222.795
43.06000 218.778
43.07000 220.527
43.08000 222.613
43.09000 223.985
43.10000 221.127
43.11000 218.950
43.12000 218.171
43.13000 219.142
43.14000 220.118
43.15000 220.742
43.16000 221.083
43.17000 221.419
43.18000 225.305
43.19000 230.932
43.20000 236.181
43.21000 234.834
43.22000 231.081
43.23000 227.322
43.24000 223.491
43.25000 219.643
43.26000 216.300
43.27000 220.084
43.28000 224.275
43.29000 228.394
43.30000 232.250
43.31000 236.081
43.32000 237.414
43.33000 232.440
43.34000 227.159
43.35000 223.807
43.36000 223.108
43.37000 222.633
43.38000 220.690
43.39000 217.087
43.40000 213.512
43.41000 214.738
43.42000 219.467
43.43000 224.105
43.44000 226.346
43.45000 227.374
43.46000 228.043
43.47000 223.421
43.48000 217.044
43.49000 211.929
43.50000 217.200
43.51000 224.772
43.52000 231.243
43.53000 229.510
43.54000 227.072
43.55000 226.501
43.56000 232.274
43.57000 238.571
43.58000 240.053
43.59000 230.463
43.60000 220.432
43.61000 214.304
43.62000 215.528
43.63000 216.464
43.64000 218.807
43.65000 222.579
43.66000 226.335
43.67000 228.563
43.68000 229.780
43.69000 230.967
43.70000 227.440
43.71000 222.067
43.72000 217.065
43.73000 216.735
43.74000 217.816
43.75000 219.793
43.76000 228.304
43.77000 238.122
43.78000 246.361
43.79000 236.620
43.80000 226.630
43.81000 218.948
43.82000 218.402
43.83000 218.361
43.84000 218.645
43.85000 219.608
43.86000 220.592
43.87000 221.169
43.88000 221.035
43.89000 220.938
43.90000 222.160
43.91000 224.584
43.92000 226.878
43.93000 220.725
43.94000 209.498
43.95000 198.627
43.96000 202.964
43.97000 212.908
43.98000 222.152
43.99000 223.743
44.00000 223.235
44.01000 222.804
44.02000 222.877
44.03000 223.041
44.04000 223.176
44.05000 221.014
44.06000 219.027
44.07000 217.181
44.08000 215.734
44.09000 214.311
44.10000 212.730
44.11000 210.845
44.12000 208.954
44.13000 207.892
44.14000 211.190
44.15000 213.485
44.16000 214.368
44.17000 214.093
44.18000 213.861
44.19000 215.620
44.20000 218.467
44.21000 221.203
44.22000 220.614
44.23000 218.909
44.24000 216.938
44.25000 212.428
44.26000 207.287
44.27000 203.073
44.28000 204.256
44.29000 206.312
44.30000 207.969
44.31000 206.981
44.32000 205.970
44.33000 205.579
44.34000 206.778
44.35000 208.058
44.36000 208.630
44.37000 207.975
44.38000 207.297
44.39000 206.935
44.40000 215.061
44.41000 220.581
44.42000 220.662
44.43000 216.710
44.44000 212.905
44.45000 214.275
44.46000 218.217
44.47000 221.974
44.48000 220.759
44.49000 218.079
44.50000 215.547
44.51000 214.248
44.52000 213.226
44.53000 213.045
44.54000 217.254
44.55000 222.096
44.56000 225.918
44.57000 225.622
44.58000 225.106
44.59000 224.196
44.60000 222.369
44.61000 220.504
44.62000 221.142
44.63000 225.726
44.64000 230.359
44.65000 232.714
44.66000 229.300
44.67000 227.006
44.68000 224.151
44.69000 220.919
44.70000 217.995
44.71000 223.604
44.72000 233.076
44.73000 242.019
44.74000 244.974
44.75000 245.999
44.76000 246.847
44.77000 246.370
44.78000 245.623
44.79000 245.480
44.80000 248.183
44.81000 251.250
44.82000 253.615
44.83000 251.839
44.84000 250.194
44.85000 247.151
44.86000 241.132
44.87000 235.016
44.88000 235.544
44.89000 245.575
44.90000 255.678
44.91000 263.984
44.92000 270.620
44.93000 277.183
44.94000 278.648
44.95000 277.002
44.96000 275.412
44.97000 275.042
44.98000 275.177
44.99000 275.302
45.00000 271.996
45.01000 268.127
45.02000 265.765
45.03000 273.367
45.04000 282.796
45.05000 290.364
45.06000 290.006
45.07000 288.750
45.08000 287.806
45.09000 291.139
45.10000 293.954
45.11000 293.617
45.12000 287.177
45.13000 280.582
45.14000 279.266
45.15000 284.783
45.16000 290.322
45.17000 294.081
45.18000 296.348
45.19000 298.540
45.20000 297.081
45.21000 293.597
45.22000 290.400
45.23000 292.512
45.24000 296.619
45.25000 300.414
45.26000 288.380
45.27000 273.984
45.28000 262.338
45.29000 266.978
45.30000 274.295
45.31000 280.527
45.32000 282.566
45.33000 284.187
45.34000 285.375
45.35000 291.652
45.36000 296.702
45.37000 295.045
45.38000 281.568
45.39000 267.869
45.40000 264.034
45.41000 271.724
45.42000 279.410
45.43000 280.584
45.44000 276.875
45.45000 273.174
45.46000 269.766
45.47000 266.506
45.48000 263.786
45.49000 269.469
45.50000 278.027
45.51000 285.843
45.52000 274.573
45.53000 260.690
45.54000 249.590
45.55000 253.298
45.56000 259.181
45.57000 262.015
45.58000 254.157
45.59000 245.375
45.60000 239.123
45.61000 246.027
45.62000 251.712
45.63000 253.984
45.64000 250.789
45.65000 247.521
45.66000 247.507
45.67000 250.913
45.68000 254.302
45.69000 253.448
45.70000 249.744
45.71000 246.170
45.72000 246.333
45.73000 248.213
45.74000 249.800
45.75000 247.496
45.76000 243.982
45.77000 240.813
45.78000 241.453
45.79000 242.706
45.80000 242.730
45.81000 236.861
45.82000 230.223
45.83000 225.846
45.84000 228.674
45.85000 232.039
45.86000 234.363
45.87000 237.912
45.88000 240.610
45.89000 238.046
45.90000 227.835
45.91000 217.560
45.92000 213.651
45.93000 215.744
45.94000 217.820
45.95000 221.175
45.96000 225.247
45.97000 229.058
45.98000 226.850
45.99000 222.120
46.00000 217.897
46.01000 219.457
46.02000 222.653
46.03000 225.494
46.04000 221.181
46.05000 216.281
46.06000 212.771
46.07000 215.278
46.08000 218.480
46.09000 220.371
46.10000 218.458
46.11000 216.304
46.12000 214.863
46.13000 213.597
46.14000 212.663
46.15000 213.704
46.16000 217.345
46.17000 220.991
46.18000 219.944
46.19000 214.915
46.20000 209.947
46.21000 207.951
46.22000 207.635
46.23000 207.362
46.24000 207.897
46.25000 208.740
46.26000 209.378
46.27000 207.988
46.28000 206.076
46.29000 204.403
46.30000 201.588
46.31000 199.011
46.32000 197.191
46.33000 198.342
46.34000 199.795
46.35000 201.590
46.36000 204.290
46.37000 207.038
46.38000 208.814
46.39000 202.044
46.40000 196.971
46.41000 195.864
46.42000 199.469
46.43000 203.068
46.44000 203.253
46.45000 200.823
46.46000 198.434
46.47000 197.682
46.48000 197.764
46.49000 197.780
46.50000 196.725
46.51000 195.299
46.52000 193.920
46.53000 192.951
46.54000 192.077
46.55000 191.325
46.56000 195.538
46.57000 199.738
46.58000 203.033
46.59000 203.102
46.60000 202.885
46.61000 204.420
46.62000 210.172
46.63000 216.109
46.64000 219.805
46.65000 215.986
46.66000 213.158
46.67000 208.991
46.68000 203.391
46.69000 197.808
46.70000 194.489
46.71000 192.741
46.72000 191.032
46.73000 191.141
46.74000 192.058
46.75000 192.751
46.76000 190.394
46.77000 187.073
46.78000 183.852
46.79000 181.405
46.80000 179.121
46.81000 177.187
46.82000 180.910
46.83000 184.659
46.84000 188.209
46.85000 191.112
46.86000 193.966
46.87000 196.037
46.88000 196.389
46.89000 196.680
46.90000 196.854
46.91000 197.965
46.92000 198.760
46.93000 198.720
46.94000 197.877
46.95000 197.075
46.96000 199.413
46.97000 203.728
46.98000 207.920
46.99000 205.622
47.00000 200.819
47.01000 196.297
47.02000 195.054
47.03000 194.753
47.04000 194.654
47.05000 195.943
47.06000 197.496
47.07000 198.787
47.08000 198.224
47.09000 197.578
47.10000 195.960
47.11000 191.483
47.12000 186.819
47.13000 184.123
47.14000 185.357
47.15000 186.700
47.16000 187.471
47.17000 192.841
47.18000 196.605
47.19000 196.500
47.20000 193.056
47.21000 189.643
47.22000 187.877
47.23000 187.054
47.24000 186.259
47.25000 187.946
47.26000 190.438
47.27000 192.807
47.28000 193.940
47.29000 194.749
47.30000 195.381
47.31000 194.926
47.32000 194.286
47.33000 193.765
47.34000 186.278
47.35000 179.568
47.36000 174.723
47.37000 174.878
47.38000 175.306
47.39000 177.611
47.40000 183.327
47.41000 189.113
47.42000 192.282
47.43000 192.020
47.44000 191.840
47.45000 192.859
47.46000 194.812
47.47000 196.629
47.48000 192.981
47.49000 186.490
47.50000 180.279
47.51000 179.757
47.52000 181.139
47.53000 182.854
47.54000 187.531
47.55000 192.909
47.56000 196.687
47.57000 191.664
47.58000 185.299
47.59000 180.221
47.60000 177.790
47.61000 176.021
47.62000 175.732
47.63000 179.054
47.64000 182.541
47.65000 184.157
47.66000 182.681
47.67000 181.160
47.68000 180.367
47.69000 177.221
47.70000 175.109
47.71000 175.156
47.72000 176.724
47.73000 178.278
47.74000 179.383
47.75000 180.275
47.76000 181.121
47.77000 180.103
47.78000 178.611
47.79000 177.994
47.80000 184.256
47.81000 191.990
47.82000 198.270
47.83000 197.346
47.84000 195.442
47.85000 193.958
47.86000 189.315
47.87000 185.416
47.88000 183.952
47.89000 187.906
47.90000 192.059
47.91000 192.985
47.92000 189.071
47.93000 185.109
47.94000 183.198
47.95000 183.291
47.96000 183.334
47.97000 179.139
47.98000 172.235
47.99000 165.674
48.00000 167.596
48.01000 173.178
48.02000 178.422
48.03000 185.751
48.04000 192.992
48.05000 198.699
48.06000 193.668
48.07000 186.565
48.08000 180.851
48.09000 181.351
48.10000 182.599
48.11000 183.549
48.12000 176.339
48.13000 170.235
48.14000 168.662
48.15000 176.276
48.16000 184.155
48.17000 189.366
48.18000 190.951
48.19000 192.515
48.20000 190.012
48.21000 183.949
48.22000 177.957
48.23000 176.057
48.24000 176.534
48.25000 177.063
48.26000 178.660
48.27000 180.677
48.28000 182.552
48.29000 182.620
48.30000 182.248
48.31000 182.296
48.32000 184.963
48.33000 188.085
48.34000 189.826
48.35000 185.975
48.36000 181.531
48.37000 178.235
48.38000 176.112
48.39000 174.514
48.40000 174.178
48.41000 176.167
48.42000 178.208
48.43000 178.626
48.44000 177.053
48.45000 175.477
48.46000 175.004
48.47000 175.400
48.48000 175.739
48.49000 173.641
48.50000 170.257
48.51000 167.239
48.52000 170.402
48.53000 175.778
48.54000 180.717
48.55000 184.030
48.56000 186.638
48.57000 188.662
48.58000 187.414
48.59000 185.658
48.60000 183.351
48.61000 179.024
48.62000 174.509
48.63000 171.250
48.64000 175.962
48.65000 179.861
48.66000 182.066
48.67000 181.428
48.68000 180.745
48.69000 182.405
48.70000 186.657
48.71000 190.895
48.72000 189.336
48.73000 183.680
48.74000 178.235
48.75000 179.575
48.76000 184.178
48.77000 188.372
48.78000 186.714
48.79000 183.149
48.80000 179.914
48.81000 179.600
48.82000 179.883
48.83000 180.203
48.84000 180.707
48.85000 181.237
48.86000 181.945
48.87000 183.247
48.88000 184.597
48.89000 185.543
48.90000 186.042
48.91000 186.406
48.92000 186.979
48.93000 187.869
48.94000 188.763
48.95000 188.002
48.96000 185.596
48.97000 183.206
48.98000 179.561
48.99000 175.167
49.00000 170.919
49.01000 170.373
49.02000 171.449
49.03000 172.772
49.04000 177.125
49.05000 182.377
49.06000 187.078
49.07000 183.196
49.08000 178.340
49.09000 173.522
49.10000 168.881
49.11000 164.262
49.12000 161.911
49.13000 166.441
49.14000 171.444
49.15000 174.844
49.16000 172.347
49.17000 170.350
49.18000 169.626
49.19000 170.660
49.20000 171.707
49.21000 174.833
49.22000 179.816
49.23000 184.748
49.24000 185.303
49.25000 183.323
49.26000 181.348
49.27000 179.484
49.28000 177.665
49.29000 175.981
49.30000 175.749
49.31000 175.908
49.32000 176.048
49.33000 175.970
49.34000 175.870
49.35000 175.483
49.36000 173.917
49.37000 172.224
49.38000 171.691
49.39000 174.366
49.40000 177.228
49.41000 179.108
49.42000 176.286
49.43000 174.130
49.44000 171.703
49.45000 168.941
49.46000 166.187
49.47000 166.991
49.48000 170.658
49.49000 174.271
49.50000 175.494
49.51000 175.436
49.52000 175.378
49.53000 175.314
49.54000 175.246
49.55000 175.601
49.56000 179.878
49.57000 185.114
49.58000 189.661
49.59000 179.355
49.60000 168.568
49.61000 161.002
49.62000 165.455
49.63000 171.047
49.64000 175.571
49.65000 177.412
49.66000 179.122
49.67000 180.206
49.68000 179.119
49.69000 178.304
49.70000 175.960
49.71000 171.893
49.72000 167.845
49.73000 167.165
49.74000 168.937
49.75000 170.674
49.76000 172.694
49.77000 174.771
49.78000 176.861
49.79000 179.146
49.80000 181.495
49.81000 183.474
49.82000 182.413
49.83000 180.680
49.84000 179.200
49.85000 180.868
49.86000 182.647
49.87000 183.230
49.88000 179.759
49.89000 175.956
49.90000 173.929
49.91000 175.979
49.92000 178.189
49.93000 179.537
49.94000 179.878
49.95000 180.113
49.96000 179.720
49.97000 178.690
49.98000 177.645
49.99000 175.167
50.00000 171.745
50.01000 168.409
50.02000 167.803
50.03000 168.383
50.04000 168.907
50.05000 168.733
50.06000 168.349
50.07000 168.452
50.08000 172.098
50.09000 176.451
50.10000 180.102
50.11000 174.874
50.12000 169.598
50.13000 167.329
50.14000 174.326
50.15000 181.977
50.16000 185.242
50.17000 179.344
50.18000 173.158
50.19000 169.535
50.20000 176.840
50.21000 182.035
50.22000 182.089
50.23000 177.476
50.24000 172.914
50.25000 171.594
50.26000 172.215
50.27000 172.816
50.28000 174.652
50.29000 176.860
50.30000 179.182
50.31000 182.746
50.32000 186.650
50.33000 189.809
50.34000 188.152
50.35000 185.629
50.36000 183.554
50.37000 185.698
50.38000 187.844
50.39000 189.707
50.40000 190.773
50.41000 191.792
50.42000 191.530
50.43000 188.833
50.44000 186.077
50.45000 184.533
50.46000 184.024
50.47000 183.678
50.48000 184.712
50.49000 186.875
50.50000 189.055
50.51000 192.007
50.52000 195.379
50.53000 198.619
50.54000 200.563
50.55000 201.936
50.56000 203.224
50.57000 203.712
50.58000 204.001
50.59000 204.414
50.60000 205.544
50.61000 206.789
50.62000 207.792
50.63000 210.577
50.64000 212.978
50.65000 214.121
50.66000 212.047
50.67000 209.812
50.68000 207.944
50.69000 206.708
50.70000 205.483
50.71000 204.829
50.72000 212.374
50.73000 217.500
50.74000 218.360
50.75000 216.066
50.76000 213.697
50.77000 208.696
50.78000 202.389
50.79000 196.381
50.80000 198.777
50.81000 203.614
50.82000 207.527
50.83000 203.708
50.84000 198.152
50.85000 193.931
50.86000 196.667
50.87000 200.403
50.88000 203.349
50.89000 201.502
50.90000 199.697
50.91000 198.567
50.92000 199.009
50.93000 199.515
50.94000 200.954
50.95000 203.862
50.96000 206.787
50.97000 208.271
50.98000 195.465
50.99000 186.929
51.00000 182.924
51.01000 181.952
51.02000 180.993
51.03000 180.357
51.04000 179.866
51.05000 179.404
51.06000 176.705
51.07000 173.603
51.08000 170.677
51.09000 169.054
51.10000 167.695
51.11000 167.594
51.12000 173.399
51.13000 179.960
51.14000 185.014
51.15000 179.474
51.16000 174.481
51.17000 171.549
51.18000 172.990
51.19000 174.573
51.20000 175.793
51.21000 176.493
51.22000 177.189
51.23000 176.140
51.24000 173.479
51.25000 170.842
51.26000 169.788
51.27000 169.697
51.28000 169.593
51.29000 169.192
51.30000 168.668
51.31000 168.178
51.32000 169.462
51.33000 171.073
51.34000 171.893
51.35000 167.491
51.36000 162.135
51.37000 157.914
51.38000 158.510
51.39000 159.650
51.40000 160.506
51.41000 157.634
51.42000 155.210
51.43000 154.586
51.44000 157.439
51.45000 160.379
51.46000 161.915
51.47000 161.638
51.48000 161.354
51.49000 161.408
51.50000 161.744
51.51000 162.122
51.52000 164.603
51.53000 168.247
51.54000 171.590
51.55000 169.408
51.56000 165.157
51.57000 161.229
51.58000 163.132
51.59000 166.158
51.60000 168.317
51.61000 165.355
51.62000 161.554
51.63000 158.636
51.64000 159.115
51.65000 159.931
51.66000 160.528
51.67000 155.078
51.68000 150.632
51.69000 149.382
51.70000 153.749
51.71000 158.221
51.72000 160.400
51.73000 159.909
51.74000 159.416
51.75000 161.309
51.76000 164.968
51.77000 168.504
51.78000 167.508
51.79000 164.233
51.80000 161.012
51.81000 158.638
51.82000 156.552
51.83000 154.648
51.84000 156.878
51.85000 159.694
51.86000 162.186
51.87000 162.957
51.88000 163.476
51.89000 163.902
51.90000 164.002
51.91000 164.074
51.92000 164.126
51.93000 162.215
51.94000 160.698
51.95000 160.151
51.96000 161.155
51.97000 162.180
51.98000 161.973
51.99000 160.476
52.00000 158.986
52.01000 156.489
52.02000 153.344
52.03000 150.345
52.04000 151.532
52.05000 154.636
52.06000 157.667
52.07000 159.725
52.08000 161.482
52.09000 163.064
52.10000 164.413
52.11000 165.555
52.12000 166.291
52.13000 165.090
52.14000 163.636
52.15000 161.780
52.16000 158.645
52.17000 155.415
52.18000 153.186
52.19000 155.235
52.20000 156.884
52.21000 157.150
52.22000 155.412
52.23000 153.658
52.24000 153.028
52.25000 153.454
52.26000 153.877
52.27000 156.072
52.28000 159.301
52.29000 162.315
52.30000 160.378
52.31000 156.375
52.32000 152.888
52.33000 155.280
52.34000 159.332
52.35000 162.932
52.36000 161.296
52.37000 159.034
52.38000 156.957
52.39000 155.683
52.40000 154.501
52.41000 153.717
52.42000 154.083
52.43000 154.521
52.44000 154.814
52.45000 157.378
52.46000 159.323
52.47000 158.329
52.48000 153.480
52.49000 148.615
52.50000 144.573
52.51000 141.227
52.52000 137.923
52.53000 142.419
52.54000 151.068
52.55000 159.499
52.56000 163.810
52.57000 166.554
52.58000 168.845
52.59000 166.654
52.60000 163.316
52.61000 160.394
52.62000 157.845
52.63000 155.713
52.64000 154.169
52.65000 154.925
52.66000 155.913
52.67000 157.853
52.68000 162.298
52.69000 166.875
52.70000 169.829
52.71000 162.391
52.72000 156.808
52.73000 153.012
52.74000 151.334
52.75000 149.672
52.76000 150.887
52.77000 154.298
52.78000 157.651
52.79000 159.444
52.80000 160.406
52.81000 161.179
52.82000 158.925
52.83000 155.624
52.84000 152.483
52.85000 150.748
52.86000 149.339
52.87000 148.125
52.88000 153.500
52.89000 158.887
52.90000 162.255
52.91000 158.462
52.92000 154.038
52.93000 151.109
52.94000 151.770
52.95000 152.587
52.96000 153.095
52.97000 157.863
52.98000 161.339
52.99000 162.842
53.00000 162.241
53.01000 161.638
53.02000 160.741
53.03000 159.642
53.04000 158.568
53.05000 156.989
53.06000 155.251
53.07000 153.550
53.08000 152.343
53.09000 151.293
53.10000 150.691
53.11000 153.539
53.12000 157.111
53.13000 160.134
53.14000 159.550
53.15000 158.660
53.16000 157.929
53.17000 157.713
53.18000 157.535
53.19000 155.897
53.20000 151.065
53.21000 146.121
53.22000 143.167
53.23000 149.075
53.24000 153.322
53.25000 154.848
53.26000 153.772
53.27000 152.743
53.28000 155.281
53.29000 160.058
53.30000 164.699
53.31000 161.396
53.32000 155.062
53.33000 149.191
53.34000 148.707
53.35000 149.767
53.36000 150.849
53.37000 152.078
53.38000 153.334
53.39000 154.378
53.40000 155.430
53.41000 156.301
53.42000 156.240
53.43000 153.444
53.44000 150.471
53.45000 150.055
53.46000 154.733
53.47000 159.551
53.48000 162.309
53.49000 157.128
53.50000 153.486
53.51000 153.481
53.52000 156.604
53.53000 159.671
53.54000 159.678
53.55000 157.940
53.56000 156.265
53.57000 156.789
53.58000 158.081
53.59000 159.296
53.60000 159.730
53.61000 159.962
53.62000 160.565
53.63000 163.442
53.64000 166.705
53.65000 169.362
53.66000 165.449
53.67000 161.698
53.68000 157.819
53.69000 153.598
53.70000 149.359
53.71000 148.183
53.72000 152.558
53.73000 157.047
53.74000 159.502
53.75000 156.529
53.76000 154.482
53.77000 153.624
53.78000 153.687
53.79000 153.724
53.80000 152.751
53.81000 151.252
53.82000 149.819
53.83000 151.198
53.84000 153.404
53.85000 155.697
53.86000 158.777
53.87000 162.041
53.88000 163.865
53.89000 157.784
53.90000 150.501
53.91000 144.696
53.92000 147.889
53.93000 151.120
53.94000 153.325
53.95000 153.031
53.96000 152.624
53.97000 152.538
53.98000 152.983
53.99000 153.435
54.00000 153.670
54.01000 157.610
54.02000 160.256
54.03000 160.486
54.04000 159.020
54.05000 157.490
54.06000 153.979
54.07000 149.531
54.08000 145.314
54.09000 149.397
54.10000 155.610
54.11000 160.787
54.12000 157.841
54.13000 153.163
54.14000 149.747
54.15000 152.562
54.16000 156.220
54.17000 159.072
54.18000 156.527
54.19000 154.164
54.20000 152.634
54.21000 152.951
54.22000 153.335
54.23000 153.497
54.24000 153.326
54.25000 153.153
54.26000 153.562
54.27000 154.539
54.28000 155.521
54.29000 156.933
54.30000 158.620
54.31000 160.291
54.32000 161.609
54.33000 162.773
54.34000 163.867
54.35000 157.271
54.36000 149.214
54.37000 142.547
54.38000 145.576
54.39000 150.469
54.40000 153.939
54.41000 151.063
54.42000 147.426
54.43000 144.659
54.44000 142.860
54.45000 141.496
54.46000 140.650
54.47000 140.853
54.48000 141.085
54.49000 143.450
54.50000 148.704
54.51000 153.971
54.52000 152.280
54.53000 144.513
54.54000 136.948
54.55000 140.857
54.56000 151.410
54.57000 161.609
54.58000 164.693
54.59000 164.988
54.60000 165.262
54.61000 163.132
54.62000 160.636
54.63000 157.889
54.64000 153.574
54.65000 148.988
54.66000 145.719
54.67000 147.772
54.68000 150.386
54.69000 152.324
54.70000 150.355
54.71000 148.656
54.72000 146.448
54.73000 143.301
54.74000 140.134
54.75000 142.872
54.76000 152.840
54.77000 162.808
54.78000 164.555
54.79000 159.837
54.80000 155.148
54.81000 151.658
54.82000 148.799
54.83000 146.139
54.84000 146.807
54.85000 148.664
54.86000 150.369
54.87000 151.724
54.88000 152.858
54.89000 154.280
54.90000 157.303
54.91000 160.575
54.92000 161.829
54.93000 155.693
54.94000 148.875
54.95000 143.958
54.96000 143.086
54.97000 142.562
54.98000 143.427
54.99000 146.616
55.00000 149.842
55.01000 151.657
55.02000 151.918
55.03000 152.177
55.04000 154.231
55.05000 157.536
55.06000 160.626
55.07000 156.866
55.08000 149.819
55.09000 143.582
55.10000 148.863
55.11000 157.887
55.12000 166.071
55.13000 165.434
55.14000 163.184
55.15000 160.437
55.16000 155.197
55.17000 149.611
55.18000 146.154
55.19000 149.776
55.20000 153.964
55.21000 156.897
55.22000 159.206
55.23000 160.934
55.24000 161.984
55.25000 162.001
55.26000 162.008
55.27000 163.354
55.28000 166.026
55.29000 168.680
55.30000 169.023
55.31000 167.888
55.32000 166.757
55.33000 165.727
55.34000 164.742
55.35000 163.853
55.36000 164.135
55.37000 164.762
55.38000 165.323
55.39000 168.528
55.40000 171.774
55.41000 174.139
55.42000 172.505
55.43000 170.383
55.44000 170.685
55.45000 178.324
55.46000 186.464
55.47000 191.990
55.48000 188.382
55.49000 185.487
55.50000 187.139
55.51000 195.053
55.52000 203.003
55.53000 207.942
55.54000 210.203
55.55000 212.440
55.56000 215.543
55.57000 219.076
55.58000 222.606
55.59000 226.080
55.60000 229.531
55.61000 233.771
55.62000 246.350
55.63000 261.170
55.64000 274.236
55.65000 279.535
55.66000 282.926
55.67000 287.239
55.68000 295.332
55.69000 303.833
55.70000 311.609
55.71000 317.389
55.72000 323.053
55.73000 326.772
55.74000 339.884
55.75000 349.688
55.76000 359.162
55.77000 368.223
55.78000 377.278
55.79000 384.393
55.80000 389.953
55.81000 395.430
55.82000 407.778
55.83000 423.327
55.84000 438.173
55.85000 440.896
55.86000 439.222
55.87000 438.272
55.88000 444.017
55.89000 451.393
55.90000 457.795
55.91000 448.417
55.92000 438.308
55.93000 433.391
55.94000 447.788
55.95000 464.006
55.96000 473.370
55.97000 465.531
55.98000 456.865
55.99000 451.377
56.00000 450.298
56.01000 449.569
56.02000 444.001
56.03000 433.000
56.04000 422.022
56.05000 415.448
56.06000 412.069
56.07000 408.757
56.08000 398.386
56.09000 385.098
56.10000 372.141
56.11000 364.024
56.12000 357.505
56.13000 351.058
56.14000 345.197
56.15000 339.465
56.16000 334.573
56.17000 324.190
56.18000 314.798
56.19000 306.657
56.20000 302.742
56.21000 299.173
56.22000 293.717
56.23000 283.949
56.24000 274.011
56.25000 267.954
56.26000 263.995
56.27000 261.183
56.28000 252.179
56.29000 236.931
56.30000 221.805
56.31000 218.326
56.32000 222.506
56.33000 226.578
56.34000 222.522
56.35000 215.214
56.36000 208.296
56.37000 206.250
56.38000 205.667
56.39000 205.034
56.40000 204.047
56.41000 202.990
56.42000 202.104
56.43000 198.995
56.44000 196.178
56.45000 192.180
56.46000 184.552
56.47000 176.669
56.48000 171.893
56.49000 173.591
56.50000 175.490
56.51000 176.600
56.52000 178.317
56.53000 179.526
56.54000 176.775
56.55000 170.438
56.56000 164.202
56.57000 164.337
56.58000 168.276
56.59000 172.088
56.60000 173.925
56.61000 174.906
56.62000 175.252
56.63000 168.713
56.64000 160.296
56.65000 153.084
56.66000 153.640
56.67000 155.586
56.68000 157.187
56.69000 152.321
56.70000 147.736
56.71000 144.371
56.72000 144.416
56.73000 144.663
56.74000 145.549
56.75000 147.647
56.76000 149.773
56.77000 150.963
56.78000 158.646
56.79000 163.970
56.80000 164.297
56.81000 160.547
56.82000 156.830
56.83000 154.633
56.84000 153.260
56.85000 151.942
56.86000 154.422
56.87000 158.050
56.88000 160.571
56.89000 152.610
56.90000 142.055
56.91000 133.426
56.92000 135.921
56.93000 140.201
56.94000 143.649
56.95000 142.648
56.96000 141.486
56.97000 141.461
56.98000 144.330
56.99000 147.342
57.00000 150.026
57.01000 152.141
57.02000 154.247
57.03000 155.370
57.04000 150.040
57.05000 146.419
57.06000 145.357
57.07000 146.183
57.08000 147.040
57.09000 149.007
57.10000 151.522
57.11000 153.917
57.12000 147.142
57.13000 138.020
57.14000 130.134
57.15000 132.553
57.16000 137.279
57.17000 141.432
57.18000 142.603
57.19000 143.347
57.20000 143.934
57.21000 142.375
57.22000 140.982
57.23000 139.904
57.24000 139.557
57.25000 139.239
57.26000 139.844
57.27000 141.893
57.28000 143.959
57.29000 145.006
57.30000 138.825
57.31000 134.733
57.32000 135.373
57.33000 139.174
57.34000 142.791
57.35000 141.414
57.36000 137.788
57.37000 134.367
57.38000 140.996
57.39000 149.881
57.40000 156.875
57.41000 149.910
57.42000 140.122
57.43000 133.065
57.44000 138.802
57.45000 146.166
57.46000 151.836
57.47000 149.047
57.48000 146.358
57.49000 145.011
57.50000 146.505
57.51000 148.090
57.52000 148.338
57.53000 146.683
57.54000 145.015
57.55000 142.577
57.56000 139.434
57.57000 136.348
57.58000 137.210
57.59000 140.466
57.60000 143.580
57.61000 143.556
57.62000 142.245
57.63000 141.021
57.64000 140.692
57.65000 140.618
57.66000 140.480
57.67000 139.921
57.68000 139.285
57.69000 138.330
57.70000 136.025
57.71000 133.569
57.72000 131.724
57.73000 130.664
57.74000 129.872
57.75000 131.017
57.76000 135.888
57.77000 140.853
57.78000 142.030
57.79000 138.332
57.80000 134.620
57.81000 134.597
57.82000 137.622
57.83000 140.661
57.84000 144.364
57.85000 148.432
57.86000 152.232
57.87000 151.141
57.88000 148.221
57.89000 145.525
57.90000 144.566
57.91000 144.098
57.92000 143.120
57.93000 139.138
57.94000 134.666
57.95000 131.472
57.96000 133.190
57.97000 135.391
57.98000 137.001
57.99000 138.512
58.00000 139.675
58.01000 141.310
58.02000 143.776
58.03000 146.256
58.04000 145.829
58.05000 142.024
58.06000 138.226
58.07000 137.153
58.08000 138.114
58.09000 139.025
58.10000 138.143
58.11000 136.360
58.12000 134.794
58.13000 136.575
58.14000 139.494
58.15000 142.158
58.16000 136.276
58.17000 129.332
58.18000 124.336
58.19000 129.633
58.20000 136.431
58.21000 141.661
58.22000 141.429
58.23000 140.729
58.24000 140.231
58.25000 137.639
58.26000 135.599
58.27000 135.400
58.28000 138.132
58.29000 140.902
58.30000 142.204
58.31000 141.972
58.32000 141.740
58.33000 139.769
58.34000 136.657
58.35000 133.584
58.36000 131.640
58.37000 130.211
58.38000 129.025
58.39000 131.018
58.40000 133.994
58.41000 136.675
58.42000 140.715
58.43000 144.503
58.44000 146.549
58.45000 140.296
58.46000 132.965
58.47000 127.222
58.48000 126.509
58.49000 126.167
58.50000 125.932
58.51000 128.762
58.52000 130.964
58.53000 133.032
58.54000 134.904
58.55000 136.773
58.56000 136.579
58.57000 134.450
58.58000 132.339
58.59000 131.345
58.60000 131.045
58.61000 130.740
58.62000 130.304
58.63000 129.815
58.64000 129.329
58.65000 128.882
58.66000 128.446
58.67000 128.059
58.68000 130.616
58.69000 133.306
58.70000 134.987
58.71000 132.322
58.72000 129.160
58.73000 128.376
58.74000 134.452
58.75000 140.959
58.76000 145.301
58.77000 141.101
58.78000 137.824
58.79000 136.846
58.80000 138.874
58.81000 140.912
58.82000 140.494
58.83000 138.005
58.84000 135.548
58.85000 137.383
58.86000 141.510
58.87000 145.311
58.88000 142.954
58.89000 138.262
58.90000 133.670
58.91000 130.072
58.92000 126.728
58.93000 123.803
58.94000 131.074
58.95000 138.758
58.96000 143.476
58.97000 136.632
58.98000 128.623
58.99000 123.959
59.00000 128.080
59.01000 132.663
59.02000 135.618
59.03000 137.855
59.04000 139.479
59.05000 139.167
59.06000 136.571
59.07000 133.973
59.08000 131.567
59.09000 129.308
59.10000 127.089
59.11000 127.657
59.12000 129.580
59.13000 131.393
59.14000 131.480
59.15000 130.971
59.16000 130.905
59.17000 134.683
59.18000 139.349
59.19000 143.365
59.20000 138.298
59.21000 132.862
59.22000 129.074
59.23000 131.120
59.24000 133.678
59.25000 136.264
59.26000 138.918
59.27000 141.576
59.28000 143.227
59.29000 140.663
59.30000 138.776
59.31000 138.082
59.32000 138.656
59.33000 139.214
59.34000 137.721
59.35000 134.814
59.36000 131.973
59.37000 131.492
59.38000 132.079
59.39000 132.537
59.40000 131.257
59.41000 129.431
59.42000 127.760
59.43000 127.277
59.44000 127.042
59.45000 126.844
59.46000 131.201
59.47000 135.351
59.48000 137.897
59.49000 135.280
59.50000 132.273
59.51000 130.357
59.52000 130.820
59.53000 131.366
59.54000 131.693
59.55000 135.720
59.56000 138.599
59.57000 137.373
59.58000 132.233
59.59000 127.172
59.60000 128.116
59.61000 132.817
59.62000 137.381
59.63000 136.918
59.64000 134.461
59.65000 132.305
59.66000 133.652
59.67000 135.999
59.68000 137.907
59.69000 136.815
59.70000 135.158
59.71000 133.782
59.72000 130.953
59.73000 128.473
59.74000 126.517
59.75000 126.095
59.76000 125.771
59.77000 126.452
59.78000 129.128
59.79000 131.858
59.80000 133.419
59.81000 129.196
59.82000 126.229
59.83000 123.649
59.84000 121.401
59.85000 119.241
59.86000 121.720
59.87000 126.836
59.88000 131.769
59.89000 133.644
59.90000 134.301
59.91000 134.821
59.92000 133.962
59.93000 132.746
59.94000 132.097
59.95000 134.905
59.96000 138.299
59.97000 141.061
59.98000 141.341
59.99000 141.361
60.00000 139.792
60.01000 133.987
60.02000 127.952
60.03000 124.936
60.04000 127.372
60.05000 129.919
60.06000 131.311
60.07000 133.339
60.08000 134.732
60.09000 135.918
60.10000 136.945
60.11000 137.962
60.12000 138.579
60.13000 138.988
60.14000 139.379
60.15000 137.152
60.16000 134.223
60.17000 131.702
60.18000 132.787
60.19000 134.720
60.20000 136.516
60.21000 137.563
60.22000 138.497
60.23000 139.241
60.24000 130.333
60.25000 122.449
60.26000 118.786
60.27000 125.374
60.28000 132.422
60.29000 135.955
60.30000 133.714
60.31000 131.389
60.32000 130.181
60.33000 137.772
60.34000 142.865
60.35000 143.203
60.36000 140.212
60.37000 137.326
60.38000 137.684
60.39000 139.568
60.40000 141.355
60.41000 139.077
60.42000 135.783
60.43000 133.029
60.44000 134.495
60.45000 136.859
60.46000 138.585
60.47000 137.171
60.48000 135.334
60.49000 133.904
60.50000 131.846
60.51000 130.169
60.52000 129.337
60.53000 130.375
60.54000 131.482
60.55000 132.063
60.56000 131.861
60.57000 131.651
60.58000 131.674
60.59000 131.923
60.60000 132.144
60.61000 130.087
60.62000 126.584
60.63000 123.226
60.64000 123.427
60.65000 125.155
60.66000 126.777
60.67000 126.721
60.68000 126.225
60.69000 125.876
60.70000 126.555
60.71000 127.431
60.72000 128.563
60.73000 130.830
60.74000 133.234
60.75000 135.060
60.76000 132.437
60.77000 130.142
60.78000 129.710
60.79000 133.035
60.80000 136.466
60.81000 136.909
60.82000 133.315
60.83000 129.702
60.84000 130.544
60.85000 135.265
60.86000 139.889
60.87000 139.089
60.88000 135.159
60.89000 131.479
60.90000 132.827
60.91000 136.140
60.92000 139.217
60.93000 138.550
60.94000 137.058
60.95000 135.519
60.96000 133.684
60.97000 131.798
60.98000 130.707
60.99000 132.820
61.00000 135.268
61.01000 137.083
61.02000 146.365
61.03000 153.894
61.04000 157.601
61.05000 154.296
61.06000 150.840
61.07000 144.714
61.08000 135.330
61.09000 125.956
61.10000 127.178
61.11000 136.687
61.12000 145.953
61.13000 145.123
61.14000 138.991
61.15000 133.258
61.16000 134.174
61.17000 137.459
61.18000 140.474
61.19000 142.684
61.20000 144.482
61.21000 145.329
61.22000 140.882
61.23000 135.618
61.24000 131.953
61.25000 134.127
61.26000 136.837
61.27000 138.791
61.28000 139.598
61.29000 140.175
61.30000 140.010
61.31000 138.606
61.32000 137.182
61.33000 135.492
61.34000 133.510
61.35000 131.535
61.36000 133.517
61.37000 138.267
61.38000 142.892
61.39000 143.538
61.40000 142.281
61.41000 141.005
61.42000 139.469
61.43000 137.847
61.44000 136.377
61.45000 139.299
61.46000 142.713
61.47000 145.805
61.48000 147.282
61.49000 148.538
61.50000 151.106
61.51000 158.028
61.52000 165.295
61.53000 170.381
61.54000 179.184
61.55000 185.944
61.56000 193.290
61.57000 201.522
61.58000 209.764
61.59000 219.049
61.60000 229.363
61.61000 239.606
61.62000 244.464
61.63000 245.824
61.64000 247.309
61.65000 251.935
61.66000 257.930
61.67000 263.946
61.68000 270.224
61.69000 276.578
61.70000 282.261
61.71000 277.040
61.72000 270.635
61.73000 265.648
61.74000 267.072
61.75000 269.277
61.76000 268.077
61.77000 256.599
61.78000 244.422
61.79000 236.164
61.80000 217.808
61.81000 203.896
61.82000 193.429
61.83000 187.691
61.84000 181.980
61.85000 174.238
61.86000 164.695
61.87000 155.252
61.88000 153.154
61.89000 155.311
61.90000 157.292
61.91000 155.630
61.92000 152.521
61.93000 149.656
61.94000 149.349
61.95000 149.727
61.96000 150.061
61.97000 146.387
61.98000 142.615
61.99000 139.880
62.00000 141.392
62.01000 143.359
62.02000 144.146
62.03000 141.688
62.04000 139.044
62.05000 137.310
62.06000 134.059
62.07000 131.643
62.08000 131.578
62.09000 134.432
62.10000 137.290
62.11000 139.109
62.12000 140.095
62.13000 141.067
62.14000 140.207
62.15000 138.425
62.16000 136.703
62.17000 136.028
62.18000 135.731
62.19000 135.773
62.20000 138.949
62.21000 142.885
62.22000 146.300
62.23000 144.586
62.24000 142.441
62.25000 140.644
62.26000 140.141
62.27000 139.759
62.28000 138.819
62.29000 136.482
62.30000 134.078
62.31000 132.558
62.32000 137.119
62.33000 140.498
62.34000 141.165
62.35000 138.799
62.36000 136.453
62.37000 137.730
62.38000 141.629
62.39000 145.450
62.40000 142.905
62.41000 137.484
62.42000 132.562
62.43000 134.895
62.44000 139.616
62.45000 144.023
62.46000 145.873
62.47000 147.160
62.48000 148.259
62.49000 141.268
62.50000 134.429
62.51000 129.490
62.52000 130.948
62.53000 132.927
62.54000 134.862
62.55000 136.695
62.56000 138.525
62.57000 139.639
62.58000 141.745
62.59000 143.257
62.60000 145.394
62.61000 148.158
62.62000 150.868
62.63000 148.471
62.64000 142.726
62.65000 137.129
62.66000 137.201
62.67000 139.660
62.68000 141.990
62.69000 142.712
62.70000 142.952
62.71000 142.901
62.72000 140.742
62.73000 138.165
62.74000 136.007
62.75000 138.112
62.76000 140.303
62.77000 142.146
62.78000 142.925
62.79000 143.630
62.80000 145.220
62.81000 148.650
62.82000 152.136
62.83000 154.173
62.84000 148.959
62.85000 145.256
62.86000 139.387
62.87000 131.565
62.88000 123.876
62.89000 124.519
62.90000 130.121
62.91000 135.543
62.92000 138.949
62.93000 141.401
62.94000 143.793
62.95000 145.550
62.96000 147.135
62.97000 148.858
62.98000 151.469
62.99000 154.239
63.00000 156.515
63.01000 155.595
63.02000 154.551
63.03000 153.546
63.04000 152.647
63.05000 151.755
63.06000 150.566
63.07000 148.815
63.08000 147.052
63.09000 146.066
63.10000 152.499
63.11000 156.951
63.12000 153.867
63.13000 144.656
63.14000 135.643
63.15000 135.628
63.16000 140.484
63.17000 145.147
63.18000 147.905
63.19000 149.832
63.20000 151.348
63.21000 148.999
63.22000 145.696
63.23000 142.953
63.24000 143.438
63.25000 144.439
63.26000 145.245
63.27000 147.457
63.28000 149.360
63.29000 150.035
63.30000 147.587
63.31000 144.985
63.32000 143.592
63.33000 144.276
63.34000 144.997
63.35000 145.381
63.36000 146.336
63.37000 146.978
63.38000 146.032
63.39000 143.919
63.40000 141.820
63.41000 140.169
63.42000 138.740
63.43000 137.379
63.44000 135.506
63.45000 133.613
63.46000 132.130
63.47000 134.050
63.48000 136.729
63.49000 139.861
63.50000 145.334
63.51000 151.142
63.52000 155.716
63.53000 149.403
63.54000 143.617
63.55000 140.191
63.56000 142.228
63.57000 144.486
63.58000 147.862
63.59000 152.985
63.60000 158.129
63.61000 160.730
63.62000 146.984
63.63000 137.885
63.64000 138.900
63.65000 146.650
63.66000 154.124
63.67000 154.138
63.68000 150.801
63.69000 147.654
63.70000 148.106
63.71000 149.523
63.72000 150.913
63.73000 152.106
63.74000 153.259
63.75000 153.767
63.76000 151.261
63.77000 148.373
63.78000 146.151
63.79000 151.039
63.80000 155.309
63.81000 157.285
63.82000 154.422
63.83000 151.403
63.84000 151.263
63.85000 155.204
63.86000 159.174
63.87000 161.103
63.88000 161.157
63.89000 161.196
63.90000 160.126
63.91000 158.385
63.92000 156.709
63.93000 156.446
63.94000 156.760
63.95000 157.053
63.96000 157.054
63.97000 156.982
63.98000 156.791
63.99000 155.824
64.00000 154.716
64.01000 153.944
64.02000 154.597
64.03000 155.408
64.04000 156.017
64.05000 154.990
64.06000 154.110
64.07000 154.402
64.08000 156.947
64.09000 159.547
64.10000 160.055
64.11000 157.878
64.12000 155.695
64.13000 155.308
64.14000 156.402
64.15000 157.488
64.16000 158.156
64.17000 158.595
64.18000 159.111
64.19000 161.034
64.20000 163.480
64.21000 165.738
64.22000 167.416
64.23000 168.790
64.24000 169.458
64.25000 165.986
64.26000 161.840
64.27000 158.640
64.28000 159.057
64.29000 159.829
64.30000 160.393
64.31000 161.492
64.32000 162.361
64.33000 163.124
64.34000 163.699
64.35000 164.271
64.36000 166.528
64.37000 170.733
64.38000 174.928
64.39000 175.530
64.40000 173.463
64.41000 171.369
64.42000 168.310
64.43000 164.768
64.44000 161.693
64.45000 165.772
64.46000 172.279
64.47000 178.214
64.48000 175.078
64.49000 170.473
64.50000 166.600
64.51000 166.590
64.52000 167.141
64.53000 167.867
64.54000 169.198
64.55000 170.581
64.56000 171.563
64.57000 166.143
64.58000 161.815
64.59000 160.262
64.60000 163.116
64.61000 166.026
64.62000 169.261
64.63000 172.833
64.64000 176.387
64.65000 175.423
64.66000 171.453
64.67000 167.669
64.68000 169.104
64.69000 172.918
64.70000 176.427
64.71000 175.939
64.72000 174.219
64.73000 172.670
64.74000 175.040
64.75000 177.823
64.76000 179.753
64.77000 177.637
64.78000 174.997
64.79000 173.386
64.80000 175.024
64.81000 176.901
64.82000 178.194
64.83000 177.817
64.84000 177.492
64.85000 177.195
64.86000 176.939
64.87000 176.683
64.88000 177.414
64.89000 179.067
64.90000 180.705
64.91000 181.544
64.92000 181.885
64.93000 182.325
64.94000 184.996
64.95000 188.594
64.96000 192.194
64.97000 195.821
64.98000 199.455
64.99000 202.681
65.00000 197.959
65.01000 192.596
65.02000 188.792
65.03000 191.685
65.04000 195.343
65.05000 198.188
65.06000 198.698
65.07000 199.061
65.08000 199.304
65.09000 201.132
65.10000 202.516
65.11000 202.919
65.12000 202.043
65.13000 201.167
65.14000 203.673
65.15000 209.020
65.16000 214.299
65.17000 214.170
65.18000 211.104
65.19000 208.543
65.20000 215.455
65.21000 225.950
65.22000 235.400
65.23000 234.585
65.24000 231.155
65.25000 228.156
65.26000 224.829
65.27000 221.931
65.28000 221.429
65.29000 230.242
65.30000 239.989
65.31000 246.923
65.32000 246.494
65.33000 245.679
65.34000 245.154
65.35000 244.078
65.36000 243.284
65.37000 244.235
65.38000 247.240
65.39000 250.247
65.40000 252.865
65.41000 255.187
65.42000 257.469
65.43000 259.045
65.44000 260.221
65.45000 261.800
65.46000 269.702
65.47000 279.782
65.48000 289.227
65.49000 293.178
65.50000 295.862
65.51000 298.170
65.52000 300.197
65.53000 301.877
65.54000 304.714
65.55000 311.635
65.56000 318.913
65.57000 322.592
65.58000 317.683
65.59000 312.404
65.60000 309.129
65.61000 326.844
65.62000 339.794
65.63000 351.096
65.64000 360.654
65.65000 370.254
65.66000 385.062
65.67000 403.448
65.68000 421.414
65.69000 453.736
65.70000 491.057
65.71000 529.537
65.72000 583.541
65.73000 642.410
65.74000 699.859
65.75000 746.460
65.76000 790.800
65.77000 828.280
65.78000 888.416
65.79000 941.215
65.80000 989.639
65.81000 1024.025
65.82000 1057.353
65.83000 1084.581
65.84000 1098.548
65.85000 1112.056
65.86000 1120.108
65.87000 1101.858
65.88000 1088.764
65.89000 1086.190
65.90000 1093.613
65.91000 1100.711
65.92000 1083.275
65.93000 1050.535
65.94000 1018.748
65.95000 971.767
65.96000 921.099
65.97000 870.011
65.98000 814.079
65.99000 756.766
66.00000 698.267
66.01000 631.714
66.02000 563.647
66.03000 507.176
66.04000 470.958
66.05000 442.980
66.06000 416.311
66.07000 393.462
66.08000 370.860
66.09000 352.106
66.10000 340.972
66.11000 330.044
66.12000 323.803
66.13000 312.870
66.14000 305.236
66.15000 305.167
66.16000 311.564
66.17000 317.792
66.18000 315.055
66.19000 307.237
66.20000 299.701
66.21000 299.320
66.22000 301.545
66.23000 304.535
66.24000 315.215
66.25000 327.885
66.26000 339.878
66.27000 347.763
66.28000 354.954
66.29000 360.802
66.30000 373.845
66.31000 385.094
66.32000 395.773
66.33000 404.936
66.34000 414.017
66.35000 425.912
66.36000 442.876
66.37000 459.942
66.38000 469.249
66.39000 466.380
66.40000 464.386
66.41000 460.479
66.42000 455.096
66.43000 449.888
66.44000 451.554
66.45000 456.764
66.46000 461.746
66.47000 457.536
66.48000 450.625
66.49000 443.913
66.50000 438.952
66.51000 434.402
66.52000 428.529
66.53000 415.445
66.54000 401.274
66.55000 389.992
66.56000 382.424
66.57000 376.591
66.58000 367.820
66.59000 351.935
66.60000 335.734
66.61000 327.906
66.62000 333.793
66.63000 339.877
66.64000 343.033
66.65000 328.435
66.66000 318.630
66.67000 315.619
66.68000 317.351
66.69000 319.209
66.70000 324.875
66.71000 332.328
66.72000 339.392
66.73000 331.556
66.74000 319.971
66.75000 309.805
66.76000 310.701
66.77000 313.941
66.78000 316.497
66.79000 315.694
66.80000 314.439
66.81000 313.463
66.82000 317.211
66.83000 320.486
66.84000 324.292
66.85000 329.271
66.86000 334.291
66.87000 338.032
66.88000 339.870
66.89000 341.691
66.90000 340.469
66.91000 336.305
66.92000 332.179
66.93000 331.036
66.94000 331.782
66.95000 332.815
66.96000 340.793
66.97000 351.743
66.98000 362.018
66.99000 362.829
67.00000 361.071
67.01000 358.929
67.02000 354.127
67.03000 348.817
67.04000 345.052
67.05000 348.135
67.06000 352.032
67.07000 354.993
67.08000 354.228
67.09000 353.434
67.10000 354.009
67.11000 357.338
67.12000 360.744
67.13000 364.705
67.14000 369.411
67.15000 374.118
67.16000 378.031
67.17000 381.249
67.18000 384.420
67.19000 385.034
67.20000 384.175
67.21000 383.499
67.22000 386.439
67.23000 390.788
67.24000 394.826
67.25000 398.027
67.26000 400.714
67.27000 402.640
67.28000 399.857
67.29000 396.265
67.30000 392.727
67.31000 389.403
67.32000 386.102
67.33000 383.658
67.34000 397.405
67.35000 408.771
67.36000 414.164
67.37000 408.630
67.38000 402.863
67.39000 397.653
67.40000 393.121
67.41000 388.600
67.42000 390.225
67.43000 396.637
67.44000 403.134
67.45000 413.152
67.46000 425.013
67.47000 436.365
67.48000 439.280
67.49000 439.199
67.50000 439.125
67.51000 440.346
67.52000 441.709
67.53000 442.653
67.54000 441.272
67.55000 439.533
67.56000 438.987
67.57000 442.786
67.58000 446.983
67.59000 450.005
67.60000 441.941
67.61000 435.374
67.62000 435.743
67.63000 447.650
67.64000 459.733
67.65000 468.179
67.66000 472.640
67.67000 477.079
67.68000 472.296
67.69000 461.081
67.70000 450.261
67.71000 451.946
67.72000 459.592
67.73000 466.906
67.74000 469.531
67.75000 470.641
67.76000 471.647
67.77000 473.703
67.78000 475.715
67.79000 478.298
67.80000 483.735
67.81000 489.562
67.82000 493.042
67.83000 488.757
67.84000 483.856
67.85000 480.431
67.86000 497.228
67.87000 510.491
67.88000 517.768
67.89000 516.001
67.90000 514.143
67.91000 514.607
67.92000 517.357
67.93000 520.088
67.94000 518.054
67.95000 513.036
67.96000 508.185
67.97000 507.571
67.98000 508.796
67.99000 510.459
68.00000 517.422
68.01000 525.943
68.02000 533.559
68.03000 546.368
68.04000 558.412
68.05000 568.404
68.06000 569.154
68.07000 568.782
68.08000 569.942
68.09000 575.710
68.10000 581.790
68.11000 585.909
68.12000 576.948
68.13000 569.981
68.14000 568.462
68.15000 574.402
68.16000 580.389
68.17000 591.283
68.18000 606.513
68.19000 621.581
68.20000 621.899
68.21000 613.781
68.22000 606.104
68.23000 607.459
68.24000 612.389
68.25000 617.126
68.26000 619.843
68.27000 622.021
68.28000 623.939
68.29000 631.807
68.30000 639.481
68.31000 646.121
68.32000 648.545
68.33000 650.518
68.34000 653.559
68.35000 659.527
68.36000 665.663
68.37000 669.682
68.38000 679.882
68.39000 687.482
68.40000 695.361
68.41000 703.585
68.42000 711.815
68.43000 721.380
68.44000 732.008
68.45000 742.478
68.46000 751.496
68.47000 759.494
68.48000 767.431
68.49000 774.317
68.50000 780.823
68.51000 789.071
68.52000 813.320
68.53000 841.443
68.54000 865.828
68.55000 876.695
68.56000 884.146
68.57000 896.685
68.58000 928.036
68.59000 961.147
68.60000 991.357
68.61000 1014.324
68.62000 1036.947
68.63000 1051.243
68.64000 1109.353
68.65000 1151.975
68.66000 1199.443
68.67000 1252.315
68.68000 1305.254
68.69000 1368.054
68.70000 1437.963
68.71000 1506.468
68.72000 1561.152
68.73000 1607.322
68.74000 1654.294
68.75000 1712.865
68.76000 1775.244
68.77000 1837.072
68.78000 1894.444
68.79000 1950.839
68.80000 1998.922
68.81000 2085.111
68.82000 2162.102
68.83000 2245.579
68.84000 2350.843
68.85000 2457.872
68.86000 2586.870
68.87000 2765.825
68.88000 2946.712
68.89000 3056.690
68.90000 3633.896
68.91000 4049.662
68.92000 4869.909
68.93000 6095.284
68.94000 7331.320
68.95000 9557.228
68.96000 12430.143
68.97000 15228.438
68.98000 19286.500
68.99000 23685.035
69.00000 28098.113
69.01000 32691.395
69.02000 37338.469
69.03000 41835.289
69.04000 45252.086
69.05000 48455.441
69.06000 51137.691
69.07000 52775.211
69.08000 54028.875
69.09000 55039.688
69.10000 55308.453
69.11000 55525.652
69.12000 55844.371
69.13000 56373.395
69.14000 56908.867
69.15000 57221.227
69.16000 58403.922
69.17000 59239.148
69.18000 59463.824
69.19000 59139.398
69.20000 58792.863
69.21000 57068.285
69.22000 54525.707
69.23000 52066.023
69.24000 48812.996
69.25000 45439.598
69.26000 42132.203
69.27000 39533.457
69.28000 37126.875
69.29000 34821.406
69.30000 33164.051
69.31000 31621.928
69.32000 30355.381
69.33000 29534.826
69.34000 28900.992
69.35000 28246.014
69.36000 27532.217
69.37000 26814.957
69.38000 25814.701
69.39000 24280.695
69.40000 22734.156
69.41000 21871.320
69.42000 18500.008
69.43000 16161.502
69.44000 13925.932
69.45000 11773.795
69.46000 9632.498
69.47000 7979.266
69.48000 6589.508
69.49000 5255.316
69.50000 4338.143
69.51000 3623.096
69.52000 2942.714
69.53000 2587.674
69.54000 2312.649
69.55000 2058.533
69.56000 1924.468
69.57000 1809.536
69.58000 1717.070
69.59000 1596.751
69.60000 1496.997
69.61000 1414.360
69.62000 1375.092
69.63000 1337.949
69.64000 1298.570
69.65000 1255.353
69.66000 1212.070
69.67000 1189.055
69.68000 1142.117
69.69000 1110.160
69.70000 1079.495
69.71000 1049.776
69.72000 1019.967
69.73000 987.099
69.74000 952.728
69.75000 920.010
69.76000 902.307
69.77000 890.548
69.78000 879.643
69.79000 875.784
69.80000 873.494
69.81000 868.345
69.82000 848.440
69.83000 826.437
69.84000 809.120
69.85000 785.238
69.86000 765.670
69.87000 751.112
69.88000 748.115
69.89000 745.582
69.90000 739.692
69.91000 728.572
69.92000 717.390
69.93000 711.746
69.94000 712.236
69.95000 712.466
69.96000 702.935
69.97000 686.922
69.98000 671.263
69.99000 665.168
70.00000 663.354
