20.00000 571.770
20.01000 566.862
20.02000 561.252
20.03000 557.941
20.04000 563.608
20.05000 570.183
20.06000 575.013
20.07000 568.380
20.08000 562.781
20.09000 560.910
20.10000 565.685
20.11000 570.590
20.12000 569.743
20.13000 562.088
20.14000 554.440
20.15000 556.948
20.16000 567.141
20.17000 577.101
20.18000 578.232
20.19000 574.856
20.20000 571.485
20.21000 568.197
20.22000 564.939
20.23000 561.958
20.24000 560.500
20.25000 559.517
20.26000 559.360
20.27000 563.655
20.28000 568.613
20.29000 572.351
20.30000 571.757
20.31000 570.783
20.32000 570.087
20.33000 559.734
20.34000 551.513
20.35000 541.512
20.36000 528.626
20.37000 515.701
20.38000 516.529
20.39000 532.005
20.40000 547.410
20.41000 555.639
20.42000 558.873
20.43000 561.900
20.44000 558.758
20.45000 552.750
20.46000 547.241
20.47000 548.473
20.48000 551.827
20.49000 554.856
20.50000 562.943
20.51000 570.982
20.52000 577.310
20.53000 575.335
20.54000 572.259
20.55000 566.252
20.56000 550.796
20.57000 534.623
20.58000 523.411
20.59000 534.949
20.60000 544.238
20.61000 546.463
20.62000 538.300
20.63000 530.045
20.64000 528.615
20.65000 533.706
20.66000 538.756
20.67000 543.805
20.68000 548.765
20.69000 553.609
20.70000 555.684
20.71000 556.586
20.72000 556.860
20.73000 549.820
20.74000 540.687
20.75000 532.554
20.76000 537.980
20.77000 544.920
20.78000 550.604
20.79000 550.779
20.80000 550.308
20.81000 548.037
20.82000 540.487
20.83000 532.595
20.84000 527.295
20.85000 531.603
20.86000 534.997
20.87000 537.898
20.88000 540.142
20.89000 542.378
20.90000 541.521
20.91000 538.006
20.92000 534.532
20.93000 537.052
20.94000 542.842
20.95000 548.491
20.96000 551.410
20.97000 553.274
20.98000 555.018
20.99000 555.540
21.00000 555.745
21.01000 555.924
21.02000 549.352
21.03000 542.725
21.04000 538.406
21.05000 543.251
21.06000 549.041
21.07000 553.394
21.08000 553.907
21.09000 554.210
21.10000 554.407
21.11000 554.930
21.12000 555.318
21.13000 553.583
21.14000 549.294
21.15000 545.012
21.16000 543.493
21.17000 544.119
21.18000 544.734
21.19000 544.094
21.20000 542.845
21.21000 541.151
21.22000 532.207
21.23000 520.716
21.24000 511.420
21.25000 521.611
21.26000 536.393
21.27000 549.153
21.28000 546.974
21.29000 543.199
21.30000 539.432
21.31000 535.689
21.32000 531.949
21.33000 528.275
21.34000 524.763
21.35000 521.259
21.36000 519.067
21.37000 529.281
21.38000 536.784
21.39000 539.470
21.40000 536.935
21.41000 534.440
21.42000 537.666
21.43000 544.905
21.44000 551.988
21.45000 546.168
21.46000 534.741
21.47000 524.352
21.48000 528.336
21.49000 536.917
21.50000 544.864
21.51000 547.830
21.52000 549.736
21.53000 551.352
21.54000 546.301
21.55000 541.308
21.56000 537.967
21.57000 540.033
21.58000 542.519
21.59000 543.986
21.60000 543.193
21.61000 542.317
21.62000 541.791
21.63000 547.696
21.64000 551.939
21.65000 554.325
21.66000 554.904
21.67000 555.506
21.68000 557.998
21.69000 561.692
21.70000 565.284
21.71000 564.372
21.72000 561.663
21.73000 559.172
21.74000 559.280
21.75000 560.144
21.76000 561.183
21.77000 563.446
21.78000 565.943
21.79000 568.024
21.80000 562.731
21.81000 557.614
21.82000 554.112
21.83000 555.420
21.84000 557.049
21.85000 557.731
21.86000 556.502
21.87000 555.219
21.88000 554.479
21.89000 554.966
21.90000 555.311
21.91000 554.581
21.92000 552.913
21.93000 551.396
21.94000 558.501
21.95000 570.592
21.96000 582.266
21.97000 576.063
21.98000 563.625
21.99000 553.500
22.00000 567.314
22.01000 587.449
22.02000 604.763
22.03000 604.533
22.04000 601.274
22.05000 598.612
22.06000 594.719
22.07000 591.427
22.08000 590.739
22.09000 597.110
22.10000 603.878
22.11000 606.738
22.12000 602.417
22.13000 597.941
22.14000 595.475
22.15000 600.420
22.16000 603.843
22.17000 607.907
22.18000 612.476
22.19000 616.968
22.20000 618.242
22.21000 617.823
22.22000 617.421
22.23000 611.732
22.24000 604.666
22.25000 598.676
22.26000 602.426
22.27000 608.507
22.28000 613.368
22.29000 611.426
22.30000 608.432
22.31000 606.037
22.32000 599.856
22.33000 594.578
22.34000 591.325
22.35000 593.073
22.36000 595.054
22.37000 593.362
22.38000 585.529
22.39000 577.600
22.40000 573.441
22.41000 561.465
22.42000 553.411
22.43000 554.563
22.44000 562.280
22.45000 569.908
22.46000 574.718
22.47000 578.177
22.48000 581.462
22.49000 580.388
22.50000 578.090
22.51000 574.780
22.52000 563.383
22.53000 550.234
22.54000 539.462
22.55000 540.616
22.56000 543.414
22.57000 545.602
22.58000 542.583
22.59000 539.841
22.60000 538.446
22.61000 540.083
22.62000 541.833
22.63000 539.062
22.64000 529.425
22.65000 519.717
22.66000 516.376
22.67000 519.335
22.68000 522.240
22.69000 520.373
22.70000 515.419
22.71000 510.836
22.72000 515.657
22.73000 524.582
22.74000 532.976
22.75000 532.584
22.76000 529.855
22.77000 526.806
22.78000 521.480
22.79000 515.709
22.80000 511.144
22.81000 512.043
22.82000 513.609
22.83000 514.805
22.84000 514.465
22.85000 514.115
22.86000 514.111
22.87000 514.814
22.88000 515.538
22.89000 518.984
22.90000 526.173
22.91000 533.382
22.92000 534.000
22.93000 528.766
22.94000 523.549
22.95000 519.399
22.96000 515.875
22.97000 512.371
22.98000 509.281
22.99000 506.355
23.00000 503.633
23.01000 510.961
23.02000 520.021
23.03000 527.424
23.04000 524.350
23.05000 519.435
23.06000 514.750
23.07000 511.008
23.08000 507.368
23.09000 504.658
23.10000 509.835
23.11000 514.217
23.12000 515.560
23.13000 511.229
23.14000 506.769
23.15000 504.894
23.16000 506.232
23.17000 507.578
23.18000 507.954
23.19000 507.553
23.20000 507.133
23.21000 505.818
23.22000 504.026
23.23000 502.165
23.24000 499.110
23.25000 495.624
23.26000 492.416
23.27000 494.072
23.28000 496.610
23.29000 498.660
23.30000 497.943
23.31000 496.791
23.32000 495.795
23.33000 495.381
23.34000 495.021
23.35000 494.761
23.36000 503.953
23.37000 511.362
23.38000 515.191
23.39000 512.943
23.40000 510.595
23.41000 505.210
23.42000 496.421
23.43000 487.661
23.44000 489.738
23.45000 499.582
23.46000 509.093
23.47000 507.517
23.48000 500.548
23.49000 494.001
23.50000 493.602
23.51000 495.229
23.52000 496.708
23.53000 489.905
23.54000 482.282
23.55000 477.367
23.56000 486.268
23.57000 497.109
23.58000 502.390
23.59000 488.903
23.60000 473.883
23.61000 463.314
23.62000 477.947
23.63000 489.783
23.64000 499.109
23.65000 504.568
23.66000 509.983
23.67000 511.172
23.68000 508.106
23.69000 505.059
23.70000 504.577
23.71000 505.762
23.72000 506.749
23.73000 502.491
23.74000 495.911
23.75000 489.617
23.76000 486.907
23.77000 485.272
23.78000 483.806
23.79000 488.914
23.80000 494.518
23.81000 498.319
23.82000 493.823
23.83000 488.292
23.84000 485.908
23.85000 493.186
23.86000 501.142
23.87000 506.568
23.88000 490.151
23.89000 477.370
23.90000 475.243
23.91000 488.010
23.92000 500.872
23.93000 505.939
23.94000 503.957
23.95000 501.994
23.96000 499.164
23.97000 495.887
23.98000 492.687
23.99000 491.145
24.00000 490.271
24.01000 489.039
24.02000 483.930
24.03000 477.764
24.04000 472.315
24.05000 480.779
24.06000 490.236
24.07000 496.422
24.08000 488.982
24.09000 480.043
24.10000 473.621
24.11000 474.230
24.12000 475.256
24.13000 475.933
24.14000 480.590
24.15000 484.093
24.16000 485.931
24.17000 485.663
24.18000 485.386
24.19000 484.517
24.20000 483.166
24.21000 481.835
24.22000 476.613
24.23000 469.490
24.24000 462.879
24.25000 465.366
24.26000 471.198
24.27000 476.773
24.28000 479.915
24.29000 482.456
24.30000 484.668
24.31000 483.404
24.32000 481.851
24.33000 479.526
24.34000 474.291
24.35000 468.776
24.36000 465.155
24.37000 466.359
24.38000 467.802
24.39000 468.721
24.40000 471.679
24.41000 473.855
24.42000 474.810
24.43000 474.371
24.44000 473.985
24.45000 483.085
24.46000 499.171
24.47000 514.952
24.48000 504.023
24.49000 480.779
24.50000 458.910
24.51000 457.608
24.52000 463.192
24.53000 468.641
24.54000 472.968
24.55000 477.043
24.56000 480.531
24.57000 479.690
24.58000 478.459
24.59000 477.102
24.60000 475.318
24.61000 473.499
24.62000 470.483
24.63000 464.693
24.64000 458.790
24.65000 455.171
24.66000 462.116
24.67000 467.180
24.68000 472.176
24.69000 477.100
24.70000 481.984
24.71000 482.762
24.72000 480.799
24.73000 478.885
24.74000 473.670
24.75000 467.270
24.76000 461.290
24.77000 460.681
24.78000 461.708
24.79000 463.397
24.80000 469.976
24.81000 477.541
24.82000 483.901
24.83000 479.281
24.84000 474.268
24.85000 470.246
24.86000 469.315
24.87000 468.607
24.88000 470.486
24.89000 477.836
24.90000 485.362
24.91000 489.793
24.92000 487.827
24.93000 486.407
24.94000 482.869
24.95000 477.385
24.96000 472.002
24.97000 473.495
24.98000 479.153
24.99000 484.634
25.00000 487.080
25.01000 488.217
25.02000 488.828
25.03000 483.625
25.04000 476.814
25.05000 470.688
25.06000 469.060
25.07000 468.251
25.08000 467.584
25.09000 470.748
25.10000 473.707
25.11000 476.850
25.12000 480.511
25.13000 484.205
25.14000 482.255
25.15000 469.447
25.16000 456.368
25.17000 448.999
25.18000 459.114
25.19000 466.178
25.20000 469.678
25.21000 470.225
25.22000 470.771
25.23000 471.181
25.24000 471.517
25.25000 471.840
25.26000 469.013
25.27000 465.262
25.28000 462.090
25.29000 464.513
25.30000 468.340
25.31000 471.525
25.32000 470.932
25.33000 469.722
25.34000 468.745
25.35000 469.211
25.36000 469.705
25.37000 469.713
25.38000 468.462
25.39000 467.147
25.40000 464.503
25.41000 459.534
25.42000 454.522
25.43000 451.828
25.44000 468.597
25.45000 480.032
25.46000 484.099
25.47000 482.652
25.48000 481.079
25.49000 475.004
25.50000 466.670
25.51000 458.722
25.52000 457.062
25.53000 457.504
25.54000 457.952
25.55000 458.453
25.56000 458.966
25.57000 459.775
25.58000 462.150
25.59000 464.753
25.60000 466.812
25.61000 463.878
25.62000 461.177
25.63000 460.475
25.64000 464.478
25.65000 468.677
25.66000 471.266
25.67000 471.292
25.68000 471.285
25.69000 471.281
25.70000 460.361
25.71000 453.070
25.72000 450.364
25.73000 450.765
25.74000 451.259
25.75000 454.378
25.76000 458.694
25.77000 462.772
25.78000 458.311
25.79000 451.789
25.80000 446.233
25.81000 447.933
25.82000 451.124
25.83000 452.976
25.84000 448.458
25.85000 443.114
25.86000 438.986
25.87000 447.342
25.88000 454.699
25.89000 461.649
25.90000 467.725
25.91000 473.773
25.92000 473.207
25.93000 463.098
25.94000 452.913
25.95000 449.547
25.96000 452.563
25.97000 455.539
25.98000 455.772
25.99000 454.315
26.00000 452.735
26.01000 448.363
26.02000 442.829
26.03000 437.653
26.04000 439.062
26.05000 442.023
26.06000 444.696
26.07000 445.437
26.08000 445.821
26.09000 446.963
26.10000 451.368
26.11000 456.147
26.12000 459.749
26.13000 461.757
26.14000 463.251
26.15000 464.293
26.16000 464.452
26.17000 464.589
26.18000 462.505
26.19000 457.521
26.20000 452.529
26.21000 453.723
26.22000 460.112
26.23000 466.300
26.24000 462.301
26.25000 452.606
26.26000 443.288
26.27000 441.077
26.28000 441.560
26.29000 442.006
26.30000 440.893
26.31000 439.536
26.32000 439.491
26.33000 447.294
26.34000 456.400
26.35000 462.996
26.36000 459.811
26.37000 455.641
26.38000 452.580
26.39000 450.311
26.40000 448.589
26.41000 445.765
26.42000 440.982
26.43000 436.161
26.44000 435.498
26.45000 439.740
26.46000 443.980
26.47000 446.727
26.48000 448.327
26.49000 449.823
26.50000 447.357
26.51000 442.876
26.52000 438.616
26.53000 437.861
26.54000 438.315
26.55000 438.730
26.56000 443.326
26.57000 448.269
26.58000 453.343
26.59000 459.120
26.60000 465.003
26.61000 467.624
26.62000 458.714
26.63000 448.793
26.64000 441.711
26.65000 447.058
26.66000 451.547
26.67000 452.410
26.68000 447.413
26.69000 442.335
26.70000 443.303
26.71000 450.687
26.72000 458.037
26.73000 462.034
26.74000 463.702
26.75000 465.075
26.76000 457.787
26.77000 446.485
26.78000 436.193
26.79000 439.496
26.80000 447.068
26.81000 453.902
26.82000 453.893
26.83000 452.629
26.84000 450.551
26.85000 444.536
26.86000 438.001
26.87000 434.466
26.88000 440.571
26.89000 447.406
26.90000 452.139
26.91000 429.851
26.92000 412.368
26.93000 406.391
26.94000 417.285
26.95000 428.326
26.96000 433.050
26.97000 431.759
26.98000 430.478
26.99000 431.529
27.00000 433.993
27.01000 436.319
27.02000 435.397
27.03000 433.103
27.04000 431.331
27.05000 435.595
27.06000 441.583
27.07000 446.912
27.08000 443.018
27.09000 438.129
27.10000 434.026
27.11000 433.358
27.12000 433.093
27.13000 432.466
27.14000 430.781
27.15000 429.027
27.16000 427.851
27.17000 430.450
27.18000 432.455
27.19000 433.085
27.20000 431.889
27.21000 430.685
27.22000 430.176
27.23000 430.261
27.24000 430.346
27.25000 435.177
27.26000 442.517
27.27000 449.363
27.28000 446.638
27.29000 440.230
27.30000 434.275
27.31000 432.877
27.32000 432.661
27.33000 432.471
27.34000 426.310
27.35000 420.155
27.36000 416.844
27.37000 424.791
27.38000 433.895
27.39000 439.602
27.40000 436.262
27.41000 432.432
27.42000 429.949
27.43000 432.183
27.44000 433.888
27.45000 431.479
27.46000 424.134
27.47000 416.802
27.48000 415.137
27.49000 417.852
27.50000 420.523
27.51000 420.223
27.52000 418.447
27.53000 416.972
27.54000 420.389
27.55000 425.520
27.56000 430.793
27.57000 437.315
27.58000 444.130
27.59000 450.011
27.60000 444.531
27.61000 438.425
27.62000 435.136
27.63000 441.965
27.64000 449.702
27.65000 453.727
27.66000 448.745
27.67000 443.360
27.68000 439.996
27.69000 430.890
27.70000 424.261
27.71000 422.656
27.72000 426.479
27.73000 430.259
27.74000 428.305
27.75000 422.338
27.76000 416.500
27.77000 417.389
27.78000 421.278
27.79000 424.717
27.80000 421.933
27.81000 417.165
27.82000 412.953
27.83000 413.075
27.84000 414.118
27.85000 415.002
27.86000 421.097
27.87000 426.794
27.88000 431.330
27.89000 432.071
27.90000 432.519
27.91000 429.734
27.92000 419.801
27.93000 409.610
27.94000 403.489
27.95000 417.072
27.96000 426.859
27.97000 429.154
27.98000 424.190
27.99000 419.307
28.00000 421.030
28.01000 426.946
28.02000 432.697
28.03000 432.918
28.04000 430.873
28.05000 428.937
28.06000 428.285
28.07000 428.006
28.08000 427.527
28.09000 425.663
28.10000 423.534
28.11000 421.762
28.12000 423.051
28.13000 424.421
28.14000 426.659
28.15000 431.472
28.16000 436.455
28.17000 439.336
28.18000 437.982
28.19000 436.507
28.20000 435.658
28.21000 436.525
28.22000 437.134
28.23000 433.552
28.24000 426.319
28.25000 419.220
28.26000 419.623
28.27000 424.352
28.28000 428.917
28.29000 425.637
28.30000 419.661
28.31000 414.226
28.32000 414.346
28.33000 415.929
28.34000 417.717
28.35000 420.780
28.36000 424.061
28.37000 426.740
28.38000 413.164
28.39000 400.660
28.40000 395.242
28.41000 408.986
28.42000 423.798
28.43000 431.731
28.44000 427.056
28.45000 422.111
28.46000 419.390
28.47000 410.962
28.48000 405.185
28.49000 409.919
28.50000 422.914
28.51000 435.632
28.52000 436.952
28.53000 432.292
28.54000 427.829
28.55000 417.358
28.56000 405.602
28.57000 395.191
28.58000 396.926
28.59000 401.559
28.60000 406.548
28.61000 413.513
28.62000 420.782
28.63000 426.591
28.64000 418.406
28.65000 410.754
28.66000 406.657
28.67000 411.317
28.68000 416.383
28.69000 418.758
28.70000 416.649
28.71000 414.471
28.72000 413.331
28.73000 429.234
28.74000 439.934
28.75000 439.844
28.76000 432.082
28.77000 424.284
28.78000 415.362
28.79000 405.901
28.80000 396.920
28.81000 396.565
28.82000 398.814
28.83000 401.434
28.84000 407.010
28.85000 413.225
28.86000 418.450
28.87000 418.731
28.88000 418.333
28.89000 418.021
28.90000 420.603
28.91000 422.846
28.92000 424.935
28.93000 426.678
28.94000 428.408
28.95000 425.371
28.96000 415.118
28.97000 404.791
28.98000 401.841
28.99000 406.165
29.00000 410.404
29.01000 407.214
29.02000 399.233
29.03000 391.596
29.04000 392.638
29.05000 397.457
29.06000 401.988
29.07000 404.451
29.08000 406.143
29.09000 407.946
29.10000 410.529
29.11000 413.263
29.12000 414.504
29.13000 409.006
29.14000 402.687
29.15000 397.866
29.16000 404.400
29.17000 410.156
29.18000 411.836
29.19000 405.183
29.20000 398.283
29.21000 394.975
29.22000 396.593
29.23000 398.241
29.24000 404.600
29.25000 415.120
29.26000 425.500
29.27000 427.579
29.28000 424.797
29.29000 421.775
29.30000 413.800
29.31000 403.861
29.32000 394.616
29.33000 394.583
29.34000 396.780
29.35000 399.278
29.36000 403.675
29.37000 408.406
29.38000 411.871
29.39000 410.171
29.40000 407.916
29.41000 406.239
29.42000 409.756
29.43000 412.725
29.44000 415.530
29.45000 418.033
29.46000 420.528
29.47000 418.073
29.48000 409.477
29.49000 400.878
29.50000 398.818
29.51000 401.968
29.52000 405.109
29.53000 407.844
29.54000 410.363
29.55000 412.899
29.56000 415.709
29.57000 418.619
29.58000 421.295
29.59000 412.539
29.60000 402.239
29.61000 393.862
29.62000 396.357
29.63000 400.559
29.64000 403.631
29.65000 402.520
29.66000 401.016
29.67000 399.928
29.68000 394.423
29.69000 390.036
29.70000 388.484
29.71000 391.732
29.72000 395.059
29.73000 395.439
29.74000 392.524
29.75000 389.617
29.76000 392.710
29.77000 400.073
29.78000 407.117
29.79000 403.678
29.80000 395.155
29.81000 387.226
29.82000 387.920
29.83000 391.449
29.84000 394.655
29.85000 398.880
29.86000 402.810
29.87000 406.850
29.88000 411.454
29.89000 416.136
29.90000 418.661
29.91000 413.925
29.92000 408.599
29.93000 404.854
29.94000 399.998
29.95000 396.287
29.96000 395.770
29.97000 400.164
29.98000 404.611
29.99000 404.626
30.00000 400.189
30.01000 395.781
30.02000 396.992
30.03000 401.811
30.04000 406.446
30.05000 406.251
30.06000 403.922
30.07000 401.488
30.08000 397.739
30.09000 393.597
30.10000 389.885
30.11000 394.698
30.12000 400.375
30.13000 405.445
30.14000 407.729
30.15000 409.668
30.16000 410.201
30.17000 406.433
30.18000 402.366
30.19000 399.594
30.20000 404.970
30.21000 409.175
30.22000 410.565
30.23000 408.034
30.24000 405.479
30.25000 407.244
30.26000 412.904
30.27000 418.508
30.28000 418.417
30.29000 415.013
30.30000 411.567
30.31000 407.220
30.32000 402.510
30.33000 398.210
30.34000 398.324
30.35000 399.637
30.36000 400.796
30.37000 405.088
30.38000 409.275
30.39000 412.597
30.40000 412.327
30.41000 411.664
30.42000 410.655
30.43000 408.684
30.44000 406.657
30.45000 405.320
30.46000 408.129
30.47000 410.271
30.48000 406.983
30.49000 396.849
30.50000 386.727
30.51000 389.306
30.52000 402.203
30.53000 414.918
30.54000 412.160
30.55000 401.351
30.56000 391.437
30.57000 397.332
30.58000 409.024
30.59000 419.493
30.60000 418.453
30.61000 414.577
30.62000 411.205
30.63000 409.404
30.64000 408.080
30.65000 407.002
30.66000 406.851
30.67000 406.788
30.68000 407.951
30.69000 412.227
30.70000 416.656
30.71000 419.474
30.72000 418.629
30.73000 417.968
30.74000 415.966
30.75000 412.440
30.76000 408.930
30.77000 408.617
30.78000 410.650
30.79000 412.645
30.80000 410.862
30.81000 407.351
30.82000 404.434
30.83000 410.364
30.84000 419.249
30.85000 427.051
30.86000 425.894
30.87000 422.737
30.88000 420.037
30.89000 439.392
30.90000 458.365
30.91000 470.089
30.92000 457.035
30.93000 441.920
30.94000 433.543
30.95000 440.752
30.96000 448.588
30.97000 453.386
30.98000 456.404
30.99000 458.549
31.00000 465.881
31.01000 478.513
31.02000 491.103
31.03000 499.453
31.04000 504.982
31.05000 510.373
31.06000 516.757
31.07000 523.278
31.08000 529.881
31.09000 537.540
31.10000 545.518
31.11000 555.184
31.12000 577.239
31.13000 601.790
31.14000 622.416
31.15000 648.759
31.16000 671.308
31.17000 696.175
31.18000 728.248
31.19000 760.835
31.20000 793.644
31.21000 826.920
31.22000 860.211
31.23000 879.782
31.24000 916.953
31.25000 943.253
31.26000 968.471
31.27000 992.695
31.28000 1017.029
31.29000 1048.722
31.30000 1084.859
31.31000 1119.865
31.32000 1157.652
31.33000 1194.478
31.34000 1230.606
31.35000 1259.038
31.36000 1285.345
31.37000 1310.090
31.38000 1324.610
31.39000 1337.276
31.40000 1347.717
31.41000 1341.380
31.42000 1334.621
31.43000 1327.211
31.44000 1317.960
31.45000 1308.597
31.46000 1295.265
31.47000 1274.316
31.48000 1253.179
31.49000 1241.287
31.50000 1219.038
31.51000 1203.528
31.52000 1170.525
31.53000 1123.076
31.54000 1076.006
31.55000 1046.987
31.56000 1027.881
31.57000 1009.513
31.58000 977.467
31.59000 942.670
31.60000 908.384
31.61000 879.002
31.62000 850.847
31.63000 821.964
31.64000 788.812
31.65000 754.967
31.66000 727.631
31.67000 697.507
31.68000 672.795
31.69000 650.073
31.70000 632.481
31.71000 615.150
31.72000 599.215
31.73000 585.718
31.74000 572.266
31.75000 565.048
31.76000 551.557
31.77000 542.356
31.78000 536.226
31.79000 532.388
31.80000 528.527
31.81000 523.808
31.82000 518.662
31.83000 513.755
31.84000 500.640
31.85000 485.895
31.86000 472.753
31.87000 473.162
31.88000 476.645
31.89000 477.621
31.90000 465.416
31.91000 451.295
31.92000 440.136
31.93000 441.697
31.94000 443.820
31.95000 444.525
31.96000 441.899
31.97000 439.134
31.98000 439.160
31.99000 443.615
32.00000 448.125
32.01000 450.425
32.02000 433.673
32.03000 422.493
32.04000 418.013
32.05000 418.062
32.06000 418.117
32.07000 418.376
32.08000 418.728
32.09000 419.061
32.10000 414.619
32.11000 409.190
32.12000 404.018
32.13000 400.770
32.14000 397.916
32.15000 395.489
32.16000 395.084
32.17000 394.940
32.18000 394.829
32.19000 396.087
32.20000 397.165
32.21000 396.560
32.22000 392.357
32.23000 388.035
32.24000 388.181
32.25000 394.758
32.26000 401.384
32.27000 402.786
32.28000 399.315
32.29000 395.881
32.30000 395.039
32.31000 395.788
32.32000 396.380
32.33000 393.431
32.34000 389.014
32.35000 384.884
32.36000 384.811
32.37000 385.778
32.38000 385.144
32.39000 373.839
32.40000 360.566
32.41000 351.564
32.42000 360.878
32.43000 372.282
32.44000 380.872
32.45000 383.601
32.46000 385.450
32.47000 384.388
32.48000 377.652
32.49000 370.770
32.50000 365.996
32.51000 363.968
32.52000 361.953
32.53000 362.921
32.54000 366.386
32.55000 369.785
32.56000 369.944
32.57000 368.297
32.58000 366.523
32.59000 362.382
32.60000 357.347
32.61000 352.689
32.62000 354.535
32.63000 357.680
32.64000 360.779
32.65000 363.611
32.66000 366.399
32.67000 368.745
32.68000 369.380
32.69000 369.843
32.70000 370.183
32.71000 367.263
32.72000 364.875
32.73000 364.093
32.74000 366.159
32.75000 368.280
32.76000 369.498
32.77000 369.655
32.78000 369.810
32.79000 371.600
32.80000 374.610
32.81000 377.583
32.82000 379.151
32.83000 380.006
32.84000 380.923
32.85000 382.818
32.86000 385.050
32.87000 387.090
32.88000 386.735
32.89000 385.930
32.90000 384.993
32.91000 383.356
32.92000 381.614
32.93000 379.418
32.94000 375.618
32.95000 371.679
32.96000 368.869
32.97000 362.575
32.98000 357.662
32.99000 359.082
33.00000 370.704
33.01000 382.464
33.02000 382.364
33.03000 369.715
33.04000 357.126
33.05000 351.222
33.06000 349.923
33.07000 348.644
33.08000 347.921
33.09000 347.457
33.10000 346.803
33.11000 343.620
33.12000 339.645
33.13000 336.059
33.14000 334.099
33.15000 332.675
33.16000 332.141
33.17000 335.897
33.18000 340.218
33.19000 343.386
33.20000 342.857
33.21000 342.050
33.22000 341.492
33.23000 342.555
33.24000 343.398
33.25000 343.296
33.26000 341.814
33.27000 340.320
33.28000 337.973
33.29000 334.816
33.30000 331.685
33.31000 331.869
33.32000 334.078
33.33000 336.209
33.34000 336.501
33.35000 336.019
33.36000 335.234
33.37000 330.949
33.38000 325.667
33.39000 320.968
33.40000 321.493
33.41000 322.800
33.42000 323.168
33.43000 319.441
33.44000 315.237
33.45000 316.366
33.46000 333.051
33.47000 350.734
33.48000 362.583
33.49000 357.256
33.50000 352.959
33.51000 349.468
33.52000 347.044
33.53000 344.628
33.54000 344.196
33.55000 345.457
33.56000 346.703
33.57000 348.537
33.58000 350.651
33.59000 352.520
33.60000 349.684
33.61000 345.042
33.62000 340.846
33.63000 341.118
33.64000 342.546
33.65000 343.797
33.66000 336.171
33.67000 328.342
33.68000 321.932
33.69000 321.117
33.70000 320.874
33.71000 322.927
33.72000 331.076
33.73000 339.555
33.74000 345.044
33.75000 343.376
33.76000 342.051
33.77000 338.881
33.78000 333.506
33.79000 328.149
33.80000 328.223
33.81000 332.482
33.82000 336.672
33.83000 333.930
33.84000 327.822
33.85000 321.911
33.86000 319.174
33.87000 317.546
33.88000 316.901
33.89000 324.918
33.90000 334.963
33.91000 343.626
33.92000 328.794
33.93000 313.211
33.94000 302.246
33.95000 307.816
33.96000 314.862
33.97000 322.570
33.98000 331.880
33.99000 341.262
34.00000 347.116
34.01000 336.531
34.02000 328.728
34.03000 325.006
34.04000 325.677
34.05000 326.326
34.06000 324.064
34.07000 319.771
34.08000 315.572
34.09000 317.308
34.10000 321.643
34.11000 325.660
34.12000 325.319
34.13000 323.591
34.14000 322.544
34.15000 326.788
34.16000 332.152
34.17000 336.698
34.18000 331.629
34.19000 326.299
34.20000 322.419
34.21000 323.258
34.22000 324.461
34.23000 325.312
34.24000 325.387
34.25000 325.434
34.26000 325.462
34.27000 329.698
34.28000 332.734
34.29000 333.023
34.30000 330.658
34.31000 328.335
34.32000 329.461
34.33000 332.769
34.34000 335.984
34.35000 336.106
34.36000 334.966
34.37000 333.472
34.38000 327.817
34.39000 320.959
34.40000 315.352
34.41000 318.399
34.42000 323.097
34.43000 327.007
34.44000 330.549
34.45000 333.446
34.46000 333.777
34.47000 326.507
34.48000 318.738
34.49000 316.528
34.50000 325.484
34.51000 334.754
34.52000 340.084
34.53000 330.269
34.54000 323.353
34.55000 321.173
34.56000 323.105
34.57000 324.996
34.58000 324.602
34.59000 322.895
34.60000 321.246
34.61000 318.884
34.62000 316.398
34.63000 314.361
34.64000 316.941
34.65000 320.733
34.66000 323.917
34.67000 323.355
34.68000 322.150
34.69000 321.167
34.70000 322.005
34.71000 322.846
34.72000 322.112
34.73000 317.131
34.74000 311.915
34.75000 308.665
34.76000 309.008
34.77000 309.428
34.78000 309.659
34.79000 315.607
34.80000 319.713
34.81000 324.752
34.82000 330.521
34.83000 336.136
34.84000 335.479
34.85000 331.541
34.86000 327.771
34.87000 323.349
34.88000 319.010
34.89000 315.235
34.90000 316.525
34.91000 319.021
34.92000 320.278
34.93000 314.680
34.94000 308.029
34.95000 302.717
34.96000 310.293
34.97000 317.365
34.98000 321.420
34.99000 318.067
35.00000 314.375
35.01000 311.556
35.02000 310.190
35.03000 308.846
35.04000 308.143
35.05000 310.194
35.06000 311.557
35.07000 309.149
35.08000 304.068
35.09000 299.071
35.10000 296.694
35.11000 295.565
35.12000 294.494
35.13000 297.445
35.14000 301.367
35.15000 304.653
35.16000 302.886
35.17000 300.032
35.18000 297.990
35.19000 299.995
35.20000 302.554
35.21000 304.553
35.22000 311.769
35.23000 317.854
35.24000 319.825
35.25000 312.590
35.26000 305.012
35.27000 300.349
35.28000 300.086
35.29000 299.866
35.30000 300.967
35.31000 303.365
35.32000 305.739
35.33000 306.051
35.34000 305.036
35.35000 304.195
35.36000 307.708
35.37000 313.109
35.38000 318.185
35.39000 310.033
35.40000 299.046
35.41000 289.518
35.42000 290.276
35.43000 293.031
35.44000 295.737
35.45000 298.221
35.46000 300.678
35.47000 302.551
35.48000 300.226
35.49000 298.170
35.50000 295.691
35.51000 292.347
35.52000 288.978
35.53000 289.462
35.54000 295.214
35.55000 300.993
35.56000 305.475
35.57000 308.804
35.58000 312.071
35.59000 311.693
35.60000 309.186
35.61000 306.867
35.62000 308.404
35.63000 311.467
35.64000 314.315
35.65000 311.093
35.66000 306.722
35.67000 302.749
35.68000 301.280
35.69000 300.249
35.70000 298.832
35.71000 295.842
35.72000 292.684
35.73000 290.338
35.74000 294.776
35.75000 298.528
35.76000 300.717
35.77000 300.008
35.78000 299.233
35.79000 298.488
35.80000 297.781
35.81000 297.076
35.82000 300.065
35.83000 305.970
35.84000 311.815
35.85000 315.067
35.86000 316.941
35.87000 318.485
35.88000 314.402
35.89000 308.293
35.90000 302.676
35.91000 302.057
35.92000 302.584
35.93000 302.516
35.94000 299.091
35.95000 295.141
35.96000 292.480
35.97000 294.583
35.98000 297.130
35.99000 298.972
36.00000 297.307
36.01000 295.902
36.02000 294.980
36.03000 294.875
36.04000 294.782
36.05000 297.522
36.06000 303.417
36.07000 309.293
36.08000 313.642
36.09000 316.864
36.10000 319.874
36.11000 315.943
36.12000 308.654
36.13000 301.656
36.14000 298.839
36.15000 297.393
36.16000 296.080
36.17000 297.682
36.18000 299.659
36.19000 302.112
36.20000 306.978
36.21000 312.180
36.22000 314.485
36.23000 307.066
36.24000 298.860
36.25000 293.096
36.26000 297.374
36.27000 300.907
36.28000 301.112
36.29000 296.215
36.30000 291.263
36.31000 290.875
36.32000 295.054
36.33000 299.205
36.34000 298.213
36.35000 293.927
36.36000 289.842
36.37000 291.000
36.38000 294.469
36.39000 297.891
36.40000 300.727
36.41000 303.388
36.42000 305.772
36.43000 298.009
36.44000 289.482
36.45000 282.614
36.46000 283.340
36.47000 285.005
36.48000 287.256
36.49000 291.296
36.50000 295.461
36.51000 298.296
36.52000 295.082
36.53000 292.543
36.54000 291.486
36.55000 292.487
36.56000 293.501
36.57000 293.206
36.58000 291.733
36.59000 290.276
36.60000 293.084
36.61000 298.307
36.62000 303.206
36.63000 301.267
36.64000 296.584
36.65000 291.646
36.66000 283.988
36.67000 275.592
36.68000 268.179
36.69000 273.197
36.70000 279.433
36.71000 285.806
36.72000 292.746
36.73000 299.749
36.74000 303.533
36.75000 298.371
36.76000 292.684
36.77000 288.940
36.78000 291.412
36.79000 293.340
36.80000 296.172
36.81000 300.139
36.82000 304.092
36.83000 301.825
36.84000 294.521
36.85000 287.321
36.86000 284.742
36.87000 284.657
36.88000 284.589
36.89000 284.821
36.90000 285.163
36.91000 285.531
36.92000 286.153
36.93000 286.836
36.94000 287.430
36.95000 289.010
36.96000 290.492
36.97000 292.025
36.98000 293.748
36.99000 295.490
37.00000 297.601
37.01000 300.648
37.02000 303.740
37.03000 305.705
37.04000 304.573
37.05000 303.712
37.06000 304.681
37.07000 307.722
37.08000 310.707
37.09000 303.650
37.10000 289.244
37.11000 275.115
37.12000 273.984
37.13000 279.042
37.14000 284.199
37.15000 290.834
37.16000 297.961
37.17000 304.054
37.18000 301.609
37.19000 297.266
37.20000 293.553
37.21000 297.138
37.22000 301.034
37.23000 302.580
37.24000 296.115
37.25000 288.985
37.26000 284.990
37.27000 288.225
37.28000 291.748
37.29000 293.903
37.30000 285.103
37.31000 278.714
37.32000 276.698
37.33000 279.136
37.34000 281.546
37.35000 281.163
37.36000 278.928
37.37000 276.748
37.38000 275.442
37.39000 274.568
37.40000 273.899
37.41000 275.823
37.42000 278.533
37.43000 281.174
37.44000 283.306
37.45000 285.337
37.46000 287.042
37.47000 284.893
37.48000 282.699
37.49000 280.875
37.50000 280.198
37.51000 279.602
37.52000 279.854
37.53000 281.888
37.54000 283.979
37.55000 285.207
37.56000 280.422
37.57000 277.020
37.58000 274.374
37.59000 272.418
37.60000 270.591
37.61000 277.246
37.62000 289.010
37.63000 300.402
37.64000 298.218
37.65000 290.919
37.66000 284.020
37.67000 281.508
37.68000 280.204
37.69000 279.042
37.70000 278.806
37.71000 278.737
37.72000 278.680
37.73000 277.995
37.74000 277.374
37.75000 276.118
37.76000 273.070
37.77000 269.913
37.78000 268.298
37.79000 269.631
37.80000 271.037
37.81000 271.826
37.82000 285.439
37.83000 294.896
37.84000 295.987
37.85000 290.190
37.86000 284.491
37.87000 283.420
37.88000 284.882
37.89000 286.288
37.90000 284.353
37.91000 281.378
37.92000 278.999
37.93000 282.334
37.94000 287.095
37.95000 291.043
37.96000 290.244
37.97000 288.676
37.98000 287.410
37.99000 284.107
38.00000 281.261
38.01000 279.128
38.02000 278.829
38.03000 278.623
38.04000 278.808
38.05000 279.675
38.06000 280.555
38.07000 281.027
38.08000 292.349
38.09000 300.043
38.10000 299.890
38.11000 293.899
38.12000 288.087
38.13000 288.654
38.14000 292.400
38.15000 295.970
38.16000 296.787
38.17000 296.682
38.18000 295.917
38.19000 289.604
38.20000 282.035
38.21000 276.217
38.22000 279.577
38.23000 284.266
38.24000 287.969
38.25000 291.181
38.26000 293.725
38.27000 295.039
38.28000 293.473
38.29000 291.787
38.30000 292.163
38.31000 295.800
38.32000 299.477
38.33000 301.349
38.34000 303.503
38.35000 304.996
38.36000 311.658
38.37000 321.803
38.38000 331.456
38.39000 327.379
38.40000 317.067
38.41000 307.329
38.42000 314.892
38.43000 326.713
38.44000 338.072
38.45000 345.975
38.46000 353.172
38.47000 361.274
38.48000 373.651
38.49000 386.579
38.50000 396.553
38.51000 411.100
38.52000 422.893
38.53000 433.338
38.54000 440.908
38.55000 448.384
38.56000 464.640
38.57000 493.493
38.58000 522.439
38.59000 540.615
38.60000 548.774
38.61000 557.029
38.62000 572.070
38.63000 591.261
38.64000 610.736
38.65000 636.580
38.66000 665.059
38.67000 691.683
38.68000 703.497
38.69000 710.465
38.70000 717.598
38.71000 725.837
38.72000 734.279
38.73000 743.684
38.74000 757.204
38.75000 771.193
38.76000 781.721
38.77000 773.039
38.78000 765.313
38.79000 754.745
38.80000 738.659
38.81000 722.431
38.82000 706.198
38.83000 689.958
38.84000 673.735
38.85000 654.915
38.86000 633.980
38.87000 613.041
38.88000 591.842
38.89000 570.500
38.90000 548.952
38.91000 523.551
38.92000 496.699
38.93000 471.871
38.94000 455.701
38.95000 443.152
38.96000 430.611
38.97000 418.113
38.98000 405.622
38.99000 392.639
39.00000 377.747
39.01000 362.666
39.02000 351.612
39.03000 339.417
39.04000 329.953
39.05000 323.026
39.06000 320.581
39.07000 318.221
39.08000 313.107
39.09000 304.764
39.10000 296.438
39.11000 291.808
39.12000 289.983
39.13000 288.122
39.14000 284.868
39.15000 280.911
39.16000 277.501
39.17000 282.642
39.18000 290.718
39.19000 298.096
39.20000 294.126
39.21000 288.285
39.22000 282.870
39.23000 279.726
39.24000 276.916
39.25000 273.982
39.26000 270.605
39.27000 267.191
39.28000 264.758
39.29000 271.507
39.30000 276.950
39.31000 278.535
39.32000 273.924
39.33000 269.230
39.34000 265.649
39.35000 263.241
39.36000 260.845
39.37000 257.475
39.38000 253.485
39.39000 249.748
39.40000 253.353
39.41000 260.342
39.42000 266.847
39.43000 266.921
39.44000 264.987
39.45000 263.242
39.46000 263.931
39.47000 264.978
39.48000 265.307
39.49000 262.179
39.50000 258.598
39.51000 255.670
39.52000 254.829
39.53000 254.145
39.54000 253.673
39.55000 256.033
39.56000 257.880
39.57000 259.959
39.58000 262.375
39.59000 264.794
39.60000 266.054
39.61000 266.218
39.62000 266.380
39.63000 267.232
39.64000 268.488
39.65000 269.669
39.66000 269.107
39.67000 267.812
39.68000 266.818
39.69000 269.278
39.70000 272.718
39.71000 275.777
39.72000 272.371
39.73000 268.364
39.74000 265.282
39.75000 266.217
39.76000 267.617
39.77000 267.033
39.78000 260.677
39.79000 253.953
39.80000 249.452
39.81000 256.320
39.82000 261.640
39.83000 262.315
39.84000 256.857
39.85000 251.377
39.86000 250.385
39.87000 253.214
39.88000 256.008
39.89000 258.387
39.90000 260.478
39.91000 262.196
39.92000 256.769
39.93000 248.610
39.94000 241.498
39.95000 244.862
39.96000 250.926
39.97000 256.237
39.98000 258.441
39.99000 259.883
40.00000 260.895
40.01000 260.207
40.02000 259.347
40.03000 259.199
40.04000 260.940
40.05000 262.783
40.06000 263.974
40.07000 264.571
40.08000 264.999
40.09000 263.366
40.10000 259.279
40.11000 255.198
40.12000 253.702
40.13000 254.194
40.14000 254.677
40.15000 258.060
40.16000 262.775
40.17000 266.813
40.18000 259.999
40.19000 249.403
40.20000 240.473
40.21000 246.144
40.22000 255.224
40.23000 263.051
40.24000 258.344
40.25000 252.758
40.26000 249.690
40.27000 255.609
40.28000 262.328
40.29000 266.999
40.30000 266.730
40.31000 266.243
40.32000 265.939
40.33000 268.146
40.34000 269.763
40.35000 268.032
40.36000 262.709
40.37000 257.400
40.38000 254.018
40.39000 251.976
40.40000 249.979
40.41000 250.615
40.42000 252.405
40.43000 254.299
40.44000 257.610
40.45000 261.370
40.46000 264.400
40.47000 261.770
40.48000 257.946
40.49000 254.706
40.50000 254.458
40.51000 254.586
40.52000 253.684
40.53000 249.442
40.54000 244.944
40.55000 241.029
40.56000 238.397
40.57000 235.810
40.58000 234.261
40.59000 242.297
40.60000 248.066
40.61000 252.355
40.62000 255.219
40.63000 258.000
40.64000 254.245
40.65000 246.366
40.66000 238.710
40.67000 239.508
40.68000 243.692
40.69000 247.433
40.70000 245.983
40.71000 243.036
40.72000 240.636
40.73000 242.003
40.74000 244.088
40.75000 245.822
40.76000 245.611
40.77000 245.246
40.78000 243.251
40.79000 236.441
40.80000 229.316
40.81000 228.357
40.82000 239.742
40.83000 251.472
40.84000 258.208
40.85000 251.535
40.86000 246.825
40.87000 245.754
40.88000 247.833
40.89000 249.817
40.90000 246.573
40.91000 240.332
40.92000 234.311
40.93000 238.284
40.94000 245.677
40.95000 252.728
40.96000 256.286
40.97000 258.929
40.98000 261.399
40.99000 262.804
41.00000 264.026
41.01000 265.022
41.02000 255.350
41.03000 246.535
41.04000 239.785
41.05000 238.589
41.06000 237.699
41.07000 239.279
41.08000 245.360
41.09000 251.535
41.10000 254.923
41.11000 247.352
41.12000 242.141
41.13000 240.687
41.14000 242.168
41.15000 243.650
41.16000 245.188
41.17000 246.754
41.18000 248.253
41.19000 244.282
41.20000 238.779
41.21000 233.603
41.22000 231.350
41.23000 229.792
41.24000 228.553
41.25000 229.078
41.26000 229.873
41.27000 230.508
41.28000 228.996
41.29000 227.617
41.30000 227.923
41.31000 232.354
41.32000 236.973
41.33000 239.751
41.34000 239.477
41.35000 239.158
41.36000 238.991
41.37000 253.998
41.38000 264.053
41.39000 260.069
41.40000 246.162
41.41000 232.682
41.42000 232.510
41.43000 238.660
41.44000 244.495
41.45000 244.421
41.46000 242.598
41.47000 240.774
41.48000 238.940
41.49000 237.103
41.50000 236.067
41.51000 239.014
41.52000 242.503
41.53000 245.227
41.54000 239.758
41.55000 234.884
41.56000 231.188
41.57000 230.125
41.58000 229.158
41.59000 229.524
41.60000 231.894
41.61000 234.285
41.62000 234.089
41.63000 231.359
41.64000 228.670
41.65000 229.394
41.66000 232.307
41.67000 235.129
41.68000 235.683
41.69000 235.256
41.70000 234.854
41.71000 231.697
41.72000 228.080
41.73000 224.863
41.74000 224.455
41.75000 224.591
41.76000 224.513
41.77000 223.477
41.78000 222.326
41.79000 221.448
41.80000 233.357
41.81000 243.410
41.82000 247.969
41.83000 241.363
41.84000 234.432
41.85000 230.700
41.86000 231.329
41.87000 231.983
41.88000 231.859
41.89000 231.051
41.90000 230.233
41.91000 228.828
41.92000 227.081
41.93000 225.580
41.94000 229.076
41.95000 234.543
41.96000 239.625
41.97000 236.830
41.98000 232.417
41.99000 228.737
42.00000 229.655
42.01000 231.374
42.02000 232.767
42.03000 232.839
42.04000 232.771
42.05000 232.720
42.06000 226.523
42.07000 221.435
42.08000 222.012
42.09000 233.070
42.10000 244.361
42.11000 247.750
42.12000 241.400
42.13000 235.037
42.14000 232.221
42.15000 232.223
42.16000 232.210
42.17000 231.515
42.18000 230.459
42.19000 229.568
42.20000 231.465
42.21000 234.364
42.22000 237.028
42.23000 234.143
42.24000 230.373
42.25000 226.717
42.26000 223.700
42.27000 220.782
42.28000 218.807
42.29000 220.305
42.30000 222.126
42.31000 223.441
42.32000 224.025
42.33000 224.447
42.34000 224.799
42.35000 225.036
42.36000 225.271
42.37000 227.968
42.38000 233.400
42.39000 238.812
42.40000 240.921
42.41000 240.659
42.42000 240.352
42.43000 238.612
42.44000 236.181
42.45000 233.912
42.46000 233.975
42.47000 234.801
42.48000 235.551
42.49000 234.230
42.50000 232.665
42.51000 231.482
42.52000 232.235
42.53000 233.256
42.54000 232.772
42.55000 227.251
42.56000 221.325
42.57000 217.166
42.58000 221.816
42.59000 225.592
42.60000 227.765
42.61000 227.491
42.62000 227.191
42.63000 230.276
42.64000 236.737
42.65000 243.156
42.66000 242.904
42.67000 238.377
42.68000 233.849
42.69000 229.286
42.70000 224.709
42.71000 220.414
42.72000 219.609
42.73000 219.841
42.74000 220.049
42.75000 217.217
42.76000 214.223
42.77000 212.680
42.78000 217.756
42.79000 223.649
42.80000 228.144
42.81000 228.388
42.82000 228.338
42.83000 228.304
42.84000 224.702
42.85000 221.932
42.86000 223.111
42.87000 229.761
42.88000 236.440
42.89000 236.431
42.90000 230.432
42.91000 224.493
42.92000 220.077
42.93000 216.637
42.94000 213.573
42.95000 218.412
42.96000 226.415
42.97000 233.572
42.98000 231.704
42.99000 227.399
43.00000 223.599
43.01000 224.561
43.02000 226.118
43.03000 227.303
43.04000 226.954
43.05000 226.439
43.06000 224.927
43.07000 220.656
43.08000 216.223
43.09000 213.307
43.10000 216.187
43.11000 218.406
43.12000 219.437
43.13000 218.979
43.14000 218.518
43.15000 218.442
43.16000 218.678
43.17000 218.911
43.18000 221.623
43.19000 225.551
43.20000 228.977
43.21000 223.637
43.22000 215.103
43.23000 207.779
43.24000 211.754
43.25000 218.497
43.26000 224.356
43.27000 223.656
43.28000 222.172
43.29000 221.180
43.30000 222.030
43.31000 223.055
43.32000 223.996
43.33000 224.721
43.34000 225.436
43.35000 225.890
43.36000 218.392
43.37000 212.852
43.38000 211.628
43.39000 215.279
43.40000 218.933
43.41000 222.083
43.42000 224.868
43.43000 227.597
43.44000 225.747
43.45000 221.805
43.46000 218.113
43.47000 218.113
43.48000 219.338
43.49000 220.410
43.50000 220.225
43.51000 219.762
43.52000 219.367
43.53000 217.956
43.54000 216.647
43.55000 215.330
43.56000 213.989
43.57000 212.647
43.58000 212.035
43.59000 213.106
43.60000 214.244
43.61000 214.939
43.62000 218.198
43.63000 220.550
43.64000 219.770
43.65000 215.810
43.66000 211.903
43.67000 213.215
43.68000 217.980
43.69000 222.625
43.70000 219.639
43.71000 213.542
43.72000 208.041
43.73000 210.076
43.74000 214.385
43.75000 218.355
43.76000 219.845
43.77000 220.840
43.78000 221.674
43.79000 215.907
43.80000 210.414
43.81000 207.738
43.82000 213.768
43.83000 220.415
43.84000 224.108
43.85000 221.616
43.86000 218.928
43.87000 217.351
43.88000 217.394
43.89000 217.432
43.90000 217.742
43.91000 218.300
43.92000 218.848
43.93000 218.771
43.94000 218.318
43.95000 217.879
43.96000 214.289
43.97000 209.683
43.98000 205.779
43.99000 209.533
44.00000 215.389
44.01000 220.532
44.02000 221.048
44.03000 220.731
44.04000 220.469
44.05000 216.137
44.06000 212.203
44.07000 210.235
44.08000 213.796
44.09000 217.690
44.10000 220.392
44.11000 220.820
44.12000 221.194
44.13000 221.403
44.14000 219.273
44.15000 217.793
44.16000 217.252
44.17000 217.482
44.18000 217.722
44.19000 218.398
44.20000 219.313
44.21000 220.191
44.22000 215.676
44.23000 209.580
44.24000 204.455
44.25000 208.606
44.26000 215.066
44.27000 220.619
44.28000 220.895
44.29000 220.320
44.30000 219.855
44.31000 218.486
44.32000 217.302
44.33000 216.221
44.34000 215.403
44.35000 214.599
44.36000 213.893
44.37000 213.360
44.38000 212.830
44.39000 212.546
44.40000 218.635
44.41000 222.774
44.42000 223.289
44.43000 221.116
44.44000 218.974
44.45000 217.903
44.46000 217.365
44.47000 216.852
44.48000 214.500
44.49000 211.745
44.50000 209.969
44.51000 216.413
44.52000 224.710
44.53000 230.715
44.54000 224.742
44.55000 217.040
44.56000 210.962
44.57000 211.878
44.58000 213.087
44.59000 213.817
44.60000 213.427
44.61000 212.991
44.62000 214.767
44.63000 220.030
44.64000 225.336
44.65000 228.032
44.66000 227.432
44.67000 227.025
44.68000 226.070
44.69000 224.748
44.70000 223.443
44.71000 222.652
44.72000 222.092
44.73000 221.563
44.74000 224.736
44.75000 228.687
44.76000 232.622
44.77000 236.434
44.78000 240.222
44.79000 242.930
44.80000 240.551
44.81000 237.520
44.82000 235.183
44.83000 233.505
44.84000 232.213
44.85000 230.317
44.86000 227.135
44.87000 223.910
44.88000 222.244
44.89000 222.807
44.90000 223.386
44.91000 228.640
44.92000 238.220
44.93000 247.706
44.94000 250.648
44.95000 249.599
44.96000 248.696
44.97000 251.058
44.98000 254.767
44.99000 258.233
45.00000 254.414
45.01000 249.106
45.02000 244.407
45.03000 243.738
45.04000 243.808
45.05000 244.660
45.06000 248.849
45.07000 253.415
45.08000 256.849
45.09000 256.069
45.10000 255.256
45.11000 256.009
45.12000 259.794
45.13000 263.657
45.14000 267.711
45.15000 272.014
45.16000 276.313
45.17000 275.915
45.18000 271.611
45.19000 267.340
45.20000 264.695
45.21000 262.952
45.22000 260.982
45.23000 254.815
45.24000 247.070
45.25000 239.912
45.26000 241.372
45.27000 244.639
45.28000 247.378
45.29000 246.992
45.30000 246.091
45.31000 244.800
45.32000 242.002
45.33000 239.054
45.34000 236.895
45.35000 242.154
45.36000 246.509
45.37000 250.589
45.38000 254.182
45.39000 257.766
45.40000 257.352
45.41000 252.267
45.42000 247.189
45.43000 247.603
45.44000 252.125
45.45000 256.521
45.46000 256.275
45.47000 253.686
45.48000 251.155
45.49000 249.520
45.50000 248.192
45.51000 246.979
45.52000 249.242
45.53000 251.957
45.54000 253.650
45.55000 249.903
45.56000 245.358
45.57000 242.510
45.58000 245.612
45.59000 249.228
45.60000 251.803
45.61000 247.423
45.62000 243.861
45.63000 240.057
45.64000 235.866
45.65000 231.669
45.66000 230.031
45.67000 231.081
45.68000 232.126
45.69000 230.919
45.70000 228.207
45.71000 225.613
45.72000 226.397
45.73000 228.734
45.74000 231.133
45.75000 234.352
45.76000 237.826
45.77000 240.957
45.78000 244.482
45.79000 247.647
45.80000 249.084
45.81000 242.239
45.82000 234.312
45.83000 228.934
45.84000 231.680
45.85000 235.031
45.86000 237.345
45.87000 232.704
45.88000 229.037
45.89000 228.064
45.90000 231.005
45.91000 233.978
45.92000 233.680
45.93000 230.297
45.94000 226.942
45.95000 226.197
45.96000 227.052
45.97000 227.846
45.98000 227.219
45.99000 225.997
46.00000 224.824
46.01000 224.198
46.02000 223.728
46.03000 223.309
46.04000 220.530
46.05000 217.736
46.06000 215.221
46.07000 213.915
46.08000 212.748
46.09000 210.818
46.10000 206.678
46.11000 202.397
46.12000 199.534
46.13000 208.428
46.14000 215.253
46.15000 216.497
46.16000 210.397
46.17000 204.273
46.18000 203.632
46.19000 207.645
46.20000 211.608
46.21000 212.786
46.22000 212.406
46.23000 212.010
46.24000 211.320
46.25000 210.517
46.26000 209.751
46.27000 209.341
46.28000 209.023
46.29000 208.744
46.30000 209.718
46.31000 210.733
46.32000 211.610
46.33000 211.949
46.34000 212.233
46.35000 212.440
46.36000 212.444
46.37000 212.436
46.38000 212.432
46.39000 206.491
46.40000 202.062
46.41000 201.031
46.42000 204.039
46.43000 207.030
46.44000 204.564
46.45000 197.915
46.46000 191.379
46.47000 192.692
46.48000 197.850
46.49000 202.636
46.50000 201.486
46.51000 198.273
46.52000 195.518
46.53000 196.762
46.54000 198.937
46.55000 200.810
46.56000 195.485
46.57000 190.059
46.58000 186.857
46.59000 191.572
46.60000 196.987
46.61000 201.173
46.62000 202.398
46.63000 203.492
46.64000 204.174
46.65000 196.947
46.66000 191.660
46.67000 189.357
46.68000 190.245
46.69000 191.128
46.70000 191.220
46.71000 190.764
46.72000 190.318
46.73000 193.566
46.74000 198.332
46.75000 202.625
46.76000 200.499
46.77000 196.342
46.78000 192.910
46.79000 195.075
46.80000 198.418
46.81000 201.248
46.82000 204.949
46.83000 208.146
46.84000 210.105
46.85000 208.057
46.86000 205.704
46.87000 203.707
46.88000 202.490
46.89000 201.302
46.90000 200.590
46.91000 195.497
46.92000 191.855
46.93000 193.387
46.94000 199.886
46.95000 206.282
46.96000 204.603
46.97000 197.845
46.98000 191.279
46.99000 189.438
47.00000 189.596
47.01000 190.060
47.02000 194.098
47.03000 199.164
47.04000 202.990
47.05000 198.305
47.06000 192.005
47.07000 186.769
47.08000 190.248
47.09000 193.977
47.10000 196.685
47.11000 196.385
47.12000 195.889
47.13000 194.279
47.14000 190.446
47.15000 186.552
47.16000 184.319
47.17000 180.057
47.18000 177.077
47.19000 178.157
47.20000 182.740
47.21000 187.290
47.22000 190.054
47.23000 191.797
47.24000 193.479
47.25000 192.953
47.26000 191.655
47.27000 190.689
47.28000 193.105
47.29000 196.405
47.30000 198.954
47.31000 196.901
47.32000 194.063
47.33000 191.751
47.34000 188.892
47.35000 186.510
47.36000 184.180
47.37000 181.994
47.38000 179.815
47.39000 181.287
47.40000 189.395
47.41000 197.642
47.42000 202.159
47.43000 192.072
47.44000 185.137
47.45000 184.003
47.46000 187.387
47.47000 190.755
47.48000 193.488
47.49000 195.889
47.50000 198.187
47.51000 196.526
47.52000 193.678
47.53000 190.775
47.54000 187.390
47.55000 183.890
47.56000 180.943
47.57000 181.036
47.58000 181.594
47.59000 182.039
47.60000 179.069
47.61000 176.423
47.62000 175.133
47.63000 177.159
47.64000 179.334
47.65000 180.410
47.66000 179.671
47.67000 178.904
47.68000 178.504
47.69000 183.921
47.70000 187.561
47.71000 187.903
47.72000 185.921
47.73000 183.960
47.74000 182.682
47.75000 181.727
47.76000 180.820
47.77000 179.900
47.78000 179.048
47.79000 178.666
47.80000 181.993
47.81000 186.114
47.82000 188.607
47.83000 183.041
47.84000 176.380
47.85000 171.185
47.86000 181.672
47.87000 191.010
47.88000 195.081
47.89000 187.432
47.90000 179.353
47.91000 176.294
47.92000 180.766
47.93000 185.312
47.94000 188.078
47.95000 189.103
47.96000 190.097
47.97000 188.433
47.98000 185.068
47.99000 181.778
48.00000 180.326
48.01000 179.666
48.02000 179.046
48.03000 180.244
48.04000 181.821
48.05000 183.440
48.06000 185.352
48.07000 187.321
48.08000 189.132
48.09000 190.234
48.10000 191.252
48.11000 192.026
48.12000 183.723
48.13000 176.710
48.14000 172.955
48.15000 175.805
48.16000 178.846
48.17000 179.766
48.18000 177.802
48.19000 175.823
48.20000 179.904
48.21000 189.290
48.22000 198.528
48.23000 199.355
48.24000 195.296
48.25000 191.170
48.26000 185.667
48.27000 179.623
48.28000 174.006
48.29000 177.743
48.30000 183.355
48.31000 187.709
48.32000 184.216
48.33000 179.362
48.34000 175.060
48.35000 172.989
48.36000 171.155
48.37000 169.794
48.38000 176.209
48.39000 181.535
48.40000 183.499
48.41000 179.262
48.42000 174.888
48.43000 173.016
48.44000 174.216
48.45000 175.422
48.46000 180.464
48.47000 188.504
48.48000 196.296
48.49000 193.632
48.50000 185.447
48.51000 177.590
48.52000 175.262
48.53000 174.914
48.54000 174.594
48.55000 176.754
48.56000 179.213
48.57000 181.360
48.58000 181.761
48.59000 181.890
48.60000 182.167
48.61000 182.987
48.62000 183.857
48.63000 184.485
48.64000 179.286
48.65000 175.090
48.66000 172.870
48.67000 173.966
48.68000 175.115
48.69000 177.681
48.70000 181.816
48.71000 185.936
48.72000 186.689
48.73000 185.048
48.74000 183.433
48.75000 182.703
48.76000 182.398
48.77000 182.278
48.78000 184.805
48.79000 188.196
48.80000 191.271
48.81000 187.892
48.82000 183.670
48.83000 180.361
48.84000 181.650
48.85000 183.574
48.86000 184.349
48.87000 181.287
48.88000 177.918
48.89000 175.555
48.90000 177.788
48.91000 179.609
48.92000 178.349
48.93000 172.394
48.94000 166.390
48.95000 167.215
48.96000 174.829
48.97000 182.391
48.98000 182.396
48.99000 177.569
49.00000 172.838
49.01000 170.578
49.02000 169.401
49.03000 168.468
49.04000 170.523
49.05000 173.465
49.06000 176.098
49.07000 175.601
49.08000 174.632
49.09000 174.279
49.10000 176.727
49.11000 179.518
49.12000 182.244
49.13000 184.770
49.14000 187.283
49.15000 188.990
49.16000 180.926
49.17000 174.687
49.18000 173.811
49.19000 180.342
49.20000 186.915
49.21000 187.844
49.22000 183.736
49.23000 179.669
49.24000 175.906
49.25000 172.398
49.26000 168.993
49.27000 167.718
49.28000 167.292
49.29000 167.042
49.30000 168.654
49.31000 170.766
49.32000 172.630
49.33000 175.685
49.34000 178.500
49.35000 179.419
49.36000 172.530
49.37000 164.796
49.38000 159.429
49.39000 160.601
49.40000 162.153
49.41000 163.174
49.42000 170.037
49.43000 175.187
49.44000 178.567
49.45000 179.734
49.46000 180.885
49.47000 179.023
49.48000 174.735
49.49000 170.509
49.50000 172.643
49.51000 178.026
49.52000 183.106
49.53000 182.943
49.54000 180.874
49.55000 179.432
49.56000 183.825
49.57000 189.644
49.58000 194.696
49.59000 188.624
49.60000 181.949
49.61000 176.421
49.62000 175.172
49.63000 174.329
49.64000 173.383
49.65000 172.183
49.66000 170.969
49.67000 170.200
49.68000 171.930
49.69000 173.216
49.70000 171.817
49.71000 167.393
49.72000 162.993
49.73000 163.007
49.74000 166.233
49.75000 169.395
49.76000 172.671
49.77000 175.879
49.78000 178.846
49.79000 178.281
49.80000 176.546
49.81000 174.892
49.82000 173.906
49.83000 173.067
49.84000 172.351
49.85000 177.696
49.86000 182.918
49.87000 185.984
49.88000 181.740
49.89000 176.896
49.90000 173.401
49.91000 173.001
49.92000 172.723
49.93000 172.554
49.94000 171.075
49.95000 170.007
49.96000 169.901
49.97000 170.769
49.98000 171.639
49.99000 172.722
50.00000 173.947
50.01000 175.141
50.02000 177.110
50.03000 179.319
50.04000 181.258
50.05000 179.803
50.06000 177.327
50.07000 174.951
50.08000 173.302
50.09000 171.798
50.10000 170.537
50.11000 171.973
50.12000 173.449
50.13000 174.256
50.14000 172.998
50.15000 171.595
50.16000 170.268
50.17000 169.099
50.18000 167.936
50.19000 167.254
50.20000 177.602
50.21000 184.939
50.22000 185.520
50.23000 179.966
50.24000 174.447
50.25000 171.215
50.26000 169.353
50.27000 167.549
50.28000 170.190
50.29000 174.389
50.30000 178.318
50.31000 179.314
50.32000 179.509
50.33000 179.291
50.34000 176.401
50.35000 173.032
50.36000 170.259
50.37000 173.256
50.38000 176.244
50.39000 179.044
50.40000 181.321
50.41000 183.567
50.42000 183.023
50.43000 177.174
50.44000 171.196
50.45000 167.847
50.46000 168.031
50.47000 168.168
50.48000 168.645
50.49000 169.400
50.50000 170.213
50.51000 173.688
50.52000 178.612
50.53000 183.342
50.54000 184.748
50.55000 184.915
50.56000 185.373
50.57000 188.592
50.58000 192.495
50.59000 195.184
50.60000 190.830
50.61000 185.343
50.62000 180.919
50.63000 187.329
50.64000 193.387
50.65000 196.281
50.66000 191.090
50.67000 185.497
50.68000 183.114
50.69000 186.285
50.70000 189.555
50.71000 191.302
50.72000 183.597
50.73000 178.376
50.74000 180.133
50.75000 187.050
50.76000 193.758
50.77000 193.178
50.78000 188.987
50.79000 184.993
50.80000 183.202
50.81000 182.228
50.82000 181.215
50.83000 179.882
50.84000 178.478
50.85000 177.472
50.86000 178.546
50.87000 179.919
50.88000 181.001
50.89000 186.246
50.90000 190.733
50.91000 192.261
50.92000 186.900
50.93000 181.259
50.94000 179.566
50.95000 184.083
50.96000 188.676
50.97000 191.006
50.98000 182.157
50.99000 176.283
51.00000 175.998
51.01000 179.458
51.02000 182.810
51.03000 183.222
51.04000 182.305
51.05000 181.440
51.06000 180.168
51.07000 178.887
51.08000 177.556
51.09000 175.850
51.10000 174.069
51.11000 172.266
51.12000 170.366
51.13000 168.453
51.14000 166.980
51.15000 171.048
51.16000 174.587
51.17000 177.047
51.18000 177.218
51.19000 177.315
51.20000 175.661
51.21000 171.511
51.22000 167.344
51.23000 166.515
51.24000 168.771
51.25000 170.985
51.26000 170.371
51.27000 168.036
51.28000 165.821
51.29000 166.254
51.30000 167.775
51.31000 169.197
51.32000 170.333
51.33000 171.293
51.34000 172.108
51.35000 171.970
51.36000 171.658
51.37000 170.343
51.38000 164.770
51.39000 158.717
51.40000 154.168
51.41000 162.737
51.42000 170.067
51.43000 173.880
51.44000 170.900
51.45000 167.749
51.46000 165.906
51.47000 165.750
51.48000 165.601
51.49000 165.630
51.50000 165.806
51.51000 166.001
51.52000 167.111
51.53000 168.726
51.54000 170.175
51.55000 168.571
51.56000 165.822
51.57000 163.283
51.58000 165.051
51.59000 167.612
51.60000 169.294
51.61000 165.784
51.62000 161.424
51.63000 158.006
51.64000 158.211
51.65000 158.776
51.66000 159.189
51.67000 157.972
51.68000 156.968
51.69000 156.996
51.70000 158.838
51.71000 160.715
51.72000 159.362
51.73000 154.248
51.74000 149.143
51.75000 150.573
51.76000 156.869
51.77000 163.073
51.78000 165.912
51.79000 167.058
51.80000 168.096
51.81000 167.450
51.82000 166.231
51.83000 165.117
51.84000 160.510
51.85000 155.714
51.86000 151.605
51.87000 151.137
51.88000 151.203
51.89000 151.837
51.90000 154.461
51.91000 157.257
51.92000 159.245
51.93000 155.849
51.94000 153.090
51.95000 152.459
51.96000 155.228
51.97000 158.041
51.98000 158.315
51.99000 155.928
52.00000 153.553
52.01000 152.717
52.02000 152.926
52.03000 153.207
52.04000 155.547
52.05000 158.831
52.06000 162.076
52.07000 164.804
52.08000 167.372
52.09000 169.685
52.10000 169.287
52.11000 168.448
52.12000 166.747
52.13000 160.935
52.14000 154.586
52.15000 151.693
52.16000 159.781
52.17000 168.683
52.18000 174.825
52.19000 165.462
52.20000 158.033
52.21000 154.892
52.22000 157.967
52.23000 161.091
52.24000 159.729
52.25000 154.150
52.26000 148.618
52.27000 149.370
52.28000 153.919
52.29000 158.304
52.30000 158.912
52.31000 157.944
52.32000 157.151
52.33000 158.336
52.34000 160.081
52.35000 161.631
52.36000 162.417
52.37000 162.976
52.38000 162.990
52.39000 160.651
52.40000 158.042
52.41000 157.385
52.42000 162.378
52.43000 167.728
52.44000 171.302
52.45000 164.288
52.46000 158.884
52.47000 157.617
52.48000 161.776
52.49000 165.954
52.50000 166.791
52.51000 164.801
52.52000 162.836
52.53000 158.761
52.54000 153.636
52.55000 148.810
52.56000 149.652
52.57000 152.650
52.58000 155.739
52.59000 159.728
52.60000 163.948
52.61000 167.641
52.62000 161.269
52.63000 154.368
52.64000 149.119
52.65000 150.335
52.66000 152.206
52.67000 154.032
52.68000 155.743
52.69000 157.448
52.70000 158.548
52.71000 164.591
52.72000 169.077
52.73000 169.260
52.74000 164.347
52.75000 159.439
52.76000 157.575
52.77000 158.038
52.78000 158.492
52.79000 159.926
52.80000 161.796
52.81000 163.264
52.82000 158.339
52.83000 151.200
52.84000 144.926
52.85000 146.182
52.86000 149.184
52.87000 151.770
52.88000 150.902
52.89000 149.731
52.90000 149.720
52.91000 153.830
52.92000 158.304
52.93000 160.428
52.94000 156.915
52.95000 153.156
52.96000 150.818
52.97000 155.753
52.98000 159.380
52.99000 159.239
53.00000 155.082
53.01000 150.955
53.02000 150.702
53.03000 153.128
53.04000 155.499
53.05000 156.404
53.06000 156.618
53.07000 156.644
53.08000 154.139
53.09000 150.836
53.10000 147.691
53.11000 145.758
53.12000 144.079
53.13000 142.659
53.14000 147.044
53.15000 151.360
53.16000 155.011
53.17000 156.515
53.18000 157.855
53.19000 158.265
53.20000 156.641
53.21000 154.946
53.22000 153.933
53.23000 156.196
53.24000 157.822
53.25000 160.581
53.26000 164.423
53.27000 168.228
53.28000 169.164
53.29000 168.298
53.30000 167.457
53.31000 165.416
53.32000 162.993
53.33000 160.528
53.34000 157.568
53.35000 154.465
53.36000 152.438
53.37000 157.771
53.38000 164.494
53.39000 170.079
53.40000 165.309
53.41000 160.357
53.42000 156.677
53.43000 156.731
53.44000 157.026
53.45000 157.419
53.46000 158.006
53.47000 158.598
53.48000 158.937
53.49000 157.502
53.50000 156.490
53.51000 153.841
53.52000 149.784
53.53000 145.807
53.54000 146.206
53.55000 149.100
53.56000 151.891
53.57000 152.564
53.58000 152.429
53.59000 152.315
53.60000 152.422
53.61000 152.587
53.62000 152.713
53.63000 152.603
53.64000 152.453
53.65000 152.331
53.66000 153.943
53.67000 155.406
53.68000 154.610
53.69000 147.772
53.70000 140.604
53.71000 136.971
53.72000 139.743
53.73000 142.647
53.74000 144.235
53.75000 150.653
53.76000 155.065
53.77000 158.127
53.78000 160.141
53.79000 162.045
53.80000 159.534
53.81000 154.735
53.82000 150.144
53.83000 150.050
53.84000 151.436
53.85000 152.606
53.86000 151.860
53.87000 150.661
53.88000 149.819
53.89000 150.936
53.90000 152.351
53.91000 153.478
53.92000 149.590
53.93000 146.088
53.94000 143.236
53.95000 141.969
53.96000 140.773
53.97000 141.777
53.98000 146.402
53.99000 151.081
54.00000 153.516
54.01000 153.544
54.02000 153.540
54.03000 150.690
54.04000 145.839
54.05000 141.252
54.06000 144.794
54.07000 152.176
54.08000 159.175
54.09000 158.034
54.10000 154.581
54.11000 151.575
54.12000 152.076
54.13000 153.324
54.14000 154.181
54.15000 153.098
54.16000 151.753
54.17000 150.705
54.18000 154.832
54.19000 158.443
54.20000 159.510
54.21000 154.933
54.22000 150.151
54.23000 147.802
54.24000 149.091
54.25000 150.415
54.26000 150.035
54.27000 147.996
54.28000 145.992
54.29000 146.923
54.30000 149.724
54.31000 152.392
54.32000 151.804
54.33000 149.813
54.34000 147.944
54.35000 151.924
54.36000 157.106
54.37000 161.390
54.38000 159.408
54.39000 156.222
54.40000 153.548
54.41000 153.164
54.42000 153.053
54.43000 152.970
54.44000 155.357
54.45000 157.364
54.46000 158.426
54.47000 157.577
54.48000 156.672
54.49000 153.271
54.50000 146.486
54.51000 139.687
54.52000 140.685
54.53000 148.493
54.54000 156.199
54.55000 158.124
54.56000 156.704
54.57000 155.348
54.58000 155.294
54.59000 155.750
54.60000 156.174
54.61000 157.378
54.62000 158.650
54.63000 159.082
54.64000 154.286
54.65000 148.587
54.66000 144.504
54.67000 146.949
54.68000 150.083
54.69000 152.407
54.70000 152.927
54.71000 153.253
54.72000 153.225
54.73000 152.548
54.74000 151.857
54.75000 150.658
54.76000 148.838
54.77000 147.019
54.78000 145.493
54.79000 144.204
54.80000 142.988
54.81000 144.832
54.82000 148.289
54.83000 151.524
54.84000 151.038
54.85000 149.222
54.86000 147.554
54.87000 152.966
54.88000 159.308
54.89000 164.335
54.90000 162.024
54.91000 158.576
54.92000 155.230
54.93000 152.252
54.94000 149.308
54.95000 147.185
54.96000 149.523
54.97000 151.475
54.98000 150.769
54.99000 145.617
55.00000 140.395
55.01000 140.704
55.02000 147.117
55.03000 153.508
55.04000 157.029
55.05000 158.486
55.06000 159.923
55.07000 160.738
55.08000 161.254
55.09000 161.627
55.10000 159.967
55.11000 157.646
55.12000 155.542
55.13000 151.159
55.14000 146.858
55.15000 143.486
55.16000 144.789
55.17000 146.737
55.18000 149.156
55.19000 153.147
55.20000 157.262
55.21000 160.145
55.22000 158.054
55.23000 156.331
55.24000 153.418
55.25000 148.699
55.26000 143.962
55.27000 143.313
55.28000 146.714
55.29000 150.092
55.30000 152.546
55.31000 154.374
55.32000 156.162
55.33000 156.934
55.34000 157.263
55.35000 157.723
55.36000 159.768
55.37000 162.283
55.38000 164.532
55.39000 158.833
55.40000 152.506
55.41000 148.298
55.42000 153.695
55.43000 160.267
55.44000 164.991
55.45000 164.119
55.46000 162.865
55.47000 162.014
55.48000 173.162
55.49000 181.746
55.50000 186.031
55.51000 184.395
55.52000 182.725
55.53000 183.788
55.54000 187.282
55.55000 190.740
55.56000 190.707
55.57000 188.666
55.58000 186.762
55.59000 187.700
55.60000 189.770
55.61000 192.204
55.62000 198.496
55.63000 205.824
55.64000 212.285
55.65000 215.205
55.66000 217.184
55.67000 220.034
55.68000 226.458
55.69000 233.266
55.70000 240.946
55.71000 251.026
55.72000 261.245
55.73000 267.953
55.74000 280.898
55.75000 290.526
55.76000 297.971
55.77000 302.696
55.78000 307.419
55.79000 314.517
55.80000 323.518
55.81000 332.387
55.82000 338.984
55.83000 344.208
55.84000 349.578
55.85000 357.469
55.86000 366.275
55.87000 374.766
55.88000 380.342
55.89000 385.209
55.90000 389.433
55.91000 394.611
55.92000 399.150
55.93000 403.541
55.94000 407.382
55.95000 411.171
55.96000 414.815
55.97000 418.094
55.98000 421.356
55.99000 423.422
56.00000 425.312
56.01000 426.681
56.02000 426.567
56.03000 424.789
56.04000 422.995
56.05000 418.985
56.06000 413.368
56.07000 407.861
56.08000 400.419
56.09000 392.349
56.10000 384.182
56.11000 374.601
56.12000 364.554
56.13000 354.682
56.14000 346.238
56.15000 338.110
56.16000 331.173
56.17000 323.513
56.18000 316.978
56.19000 309.814
56.20000 300.524
56.21000 291.061
56.22000 281.455
56.23000 271.523
56.24000 261.579
56.25000 255.518
56.26000 246.616
56.27000 240.232
56.28000 236.171
56.29000 234.453
56.30000 232.728
56.31000 230.442
56.32000 227.787
56.33000 225.200
56.34000 218.712
56.35000 210.873
56.36000 203.390
56.37000 200.375
56.38000 198.700
56.39000 197.010
56.40000 195.202
56.41000 193.371
56.42000 191.836
56.43000 189.696
56.44000 187.852
56.45000 185.527
56.46000 181.720
56.47000 177.810
56.48000 174.265
56.49000 171.483
56.50000 168.725
56.51000 167.112
56.52000 170.401
56.53000 172.738
56.54000 173.430
56.55000 172.633
56.56000 171.801
56.57000 168.761
56.58000 164.402
56.59000 160.184
56.60000 157.298
56.61000 155.080
56.62000 153.098
56.63000 153.672
56.64000 154.943
56.65000 156.056
56.66000 156.153
56.67000 156.068
56.68000 155.999
56.69000 154.672
56.70000 153.468
56.71000 151.399
56.72000 146.909
56.73000 142.275
56.74000 142.488
56.75000 151.895
56.76000 161.521
56.77000 166.907
56.78000 158.527
56.79000 152.698
56.80000 150.200
56.81000 150.418
56.82000 150.657
56.83000 151.795
56.84000 153.422
56.85000 154.985
56.86000 151.984
56.87000 147.603
56.88000 143.765
56.89000 145.061
56.90000 147.628
56.91000 149.434
56.92000 146.843
56.93000 143.548
56.94000 140.893
56.95000 142.096
56.96000 143.375
56.97000 145.249
56.98000 148.640
56.99000 152.107
57.00000 152.965
57.01000 149.324
57.02000 145.605
57.03000 143.621
57.04000 137.970
57.05000 134.141
57.06000 134.504
57.07000 137.958
57.08000 141.353
57.09000 142.746
57.10000 143.148
57.11000 143.531
57.12000 142.509
57.13000 141.125
57.14000 139.628
57.15000 137.187
57.16000 134.534
57.17000 133.557
57.18000 141.281
57.19000 150.253
57.20000 157.323
57.21000 149.241
57.22000 141.745
57.23000 136.760
57.24000 137.605
57.25000 138.686
57.26000 139.882
57.27000 141.256
57.28000 142.633
57.29000 143.330
57.30000 144.498
57.31000 145.266
57.32000 144.719
57.33000 143.292
57.34000 142.000
57.35000 144.399
57.36000 148.458
57.37000 152.288
57.38000 149.254
57.39000 144.554
57.40000 140.384
57.41000 140.127
57.42000 140.662
57.43000 141.077
57.44000 140.935
57.45000 140.722
57.46000 140.558
57.47000 139.664
57.48000 138.916
57.49000 137.099
57.50000 133.022
57.51000 128.873
57.52000 127.268
57.53000 129.280
57.54000 131.319
57.55000 133.349
57.56000 135.369
57.57000 137.371
57.58000 138.117
57.59000 138.101
57.60000 138.034
57.61000 136.824
57.62000 135.146
57.63000 133.578
57.64000 136.122
57.65000 139.463
57.66000 142.047
57.67000 139.656
57.68000 136.360
57.69000 134.718
57.70000 140.083
57.71000 146.237
57.72000 150.857
57.73000 145.663
57.74000 141.136
57.75000 138.137
57.76000 138.082
57.77000 138.100
57.78000 137.560
57.79000 136.301
57.80000 135.040
57.81000 135.057
57.82000 136.131
57.83000 137.161
57.84000 136.137
57.85000 133.981
57.86000 132.048
57.87000 134.189
57.88000 137.852
57.89000 141.236
57.90000 136.685
57.91000 130.813
57.92000 126.816
57.93000 133.848
57.94000 142.681
57.95000 149.757
57.96000 150.087
57.97000 149.752
57.98000 149.507
57.99000 143.346
58.00000 138.360
58.01000 135.037
58.02000 134.626
58.03000 134.269
58.04000 134.129
58.05000 134.242
58.06000 134.356
58.07000 134.431
58.08000 134.476
58.09000 134.553
58.10000 135.770
58.11000 137.561
58.12000 139.232
58.13000 139.067
58.14000 138.278
58.15000 137.557
58.16000 138.432
58.17000 139.530
58.18000 140.117
58.19000 138.011
58.20000 135.511
58.21000 133.499
58.22000 133.185
58.23000 133.017
58.24000 132.897
58.25000 130.064
58.26000 127.821
58.27000 128.575
58.28000 134.103
58.29000 139.692
58.30000 141.237
58.31000 138.559
58.32000 135.894
58.33000 134.901
58.34000 135.041
58.35000 135.270
58.36000 138.025
58.37000 141.934
58.38000 145.173
58.39000 139.610
58.40000 131.322
58.41000 123.857
58.42000 125.471
58.43000 128.525
58.44000 130.857
58.45000 129.757
58.46000 128.211
58.47000 127.309
58.48000 128.447
58.49000 129.736
58.50000 130.624
58.51000 132.508
58.52000 133.948
58.53000 136.149
58.54000 139.450
58.55000 142.760
58.56000 142.988
58.57000 140.331
58.58000 137.697
58.59000 139.260
58.60000 143.331
58.61000 147.022
58.62000 142.018
58.63000 133.394
58.64000 125.709
58.65000 128.665
58.66000 134.614
58.67000 139.897
58.68000 140.034
58.69000 139.325
58.70000 138.602
58.71000 137.818
58.72000 137.026
58.73000 136.162
58.74000 135.088
58.75000 134.002
58.76000 133.276
58.77000 137.930
58.78000 141.481
58.79000 141.273
58.80000 136.151
58.81000 131.013
58.82000 129.725
58.83000 131.681
58.84000 133.613
58.85000 132.814
58.86000 130.545
58.87000 128.375
58.88000 128.059
58.89000 128.446
58.90000 129.061
58.91000 131.938
58.92000 135.392
58.93000 138.413
58.94000 137.255
58.95000 135.667
58.96000 135.510
58.97000 140.934
58.98000 146.919
58.99000 151.276
59.00000 151.354
59.01000 151.207
59.02000 151.112
59.03000 144.634
59.04000 139.812
59.05000 137.386
59.06000 137.789
59.07000 138.186
59.08000 136.339
59.09000 132.781
59.10000 129.285
59.11000 129.631
59.12000 131.857
59.13000 133.908
59.14000 133.202
59.15000 131.543
59.16000 130.184
59.17000 131.421
59.18000 133.258
59.19000 134.840
59.20000 135.879
59.21000 136.690
59.22000 136.935
59.23000 135.177
59.24000 133.244
59.25000 131.326
59.26000 129.446
59.27000 127.568
59.28000 126.401
59.29000 136.162
59.30000 143.295
59.31000 144.108
59.32000 138.205
59.33000 132.352
59.34000 132.759
59.35000 137.482
59.36000 142.098
59.37000 142.847
59.38000 141.845
59.39000 140.591
59.40000 135.953
59.41000 130.249
59.42000 125.330
59.43000 126.424
59.44000 128.774
59.45000 130.762
59.46000 137.013
59.47000 142.715
59.48000 145.364
59.49000 138.188
59.50000 130.268
59.51000 124.711
59.52000 124.307
59.53000 124.083
59.54000 123.950
59.55000 129.521
59.56000 133.508
59.57000 137.127
59.58000 140.398
59.59000 143.613
59.60000 142.644
59.61000 139.058
59.62000 135.576
59.63000 132.535
59.64000 129.826
59.65000 127.516
59.66000 129.828
59.67000 133.461
59.68000 136.593
59.69000 136.311
59.70000 135.386
59.71000 134.618
59.72000 136.790
59.73000 138.870
59.74000 138.297
59.75000 129.959
59.76000 121.119
59.77000 117.358
59.78000 123.679
59.79000 130.275
59.80000 134.047
59.81000 127.897
59.82000 123.579
59.83000 125.041
59.84000 131.461
59.85000 137.731
59.86000 136.063
59.87000 129.883
59.88000 123.923
59.89000 125.756
59.90000 130.299
59.91000 134.669
59.92000 137.273
59.93000 139.420
59.94000 140.780
59.95000 137.338
59.96000 133.083
59.97000 129.621
59.98000 130.599
59.99000 131.771
60.00000 133.309
60.01000 135.825
60.02000 138.395
60.03000 140.020
60.04000 139.941
60.05000 139.827
60.06000 139.765
60.07000 136.210
60.08000 133.762
60.09000 131.069
60.10000 128.186
60.11000 125.416
60.12000 127.117
60.13000 131.131
60.14000 134.970
60.15000 135.983
60.16000 136.003
60.17000 135.913
60.18000 134.850
60.19000 133.559
60.20000 132.600
60.21000 133.460
60.22000 134.595
60.23000 135.499
60.24000 131.670
60.25000 128.239
60.26000 124.983
60.27000 122.150
60.28000 119.337
60.29000 120.353
60.30000 127.661
60.31000 135.060
60.32000 138.905
60.33000 132.015
60.34000 127.380
60.35000 125.356
60.36000 125.162
60.37000 125.030
60.38000 126.796
60.39000 129.456
60.40000 131.978
60.41000 129.563
60.42000 125.884
60.43000 122.915
60.44000 125.483
60.45000 129.229
60.46000 132.621
60.47000 134.269
60.48000 135.683
60.49000 136.783
60.50000 134.266
60.51000 132.037
60.52000 131.497
60.53000 134.692
60.54000 138.022
60.55000 139.249
60.56000 137.341
60.57000 135.404
60.58000 135.141
60.59000 136.503
60.60000 137.856
60.61000 138.534
60.62000 138.781
60.63000 139.070
60.64000 140.375
60.65000 142.116
60.66000 143.750
60.67000 140.052
60.68000 135.269
60.69000 130.934
60.70000 129.713
60.71000 129.089
60.72000 128.386
60.73000 127.333
60.74000 126.239
60.75000 125.407
60.76000 133.056
60.77000 139.513
60.78000 142.469
60.79000 138.369
60.80000 134.069
60.81000 131.189
60.82000 130.228
60.83000 129.279
60.84000 129.641
60.85000 131.143
60.86000 132.643
60.87000 133.972
60.88000 135.202
60.89000 136.418
60.90000 137.330
60.91000 138.123
60.92000 138.859
60.93000 141.014
60.94000 143.295
60.95000 145.084
60.96000 143.829
60.97000 142.049
60.98000 141.043
60.99000 143.151
61.00000 145.587
61.01000 147.392
61.02000 143.037
61.03000 139.389
61.04000 138.030
61.05000 140.872
61.06000 143.805
61.07000 144.092
61.08000 141.149
61.09000 138.205
61.10000 137.488
61.11000 138.519
61.12000 139.426
61.13000 135.186
61.14000 128.243
61.15000 121.900
61.16000 125.574
61.17000 132.814
61.18000 139.461
61.19000 138.661
61.20000 136.361
61.21000 134.534
61.22000 135.336
61.23000 136.544
61.24000 138.068
61.25000 140.744
61.26000 143.527
61.27000 145.532
61.28000 134.987
61.29000 126.464
61.30000 123.707
61.31000 130.570
61.32000 137.583
61.33000 141.259
61.34000 141.264
61.35000 141.267
61.36000 138.898
61.37000 134.881
61.38000 131.076
61.39000 134.009
61.40000 140.163
61.41000 145.735
61.42000 143.076
61.43000 137.748
61.44000 132.918
61.45000 132.605
61.46000 133.189
61.47000 134.601
61.48000 140.160
61.49000 146.289
61.50000 151.106
61.51000 151.569
61.52000 151.687
61.53000 151.769
61.54000 167.195
61.55000 179.294
61.56000 190.503
61.57000 200.365
61.58000 210.213
61.59000 218.034
61.60000 223.854
61.61000 229.633
61.62000 239.003
61.63000 250.509
61.64000 261.673
61.65000 264.187
61.66000 262.933
61.67000 261.899
61.68000 263.542
61.69000 265.973
61.70000 268.148
61.71000 267.902
61.72000 267.276
61.73000 266.327
61.74000 263.920
61.75000 261.335
61.76000 257.732
61.77000 251.055
61.78000 244.169
61.79000 239.500
61.80000 226.392
61.81000 216.431
61.82000 204.059
61.83000 188.377
61.84000 172.681
61.85000 163.438
61.86000 159.920
61.87000 156.438
61.88000 154.016
61.89000 152.254
61.90000 150.516
61.91000 149.280
61.92000 148.243
61.93000 147.369
61.94000 148.215
61.95000 149.521
61.96000 150.672
61.97000 150.812
61.98000 150.780
61.99000 150.321
62.00000 148.116
62.01000 145.724
62.02000 143.019
62.03000 139.456
62.04000 135.843
62.05000 133.474
62.06000 135.241
62.07000 136.609
62.08000 139.335
62.09000 143.748
62.10000 148.151
62.11000 147.932
62.12000 144.017
62.13000 140.161
62.14000 138.016
62.15000 136.822
62.16000 135.850
62.17000 138.715
62.18000 142.967
62.19000 147.173
62.20000 150.951
62.21000 154.626
62.22000 157.813
62.23000 151.467
62.24000 144.786
62.25000 138.912
62.26000 136.028
62.27000 133.424
62.28000 133.247
62.29000 139.141
62.30000 145.326
62.31000 149.239
62.32000 143.210
62.33000 138.722
62.34000 137.215
62.35000 139.045
62.36000 140.870
62.37000 141.662
62.38000 141.706
62.39000 141.749
62.40000 141.753
62.41000 141.739
62.42000 141.473
62.43000 137.545
62.44000 132.412
62.45000 128.279
62.46000 132.270
62.47000 138.046
62.48000 142.973
62.49000 144.958
62.50000 146.281
62.51000 147.500
62.52000 148.368
62.53000 149.208
62.54000 149.608
62.55000 149.005
62.56000 148.363
62.57000 147.972
62.58000 145.103
62.59000 143.034
62.60000 141.030
62.61000 139.092
62.62000 137.195
62.63000 139.106
62.64000 143.514
62.65000 147.809
62.66000 148.760
62.67000 148.256
62.68000 147.629
62.69000 145.468
62.70000 142.847
62.71000 140.934
62.72000 144.121
62.73000 148.318
62.74000 151.835
62.75000 147.644
62.76000 143.361
62.77000 139.703
62.78000 137.956
62.79000 136.343
62.80000 135.920
62.81000 137.968
62.82000 140.093
62.83000 141.334
62.84000 137.203
62.85000 134.273
62.86000 132.400
62.87000 131.480
62.88000 130.608
62.89000 132.756
62.90000 136.702
62.91000 140.520
62.92000 144.385
62.93000 148.055
62.94000 151.158
62.95000 148.148
62.96000 143.477
62.97000 139.309
62.98000 138.380
62.99000 138.029
63.00000 137.741
63.01000 144.530
63.02000 150.744
63.03000 153.949
63.04000 148.757
63.05000 143.069
63.06000 139.037
63.07000 138.136
63.08000 137.309
63.09000 136.847
63.10000 140.143
63.11000 142.438
63.12000 146.220
63.13000 151.213
63.14000 156.057
63.15000 154.145
63.16000 148.576
63.17000 143.228
63.18000 142.199
63.19000 142.721
63.20000 143.308
63.21000 144.519
63.22000 145.883
63.23000 146.913
63.24000 146.016
63.25000 144.810
63.26000 143.840
63.27000 141.520
63.28000 139.533
63.29000 137.400
63.30000 134.898
63.31000 132.378
63.32000 133.222
63.33000 139.856
63.34000 146.591
63.35000 150.177
63.36000 146.411
63.37000 143.853
63.38000 143.296
63.39000 144.211
63.40000 145.032
63.41000 142.628
63.42000 138.634
63.43000 134.831
63.44000 134.941
63.45000 136.253
63.46000 137.638
63.47000 139.633
63.48000 141.764
63.49000 144.413
63.50000 149.739
63.51000 155.448
63.52000 159.944
63.53000 153.354
63.54000 147.332
63.55000 143.551
63.56000 144.954
63.57000 146.566
63.58000 148.805
63.59000 152.022
63.60000 155.252
63.61000 156.884
63.62000 154.156
63.63000 152.332
63.64000 150.639
63.65000 149.034
63.66000 147.468
63.67000 146.967
63.68000 146.943
63.69000 146.921
63.70000 148.929
63.71000 151.335
63.72000 153.198
63.73000 151.075
63.74000 148.148
63.75000 145.636
63.76000 145.065
63.77000 144.740
63.78000 144.489
63.79000 150.199
63.80000 155.054
63.81000 159.408
63.82000 162.703
63.83000 165.963
63.84000 164.964
63.85000 157.926
63.86000 150.845
63.87000 149.820
63.88000 154.351
63.89000 158.838
63.90000 160.436
63.91000 160.289
63.92000 160.176
63.93000 160.842
63.94000 161.826
63.95000 162.744
63.96000 160.588
63.97000 157.863
63.98000 155.116
63.99000 152.221
64.00000 149.299
64.01000 146.567
64.02000 144.633
64.03000 142.789
64.04000 141.405
64.05000 148.605
64.06000 154.636
64.07000 158.298
64.08000 157.408
64.09000 156.405
64.10000 157.127
64.11000 160.062
64.12000 163.001
64.13000 163.033
64.14000 160.669
64.15000 158.347
64.16000 158.011
64.17000 158.768
64.18000 159.525
64.19000 160.289
64.20000 161.055
64.21000 161.763
64.22000 160.419
64.23000 158.752
64.24000 157.440
64.25000 158.208
64.26000 159.314
64.27000 160.462
64.28000 161.770
64.29000 163.094
64.30000 164.061
64.31000 166.456
64.32000 168.358
64.33000 170.138
64.34000 171.704
64.35000 173.267
64.36000 172.277
64.37000 168.333
64.38000 164.398
64.39000 163.170
64.40000 163.961
64.41000 164.776
64.42000 166.507
64.43000 168.695
64.44000 170.634
64.45000 168.759
64.46000 165.589
64.47000 162.697
64.48000 167.318
64.49000 172.928
64.50000 177.565
64.51000 177.076
64.52000 175.841
64.53000 174.265
64.54000 171.507
64.55000 168.647
64.56000 166.617
64.57000 166.332
64.58000 166.171
64.59000 166.617
64.60000 168.026
64.61000 169.447
64.62000 171.238
64.63000 173.415
64.64000 175.579
64.65000 176.868
64.66000 177.556
64.67000 178.106
64.68000 174.769
64.69000 169.662
64.70000 165.052
64.71000 166.949
64.72000 170.855
64.73000 174.371
64.74000 177.254
64.75000 179.668
64.76000 181.912
64.77000 183.348
64.78000 184.679
64.79000 185.751
64.80000 186.003
64.81000 186.195
64.82000 186.327
64.83000 188.196
64.84000 189.643
64.85000 188.481
64.86000 183.560
64.87000 178.611
64.88000 178.981
64.89000 184.317
64.90000 189.607
64.91000 191.918
64.92000 192.391
64.93000 192.698
64.94000 189.245
64.95000 184.232
64.96000 179.851
64.97000 182.608
64.98000 187.368
64.99000 191.594
65.00000 190.083
65.01000 187.856
65.02000 186.483
65.03000 188.773
65.04000 191.481
65.05000 195.205
65.06000 201.849
65.07000 208.675
65.08000 213.226
65.09000 206.344
65.10000 201.030
65.11000 195.953
65.12000 191.188
65.13000 186.436
65.14000 188.345
65.15000 195.854
65.16000 203.268
65.17000 207.030
65.18000 208.710
65.19000 210.304
65.20000 210.303
65.21000 209.697
65.22000 209.422
65.23000 212.390
65.24000 216.183
65.25000 219.500
65.26000 218.001
65.27000 216.034
65.28000 214.966
65.29000 217.397
65.30000 220.178
65.31000 221.784
65.32000 220.313
65.33000 218.680
65.34000 217.629
65.35000 225.740
65.36000 231.790
65.37000 233.410
65.38000 229.813
65.39000 226.230
65.40000 227.789
65.41000 233.251
65.42000 238.618
65.43000 242.204
65.44000 244.796
65.45000 247.449
65.46000 251.071
65.47000 255.028
65.48000 258.729
65.49000 260.225
65.50000 261.213
65.51000 262.062
65.52000 266.704
65.53000 271.109
65.54000 275.558
65.55000 280.166
65.56000 284.788
65.57000 287.388
65.58000 285.167
65.59000 282.738
65.60000 281.231
65.61000 294.232
65.62000 303.728
65.63000 311.088
65.64000 316.185
65.65000 321.355
65.66000 335.233
65.67000 355.095
65.68000 374.503
65.69000 407.452
65.70000 445.012
65.71000 482.939
65.72000 525.782
65.73000 570.165
65.74000 615.871
65.75000 671.683
65.76000 729.600
65.77000 778.557
65.78000 829.735
65.79000 872.787
65.80000 914.607
65.81000 952.474
65.82000 990.042
65.83000 1018.771
65.84000 1028.286
65.85000 1037.136
65.86000 1042.411
65.87000 1033.267
65.88000 1026.697
65.89000 1022.360
65.90000 1020.143
65.91000 1017.885
65.92000 1012.482
65.93000 1005.117
65.94000 997.966
65.95000 952.195
65.96000 893.304
65.97000 834.618
65.98000 778.302
65.99000 722.660
66.00000 666.881
66.01000 610.159
66.02000 553.260
66.03000 506.054
66.04000 456.865
66.05000 416.025
66.06000 382.963
66.07000 372.611
66.08000 363.717
66.09000 352.257
66.10000 335.715
66.11000 319.036
66.12000 309.510
66.13000 307.020
66.14000 305.306
66.15000 303.534
66.16000 301.712
66.17000 299.945
66.18000 301.066
66.19000 303.822
66.20000 306.480
66.21000 305.970
66.22000 304.346
66.23000 303.455
66.24000 309.920
66.25000 318.288
66.26000 326.508
66.27000 333.832
66.28000 341.005
66.29000 346.839
66.30000 366.104
66.31000 382.955
66.32000 398.004
66.33000 408.264
66.34000 418.267
66.35000 424.894
66.36000 425.442
66.37000 425.867
66.38000 426.098
66.39000 431.288
66.40000 434.865
66.41000 440.140
66.42000 446.726
66.43000 453.105
66.44000 451.357
66.45000 445.419
66.46000 439.742
66.47000 444.877
66.48000 453.175
66.49000 459.604
66.50000 449.548
66.51000 435.628
66.52000 421.934
66.53000 409.467
66.54000 397.186
66.55000 387.409
66.56000 376.366
66.57000 367.372
66.58000 359.332
66.59000 353.600
66.60000 347.972
66.61000 343.058
66.62000 339.314
66.63000 335.587
66.64000 333.653
66.65000 323.872
66.66000 317.334
66.67000 319.255
66.68000 327.083
66.69000 334.519
66.70000 330.021
66.71000 319.919
66.72000 310.345
66.73000 312.595
66.74000 318.134
66.75000 323.062
66.76000 323.227
66.77000 322.384
66.78000 322.837
66.79000 329.659
66.80000 337.337
66.81000 343.312
66.82000 334.200
66.83000 326.018
66.84000 319.591
66.85000 317.037
66.86000 314.623
66.87000 315.608
66.88000 321.649
66.89000 327.737
66.90000 331.268
66.91000 332.327
66.92000 333.407
66.93000 336.201
66.94000 340.079
66.95000 343.871
66.96000 345.557
66.97000 346.342
66.98000 347.079
66.99000 347.478
67.00000 347.752
67.01000 348.115
67.02000 349.086
67.03000 350.173
67.04000 350.552
67.05000 347.789
67.06000 344.652
67.07000 342.270
67.08000 355.347
67.09000 366.428
67.10000 372.841
67.11000 369.873
67.12000 366.640
67.13000 365.407
67.14000 366.867
67.15000 368.340
67.16000 370.654
67.17000 373.692
67.18000 376.714
67.19000 378.799
67.20000 380.344
67.21000 381.772
67.22000 380.874
67.23000 379.068
67.24000 377.392
67.25000 376.647
67.26000 376.197
67.27000 375.682
67.28000 374.769
67.29000 373.788
67.30000 373.882
67.31000 378.290
67.32000 383.149
67.33000 386.746
67.34000 381.439
67.35000 376.937
67.36000 378.839
67.37000 392.454
67.38000 406.319
67.39000 410.716
67.40000 403.590
67.41000 396.451
67.42000 399.885
67.43000 411.550
67.44000 422.891
67.45000 420.887
67.46000 411.895
67.47000 403.345
67.48000 402.139
67.49000 403.540
67.50000 404.826
67.51000 412.206
67.52000 420.081
67.53000 427.441
67.54000 431.946
67.55000 436.012
67.56000 437.976
67.57000 432.283
67.58000 425.890
67.59000 421.287
67.60000 431.403
67.61000 439.670
67.62000 445.064
67.63000 445.682
67.64000 446.227
67.65000 442.931
67.66000 435.425
67.67000 427.947
67.68000 429.524
67.69000 437.448
67.70000 445.177
67.71000 446.770
67.72000 445.436
67.73000 444.756
67.74000 453.268
67.75000 464.752
67.76000 475.158
67.77000 476.637
67.78000 476.246
67.79000 476.104
67.80000 477.205
67.81000 478.476
67.82000 479.443
67.83000 479.404
67.84000 479.286
67.85000 479.203
67.86000 491.690
67.87000 501.481
67.88000 505.435
67.89000 500.572
67.90000 495.620
67.91000 494.271
67.92000 496.468
67.93000 498.649
67.94000 499.574
67.95000 499.688
67.96000 499.989
67.97000 504.988
67.98000 512.028
67.99000 518.497
68.00000 518.054
68.01000 515.581
68.02000 513.370
68.03000 532.344
68.04000 552.470
68.05000 568.405
68.06000 565.457
68.07000 560.216
68.08000 556.811
68.09000 558.928
68.10000 561.420
68.11000 563.108
68.12000 568.034
68.13000 571.778
68.14000 573.569
68.15000 572.688
68.16000 571.790
68.17000 570.023
68.18000 567.487
68.19000 564.978
68.20000 575.085
68.21000 592.173
68.22000 608.822
68.23000 616.462
68.24000 620.539
68.25000 624.428
68.26000 626.354
68.27000 627.757
68.28000 628.993
68.29000 628.886
68.30000 628.591
68.31000 628.389
68.32000 628.566
68.33000 628.783
68.34000 632.711
68.35000 646.808
68.36000 661.486
68.37000 671.101
68.38000 663.359
68.39000 657.381
68.40000 661.097
68.41000 676.806
68.42000 692.540
68.43000 705.781
68.44000 717.032
68.45000 728.115
68.46000 738.210
68.47000 747.494
68.48000 756.604
68.49000 762.743
68.50000 767.812
68.51000 772.963
68.52000 778.874
68.53000 784.968
68.54000 790.253
68.55000 818.468
68.56000 845.547
68.57000 871.433
68.58000 892.911
68.59000 913.976
68.60000 936.783
68.61000 963.938
68.62000 991.301
68.63000 1008.591
68.64000 1069.405
68.65000 1113.984
68.66000 1160.638
68.67000 1209.607
68.68000 1258.637
68.69000 1316.918
68.70000 1381.870
68.71000 1445.516
68.72000 1497.982
68.73000 1543.245
68.74000 1588.828
68.75000 1639.053
68.76000 1690.799
68.77000 1742.316
68.78000 1791.970
68.79000 1841.216
68.80000 1883.203
68.81000 1954.709
68.82000 2018.338
68.83000 2086.177
68.84000 2168.158
68.85000 2251.286
68.86000 2351.644
68.87000 2491.186
68.88000 2632.243
68.89000 2718.006
68.90000 3178.597
68.91000 3510.380
68.92000 4142.024
68.93000 5074.008
68.94000 6015.685
68.95000 7857.396
68.96000 10287.393
68.97000 12654.274
68.98000 16302.132
68.99000 20318.496
69.00000 24369.199
69.01000 28845.467
69.02000 33448.766
69.03000 37922.563
69.04000 41465.516
69.05000 44824.516
69.06000 47637.090
69.07000 49429.027
69.08000 50813.539
69.09000 51975.414
69.10000 52457.020
69.11000 52891.352
69.12000 53286.348
69.13000 53599.863
69.14000 53910.879
69.15000 54092.301
69.16000 55021.938
69.17000 55678.848
69.18000 56008.582
69.19000 56044.066
69.20000 56060.055
69.21000 54860.875
69.22000 52940.371
69.23000 51082.477
69.24000 48058.930
69.25000 44761.004
69.26000 41513.656
69.27000 38809.277
69.28000 36252.137
69.29000 33817.949
69.30000 32171.836
69.31000 30665.842
69.32000 29428.967
69.33000 28532.223
69.34000 27826.328
69.35000 27132.064
69.36000 26470.164
69.37000 25810.166
69.38000 24981.490
69.39000 23834.678
69.40000 22680.396
69.41000 22036.406
69.42000 18843.385
69.43000 16627.889
69.44000 14405.360
69.45000 12177.134
69.46000 9960.353
69.47000 8258.921
69.48000 6835.692
69.49000 5469.368
69.50000 4528.606
69.51000 3794.424
69.52000 3090.840
69.53000 2674.440
69.54000 2328.669
69.55000 2013.963
69.56000 1877.612
69.57000 1769.687
69.58000 1682.858
69.59000 1580.369
69.60000 1496.023
69.61000 1417.923
69.62000 1355.651
69.63000 1294.154
69.64000 1244.090
69.65000 1213.640
69.66000 1183.525
69.67000 1167.512
69.68000 1109.576
69.69000 1070.173
69.70000 1040.929
69.71000 1019.129
69.72000 997.451
69.73000 979.974
69.74000 964.561
69.75000 949.890
69.76000 928.766
69.77000 907.219
69.78000 886.521
69.79000 872.831
69.80000 860.701
69.81000 848.707
69.82000 837.414
69.83000 826.221
69.84000 817.412
69.85000 805.308
69.86000 795.393
69.87000 785.926
69.88000 777.491
69.89000 769.098
69.90000 756.385
69.91000 736.941
69.92000 717.417
69.93000 707.561
69.94000 702.647
69.95000 699.347
69.96000 694.673
69.97000 689.088
69.98000 683.355
69.99000 673.652
70.00000 662.171
