20.00000 558.786
20.01000 560.361
20.02000 562.160
20.03000 563.186
20.04000 561.190
20.05000 558.888
20.06000 557.196
20.07000 554.662
20.08000 552.668
20.09000 550.536
20.10000 548.157
20.11000 545.773
20.12000 545.185
20.13000 546.721
20.14000 548.257
20.15000 551.886
20.16000 557.080
20.17000 562.266
20.18000 567.186
20.19000 571.970
20.20000 575.933
20.21000 566.859
20.22000 553.273
20.23000 540.847
20.24000 541.366
20.25000 544.495
20.26000 547.858
20.27000 552.478
20.28000 557.285
20.29000 559.932
20.30000 554.913
20.31000 549.220
20.32000 545.153
20.33000 544.172
20.34000 543.527
20.35000 542.968
20.36000 542.548
20.37000 542.131
20.38000 543.225
20.39000 545.928
20.40000 548.618
20.41000 548.036
20.42000 545.224
20.43000 542.471
20.44000 541.428
20.45000 541.181
20.46000 541.197
20.47000 544.771
20.48000 549.465
20.49000 553.703
20.50000 554.073
20.51000 553.686
20.52000 552.833
20.53000 549.717
20.54000 546.302
20.55000 542.421
20.56000 537.044
20.57000 531.552
20.58000 527.745
20.59000 539.595
20.60000 548.930
20.61000 553.481
20.62000 550.997
20.63000 548.450
20.64000 548.763
20.65000 551.808
20.66000 554.830
20.67000 558.690
20.68000 562.998
20.69000 566.979
20.70000 563.199
20.71000 556.133
20.72000 550.284
20.73000 558.596
20.74000 570.964
20.75000 581.977
20.76000 569.743
20.77000 555.300
20.78000 543.177
20.79000 541.224
20.80000 540.464
20.81000 540.613
20.82000 543.426
20.83000 546.412
20.84000 548.417
20.85000 543.143
20.86000 539.077
20.87000 536.237
20.88000 535.026
20.89000 533.828
20.90000 535.787
20.91000 540.459
20.92000 545.075
20.93000 546.644
20.94000 546.482
20.95000 546.136
20.96000 542.229
20.97000 536.948
20.98000 532.623
20.99000 537.974
21.00000 545.841
21.01000 552.742
21.02000 550.894
21.03000 548.033
21.04000 544.971
21.05000 541.111
21.06000 537.169
21.07000 533.192
21.08000 529.122
21.09000 525.047
21.10000 522.402
21.11000 527.555
21.12000 531.445
21.13000 536.360
21.14000 542.508
21.15000 548.646
21.16000 551.312
21.17000 551.287
21.18000 551.263
21.19000 544.397
21.20000 534.321
21.21000 524.942
21.22000 526.945
21.23000 532.947
21.24000 538.409
21.25000 539.088
21.26000 538.639
21.27000 538.251
21.28000 537.241
21.29000 536.303
21.30000 534.435
21.31000 529.213
21.32000 523.690
21.33000 521.513
21.34000 527.483
21.35000 533.819
21.36000 537.782
21.37000 540.233
21.38000 541.986
21.39000 539.134
21.40000 531.293
21.41000 523.480
21.42000 519.695
21.43000 518.736
21.44000 517.798
21.45000 525.403
21.46000 536.569
21.47000 547.110
21.48000 548.990
21.49000 548.100
21.50000 547.097
21.51000 545.210
21.52000 543.136
21.53000 541.375
21.54000 532.697
21.55000 524.635
21.56000 517.958
21.57000 515.816
21.58000 514.027
21.59000 515.524
21.60000 524.306
21.61000 533.353
21.62000 538.794
21.63000 536.848
21.64000 535.414
21.65000 537.469
21.66000 542.918
21.67000 548.335
21.68000 551.133
21.69000 552.263
21.70000 553.362
21.71000 549.747
21.72000 544.381
21.73000 539.837
21.74000 545.091
21.75000 553.194
21.76000 560.185
21.77000 559.425
21.78000 557.176
21.79000 555.303
21.80000 556.772
21.81000 558.322
21.82000 558.669
21.83000 555.438
21.84000 551.969
21.85000 550.941
21.86000 554.845
21.87000 558.891
21.88000 561.223
21.89000 561.340
21.90000 561.411
21.91000 559.402
21.92000 555.575
21.93000 551.907
21.94000 557.300
21.95000 567.935
21.96000 578.201
21.97000 587.060
21.98000 594.886
21.99000 601.156
22.00000 591.344
22.01000 577.285
22.02000 566.456
22.03000 575.712
22.04000 588.435
22.05000 598.827
22.06000 595.666
22.07000 591.909
22.08000 586.338
22.09000 575.847
22.10000 565.079
22.11000 560.989
22.12000 569.173
22.13000 577.623
22.14000 582.278
22.15000 587.709
22.16000 591.444
22.17000 592.965
22.18000 592.740
22.19000 592.567
22.20000 594.543
22.21000 597.650
22.22000 600.627
22.23000 600.357
22.24000 599.026
22.25000 597.611
22.26000 595.440
22.27000 593.088
22.28000 590.879
22.29000 589.470
22.30000 588.184
22.31000 587.156
22.32000 582.513
22.33000 578.490
22.34000 574.152
22.35000 569.031
22.36000 563.874
22.37000 563.524
22.38000 571.211
22.39000 579.023
22.40000 583.120
22.41000 574.438
22.42000 568.536
22.43000 560.495
22.44000 550.928
22.45000 541.633
22.46000 541.013
22.47000 544.549
22.48000 547.907
22.49000 543.896
22.50000 537.984
22.51000 533.040
22.52000 535.836
22.53000 540.308
22.54000 542.975
22.55000 536.586
22.56000 528.949
22.57000 522.977
22.58000 529.623
22.59000 535.731
22.60000 538.288
22.61000 532.849
22.62000 527.108
22.63000 526.303
22.64000 532.990
22.65000 539.755
22.66000 541.566
22.67000 538.476
22.68000 535.368
22.69000 530.644
22.70000 524.875
22.71000 519.401
22.72000 521.407
22.73000 526.677
22.74000 531.633
22.75000 529.544
22.76000 525.735
22.77000 521.655
22.78000 515.656
22.79000 509.282
22.80000 504.543
22.81000 507.208
22.82000 510.777
22.83000 513.502
22.84000 519.138
22.85000 523.737
22.86000 522.060
22.87000 507.515
22.88000 492.587
22.89000 486.129
22.90000 491.327
22.91000 496.593
22.92000 504.382
22.93000 514.402
22.94000 524.257
22.95000 524.240
22.96000 518.426
22.97000 512.593
22.98000 506.392
22.99000 500.045
23.00000 494.139
23.01000 498.785
23.02000 505.541
23.03000 511.930
23.04000 515.988
23.05000 519.637
23.06000 520.735
23.07000 511.379
23.08000 500.897
23.09000 493.095
23.10000 499.021
23.11000 504.248
23.12000 507.349
23.13000 506.480
23.14000 505.521
23.15000 502.217
23.16000 495.996
23.17000 489.777
23.18000 489.671
23.19000 494.444
23.20000 499.194
23.21000 502.961
23.22000 506.204
23.23000 509.110
23.24000 506.228
23.25000 501.249
23.26000 496.669
23.27000 498.915
23.28000 502.407
23.29000 504.248
23.30000 496.721
23.31000 487.719
23.32000 480.932
23.33000 482.377
23.34000 484.596
23.35000 486.204
23.36000 484.721
23.37000 483.467
23.38000 485.428
23.39000 492.845
23.40000 500.352
23.41000 500.141
23.42000 491.276
23.43000 482.436
23.44000 488.403
23.45000 504.955
23.46000 520.981
23.47000 519.473
23.48000 509.438
23.49000 499.835
23.50000 496.544
23.51000 495.334
23.52000 494.234
23.53000 496.001
23.54000 498.119
23.55000 500.558
23.56000 504.635
23.57000 508.941
23.58000 510.739
23.59000 504.069
23.60000 496.708
23.61000 491.528
23.62000 501.868
23.63000 510.165
23.64000 514.099
23.65000 511.306
23.66000 508.438
23.67000 505.050
23.68000 501.137
23.69000 497.249
23.70000 492.684
23.71000 487.747
23.72000 482.999
23.73000 483.239
23.74000 485.689
23.75000 487.811
23.76000 485.821
23.77000 482.597
23.78000 479.707
23.79000 478.059
23.80000 476.835
23.81000 475.725
23.82000 475.144
23.83000 474.629
23.84000 475.594
23.85000 481.105
23.86000 486.934
23.87000 490.911
23.88000 495.687
23.89000 499.276
23.90000 502.286
23.91000 504.485
23.92000 506.676
23.93000 503.875
23.94000 496.559
23.95000 489.315
23.96000 481.373
23.97000 473.190
23.98000 465.427
23.99000 466.635
24.00000 471.464
24.01000 475.819
24.02000 475.053
24.03000 472.891
24.04000 470.981
24.05000 472.145
24.06000 473.625
24.07000 475.178
24.08000 477.030
24.09000 478.915
24.10000 480.405
24.11000 480.790
24.12000 481.109
24.13000 481.319
24.14000 481.156
24.15000 481.029
24.16000 485.073
24.17000 494.391
24.18000 503.698
24.19000 501.565
24.20000 490.110
24.21000 478.816
24.22000 476.183
24.23000 478.190
24.24000 479.970
24.25000 477.713
24.26000 473.973
24.27000 471.095
24.28000 476.362
24.29000 483.642
24.30000 489.977
24.31000 483.162
24.32000 475.547
24.33000 469.489
24.34000 469.307
24.35000 469.692
24.36000 470.244
24.37000 471.221
24.38000 472.219
24.39000 472.855
24.40000 464.865
24.41000 458.948
24.42000 458.006
24.43000 462.737
24.44000 467.460
24.45000 469.741
24.46000 470.224
24.47000 470.698
24.48000 471.191
24.49000 471.676
24.50000 472.415
24.51000 476.969
24.52000 482.800
24.53000 487.894
24.54000 486.854
24.55000 484.442
24.56000 482.377
24.57000 484.716
24.58000 487.220
24.59000 488.315
24.60000 484.578
24.61000 480.437
24.62000 478.433
24.63000 481.384
24.64000 484.536
24.65000 486.468
24.66000 477.095
24.67000 470.285
24.68000 470.153
24.69000 476.867
24.70000 483.564
24.71000 488.553
24.72000 492.400
24.73000 496.153
24.74000 490.219
24.75000 480.387
24.76000 471.407
24.77000 473.312
24.78000 478.532
24.79000 482.856
24.80000 480.573
24.81000 476.955
24.82000 473.913
24.83000 463.563
24.84000 454.163
24.85000 449.714
24.86000 460.700
24.87000 472.795
24.88000 479.015
24.89000 472.822
24.90000 466.228
24.91000 462.346
24.92000 457.746
24.93000 454.498
24.94000 456.619
24.95000 463.679
24.96000 470.638
24.97000 470.865
24.98000 467.015
24.99000 463.284
25.00000 462.996
25.01000 464.058
25.02000 465.045
25.03000 465.214
25.04000 465.156
25.05000 465.317
25.06000 466.915
25.07000 468.775
25.08000 470.309
25.09000 469.428
25.10000 468.479
25.11000 468.231
25.12000 469.973
25.13000 471.837
25.14000 473.055
25.15000 473.030
25.16000 472.974
25.17000 472.943
25.18000 471.934
25.19000 471.235
25.20000 472.110
25.21000 474.290
25.22000 476.409
25.23000 475.579
25.24000 473.126
25.25000 470.767
25.26000 467.806
25.27000 464.821
25.28000 461.790
25.29000 458.314
25.30000 454.727
25.31000 452.005
25.32000 454.373
25.33000 457.572
25.34000 460.157
25.35000 466.024
25.36000 471.058
25.37000 475.277
25.38000 477.389
25.39000 479.393
25.40000 478.000
25.41000 470.661
25.42000 463.212
25.43000 459.209
25.44000 453.106
25.45000 448.955
25.46000 448.671
25.47000 451.281
25.48000 453.912
25.49000 457.312
25.50000 461.097
25.51000 464.707
25.52000 462.922
25.53000 459.564
25.54000 457.400
25.55000 465.366
25.56000 475.637
25.57000 483.597
25.58000 479.364
25.59000 473.352
25.60000 468.599
25.61000 461.299
25.62000 455.261
25.63000 451.643
25.64000 453.726
25.65000 456.048
25.66000 458.187
25.67000 460.037
25.68000 461.884
25.69000 462.826
25.70000 457.285
25.71000 453.595
25.72000 453.283
25.73000 455.262
25.74000 457.328
25.75000 461.865
25.76000 467.529
25.77000 472.882
25.78000 468.970
25.79000 462.748
25.80000 456.857
25.81000 453.461
25.82000 450.577
25.83000 447.908
25.84000 446.262
25.85000 444.748
25.86000 443.579
25.87000 450.058
25.88000 455.644
25.89000 461.391
25.90000 467.483
25.91000 473.586
25.92000 473.197
25.93000 463.438
25.94000 453.605
25.95000 449.404
25.96000 450.475
25.97000 451.569
25.98000 454.378
25.99000 458.243
26.00000 462.238
26.01000 469.221
26.02000 477.447
26.03000 485.142
26.04000 478.306
26.05000 468.385
26.06000 460.210
26.07000 463.707
26.08000 469.363
26.09000 472.980
26.10000 467.827
26.11000 461.668
26.12000 457.026
26.13000 460.813
26.14000 464.193
26.15000 463.382
26.16000 454.386
26.17000 445.176
26.18000 439.402
26.19000 438.119
26.20000 436.856
26.21000 440.375
26.22000 447.902
26.23000 455.233
26.24000 452.622
26.25000 444.449
26.26000 436.585
26.27000 434.512
26.28000 434.633
26.29000 434.745
26.30000 435.298
26.31000 435.897
26.32000 437.483
26.33000 444.980
26.34000 453.458
26.35000 460.054
26.36000 459.316
26.37000 457.840
26.38000 456.757
26.39000 451.317
26.40000 446.935
26.41000 443.626
26.42000 442.222
26.43000 440.855
26.44000 438.185
26.45000 433.978
26.46000 429.779
26.47000 430.010
26.48000 433.586
26.49000 437.200
26.50000 442.222
26.51000 447.961
26.52000 453.566
26.53000 457.048
26.54000 459.798
26.55000 462.312
26.56000 459.045
26.57000 454.954
26.58000 451.689
26.59000 452.854
26.60000 454.677
26.61000 457.485
26.62000 463.774
26.63000 470.368
26.64000 475.075
26.65000 462.726
26.66000 452.744
26.67000 449.222
26.68000 456.141
26.69000 463.202
26.70000 462.866
26.71000 454.678
26.72000 446.528
26.73000 446.934
26.74000 453.161
26.75000 459.106
26.76000 456.786
26.77000 450.635
26.78000 444.631
26.79000 440.609
26.80000 437.208
26.81000 434.140
26.82000 435.110
26.83000 436.704
26.84000 438.521
26.85000 441.415
26.86000 444.451
26.87000 447.195
26.88000 449.002
26.89000 450.738
26.90000 451.940
26.91000 442.778
26.92000 435.610
26.93000 435.878
26.94000 447.046
26.95000 458.309
26.96000 460.100
26.97000 452.871
26.98000 445.700
26.99000 441.415
27.00000 438.977
27.01000 436.701
27.02000 438.246
27.03000 441.405
27.04000 444.261
27.05000 443.623
27.06000 441.986
27.07000 440.530
27.08000 441.809
27.09000 443.367
27.10000 445.119
27.11000 447.725
27.12000 450.430
27.13000 450.345
27.14000 442.099
27.15000 433.328
27.16000 427.444
27.17000 440.775
27.18000 451.059
27.19000 455.280
27.20000 451.448
27.21000 447.576
27.22000 442.214
27.23000 435.577
27.24000 429.018
27.25000 433.063
27.26000 442.880
27.27000 452.000
27.28000 447.598
27.29000 437.994
27.30000 429.619
27.31000 433.623
27.32000 440.837
27.33000 447.161
27.34000 443.383
27.35000 438.674
27.36000 435.017
27.37000 435.527
27.38000 436.465
27.39000 437.788
27.40000 440.134
27.41000 442.536
27.42000 444.093
27.43000 441.216
27.44000 439.044
27.45000 440.359
27.46000 445.857
27.47000 451.329
27.48000 448.287
27.49000 438.663
27.50000 429.196
27.51000 429.909
27.52000 435.687
27.53000 441.371
27.54000 445.522
27.55000 449.135
27.56000 452.084
27.57000 449.163
27.58000 444.863
27.59000 441.153
27.60000 436.994
27.61000 433.409
27.62000 428.912
27.63000 421.142
27.64000 413.080
27.65000 410.868
27.66000 422.852
27.67000 435.472
27.68000 443.357
27.69000 438.060
27.70000 434.100
27.71000 433.391
27.72000 436.193
27.73000 438.963
27.74000 437.506
27.75000 433.089
27.76000 428.769
27.77000 425.536
27.78000 422.924
27.79000 420.672
27.80000 423.382
27.81000 427.674
27.82000 430.342
27.83000 420.318
27.84000 407.600
27.85000 396.814
27.86000 399.758
27.87000 403.776
27.88000 409.636
27.89000 421.510
27.90000 433.849
27.91000 438.511
27.92000 426.200
27.93000 413.275
27.94000 405.512
27.95000 411.595
27.96000 416.011
27.97000 418.019
27.98000 417.694
27.99000 417.356
28.00000 416.069
28.01000 414.180
28.02000 412.344
28.03000 413.219
28.04000 415.155
28.05000 417.329
28.06000 422.313
28.07000 428.112
28.08000 432.913
28.09000 430.779
28.10000 427.317
28.11000 424.435
28.12000 423.379
28.13000 422.684
28.14000 421.568
28.15000 419.198
28.16000 416.745
28.17000 415.453
28.18000 416.496
28.19000 417.606
28.20000 418.245
28.21000 430.208
28.22000 438.615
28.23000 439.289
28.24000 433.226
28.25000 427.285
28.26000 428.125
28.27000 432.877
28.28000 437.463
28.29000 434.291
28.30000 428.451
28.31000 422.850
28.32000 419.711
28.33000 417.221
28.34000 414.501
28.35000 410.358
28.36000 405.971
28.37000 402.389
28.38000 409.391
28.39000 416.029
28.40000 419.796
28.41000 415.802
28.42000 411.374
28.43000 410.018
28.44000 414.292
28.45000 418.687
28.46000 421.104
28.47000 414.440
28.48000 409.845
28.49000 407.923
28.50000 408.101
28.51000 408.400
28.52000 413.662
28.53000 421.529
28.54000 429.062
28.55000 430.631
28.56000 430.116
28.57000 430.224
28.58000 435.968
28.59000 443.057
28.60000 447.803
28.61000 439.528
28.62000 429.247
28.63000 421.029
28.64000 432.174
28.65000 442.614
28.66000 447.714
28.67000 439.658
28.68000 430.993
28.69000 424.609
28.70000 422.025
28.71000 419.499
28.72000 418.176
28.73000 430.374
28.74000 438.603
28.75000 441.663
28.76000 441.048
28.77000 440.395
28.78000 438.566
28.79000 436.174
28.80000 433.904
28.81000 436.970
28.82000 441.393
28.83000 445.168
28.84000 443.779
28.85000 441.274
28.86000 438.934
28.87000 437.414
28.88000 436.007
28.89000 434.908
28.90000 429.908
28.91000 425.671
28.92000 424.088
28.93000 428.461
28.94000 433.057
28.95000 435.863
28.96000 435.960
28.97000 436.028
28.98000 430.353
28.99000 419.015
29.00000 407.777
29.01000 405.346
29.02000 408.593
29.03000 411.920
29.04000 417.269
29.05000 423.497
29.06000 429.352
29.07000 425.262
29.08000 418.853
29.09000 413.752
29.10000 417.906
29.11000 423.862
29.12000 428.401
29.13000 426.543
29.14000 423.905
29.15000 421.893
29.16000 419.092
29.17000 416.843
29.18000 417.169
29.19000 422.758
29.20000 428.503
29.21000 427.972
29.22000 418.835
29.23000 409.650
29.24000 405.851
29.25000 406.823
29.26000 407.762
29.27000 406.677
29.28000 404.407
29.29000 402.153
29.30000 400.225
29.31000 398.427
29.32000 396.754
29.33000 401.842
29.34000 408.072
29.35000 413.254
29.36000 411.820
29.37000 409.228
29.38000 405.941
29.39000 399.811
29.40000 393.377
29.41000 388.591
29.42000 392.633
29.43000 396.172
29.44000 397.710
29.45000 395.526
29.46000 393.257
29.47000 395.235
29.48000 402.477
29.49000 409.722
29.50000 410.422
29.51000 405.913
29.52000 401.490
29.53000 400.724
29.54000 401.907
29.55000 403.088
29.56000 404.243
29.57000 405.388
29.58000 406.441
29.59000 404.165
29.60000 401.410
29.61000 399.117
29.62000 399.432
29.63000 400.157
29.64000 400.587
29.65000 399.927
29.66000 399.165
29.67000 398.613
29.68000 404.997
29.69000 410.153
29.70000 413.162
29.71000 412.540
29.72000 411.859
29.73000 412.638
29.74000 415.050
29.75000 417.454
29.76000 416.109
29.77000 412.091
29.78000 408.177
29.79000 407.675
29.80000 408.828
29.81000 409.789
29.82000 407.964
29.83000 405.224
29.84000 402.734
29.85000 403.423
29.86000 404.648
29.87000 405.583
29.88000 405.044
29.89000 404.299
29.90000 404.001
29.91000 405.209
29.92000 406.540
29.93000 407.475
29.94000 400.842
29.95000 395.595
29.96000 396.587
29.97000 407.169
29.98000 417.858
29.99000 420.360
30.00000 414.645
30.01000 408.967
30.02000 407.023
30.03000 407.516
30.04000 408.159
30.05000 412.707
30.06000 418.980
30.07000 424.526
30.08000 421.044
30.09000 414.860
30.10000 409.319
30.11000 408.121
30.12000 407.826
30.13000 407.329
30.14000 405.907
30.15000 404.369
30.16000 402.620
30.17000 400.225
30.18000 397.786
30.19000 396.123
30.20000 404.510
30.21000 411.009
30.22000 414.694
30.23000 414.459
30.24000 414.197
30.25000 414.458
30.26000 415.191
30.27000 415.915
30.28000 413.924
30.29000 410.393
30.30000 406.968
30.31000 405.814
30.32000 405.572
30.33000 405.324
30.34000 405.007
30.35000 404.671
30.36000 404.374
30.37000 405.129
30.38000 405.942
30.39000 406.103
30.40000 403.560
30.41000 400.719
30.42000 401.279
30.43000 411.313
30.44000 421.908
30.45000 428.891
30.46000 414.152
30.47000 402.911
30.48000 399.673
30.49000 406.523
30.50000 413.398
30.51000 417.395
30.52000 419.055
30.53000 420.692
30.54000 419.793
30.55000 417.588
30.56000 415.536
30.57000 416.197
30.58000 417.853
30.59000 418.877
30.60000 413.962
30.61000 407.583
30.62000 402.036
30.63000 411.854
30.64000 422.326
30.65000 428.809
30.66000 420.276
30.67000 410.303
30.68000 405.186
30.69000 412.397
30.70000 420.214
30.71000 425.187
30.72000 417.324
30.73000 411.450
30.74000 407.859
30.75000 406.865
30.76000 405.890
30.77000 407.693
30.78000 411.536
30.79000 415.306
30.80000 421.726
30.81000 429.168
30.82000 436.286
30.83000 438.580
30.84000 439.264
30.85000 439.450
30.86000 435.516
30.87000 430.663
30.88000 426.512
30.89000 435.691
30.90000 445.034
30.91000 453.088
30.92000 456.740
30.93000 460.026
30.94000 462.113
30.95000 461.431
30.96000 460.636
30.97000 460.150
30.98000 477.883
30.99000 490.734
31.00000 498.479
31.01000 501.009
31.02000 503.569
31.03000 509.221
31.04000 516.932
31.05000 524.451
31.06000 527.934
31.07000 529.532
31.08000 531.295
31.09000 535.156
31.10000 539.654
31.11000 546.306
31.12000 568.779
31.13000 594.439
31.14000 615.997
31.15000 629.568
31.16000 640.032
31.17000 653.431
31.18000 675.958
31.19000 699.138
31.20000 728.290
31.21000 770.029
31.22000 812.171
31.23000 836.945
31.24000 843.610
31.25000 848.222
31.26000 865.075
31.27000 893.151
31.28000 921.174
31.29000 945.689
31.30000 968.084
31.31000 989.777
31.32000 1006.776
31.33000 1021.044
31.34000 1035.911
31.35000 1057.375
31.36000 1080.659
31.37000 1101.307
31.38000 1104.711
31.39000 1104.988
31.40000 1105.216
31.41000 1117.709
31.42000 1129.119
31.43000 1134.656
31.44000 1123.575
31.45000 1111.486
31.46000 1097.867
31.47000 1081.315
31.48000 1064.691
31.49000 1055.338
31.50000 1046.304
31.51000 1040.007
31.52000 1021.170
31.53000 991.978
31.54000 962.693
31.55000 928.987
31.56000 892.853
31.57000 858.113
31.58000 831.931
31.59000 810.385
31.60000 789.069
31.61000 769.971
31.62000 751.427
31.63000 732.975
31.64000 715.058
31.65000 697.228
31.66000 682.828
31.67000 656.492
31.68000 634.130
31.69000 614.222
31.70000 600.637
31.71000 587.372
31.72000 574.329
31.73000 561.672
31.74000 549.022
31.75000 542.235
31.76000 541.770
31.77000 541.424
31.78000 534.254
31.79000 521.993
31.80000 509.734
31.81000 497.563
31.82000 485.437
31.83000 473.875
31.84000 462.142
31.85000 451.205
31.86000 441.607
31.87000 443.326
31.88000 447.611
31.89000 450.670
31.90000 447.274
31.91000 442.940
31.92000 439.516
31.93000 444.217
31.94000 448.548
31.95000 448.788
31.96000 439.424
31.97000 429.661
31.98000 423.826
31.99000 424.225
32.00000 424.702
32.01000 424.945
32.02000 413.229
32.03000 405.426
32.04000 404.105
32.05000 407.166
32.06000 410.229
32.07000 413.364
32.08000 416.533
32.09000 419.526
32.10000 414.241
32.11000 407.047
32.12000 400.628
32.13000 400.015
32.14000 400.589
32.15000 400.483
32.16000 397.144
32.17000 393.387
32.18000 390.487
32.19000 398.390
32.20000 405.284
32.21000 407.117
32.22000 398.123
32.23000 388.768
32.24000 384.084
32.25000 386.123
32.26000 388.215
32.27000 389.184
32.28000 389.105
32.29000 389.036
32.30000 389.665
32.31000 390.723
32.32000 391.376
32.33000 382.860
32.34000 370.540
32.35000 359.019
32.36000 363.555
32.37000 371.763
32.38000 379.527
32.39000 384.334
32.40000 388.596
32.41000 390.535
32.42000 382.515
32.43000 373.357
32.44000 366.460
32.45000 377.549
32.46000 387.108
32.47000 391.403
32.48000 385.447
32.49000 379.226
32.50000 375.923
32.51000 376.419
32.52000 376.932
32.53000 374.883
32.54000 370.697
32.55000 366.644
32.56000 369.314
32.57000 375.733
32.58000 381.605
32.59000 377.232
32.60000 368.988
32.61000 361.363
32.62000 362.399
32.63000 365.308
32.64000 367.899
32.65000 368.590
32.66000 368.967
32.67000 370.783
32.68000 378.190
32.69000 386.158
32.70000 392.003
32.71000 386.569
32.72000 381.915
32.73000 378.629
32.74000 377.769
32.75000 376.956
32.76000 373.761
32.77000 367.767
32.78000 361.784
32.79000 355.392
32.80000 348.733
32.81000 342.396
32.82000 348.107
32.83000 359.933
32.84000 370.834
32.85000 367.232
32.86000 358.639
32.87000 350.785
32.88000 359.970
32.89000 371.616
32.90000 379.621
32.91000 368.144
32.92000 353.783
32.93000 344.017
32.94000 350.454
32.95000 358.305
32.96000 363.904
32.97000 362.377
32.98000 360.979
32.99000 361.714
33.00000 365.884
33.01000 370.101
33.02000 368.710
33.03000 361.387
33.04000 354.100
33.05000 352.874
33.06000 355.778
33.07000 358.539
33.08000 357.137
33.09000 353.812
33.10000 350.623
33.11000 349.245
33.12000 348.434
33.13000 347.703
33.14000 343.808
33.15000 339.809
33.16000 336.539
33.17000 336.788
33.18000 337.501
33.19000 338.811
33.20000 342.031
33.21000 345.396
33.22000 347.724
33.23000 331.303
33.24000 318.461
33.25000 315.492
33.26000 326.955
33.27000 338.542
33.28000 344.719
33.29000 345.760
33.30000 346.792
33.31000 342.140
33.32000 334.093
33.33000 326.448
33.34000 328.225
33.35000 333.971
33.36000 339.436
33.37000 341.659
33.38000 342.960
33.39000 344.118
33.40000 347.546
33.41000 350.891
33.42000 353.177
33.43000 350.841
33.44000 347.968
33.45000 345.297
33.46000 343.219
33.47000 341.178
33.48000 339.811
33.49000 347.048
33.50000 352.590
33.51000 351.938
33.52000 343.087
33.53000 334.207
33.54000 332.340
33.55000 336.460
33.56000 340.531
33.57000 342.097
33.58000 342.239
33.59000 342.034
33.60000 335.123
33.61000 325.639
33.62000 317.366
33.63000 321.237
33.64000 328.248
33.65000 334.392
33.66000 337.482
33.67000 339.692
33.68000 341.255
33.69000 340.269
33.70000 339.021
33.71000 339.612
33.72000 345.090
33.73000 350.832
33.74000 354.549
33.75000 338.975
33.76000 327.295
33.77000 320.332
33.78000 319.007
33.79000 317.712
33.80000 320.846
33.81000 327.394
33.82000 333.833
33.83000 334.599
33.84000 332.512
33.85000 330.428
33.86000 328.389
33.87000 326.365
33.88000 325.013
33.89000 329.571
33.90000 335.513
33.91000 340.637
33.92000 339.248
33.93000 337.238
33.94000 334.661
33.95000 330.055
33.96000 325.267
33.97000 323.233
33.98000 327.863
33.99000 332.789
34.00000 335.863
34.01000 339.707
34.02000 342.488
34.03000 342.308
34.04000 338.941
34.05000 335.575
34.06000 332.402
34.07000 329.363
34.08000 326.390
34.09000 322.678
34.10000 318.784
34.11000 315.694
34.12000 323.641
34.13000 335.098
34.14000 344.536
34.15000 338.268
34.16000 328.676
34.17000 320.545
34.18000 324.568
34.19000 329.307
34.20000 333.003
34.21000 333.308
34.22000 333.352
34.23000 331.174
34.24000 324.099
34.25000 316.847
34.26000 312.497
34.27000 321.308
34.28000 327.654
34.29000 330.543
34.30000 330.090
34.31000 329.612
34.32000 326.986
34.33000 323.002
34.34000 319.130
34.35000 318.517
34.36000 319.260
34.37000 320.013
34.38000 320.894
34.39000 321.812
34.40000 322.826
34.41000 324.504
34.42000 326.309
34.43000 327.810
34.44000 328.097
34.45000 328.215
34.46000 328.397
34.47000 328.768
34.48000 329.151
34.49000 331.783
34.50000 338.933
34.51000 346.210
34.52000 350.394
34.53000 339.119
34.54000 331.173
34.55000 322.754
34.56000 313.923
34.57000 305.204
34.58000 302.680
34.59000 303.717
34.60000 304.719
34.61000 307.875
34.62000 311.635
34.63000 315.440
34.64000 319.703
34.65000 324.087
34.66000 327.763
34.67000 327.068
34.68000 325.624
34.69000 324.445
34.70000 318.313
34.71000 312.873
34.72000 311.084
34.73000 319.135
34.74000 327.732
34.75000 333.851
34.76000 335.438
34.77000 336.930
34.78000 337.749
34.79000 325.758
34.80000 317.510
34.81000 316.660
34.82000 321.608
34.83000 326.340
34.84000 322.269
34.85000 313.594
34.86000 305.288
34.87000 304.251
34.88000 305.687
34.89000 306.923
34.90000 306.364
34.91000 305.377
34.92000 305.212
34.93000 309.595
34.94000 314.676
34.95000 318.735
34.96000 323.408
34.97000 327.228
34.98000 329.739
34.99000 329.035
35.00000 328.184
35.01000 325.194
35.02000 318.651
35.03000 312.053
35.04000 308.603
35.05000 307.431
35.06000 306.670
35.07000 310.241
35.08000 316.883
35.09000 323.197
35.10000 319.166
35.11000 310.207
35.12000 301.706
35.13000 303.166
35.14000 307.481
35.15000 311.853
35.16000 316.680
35.17000 321.605
35.18000 324.902
35.19000 320.086
35.20000 314.160
35.21000 309.532
35.22000 301.716
35.23000 295.280
35.24000 292.058
35.25000 296.029
35.26000 300.267
35.27000 303.487
35.28000 305.169
35.29000 306.835
35.30000 307.251
35.31000 306.438
35.32000 305.640
35.33000 306.172
35.34000 307.558
35.35000 309.079
35.36000 313.989
35.37000 320.368
35.38000 326.363
35.39000 328.520
35.40000 329.459
35.41000 329.663
35.42000 324.693
35.43000 318.718
35.44000 313.774
35.45000 313.472
35.46000 313.734
35.47000 313.933
35.48000 302.509
35.49000 292.892
35.50000 287.337
35.51000 290.063
35.52000 293.033
35.53000 297.872
35.54000 305.268
35.55000 312.674
35.56000 312.660
35.57000 306.101
35.58000 299.737
35.59000 304.831
35.60000 316.616
35.61000 327.527
35.62000 320.541
35.63000 306.480
35.64000 293.403
35.65000 300.051
35.66000 310.804
35.67000 319.639
35.68000 316.413
35.69000 311.083
35.70000 306.853
35.71000 307.105
35.72000 307.837
35.73000 308.380
35.74000 305.173
35.75000 302.512
35.76000 300.403
35.77000 299.315
35.78000 298.251
35.79000 295.927
35.80000 292.048
35.81000 288.172
35.82000 287.922
35.83000 290.550
35.84000 293.181
35.85000 296.000
35.86000 298.918
35.87000 301.602
35.88000 300.285
35.89000 297.528
35.90000 294.993
35.91000 303.607
35.92000 313.708
35.93000 321.700
35.94000 317.809
35.95000 312.060
35.96000 306.923
35.97000 304.047
35.98000 301.382
35.99000 299.455
36.00000 293.424
36.01000 288.647
36.02000 287.083
36.03000 290.943
36.04000 294.891
36.05000 298.753
36.06000 302.521
36.07000 306.274
36.08000 303.681
36.09000 296.582
36.10000 289.719
36.11000 290.622
36.12000 295.279
36.13000 299.516
36.14000 297.669
36.15000 293.828
36.16000 290.340
36.17000 293.044
36.18000 296.629
36.19000 300.218
36.20000 303.828
36.21000 307.442
36.22000 309.924
36.23000 308.608
36.24000 306.985
36.25000 305.845
36.26000 302.985
36.27000 300.769
36.28000 300.213
36.29000 302.202
36.30000 304.219
36.31000 303.303
36.32000 299.451
36.33000 295.625
36.34000 291.574
36.35000 287.438
36.36000 283.486
36.37000 284.293
36.38000 287.195
36.39000 290.430
36.40000 297.776
36.41000 306.348
36.42000 314.026
36.43000 311.133
36.44000 306.785
36.45000 302.995
36.46000 301.759
36.47000 300.838
36.48000 298.222
36.49000 290.426
36.50000 282.271
36.51000 276.719
36.52000 289.243
36.53000 299.011
36.54000 303.759
36.55000 301.530
36.56000 299.257
36.57000 299.687
36.58000 302.547
36.59000 305.377
36.60000 305.806
36.61000 304.831
36.62000 303.737
36.63000 300.120
36.64000 295.491
36.65000 291.142
36.66000 289.808
36.67000 289.291
36.68000 288.834
36.69000 296.685
36.70000 304.733
36.71000 310.553
36.72000 307.145
36.73000 302.731
36.74000 298.286
36.75000 293.755
36.76000 289.220
36.77000 286.233
36.78000 292.869
36.79000 297.923
36.80000 298.444
36.81000 293.268
36.82000 288.090
36.83000 288.813
36.84000 294.314
36.85000 299.737
36.86000 301.792
36.87000 302.024
36.88000 302.167
36.89000 300.753
36.90000 298.770
36.91000 296.977
36.92000 296.977
36.93000 297.416
36.94000 297.798
36.95000 295.324
36.96000 292.826
36.97000 290.789
36.98000 290.487
36.99000 290.350
37.00000 291.034
37.01000 293.794
37.02000 296.656
37.03000 298.474
37.04000 295.570
37.05000 293.403
37.06000 291.367
37.07000 289.482
37.08000 287.607
37.09000 287.485
37.10000 288.646
37.11000 289.785
37.12000 291.994
37.13000 294.626
37.14000 297.112
37.15000 297.432
37.16000 297.031
37.17000 295.998
37.18000 289.754
37.19000 282.350
37.20000 276.021
37.21000 276.741
37.22000 278.192
37.23000 280.135
37.24000 283.756
37.25000 287.514
37.26000 289.953
37.27000 289.345
37.28000 288.615
37.29000 288.168
37.30000 286.612
37.31000 285.489
37.32000 287.005
37.33000 291.208
37.34000 295.373
37.35000 295.692
37.36000 293.460
37.37000 291.285
37.38000 290.268
37.39000 289.793
37.40000 289.248
37.41000 287.821
37.42000 286.127
37.43000 284.534
37.44000 283.687
37.45000 282.989
37.46000 282.403
37.47000 281.284
37.48000 280.297
37.49000 279.599
37.50000 279.798
37.51000 280.060
37.52000 280.388
37.53000 280.850
37.54000 281.317
37.55000 281.591
37.56000 281.703
37.57000 281.783
37.58000 284.472
37.59000 289.547
37.60000 294.539
37.61000 294.100
37.62000 290.389
37.63000 286.796
37.64000 289.427
37.65000 294.313
37.66000 298.794
37.67000 298.822
37.68000 297.624
37.69000 295.668
37.70000 288.768
37.71000 280.976
37.72000 274.556
37.73000 277.031
37.74000 279.882
37.75000 282.768
37.76000 285.754
37.77000 288.745
37.78000 288.632
37.79000 282.577
37.80000 276.377
37.81000 272.894
37.82000 280.742
37.83000 286.211
37.84000 289.532
37.85000 291.084
37.86000 292.471
37.87000 286.072
37.88000 275.409
37.89000 265.160
37.90000 269.511
37.91000 278.662
37.92000 286.831
37.93000 285.604
37.94000 282.031
37.95000 278.950
37.96000 278.739
37.97000 278.993
37.98000 279.198
37.99000 284.229
38.00000 288.701
38.01000 290.416
38.02000 285.045
38.03000 279.316
38.04000 276.806
38.05000 279.900
38.06000 283.095
38.07000 284.806
38.08000 287.171
38.09000 288.773
38.10000 287.968
38.11000 285.371
38.12000 282.901
38.13000 284.926
38.14000 289.190
38.15000 293.255
38.16000 289.073
38.17000 282.610
38.18000 277.691
38.19000 285.777
38.20000 296.802
38.21000 305.782
38.22000 304.037
38.23000 300.740
38.24000 298.136
38.25000 295.231
38.26000 292.879
38.27000 292.708
38.28000 297.643
38.29000 302.790
38.30000 307.058
38.31000 309.937
38.32000 312.799
38.33000 314.256
38.34000 310.404
38.35000 307.831
38.36000 306.359
38.37000 305.629
38.38000 305.019
38.39000 307.768
38.40000 312.041
38.41000 316.077
38.42000 317.161
38.43000 317.324
38.44000 318.198
38.45000 324.387
38.46000 331.660
38.47000 341.033
38.48000 360.336
38.49000 380.916
38.50000 396.795
38.51000 400.148
38.52000 402.080
38.53000 405.593
38.54000 412.481
38.55000 419.481
38.56000 430.381
38.57000 446.877
38.58000 463.415
38.59000 481.055
38.60000 499.712
38.61000 518.280
38.62000 530.599
38.63000 539.095
38.64000 547.726
38.65000 559.386
38.66000 572.299
38.67000 584.371
38.68000 579.397
38.69000 570.555
38.70000 562.428
38.71000 559.046
38.72000 556.535
38.73000 555.528
38.74000 560.944
38.75000 567.091
38.76000 571.717
38.77000 555.873
38.78000 542.483
38.79000 531.729
38.80000 526.096
38.81000 520.595
38.82000 510.142
38.83000 493.259
38.84000 476.366
38.85000 462.649
38.86000 451.622
38.87000 440.518
38.88000 425.613
38.89000 408.595
38.90000 392.203
38.91000 387.455
38.92000 387.095
38.93000 386.762
38.94000 375.346
38.95000 362.572
38.96000 351.027
38.97000 346.791
38.98000 343.761
38.99000 340.489
39.00000 336.281
39.01000 331.980
39.02000 328.828
39.03000 323.250
39.04000 318.844
39.05000 315.138
39.06000 312.669
39.07000 310.224
39.08000 308.321
39.09000 307.054
39.10000 305.791
39.11000 303.613
39.12000 300.762
39.13000 297.905
39.14000 294.846
39.15000 291.686
39.16000 288.570
39.17000 286.162
39.18000 283.996
39.19000 282.017
39.20000 284.184
39.21000 286.953
39.22000 288.463
39.23000 283.253
39.24000 277.052
39.25000 272.196
39.26000 272.067
39.27000 272.348
39.28000 272.548
39.29000 268.108
39.30000 264.572
39.31000 263.678
39.32000 267.028
39.33000 270.435
39.34000 271.660
39.35000 270.584
39.36000 269.513
39.37000 272.204
39.38000 277.409
39.39000 282.236
39.40000 276.132
39.41000 264.992
39.42000 254.553
39.43000 253.457
39.44000 255.279
39.45000 256.922
39.46000 265.402
39.47000 274.093
39.48000 280.073
39.49000 273.020
39.50000 264.256
39.51000 258.500
39.52000 262.351
39.53000 266.921
39.54000 270.081
39.55000 265.966
39.56000 262.684
39.57000 261.731
39.58000 264.175
39.59000 266.647
39.60000 266.077
39.61000 262.626
39.62000 259.205
39.63000 259.188
39.64000 261.250
39.65000 263.375
39.66000 266.983
39.67000 271.213
39.68000 274.941
39.69000 272.898
39.70000 269.217
39.71000 265.944
39.72000 263.589
39.73000 261.695
39.74000 259.957
39.75000 258.898
39.76000 257.917
39.77000 258.322
39.78000 262.756
39.79000 267.448
39.80000 270.588
39.81000 270.595
39.82000 270.538
39.83000 267.950
39.84000 262.021
39.85000 256.083
39.86000 253.957
39.87000 255.076
39.88000 256.182
39.89000 255.029
39.90000 252.660
39.91000 250.301
39.92000 248.116
39.93000 245.997
39.94000 244.664
39.95000 251.180
39.96000 259.717
39.97000 267.196
39.98000 269.577
39.99000 270.886
40.00000 270.980
40.01000 266.298
40.02000 261.130
40.03000 255.799
40.04000 250.041
40.05000 244.260
40.06000 240.521
40.07000 246.073
40.08000 250.270
40.09000 251.661
40.10000 249.708
40.11000 247.751
40.12000 246.432
40.13000 245.604
40.14000 244.790
40.15000 247.657
40.16000 252.259
40.17000 256.656
40.18000 257.769
40.19000 257.738
40.20000 257.834
40.21000 259.052
40.22000 260.531
40.23000 261.807
40.24000 259.511
40.25000 257.109
40.26000 254.819
40.27000 252.923
40.28000 251.062
40.29000 249.713
40.30000 249.598
40.31000 249.537
40.32000 249.500
40.33000 249.905
40.34000 250.201
40.35000 251.520
40.36000 253.936
40.37000 256.301
40.38000 252.097
40.39000 243.323
40.40000 234.744
40.41000 238.461
40.42000 247.542
40.43000 255.920
40.44000 254.711
40.45000 250.461
40.46000 246.648
40.47000 246.218
40.48000 246.501
40.49000 246.742
40.50000 254.322
40.51000 261.495
40.52000 264.647
40.53000 254.753
40.54000 243.858
40.55000 236.851
40.56000 238.391
40.57000 240.236
40.58000 241.342
40.59000 240.925
40.60000 240.620
40.61000 242.120
40.62000 245.357
40.63000 248.539
40.64000 247.399
40.65000 243.531
40.66000 239.772
40.67000 241.055
40.68000 244.317
40.69000 247.673
40.70000 252.144
40.71000 256.936
40.72000 260.650
40.73000 256.932
40.74000 251.800
40.75000 247.532
40.76000 243.766
40.77000 240.698
40.78000 238.628
40.79000 239.505
40.80000 240.574
40.81000 240.271
40.82000 237.221
40.83000 234.093
40.84000 232.297
40.85000 230.249
40.86000 228.821
40.87000 231.021
40.88000 236.361
40.89000 241.611
40.90000 241.917
40.91000 239.388
40.92000 236.948
40.93000 236.949
40.94000 237.843
40.95000 238.855
40.96000 241.078
40.97000 243.619
40.98000 245.842
40.99000 246.116
41.00000 246.056
41.01000 246.008
41.02000 247.904
41.03000 249.620
41.04000 249.355
41.05000 243.762
41.06000 237.875
41.07000 236.949
41.08000 245.062
41.09000 253.366
41.10000 257.921
41.11000 258.482
41.12000 258.834
41.13000 251.580
41.14000 238.387
41.15000 225.616
41.16000 229.970
41.17000 243.258
41.18000 255.976
41.19000 253.486
41.20000 246.152
41.21000 239.839
41.22000 242.668
41.23000 247.666
41.24000 252.102
41.25000 253.438
41.26000 254.299
41.27000 254.986
41.28000 250.231
41.29000 245.991
41.30000 242.085
41.31000 238.997
41.32000 235.945
41.33000 235.418
41.34000 239.075
41.35000 242.794
41.36000 244.736
41.37000 237.091
41.38000 231.962
41.39000 233.144
41.40000 238.785
41.41000 244.219
41.42000 243.144
41.43000 238.977
41.44000 235.023
41.45000 233.522
41.46000 232.865
41.47000 232.505
41.48000 234.483
41.49000 236.963
41.50000 238.699
41.51000 236.732
41.52000 234.260
41.53000 232.331
41.54000 234.983
41.55000 237.386
41.56000 238.916
41.57000 238.500
41.58000 238.012
41.59000 240.649
41.60000 247.987
41.61000 255.372
41.62000 254.937
41.63000 246.840
41.64000 238.816
41.65000 237.050
41.66000 239.296
41.67000 241.570
41.68000 244.576
41.69000 247.899
41.70000 251.021
41.71000 245.936
41.72000 239.101
41.73000 234.102
41.74000 241.986
41.75000 252.363
41.76000 259.438
41.77000 251.696
41.78000 242.163
41.79000 234.901
41.80000 234.813
41.81000 235.123
41.82000 235.719
41.83000 236.895
41.84000 238.089
41.85000 237.862
41.86000 235.701
41.87000 233.529
41.88000 233.648
41.89000 235.780
41.90000 237.870
41.91000 237.523
41.92000 235.755
41.93000 234.160
41.94000 236.081
41.95000 239.388
41.96000 242.463
41.97000 239.203
41.98000 234.740
41.99000 230.303
42.00000 226.025
42.01000 221.776
42.02000 219.190
42.03000 223.362
42.04000 228.252
42.05000 231.884
42.06000 232.529
42.07000 232.899
42.08000 232.694
42.09000 231.426
42.10000 230.133
42.11000 230.816
42.12000 233.932
42.13000 237.048
42.14000 235.656
42.15000 230.707
42.16000 225.805
42.17000 222.908
42.18000 221.073
42.19000 219.535
42.20000 223.029
42.21000 228.330
42.22000 233.201
42.23000 229.274
42.24000 223.874
42.25000 219.550
42.26000 221.271
42.27000 223.935
42.28000 226.897
42.29000 230.960
42.30000 235.127
42.31000 238.137
42.32000 236.429
42.33000 234.948
42.34000 233.843
42.35000 233.368
42.36000 232.904
42.37000 233.453
42.38000 235.127
42.39000 236.795
42.40000 236.342
42.41000 234.384
42.42000 232.422
42.43000 230.350
42.44000 228.223
42.45000 226.083
42.46000 223.737
42.47000 221.325
42.48000 219.136
42.49000 226.485
42.50000 234.809
42.51000 241.238
42.52000 238.090
42.53000 233.610
42.54000 228.854
42.55000 223.172
42.56000 217.415
42.57000 213.375
42.58000 222.687
42.59000 230.123
42.60000 234.237
42.61000 233.276
42.62000 232.260
42.63000 227.898
42.64000 220.199
42.65000 212.552
42.66000 213.146
42.67000 219.017
42.68000 224.685
42.69000 225.099
42.70000 223.206
42.71000 221.467
42.72000 221.630
42.73000 222.358
42.74000 223.010
42.75000 221.291
42.76000 219.384
42.77000 219.540
42.78000 229.110
42.79000 239.841
42.80000 247.038
42.81000 243.475
42.82000 239.170
42.83000 236.242
42.84000 229.199
42.85000 223.846
42.86000 221.137
42.87000 222.089
42.88000 223.063
42.89000 222.529
42.90000 220.644
42.91000 218.779
42.92000 220.468
42.93000 224.177
42.94000 227.827
42.95000 230.227
42.96000 232.128
42.97000 233.522
42.98000 229.508
42.99000 224.034
43.00000 219.203
43.01000 221.971
43.02000 225.521
43.03000 227.849
43.04000 225.137
43.05000 221.877
43.06000 220.540
43.07000 224.534
43.08000 228.840
43.09000 231.672
43.10000 227.356
43.11000 224.056
43.12000 223.582
43.13000 226.648
43.14000 229.718
43.15000 230.247
43.16000 228.725
43.17000 227.225
43.18000 225.825
43.19000 224.517
43.20000 223.190
43.21000 221.525
43.22000 219.737
43.23000 217.838
43.24000 214.901
43.25000 211.709
43.26000 208.936
43.27000 208.307
43.28000 208.061
43.29000 208.420
43.30000 211.042
43.31000 213.879
43.32000 215.957
43.33000 216.117
43.34000 216.184
43.35000 216.227
43.36000 212.303
43.37000 209.406
43.38000 211.806
43.39000 220.189
43.40000 228.537
43.41000 230.218
43.42000 227.033
43.43000 223.910
43.44000 220.975
43.45000 218.237
43.46000 215.836
43.47000 218.418
43.48000 222.654
43.49000 226.654
43.50000 228.704
43.51000 230.323
43.52000 231.707
43.53000 225.864
43.54000 220.078
43.55000 215.739
43.56000 216.314
43.57000 217.295
43.58000 219.494
43.59000 224.496
43.60000 229.609
43.61000 232.733
43.62000 227.678
43.63000 223.994
43.64000 220.192
43.65000 216.270
43.66000 212.408
43.67000 214.400
43.68000 220.264
43.69000 225.980
43.70000 222.413
43.71000 215.057
43.72000 208.543
43.73000 212.643
43.74000 219.949
43.75000 225.959
43.76000 222.523
43.77000 217.196
43.78000 212.726
43.79000 213.035
43.80000 213.793
43.81000 215.056
43.82000 217.878
43.83000 220.812
43.84000 222.333
43.85000 220.898
43.86000 219.369
43.87000 218.472
43.88000 220.423
43.89000 221.809
43.90000 218.804
43.91000 211.800
43.92000 204.900
43.93000 204.807
43.94000 208.802
43.95000 212.671
43.96000 215.715
43.97000 218.277
43.98000 220.468
43.99000 218.607
44.00000 215.635
44.01000 213.064
44.02000 213.104
44.03000 213.614
44.04000 214.034
44.05000 212.048
44.06000 210.195
44.07000 208.304
44.08000 206.311
44.09000 204.311
44.10000 204.407
44.11000 208.503
44.12000 212.696
44.13000 215.049
44.14000 211.272
44.15000 208.649
44.16000 210.740
44.17000 216.699
44.18000 222.546
44.19000 223.160
44.20000 220.915
44.21000 218.758
44.22000 216.863
44.23000 215.178
44.24000 213.550
44.25000 212.455
44.26000 211.493
44.27000 210.721
44.28000 211.052
44.29000 211.562
44.30000 211.973
44.31000 215.656
44.32000 218.906
44.33000 220.608
44.34000 218.343
44.35000 215.879
44.36000 213.553
44.37000 211.466
44.38000 209.383
44.39000 208.269
44.40000 216.678
44.41000 222.406
44.42000 225.384
44.43000 226.323
44.44000 227.278
44.45000 228.772
44.46000 230.534
44.47000 232.214
44.48000 225.368
44.49000 216.360
44.50000 208.202
44.51000 207.189
44.52000 207.786
44.53000 208.745
44.54000 211.600
44.55000 214.728
44.56000 217.197
44.57000 221.270
44.58000 224.646
44.59000 226.675
44.60000 225.559
44.61000 224.315
44.62000 224.822
44.63000 228.094
44.64000 231.399
44.65000 233.079
44.66000 228.161
44.67000 224.857
44.68000 220.708
44.69000 215.993
44.70000 211.489
44.71000 212.840
44.72000 216.841
44.73000 220.619
44.74000 220.320
44.75000 218.898
44.76000 217.460
44.77000 215.897
44.78000 214.309
44.79000 214.650
44.80000 224.087
44.81000 234.689
44.82000 242.864
44.83000 236.562
44.84000 230.736
44.85000 227.805
44.86000 231.031
44.87000 234.459
44.88000 235.386
44.89000 232.738
44.90000 230.063
44.91000 230.359
44.92000 233.406
44.93000 236.394
44.94000 235.228
44.95000 231.528
44.96000 228.070
44.97000 230.018
44.98000 234.197
44.99000 238.102
45.00000 239.379
45.01000 239.874
45.02000 241.025
45.03000 246.520
45.04000 252.811
45.05000 256.524
45.06000 249.253
45.07000 240.737
45.08000 234.333
45.09000 239.083
45.10000 243.338
45.11000 246.128
45.12000 246.083
45.13000 245.966
45.14000 242.697
45.15000 235.349
45.16000 227.993
45.17000 227.912
45.18000 233.886
45.19000 239.843
45.20000 244.981
45.21000 249.664
45.22000 254.051
45.23000 252.977
45.24000 249.851
45.25000 246.962
45.26000 248.148
45.27000 250.139
45.28000 253.023
45.29000 261.202
45.30000 270.251
45.31000 276.461
45.32000 271.710
45.33000 265.869
45.34000 261.592
45.35000 264.086
45.36000 266.282
45.37000 265.159
45.38000 258.188
45.39000 251.107
45.40000 246.046
45.41000 243.345
45.42000 240.655
45.43000 237.124
45.44000 232.987
45.45000 229.046
45.46000 232.333
45.47000 239.267
45.48000 245.698
45.49000 244.323
45.50000 240.277
45.51000 236.582
45.52000 238.721
45.53000 241.807
45.54000 243.949
45.55000 241.071
45.56000 237.456
45.57000 235.234
45.58000 237.898
45.59000 240.984
45.60000 243.181
45.61000 237.150
45.62000 232.290
45.63000 230.896
45.64000 235.055
45.65000 239.287
45.66000 239.736
45.67000 236.210
45.68000 232.700
45.69000 229.537
45.70000 226.646
45.71000 223.885
45.72000 224.862
45.73000 227.556
45.74000 230.020
45.75000 229.418
45.76000 227.861
45.77000 226.458
45.78000 218.670
45.79000 210.676
45.80000 204.223
45.81000 205.159
45.82000 207.061
45.83000 209.289
45.84000 212.558
45.85000 215.904
45.86000 218.215
45.87000 219.833
45.88000 221.032
45.89000 219.456
45.90000 213.848
45.91000 208.208
45.92000 210.050
45.93000 218.949
45.94000 227.774
45.95000 224.476
45.96000 213.866
45.97000 203.654
45.98000 202.658
45.99000 205.520
46.00000 208.113
46.01000 207.617
46.02000 206.248
46.03000 205.031
46.04000 211.061
46.05000 217.466
46.06000 221.752
46.07000 216.865
46.08000 210.917
46.09000 206.829
46.10000 208.137
46.11000 209.786
46.12000 210.890
46.13000 205.362
46.14000 201.133
46.15000 199.212
46.16000 200.326
46.17000 201.449
46.18000 199.793
46.19000 195.779
46.20000 191.813
46.21000 193.200
46.22000 197.490
46.23000 201.492
46.24000 200.005
46.25000 196.423
46.26000 193.262
46.27000 194.286
46.28000 196.385
46.29000 198.222
46.30000 198.499
46.31000 198.511
46.32000 198.851
46.33000 200.477
46.34000 202.233
46.35000 203.315
46.36000 202.619
46.37000 201.828
46.38000 201.317
46.39000 204.354
46.40000 206.625
46.41000 207.200
46.42000 205.758
46.43000 204.313
46.44000 203.022
46.45000 201.848
46.46000 200.695
46.47000 202.246
46.48000 205.086
46.49000 207.871
46.50000 209.794
46.51000 211.417
46.52000 212.723
46.53000 211.254
46.54000 209.139
46.55000 207.317
46.56000 200.885
46.57000 194.850
46.58000 189.558
46.59000 186.913
46.60000 184.502
46.61000 184.309
46.62000 189.455
46.63000 194.834
46.64000 198.184
46.65000 204.180
46.66000 208.526
46.67000 207.460
46.68000 200.603
46.69000 193.797
46.70000 193.488
46.71000 197.684
46.72000 201.786
46.73000 202.054
46.74000 200.595
46.75000 199.228
46.76000 199.095
46.77000 199.353
46.78000 199.600
46.79000 199.762
46.80000 199.906
46.81000 200.027
46.82000 197.150
46.83000 194.405
46.84000 192.639
46.85000 194.038
46.86000 195.680
46.87000 197.174
46.88000 198.345
46.89000 199.504
46.90000 200.198
46.91000 197.025
46.92000 194.748
46.93000 193.876
46.94000 194.352
46.95000 194.811
46.96000 193.865
46.97000 192.034
46.98000 190.256
46.99000 192.743
47.00000 196.828
47.01000 200.707
47.02000 202.165
47.03000 202.928
47.04000 202.952
47.05000 197.904
47.06000 191.894
47.07000 186.899
47.08000 188.371
47.09000 190.220
47.10000 192.401
47.11000 195.559
47.12000 198.781
47.13000 200.191
47.14000 197.985
47.15000 195.678
47.16000 194.356
47.17000 192.111
47.18000 190.540
47.19000 189.726
47.20000 189.564
47.21000 189.374
47.22000 187.592
47.23000 184.901
47.24000 182.305
47.25000 181.049
47.26000 180.355
47.27000 179.989
47.28000 182.963
47.29000 186.808
47.30000 190.142
47.31000 190.339
47.32000 190.002
47.33000 189.727
47.34000 187.606
47.35000 185.716
47.36000 185.766
47.37000 191.014
47.38000 196.548
47.39000 199.053
47.40000 196.057
47.41000 192.946
47.42000 191.242
47.43000 192.129
47.44000 192.745
47.45000 194.064
47.46000 195.930
47.47000 197.645
47.48000 193.243
47.49000 185.660
47.50000 178.404
47.51000 178.603
47.52000 181.238
47.53000 183.737
47.54000 185.019
47.55000 186.014
47.56000 186.458
47.57000 183.868
47.58000 180.815
47.59000 178.380
47.60000 181.154
47.61000 183.773
47.62000 185.565
47.63000 185.337
47.64000 185.019
47.65000 186.064
47.66000 189.364
47.67000 192.698
47.68000 194.435
47.69000 190.396
47.70000 187.660
47.71000 184.372
47.72000 180.695
47.73000 177.204
47.74000 179.488
47.75000 184.507
47.76000 189.268
47.77000 185.060
47.78000 178.525
47.79000 172.741
47.80000 172.871
47.81000 174.266
47.82000 175.125
47.83000 173.331
47.84000 171.176
47.85000 169.495
47.86000 171.844
47.87000 173.968
47.88000 177.839
47.89000 185.600
47.90000 193.503
47.91000 196.603
47.92000 192.499
47.93000 188.324
47.94000 186.223
47.95000 186.149
47.96000 186.063
47.97000 185.029
47.98000 183.389
47.99000 181.827
48.00000 182.218
48.01000 183.453
48.02000 184.612
48.03000 180.364
48.04000 175.049
48.05000 170.872
48.06000 174.658
48.07000 179.980
48.08000 184.807
48.09000 187.419
48.10000 189.764
48.11000 191.549
48.12000 189.402
48.13000 187.506
48.14000 184.791
48.15000 180.418
48.16000 175.997
48.17000 174.573
48.18000 177.221
48.19000 179.890
48.20000 179.886
48.21000 177.540
48.22000 175.326
48.23000 180.688
48.24000 190.449
48.25000 199.584
48.26000 196.045
48.27000 187.523
48.28000 179.603
48.29000 183.790
48.30000 190.465
48.31000 195.270
48.32000 188.391
48.33000 179.487
48.34000 172.105
48.35000 170.884
48.36000 170.316
48.37000 169.894
48.38000 177.910
48.39000 184.507
48.40000 186.004
48.41000 178.090
48.42000 169.969
48.43000 170.517
48.44000 181.716
48.45000 192.921
48.46000 196.208
48.47000 193.240
48.48000 190.287
48.49000 187.989
48.50000 186.036
48.51000 184.203
48.52000 184.387
48.53000 185.294
48.54000 186.128
48.55000 187.873
48.56000 189.626
48.57000 190.219
48.58000 184.317
48.59000 177.406
48.60000 172.906
48.61000 177.260
48.62000 182.435
48.63000 186.171
48.64000 188.603
48.65000 190.420
48.66000 190.496
48.67000 187.648
48.68000 184.754
48.69000 182.269
48.70000 180.237
48.71000 178.214
48.72000 178.649
48.73000 180.823
48.74000 182.941
48.75000 183.265
48.76000 182.726
48.77000 182.368
48.78000 184.599
48.79000 187.676
48.80000 190.466
48.81000 190.538
48.82000 190.080
48.83000 189.924
48.84000 191.288
48.85000 192.862
48.86000 192.971
48.87000 188.192
48.88000 183.020
48.89000 179.395
48.90000 183.092
48.91000 186.100
48.92000 188.135
48.93000 188.686
48.94000 189.222
48.95000 188.541
48.96000 186.649
48.97000 184.770
48.98000 184.621
48.99000 185.581
49.00000 186.389
49.01000 183.310
49.02000 178.527
49.03000 174.096
49.04000 173.980
49.05000 175.142
49.06000 176.183
49.07000 173.321
49.08000 170.156
49.09000 167.062
49.10000 164.296
49.11000 161.570
49.12000 160.291
49.13000 163.404
49.14000 166.818
49.15000 169.139
49.16000 173.229
49.17000 176.321
49.18000 178.568
49.19000 179.648
49.20000 180.718
49.21000 179.488
49.22000 176.205
49.23000 172.954
49.24000 172.018
49.25000 172.436
49.26000 172.867
49.27000 173.546
49.28000 174.325
49.29000 175.179
49.30000 176.841
49.31000 178.720
49.32000 180.377
49.33000 178.588
49.34000 176.521
49.35000 175.010
49.36000 175.784
49.37000 176.806
49.38000 177.713
49.39000 178.303
49.40000 178.873
49.41000 179.248
49.42000 171.401
49.43000 165.486
49.44000 164.658
49.45000 170.181
49.46000 175.716
49.47000 178.289
49.48000 178.481
49.49000 178.669
49.50000 179.190
49.51000 179.868
49.52000 180.577
49.53000 181.807
49.54000 183.227
49.55000 184.081
49.56000 179.669
49.57000 173.971
49.58000 169.023
49.59000 171.402
49.60000 174.416
49.61000 177.503
49.62000 180.859
49.63000 184.240
49.64000 185.042
49.65000 179.351
49.66000 173.345
49.67000 169.538
49.68000 171.194
49.69000 172.463
49.70000 169.973
49.71000 163.253
49.72000 156.588
49.73000 159.769
49.74000 170.112
49.75000 180.253
49.76000 181.462
49.77000 178.427
49.78000 175.673
49.79000 177.027
49.80000 179.741
49.81000 181.820
49.82000 178.691
49.83000 174.411
49.84000 170.757
49.85000 174.901
49.86000 179.319
49.87000 182.744
49.88000 182.803
49.89000 182.586
49.90000 181.703
49.91000 179.296
49.92000 176.829
49.93000 175.323
49.94000 170.664
49.95000 167.308
49.96000 168.698
49.97000 174.890
49.98000 181.016
49.99000 180.815
50.00000 176.440
50.01000 172.177
50.02000 169.622
50.03000 167.910
50.04000 166.759
50.05000 172.661
50.06000 180.686
50.07000 187.518
50.08000 185.685
50.09000 182.124
50.10000 179.136
50.11000 177.084
50.12000 175.474
50.13000 174.002
50.14000 172.956
50.15000 171.940
50.16000 171.312
50.17000 171.494
50.18000 171.701
50.19000 171.823
50.20000 166.784
50.21000 163.213
50.22000 162.447
50.23000 164.229
50.24000 166.044
50.25000 169.972
50.26000 175.165
50.27000 180.192
50.28000 180.203
50.29000 178.293
50.30000 176.551
50.31000 176.639
50.32000 177.228
50.33000 177.146
50.34000 172.721
50.35000 167.516
50.36000 163.234
50.37000 167.071
50.38000 170.964
50.39000 173.561
50.40000 172.522
50.41000 171.266
50.42000 172.495
50.43000 178.448
50.44000 184.516
50.45000 187.915
50.46000 181.942
50.47000 177.779
50.48000 173.681
50.49000 169.635
50.50000 165.735
50.51000 168.549
50.52000 175.020
50.53000 181.237
50.54000 182.255
50.55000 181.411
50.56000 180.724
50.57000 181.536
50.58000 182.721
50.59000 183.044
50.60000 178.372
50.61000 172.897
50.62000 168.483
50.63000 176.236
50.64000 183.489
50.65000 189.005
50.66000 190.086
50.67000 190.946
50.68000 189.955
50.69000 185.760
50.70000 181.509
50.71000 179.239
50.72000 180.478
50.73000 181.321
50.74000 181.102
50.75000 180.099
50.76000 179.145
50.77000 179.938
50.78000 181.596
50.79000 183.175
50.80000 184.250
50.81000 185.088
50.82000 185.603
50.83000 183.424
50.84000 180.640
50.85000 178.184
50.86000 177.443
50.87000 176.947
50.88000 176.556
50.89000 182.194
50.90000 187.122
50.91000 189.143
50.92000 184.398
50.93000 179.376
50.94000 176.518
50.95000 177.060
50.96000 177.644
50.97000 177.940
50.98000 185.917
50.99000 191.226
51.00000 192.845
51.01000 191.990
51.02000 190.970
51.03000 185.381
51.04000 177.730
51.05000 170.508
51.06000 166.165
51.07000 162.990
51.08000 160.662
51.09000 164.604
51.10000 169.818
51.11000 174.178
51.12000 174.525
51.13000 174.358
51.14000 174.230
51.15000 172.897
51.16000 171.771
51.17000 170.937
51.18000 170.720
51.19000 170.524
51.20000 169.921
51.21000 168.740
51.22000 167.555
51.23000 166.970
51.24000 166.939
51.25000 166.926
51.26000 168.152
51.27000 170.130
51.28000 172.053
51.29000 172.747
51.30000 172.936
51.31000 173.112
51.32000 175.121
51.33000 177.406
51.34000 179.120
51.35000 177.065
51.36000 174.321
51.37000 171.052
51.38000 165.548
51.39000 159.791
51.40000 155.465
51.41000 166.521
51.42000 175.904
51.43000 179.989
51.44000 173.842
51.45000 167.437
51.46000 162.882
51.47000 160.713
51.48000 158.557
51.49000 157.712
51.50000 157.958
51.51000 158.226
51.52000 159.613
51.53000 161.617
51.54000 163.614
51.55000 165.494
51.56000 167.330
51.57000 169.027
51.58000 164.514
51.59000 159.059
51.60000 154.666
51.61000 156.539
51.62000 159.439
51.63000 161.758
51.64000 161.839
51.65000 161.698
51.66000 161.595
51.67000 161.362
51.68000 161.176
51.69000 159.212
51.70000 154.123
51.71000 148.975
51.72000 148.251
51.73000 152.681
51.74000 157.105
51.75000 159.960
51.76000 161.623
51.77000 163.215
51.78000 162.208
51.79000 159.892
51.80000 157.840
51.81000 159.853
51.82000 163.254
51.83000 166.358
51.84000 167.165
51.85000 167.415
51.86000 167.763
51.87000 168.629
51.88000 169.572
51.89000 169.371
51.90000 165.172
51.91000 160.630
51.92000 157.399
51.93000 159.972
51.94000 162.118
51.95000 164.686
51.96000 167.928
51.97000 171.179
51.98000 169.304
51.99000 162.058
52.00000 154.849
52.01000 154.496
52.02000 158.756
52.03000 162.915
52.04000 164.205
52.05000 164.180
52.06000 163.865
52.07000 159.714
52.08000 154.373
52.09000 149.560
52.10000 148.380
52.11000 148.002
52.12000 148.367
52.13000 152.285
52.14000 156.665
52.15000 159.259
52.16000 156.179
52.17000 152.677
52.18000 150.261
52.19000 155.956
52.20000 160.442
52.21000 162.545
52.22000 161.195
52.23000 159.816
52.24000 158.531
52.25000 157.332
52.26000 156.144
52.27000 158.205
52.28000 162.197
52.29000 165.981
52.30000 164.968
52.31000 161.953
52.32000 159.212
52.33000 159.593
52.34000 160.854
52.35000 161.974
52.36000 159.663
52.37000 157.106
52.38000 155.370
52.39000 157.179
52.40000 159.397
52.41000 161.080
52.42000 161.220
52.43000 161.262
52.44000 161.290
52.45000 154.662
52.46000 149.620
52.47000 148.831
52.48000 153.622
52.49000 158.428
52.50000 158.149
52.51000 153.568
52.52000 149.043
52.53000 150.675
52.54000 155.633
52.55000 160.285
52.56000 159.137
52.57000 155.781
52.58000 152.914
52.59000 154.892
52.60000 158.111
52.61000 160.928
52.62000 162.613
52.63000 163.895
52.64000 164.797
52.65000 164.217
52.66000 163.486
52.67000 162.409
52.68000 160.420
52.69000 158.383
52.70000 157.068
52.71000 159.294
52.72000 160.971
52.73000 162.735
52.74000 164.603
52.75000 166.451
52.76000 163.870
52.77000 157.905
52.78000 152.043
52.79000 151.452
52.80000 153.484
52.81000 155.392
52.82000 155.313
52.83000 154.546
52.84000 153.696
52.85000 152.119
52.86000 150.374
52.87000 148.871
52.88000 146.984
52.89000 145.338
52.90000 144.799
52.91000 148.191
52.92000 151.930
52.93000 154.380
52.94000 153.738
52.95000 152.961
52.96000 152.478
52.97000 150.962
52.98000 149.860
52.99000 150.305
53.00000 152.400
53.01000 154.488
53.02000 155.626
53.03000 156.107
53.04000 156.578
53.05000 156.386
53.06000 155.907
53.07000 155.431
53.08000 154.987
53.09000 154.553
53.10000 154.198
53.11000 154.451
53.12000 154.832
53.13000 155.154
53.14000 152.951
53.15000 150.826
53.16000 149.080
53.17000 148.557
53.18000 148.127
53.19000 147.531
53.20000 146.574
53.21000 145.603
53.22000 145.023
53.23000 157.740
53.24000 166.844
53.25000 166.238
53.26000 156.346
53.27000 146.562
53.28000 145.186
53.29000 149.086
53.30000 152.874
53.31000 154.557
53.32000 155.309
53.33000 156.013
53.34000 156.163
53.35000 156.156
53.36000 156.321
53.37000 157.670
53.38000 159.242
53.39000 160.548
53.40000 161.018
53.41000 161.325
53.42000 160.446
53.43000 156.084
53.44000 151.497
53.45000 149.938
53.46000 154.411
53.47000 159.049
53.48000 161.705
53.49000 164.838
53.50000 167.022
53.51000 164.128
53.52000 156.868
53.53000 149.707
53.54000 147.901
53.55000 149.148
53.56000 150.351
53.57000 149.620
53.58000 148.230
53.59000 146.894
53.60000 146.108
53.61000 145.464
53.62000 145.196
53.63000 147.220
53.64000 149.633
53.65000 151.599
53.66000 149.202
53.67000 146.877
53.68000 146.027
53.69000 149.124
53.70000 152.437
53.71000 155.142
53.72000 156.748
53.73000 158.330
53.74000 159.196
53.75000 150.551
53.76000 144.617
53.77000 143.976
53.78000 147.446
53.79000 150.917
53.80000 154.436
53.81000 157.980
53.82000 161.371
53.83000 158.637
53.84000 154.086
53.85000 150.074
53.86000 150.859
53.87000 152.774
53.88000 154.192
53.89000 152.880
53.90000 151.153
53.91000 149.777
53.92000 153.221
53.93000 156.351
53.94000 157.785
53.95000 155.085
53.96000 152.199
53.97000 151.388
53.98000 153.995
53.99000 156.652
54.00000 158.035
54.01000 157.367
54.02000 156.911
54.03000 155.801
54.04000 154.232
54.05000 152.732
54.06000 153.360
54.07000 154.995
54.08000 156.544
54.09000 155.554
54.10000 153.891
54.11000 152.147
54.12000 149.764
54.13000 147.244
54.14000 145.264
54.15000 145.950
54.16000 146.997
54.17000 147.812
54.18000 152.060
54.19000 155.657
54.20000 157.982
54.21000 157.483
54.22000 156.882
54.23000 156.877
54.24000 157.766
54.25000 158.663
54.26000 157.078
54.27000 153.076
54.28000 149.108
54.29000 147.895
54.30000 148.438
54.31000 149.066
54.32000 151.784
54.33000 155.401
54.34000 158.797
54.35000 154.049
54.36000 147.556
54.37000 142.241
54.38000 145.134
54.39000 149.604
54.40000 153.248
54.41000 153.203
54.42000 152.717
54.43000 152.347
54.44000 150.835
54.45000 149.586
54.46000 148.795
54.47000 148.930
54.48000 149.092
54.49000 149.425
54.50000 149.989
54.51000 150.555
54.52000 149.052
54.53000 145.746
54.54000 142.545
54.55000 145.260
54.56000 151.400
54.57000 157.214
54.58000 156.446
54.59000 153.097
54.60000 149.986
54.61000 153.439
54.62000 158.119
54.63000 162.560
54.64000 165.511
54.65000 168.203
54.66000 169.790
54.67000 166.912
54.68000 163.563
54.69000 161.081
54.70000 158.058
54.71000 155.687
54.72000 152.646
54.73000 148.375
54.74000 144.077
54.75000 144.660
54.76000 151.222
54.77000 157.785
54.78000 160.053
54.79000 158.935
54.80000 157.820
54.81000 156.833
54.82000 155.913
54.83000 155.005
54.84000 154.297
54.85000 153.660
54.86000 153.075
54.87000 153.632
54.88000 154.372
54.89000 154.604
54.90000 151.995
54.91000 148.946
54.92000 146.626
54.93000 146.974
54.94000 147.569
54.95000 147.997
54.96000 152.687
54.97000 156.434
54.98000 157.614
54.99000 154.497
55.00000 151.313
55.01000 149.016
55.02000 147.697
55.03000 146.384
55.04000 146.132
55.05000 146.633
55.06000 147.225
55.07000 150.731
55.08000 155.635
55.09000 160.306
55.10000 161.673
55.11000 161.966
55.12000 162.232
55.13000 160.890
55.14000 159.399
55.15000 158.001
55.16000 157.072
55.17000 156.209
55.18000 156.196
55.19000 159.012
55.20000 162.054
55.21000 164.185
55.22000 160.516
55.23000 157.576
55.24000 156.915
55.25000 159.720
55.26000 162.560
55.27000 161.785
55.28000 157.430
55.29000 153.103
55.30000 153.016
55.31000 155.632
55.32000 158.103
55.33000 156.893
55.34000 154.076
55.35000 151.741
55.36000 155.284
55.37000 160.565
55.38000 165.289
55.39000 170.406
55.40000 174.935
55.41000 177.577
55.42000 171.661
55.43000 164.698
55.44000 160.952
55.45000 166.947
55.46000 173.608
55.47000 178.129
55.48000 174.857
55.49000 172.243
55.50000 173.591
55.51000 180.397
55.52000 187.230
55.53000 186.814
55.54000 179.948
55.55000 173.153
55.56000 174.315
55.57000 180.025
55.58000 185.490
55.59000 185.878
55.60000 184.245
55.61000 183.168
55.62000 187.975
55.63000 194.362
55.64000 199.993
55.65000 201.166
55.66000 201.500
55.67000 202.469
55.68000 206.037
55.69000 209.885
55.70000 213.846
55.71000 218.119
55.72000 222.410
55.73000 225.227
55.74000 220.693
55.75000 217.234
55.76000 223.188
55.77000 240.861
55.78000 258.528
55.79000 262.668
55.80000 255.955
55.81000 249.340
55.82000 250.669
55.83000 256.081
55.84000 261.210
55.85000 261.465
55.86000 259.954
55.87000 259.509
55.88000 268.939
55.89000 280.773
55.90000 291.045
55.91000 284.682
55.92000 277.028
55.93000 272.089
55.94000 277.249
55.95000 283.363
55.96000 287.531
55.97000 286.817
55.98000 285.868
55.99000 285.267
56.00000 284.064
56.01000 283.185
56.02000 278.663
56.03000 270.053
56.04000 261.458
56.05000 255.987
56.06000 252.783
56.07000 249.642
56.08000 248.991
56.09000 249.532
56.10000 250.171
56.11000 252.246
56.12000 254.796
56.13000 256.383
56.14000 250.106
56.15000 242.096
56.16000 235.260
56.17000 236.264
56.18000 238.038
56.19000 237.314
56.20000 228.150
56.21000 218.297
56.22000 210.943
56.23000 209.307
56.24000 207.895
56.25000 207.034
56.26000 201.922
56.27000 198.235
56.28000 198.235
56.29000 201.955
56.30000 205.639
56.31000 206.017
56.32000 204.220
56.33000 202.470
56.34000 198.863
56.35000 194.638
56.36000 190.480
56.37000 187.167
56.38000 184.108
56.39000 181.282
56.40000 180.144
56.41000 179.342
56.42000 178.670
56.43000 173.911
56.44000 169.528
56.45000 167.026
56.46000 170.307
56.47000 173.993
56.48000 174.815
56.49000 169.670
56.50000 164.339
56.51000 161.222
56.52000 156.963
56.53000 153.963
56.54000 156.082
56.55000 162.835
56.56000 169.416
56.57000 164.978
56.58000 153.963
56.59000 143.302
56.60000 145.106
56.61000 151.570
56.62000 157.787
56.63000 161.342
56.64000 164.171
56.65000 165.133
56.66000 154.048
56.67000 140.807
56.68000 129.918
56.69000 134.894
56.70000 140.419
56.71000 144.500
56.72000 144.544
56.73000 144.348
56.74000 145.442
56.75000 148.982
56.76000 152.581
56.77000 154.594
56.78000 148.113
56.79000 143.616
56.80000 143.812
56.81000 147.835
56.82000 151.751
56.83000 150.703
56.84000 146.960
56.85000 143.365
56.86000 144.771
56.87000 147.809
56.88000 150.689
56.89000 152.081
56.90000 153.104
56.91000 154.091
56.92000 154.871
56.93000 155.617
56.94000 156.219
56.95000 150.528
56.96000 145.417
56.97000 142.463
56.98000 145.007
56.99000 147.824
57.00000 148.230
57.01000 144.475
57.02000 140.648
57.03000 138.607
57.04000 138.395
57.05000 138.257
57.06000 138.991
57.07000 140.368
57.08000 141.647
57.09000 139.492
57.10000 135.640
57.11000 131.971
57.12000 132.790
57.13000 134.941
57.14000 137.111
57.15000 139.428
57.16000 141.778
57.17000 143.461
57.18000 141.678
57.19000 139.398
57.20000 137.602
57.21000 140.512
57.22000 143.160
57.23000 144.735
57.24000 143.815
57.25000 142.795
57.26000 142.804
57.27000 144.427
57.28000 146.070
57.29000 146.902
57.30000 145.947
57.31000 145.297
57.32000 143.654
57.33000 141.348
57.34000 139.133
57.35000 139.422
57.36000 140.837
57.37000 142.173
57.38000 143.374
57.39000 144.438
57.40000 145.029
57.41000 142.129
57.42000 138.522
57.43000 135.660
57.44000 136.282
57.45000 137.348
57.46000 138.169
57.47000 138.248
57.48000 138.268
57.49000 138.915
57.50000 140.886
57.51000 142.900
57.52000 144.792
57.53000 146.510
57.54000 148.227
57.55000 147.020
57.56000 143.124
57.57000 139.283
57.58000 139.185
57.59000 141.357
57.60000 143.511
57.61000 145.270
57.62000 146.867
57.63000 148.359
57.64000 149.749
57.65000 150.984
57.66000 151.920
57.67000 150.893
57.68000 149.508
57.69000 147.665
57.70000 143.881
57.71000 139.880
57.72000 136.875
57.73000 133.057
57.74000 130.033
57.75000 129.478
57.76000 133.674
57.77000 137.990
57.78000 139.269
57.79000 136.642
57.80000 134.003
57.81000 135.097
57.82000 139.271
57.83000 143.382
57.84000 144.385
57.85000 143.676
57.86000 142.913
57.87000 141.172
57.88000 139.066
57.89000 137.120
57.90000 135.603
57.91000 134.338
57.92000 133.811
57.93000 137.617
57.94000 142.131
57.95000 145.928
57.96000 146.972
57.97000 147.745
57.98000 148.310
57.99000 141.308
58.00000 135.609
58.01000 133.357
58.02000 137.146
58.03000 141.048
58.04000 143.684
58.05000 144.852
58.06000 146.015
58.07000 144.693
58.08000 141.534
58.09000 138.414
58.10000 136.681
58.11000 135.646
58.12000 134.679
58.13000 134.777
58.14000 135.237
58.15000 135.656
58.16000 138.193
58.17000 140.871
58.18000 142.766
58.19000 140.518
58.20000 137.666
58.21000 135.337
58.22000 134.829
58.23000 134.477
58.24000 134.226
58.25000 139.830
58.26000 144.283
58.27000 146.105
58.28000 143.738
58.29000 141.318
58.30000 136.220
58.31000 128.326
58.32000 120.475
58.33000 121.928
58.34000 129.600
58.35000 137.189
58.36000 142.431
58.37000 146.601
58.38000 150.272
58.39000 147.390
58.40000 142.478
58.41000 138.055
58.42000 133.118
58.43000 128.695
58.44000 125.854
58.45000 130.550
58.46000 136.224
58.47000 139.871
58.48000 137.095
58.49000 133.845
58.50000 131.604
58.51000 136.048
58.52000 139.555
58.53000 140.814
58.54000 138.826
58.55000 136.811
58.56000 133.897
58.57000 130.139
58.58000 126.414
58.59000 127.244
58.60000 130.812
58.61000 134.320
58.62000 136.441
58.63000 137.985
58.64000 139.479
58.65000 140.410
58.66000 141.184
58.67000 141.871
58.68000 142.149
58.69000 142.324
58.70000 141.665
58.71000 137.411
58.72000 132.745
58.73000 129.135
58.74000 128.570
58.75000 128.197
58.76000 127.947
58.77000 132.901
58.78000 136.671
58.79000 138.439
58.80000 137.588
58.81000 136.725
58.82000 135.333
58.83000 133.495
58.84000 131.679
58.85000 134.691
58.86000 140.257
58.87000 145.345
58.88000 141.436
58.89000 134.113
58.90000 127.875
58.91000 132.340
58.92000 139.539
58.93000 145.836
58.94000 145.960
58.95000 145.186
58.96000 143.651
58.97000 139.145
58.98000 134.340
58.99000 131.324
59.00000 133.008
59.01000 134.940
59.02000 136.185
59.03000 140.194
59.04000 143.161
59.05000 143.026
59.06000 139.228
59.07000 135.440
59.08000 135.195
59.09000 137.650
59.10000 140.061
59.11000 138.625
59.12000 135.341
59.13000 132.371
59.14000 134.342
59.15000 138.020
59.16000 140.849
59.17000 136.312
59.18000 130.072
59.19000 124.701
59.20000 128.300
59.21000 132.477
59.22000 134.844
59.23000 130.804
59.24000 126.203
59.25000 124.246
59.26000 128.616
59.27000 133.260
59.28000 136.144
59.29000 140.046
59.30000 142.864
59.31000 142.528
59.32000 138.840
59.33000 135.165
59.34000 133.191
59.35000 132.389
59.36000 131.606
59.37000 132.235
59.38000 133.465
59.39000 134.489
59.40000 132.731
59.41000 130.098
59.42000 127.732
59.43000 127.419
59.44000 127.535
59.45000 127.633
59.46000 127.321
59.47000 127.015
59.48000 126.327
59.49000 124.415
59.50000 122.409
59.51000 122.650
59.52000 127.787
59.53000 133.094
59.54000 136.262
59.55000 141.325
59.56000 144.926
59.57000 144.497
59.58000 140.228
59.59000 135.993
59.60000 134.421
59.61000 134.515
59.62000 134.606
59.63000 132.995
59.64000 130.783
59.65000 128.756
59.66000 128.887
59.67000 129.635
59.68000 130.805
59.69000 134.860
59.70000 139.458
59.71000 143.275
59.72000 143.284
59.73000 142.922
59.74000 141.667
59.75000 137.797
59.76000 133.757
59.77000 130.602
59.78000 129.202
59.79000 127.850
59.80000 127.077
59.81000 128.569
59.82000 129.615
59.83000 128.763
59.84000 126.282
59.85000 123.906
59.86000 127.079
59.87000 133.407
59.88000 139.508
59.89000 140.088
59.90000 138.634
59.91000 137.253
59.92000 136.604
59.93000 136.145
59.94000 135.562
59.95000 134.226
59.96000 132.763
59.97000 131.572
59.98000 135.653
59.99000 139.428
60.00000 140.729
60.01000 135.432
60.02000 129.776
60.03000 127.477
60.04000 131.240
60.05000 135.128
60.06000 137.251
60.07000 133.770
60.08000 131.384
60.09000 132.387
60.10000 136.013
60.11000 139.504
60.12000 137.655
60.13000 133.044
60.14000 128.634
60.15000 123.410
60.16000 118.281
60.17000 114.182
60.18000 119.199
60.19000 126.360
60.20000 132.474
60.21000 132.870
60.22000 132.400
60.23000 132.025
60.24000 131.902
60.25000 131.820
60.26000 132.083
60.27000 133.186
60.28000 134.327
60.29000 134.609
60.30000 133.483
60.31000 132.337
60.32000 131.741
60.33000 132.441
60.34000 132.910
60.35000 132.903
60.36000 132.560
60.37000 132.199
60.38000 131.263
60.39000 130.055
60.40000 128.910
60.41000 128.695
60.42000 128.770
60.43000 129.339
60.44000 133.762
60.45000 139.005
60.46000 142.491
60.47000 137.331
60.48000 131.005
60.49000 126.078
60.50000 132.229
60.51000 137.814
60.52000 140.249
60.53000 135.716
60.54000 130.931
60.55000 126.820
60.56000 123.713
60.57000 120.616
60.58000 120.958
60.59000 124.636
60.60000 128.267
60.61000 127.952
60.62000 125.131
60.63000 122.512
60.64000 124.824
60.65000 129.250
60.66000 133.406
60.67000 132.569
60.68000 130.486
60.69000 128.813
60.70000 129.990
60.71000 131.714
60.72000 133.185
60.73000 133.528
60.74000 133.736
60.75000 133.894
60.76000 131.755
60.77000 129.954
60.78000 129.270
60.79000 130.841
60.80000 132.477
60.81000 134.271
60.82000 136.281
60.83000 138.291
60.84000 137.562
60.85000 134.450
60.86000 131.366
60.87000 129.850
60.88000 129.240
60.89000 128.744
60.90000 130.527
60.91000 133.202
60.92000 135.686
60.93000 134.802
60.94000 133.204
60.95000 131.439
60.96000 128.638
60.97000 125.659
60.98000 123.390
60.99000 123.979
61.00000 124.868
61.01000 125.527
61.02000 125.470
61.03000 125.395
61.04000 126.201
61.05000 128.625
61.06000 131.083
61.07000 131.874
61.08000 130.628
61.09000 129.380
61.10000 131.279
61.11000 135.634
61.12000 139.882
61.13000 139.751
61.14000 137.319
61.15000 134.883
61.16000 132.374
61.17000 129.839
61.18000 127.512
61.19000 128.366
61.20000 129.805
61.21000 131.015
61.22000 130.947
61.23000 130.683
61.24000 131.223
61.25000 134.705
61.26000 138.456
61.27000 141.160
61.28000 142.315
61.29000 143.145
61.30000 144.079
61.31000 145.188
61.32000 146.299
61.33000 146.021
61.34000 144.215
61.35000 142.415
61.36000 138.905
61.37000 134.222
61.38000 129.688
61.39000 129.884
61.40000 132.342
61.41000 134.661
61.42000 135.017
61.43000 134.737
61.44000 134.484
61.45000 138.368
61.46000 142.581
61.47000 146.495
61.48000 148.907
61.49000 151.113
61.50000 152.783
61.51000 152.676
61.52000 152.428
61.53000 152.254
61.54000 167.213
61.55000 178.951
61.56000 189.271
61.57000 197.442
61.58000 205.590
61.59000 214.841
61.60000 225.179
61.61000 235.445
61.62000 240.114
61.63000 241.155
61.64000 242.510
61.65000 251.853
61.66000 264.674
61.67000 276.667
61.68000 278.599
61.69000 277.566
61.70000 276.641
61.71000 275.003
61.72000 273.454
61.73000 271.891
61.74000 270.266
61.75000 268.634
61.76000 265.395
61.77000 257.306
61.78000 248.888
61.79000 243.179
61.80000 229.133
61.81000 218.474
61.82000 209.672
61.83000 203.420
61.84000 197.180
61.85000 187.825
61.86000 175.706
61.87000 163.715
61.88000 159.307
61.89000 159.344
61.90000 159.273
61.91000 156.980
61.92000 153.805
61.93000 150.399
61.94000 144.554
61.95000 138.055
61.96000 132.328
61.97000 135.585
61.98000 139.748
61.99000 143.151
62.00000 143.441
62.01000 143.397
62.02000 144.530
62.03000 148.899
62.04000 153.454
62.05000 156.441
62.06000 149.095
62.07000 143.521
62.08000 140.504
62.09000 140.660
62.10000 140.831
62.11000 142.613
62.12000 145.682
62.13000 148.707
62.14000 148.755
62.15000 147.261
62.16000 145.808
62.17000 145.052
62.18000 144.547
62.19000 143.852
62.20000 141.405
62.21000 138.531
62.22000 136.038
62.23000 140.312
62.24000 144.857
62.25000 148.540
62.26000 149.028
62.27000 149.215
62.28000 149.646
62.29000 150.685
62.30000 151.753
62.31000 152.429
62.32000 147.591
62.33000 144.019
62.34000 142.476
62.35000 143.203
62.36000 143.923
62.37000 143.205
62.38000 141.448
62.39000 139.726
62.40000 140.326
62.41000 141.989
62.42000 143.465
62.43000 142.219
62.44000 140.077
62.45000 138.124
62.46000 137.701
62.47000 137.616
62.48000 137.542
62.49000 136.111
62.50000 134.746
62.51000 135.289
62.52000 142.259
62.53000 149.752
62.54000 154.051
62.55000 151.065
62.56000 147.796
62.57000 145.806
62.58000 140.596
62.59000 136.849
62.60000 136.636
62.61000 139.975
62.62000 143.281
62.63000 143.529
62.64000 141.771
62.65000 140.059
62.66000 139.594
62.67000 139.677
62.68000 139.807
62.69000 140.528
62.70000 141.425
62.71000 142.233
62.72000 142.392
62.73000 142.422
62.74000 142.448
62.75000 150.975
62.76000 158.945
62.77000 162.612
62.78000 153.091
62.79000 142.650
62.80000 135.868
62.81000 136.687
62.82000 137.740
62.83000 138.356
62.84000 141.690
62.85000 144.047
62.86000 145.283
62.87000 145.506
62.88000 145.718
62.89000 145.242
62.90000 144.356
62.91000 143.499
62.92000 141.203
62.93000 138.487
62.94000 136.241
62.95000 139.063
62.96000 143.262
62.97000 147.210
62.98000 149.543
62.99000 151.587
63.00000 153.267
63.01000 152.621
63.02000 151.881
63.03000 150.300
63.04000 146.370
63.05000 142.302
63.06000 139.466
63.07000 138.963
63.08000 138.515
63.09000 138.265
63.10000 142.516
63.11000 145.466
63.12000 146.797
63.13000 146.812
63.14000 146.865
63.15000 148.669
63.16000 151.420
63.17000 154.062
63.18000 153.214
63.19000 151.224
63.20000 149.411
63.21000 149.276
63.22000 149.555
63.23000 150.098
63.24000 152.161
63.25000 154.467
63.26000 156.324
63.27000 153.318
63.28000 150.500
63.29000 147.762
63.30000 145.224
63.31000 142.696
63.32000 140.072
63.33000 137.281
63.34000 134.487
63.35000 132.999
63.36000 138.154
63.37000 141.668
63.38000 144.864
63.39000 147.826
63.40000 150.689
63.41000 150.152
63.42000 147.941
63.43000 145.835
63.44000 146.232
63.45000 147.373
63.46000 148.415
63.47000 148.625
63.48000 148.649
63.49000 148.372
63.50000 146.539
63.51000 144.483
63.52000 142.864
63.53000 146.840
63.54000 150.400
63.55000 152.169
63.56000 149.791
63.57000 147.246
63.58000 147.902
63.59000 153.561
63.60000 159.279
63.61000 162.171
63.62000 151.694
63.63000 144.755
63.64000 145.044
63.65000 150.148
63.66000 155.082
63.67000 155.417
63.68000 153.686
63.69000 152.054
63.70000 157.393
63.71000 164.227
63.72000 170.042
63.73000 168.365
63.74000 165.178
63.75000 162.103
63.76000 159.552
63.77000 157.067
63.78000 155.155
63.79000 152.543
63.80000 150.437
63.81000 150.007
63.82000 153.114
63.83000 156.334
63.84000 157.083
63.85000 154.330
63.86000 151.552
63.87000 150.741
63.88000 151.736
63.89000 152.739
63.90000 154.345
63.91000 156.315
63.92000 158.117
63.93000 156.215
63.94000 152.798
63.95000 149.608
63.96000 150.875
63.97000 153.139
63.98000 154.783
63.99000 152.362
64.00000 149.204
64.01000 148.246
64.02000 156.580
64.03000 165.954
64.04000 172.987
64.05000 170.201
64.06000 167.558
64.07000 164.218
64.08000 159.540
64.09000 154.828
64.10000 151.809
64.11000 150.959
64.12000 150.119
64.13000 151.428
64.14000 154.503
64.15000 157.558
64.16000 159.666
64.17000 161.253
64.18000 162.960
64.19000 166.830
64.20000 171.506
64.21000 175.824
64.22000 171.091
64.23000 164.813
64.24000 159.976
64.25000 163.592
64.26000 168.583
64.27000 172.265
64.28000 170.931
64.29000 169.105
64.30000 167.771
64.31000 172.142
64.32000 175.736
64.33000 174.858
64.34000 166.166
64.35000 157.330
64.36000 153.816
64.37000 156.460
64.38000 159.104
64.39000 161.699
64.40000 164.239
64.41000 166.791
64.42000 169.808
64.43000 173.056
64.44000 176.125
64.45000 176.440
64.46000 175.820
64.47000 175.254
64.48000 168.804
64.49000 161.900
64.50000 156.554
64.51000 159.414
64.52000 163.469
64.53000 167.326
64.54000 170.501
64.55000 173.617
64.56000 175.829
64.57000 174.071
64.58000 172.607
64.59000 170.989
64.60000 169.126
64.61000 167.260
64.62000 168.535
64.63000 173.079
64.64000 177.599
64.65000 179.700
64.66000 180.158
64.67000 180.608
64.68000 180.810
64.69000 180.899
64.70000 180.997
64.71000 181.195
64.72000 181.425
64.73000 181.631
64.74000 178.552
64.75000 175.261
64.76000 173.099
64.77000 176.296
64.78000 180.185
64.79000 183.055
64.80000 182.701
64.81000 182.111
64.82000 181.704
64.83000 181.911
64.84000 182.081
64.85000 183.030
64.86000 185.097
64.87000 187.174
64.88000 189.374
64.89000 191.689
64.90000 193.984
64.91000 191.737
64.92000 186.795
64.93000 182.129
64.94000 183.729
64.95000 187.929
64.96000 192.028
64.97000 194.992
64.98000 197.636
64.99000 199.983
65.00000 191.960
65.01000 183.347
65.02000 177.189
65.03000 181.566
65.04000 187.147
65.05000 191.355
65.06000 191.613
65.07000 191.625
65.08000 191.633
65.09000 190.798
65.10000 190.164
65.11000 189.688
65.12000 189.417
65.13000 189.153
65.14000 191.976
65.15000 197.393
65.16000 202.742
65.17000 204.295
65.18000 203.745
65.19000 203.254
65.20000 203.861
65.21000 204.883
65.22000 206.043
65.23000 208.547
65.24000 211.393
65.25000 213.882
65.26000 216.901
65.27000 219.562
65.28000 221.742
65.29000 222.047
65.30000 222.165
65.31000 221.822
65.32000 220.274
65.33000 218.663
65.34000 217.625
65.35000 225.214
65.36000 230.876
65.37000 234.377
65.38000 235.335
65.39000 236.294
65.40000 238.452
65.41000 241.521
65.42000 244.536
65.43000 246.973
65.44000 249.044
65.45000 250.995
65.46000 251.068
65.47000 250.493
65.48000 250.473
65.49000 255.245
65.50000 261.122
65.51000 266.177
65.52000 266.343
65.53000 265.870
65.54000 266.389
65.55000 270.405
65.56000 274.726
65.57000 278.721
65.58000 281.937
65.59000 285.118
65.60000 287.092
65.61000 298.644
65.62000 307.049
65.63000 314.870
65.64000 322.073
65.65000 329.266
65.66000 335.210
65.67000 340.297
65.68000 345.268
65.69000 372.701
65.70000 408.931
65.71000 445.557
65.72000 487.491
65.73000 531.090
65.74000 575.297
65.75000 624.155
65.76000 673.982
65.77000 716.101
65.78000 775.032
65.79000 826.180
65.80000 872.888
65.81000 905.357
65.82000 936.752
65.83000 965.726
65.84000 989.439
65.85000 1012.969
65.86000 1026.996
65.87000 1034.245
65.88000 1039.340
65.89000 1043.916
65.90000 1047.998
65.91000 1051.828
65.92000 1036.598
65.93000 1009.481
65.94000 983.153
65.95000 950.143
65.96000 916.139
65.97000 880.274
65.98000 822.912
65.99000 759.424
66.00000 696.462
66.01000 637.069
66.02000 578.347
66.03000 529.628
66.04000 483.660
66.05000 445.938
66.06000 413.204
66.07000 395.031
66.08000 377.793
66.09000 360.838
66.10000 344.441
66.11000 328.060
66.12000 318.704
66.13000 314.858
66.14000 312.197
66.15000 312.421
66.16000 315.113
66.17000 317.756
66.18000 317.881
66.19000 316.578
66.20000 315.323
66.21000 311.788
66.22000 307.642
66.23000 303.778
66.24000 302.741
66.25000 302.435
66.26000 303.735
66.27000 314.784
66.28000 327.477
66.29000 337.801
66.30000 358.190
66.31000 375.676
66.32000 389.447
66.33000 393.342
66.34000 396.704
66.35000 401.687
66.36000 409.591
66.37000 417.555
66.38000 421.898
66.39000 431.404
66.40000 437.933
66.41000 443.201
66.42000 447.496
66.43000 451.809
66.44000 456.813
66.45000 462.172
66.46000 467.297
66.47000 458.760
66.48000 446.368
66.49000 434.197
66.50000 423.983
66.51000 414.227
66.52000 405.945
66.53000 405.693
66.54000 406.653
66.55000 407.418
66.56000 389.892
66.57000 374.444
66.58000 360.497
66.59000 350.187
66.60000 340.039
66.61000 332.041
66.62000 327.565
66.63000 323.139
66.64000 320.843
66.65000 325.264
66.66000 328.236
66.67000 329.326
66.68000 329.103
66.69000 328.829
66.70000 326.980
66.71000 324.393
66.72000 321.940
66.73000 321.748
66.74000 322.233
66.75000 322.875
66.76000 324.735
66.77000 326.853
66.78000 329.010
66.79000 331.363
66.80000 333.742
66.81000 335.594
66.82000 341.107
66.83000 345.722
66.84000 345.631
66.85000 335.157
66.86000 324.309
66.87000 319.610
66.88000 324.051
66.89000 328.578
66.90000 331.860
66.91000 333.937
66.92000 336.030
66.93000 339.422
66.94000 343.637
66.95000 347.503
66.96000 342.892
66.97000 334.654
66.98000 326.923
66.99000 335.025
67.00000 346.584
67.01000 357.078
67.02000 360.189
67.03000 361.890
67.04000 364.150
67.05000 368.893
67.06000 373.931
67.07000 377.758
67.08000 361.465
67.09000 347.615
67.10000 341.755
67.11000 351.956
67.12000 362.611
67.13000 368.776
67.14000 368.893
67.15000 368.977
67.16000 367.944
67.17000 365.943
67.18000 363.987
67.19000 364.589
67.20000 366.662
67.21000 369.048
67.22000 377.641
67.23000 388.654
67.24000 398.878
67.25000 398.232
67.26000 395.074
67.27000 392.170
67.28000 390.837
67.29000 389.773
67.30000 388.842
67.31000 388.437
67.32000 388.088
67.33000 387.829
67.34000 405.697
67.35000 420.344
67.36000 428.789
67.37000 425.888
67.38000 422.745
67.39000 420.905
67.40000 420.652
67.41000 420.403
67.42000 419.649
67.43000 418.505
67.44000 417.325
67.45000 414.614
67.46000 411.102
67.47000 408.313
67.48000 417.528
67.49000 431.005
67.50000 443.372
67.51000 440.185
67.52000 434.040
67.53000 429.315
67.54000 432.470
67.55000 436.836
67.56000 440.082
67.57000 439.251
67.58000 438.046
67.59000 437.179
67.60000 437.489
67.61000 437.769
67.62000 439.998
67.63000 445.471
67.64000 450.994
67.65000 452.408
67.66000 449.316
67.67000 446.234
67.68000 451.557
67.69000 462.733
67.70000 473.618
67.71000 475.298
67.72000 472.589
67.73000 470.139
67.74000 471.334
67.75000 473.707
67.76000 475.857
67.77000 480.460
67.78000 484.984
67.79000 489.109
67.80000 491.238
67.81000 493.094
67.82000 495.232
67.83000 498.299
67.84000 501.439
67.85000 503.635
67.86000 502.697
67.87000 501.899
67.88000 499.996
67.89000 496.421
67.90000 492.830
67.91000 494.320
67.92000 500.809
67.93000 507.253
67.94000 513.446
67.95000 519.384
67.96000 525.326
67.97000 531.360
67.98000 537.436
67.99000 542.923
68.00000 541.293
68.01000 537.572
68.02000 534.246
68.03000 534.663
68.04000 535.661
68.05000 536.154
68.06000 534.378
68.07000 532.325
68.08000 533.191
68.09000 542.838
68.10000 553.079
68.11000 560.018
68.12000 562.674
68.13000 564.560
68.14000 565.543
68.15000 565.291
68.16000 565.039
68.17000 571.951
68.18000 585.198
68.19000 598.304
68.20000 602.861
68.21000 602.429
68.22000 602.447
68.23000 611.672
68.24000 624.541
68.25000 636.090
68.26000 633.775
68.27000 627.759
68.28000 622.459
68.29000 630.729
68.30000 639.897
68.31000 647.959
68.32000 651.513
68.33000 654.585
68.34000 660.430
68.35000 673.874
68.36000 687.753
68.37000 696.844
68.38000 698.510
68.39000 699.611
68.40000 697.340
68.41000 690.896
68.42000 684.494
68.43000 695.468
68.44000 720.295
68.45000 744.750
68.46000 751.963
68.47000 750.068
68.48000 748.102
68.49000 744.914
68.50000 741.285
68.51000 740.299
68.52000 763.604
68.53000 792.788
68.54000 818.094
68.55000 826.498
68.56000 831.402
68.57000 842.436
68.58000 876.138
68.59000 911.961
68.60000 945.440
68.61000 973.067
68.62000 1000.416
68.63000 1017.698
68.64000 1062.960
68.65000 1096.086
68.66000 1136.754
68.67000 1185.835
68.68000 1234.935
68.69000 1286.163
68.70000 1338.925
68.71000 1390.627
68.72000 1441.875
68.73000 1490.961
68.74000 1539.646
68.75000 1582.538
68.76000 1623.528
68.77000 1666.246
68.78000 1722.961
68.79000 1782.741
68.80000 1833.709
68.81000 1886.897
68.82000 1931.908
68.83000 1983.640
68.84000 2057.954
68.85000 2134.098
68.86000 2225.825
68.87000 2352.992
68.88000 2481.530
68.89000 2559.680
68.90000 2948.758
68.91000 3228.983
68.92000 3739.853
68.93000 4481.738
68.94000 5232.645
68.95000 6821.261
68.96000 8957.427
68.97000 11038.107
68.98000 14481.248
68.99000 18336.686
69.00000 22242.957
69.01000 26779.174
69.02000 31503.430
69.03000 36111.598
69.04000 39885.348
69.05000 43494.195
69.06000 46515.973
69.07000 48846.477
69.08000 50712.586
69.09000 52234.219
69.10000 52703.289
69.11000 53099.215
69.12000 53437.125
69.13000 53654.863
69.14000 53868.918
69.15000 53993.781
69.16000 54992.352
69.17000 55698.461
69.18000 56292.578
69.19000 56785.973
69.20000 57258.594
69.21000 56436.410
69.22000 54845.633
69.23000 53306.719
69.24000 50439.605
69.25000 47227.762
69.26000 44026.496
69.27000 40938.840
69.28000 37881.988
69.29000 34985.148
69.30000 33113.941
69.31000 31425.088
69.32000 30038.029
69.33000 29016.355
69.34000 28210.133
69.35000 27469.705
69.36000 26912.295
69.37000 26365.652
69.38000 25645.217
69.39000 24597.000
69.40000 23541.088
69.41000 22951.979
69.42000 20122.768
69.43000 18159.178
69.44000 15979.731
69.45000 13625.320
69.46000 11280.167
69.47000 9351.946
69.48000 7648.798
69.49000 6013.746
69.50000 4917.961
69.51000 4077.710
69.52000 3274.657
69.53000 2820.715
69.54000 2452.631
69.55000 2113.658
69.56000 1941.816
69.57000 1796.609
69.58000 1679.787
69.59000 1587.578
69.60000 1514.693
69.61000 1445.886
69.62000 1387.410
69.63000 1329.440
69.64000 1275.962
69.65000 1230.192
69.66000 1184.553
69.67000 1160.285
69.68000 1108.951
69.69000 1074.056
69.70000 1050.015
69.71000 1033.928
69.72000 1017.554
69.73000 991.336
69.74000 960.281
69.75000 930.721
69.76000 914.408
69.77000 903.391
69.78000 892.653
69.79000 884.212
69.80000 876.283
69.81000 865.162
69.82000 837.566
69.83000 807.626
69.84000 784.064
69.85000 769.687
69.86000 758.782
69.87000 749.514
69.88000 744.028
69.89000 738.694
69.90000 730.894
69.91000 719.250
69.92000 707.562
69.93000 701.661
69.94000 687.675
69.95000 678.439
69.96000 681.072
69.97000 691.585
69.98000 701.421
69.99000 692.979
70.00000 676.356
