20.00000 570.631
20.01000 566.576
20.02000 561.943
20.03000 558.496
20.04000 559.689
20.05000 561.350
20.06000 562.571
20.07000 553.681
20.08000 546.395
20.09000 543.890
20.10000 549.911
20.11000 556.099
20.12000 559.593
20.13000 559.901
20.14000 560.202
20.15000 555.898
20.16000 548.130
20.17000 540.582
20.18000 541.422
20.19000 546.543
20.20000 551.584
20.21000 555.346
20.22000 558.665
20.23000 561.700
20.24000 556.975
20.25000 551.176
20.26000 547.100
20.27000 552.308
20.28000 558.899
20.29000 563.867
20.30000 563.077
20.31000 561.780
20.32000 560.854
20.33000 544.088
20.34000 530.768
20.35000 525.914
20.36000 534.779
20.37000 543.833
20.38000 548.659
20.39000 548.983
20.40000 549.304
20.41000 549.601
20.42000 549.876
20.43000 550.329
20.44000 556.025
20.45000 564.157
20.46000 571.367
20.47000 566.122
20.48000 556.955
20.49000 548.678
20.50000 555.853
20.51000 565.005
20.52000 572.173
20.53000 569.715
20.54000 565.980
20.55000 562.938
20.56000 562.128
20.57000 561.488
20.58000 561.044
20.59000 560.882
20.60000 560.767
20.61000 560.246
20.62000 559.125
20.63000 557.998
20.64000 555.020
20.65000 550.273
20.66000 545.563
20.67000 544.181
20.68000 544.873
20.69000 545.870
20.70000 554.100
20.71000 565.393
20.72000 574.785
20.73000 562.071
20.74000 543.027
20.75000 526.069
20.76000 533.409
20.77000 543.772
20.78000 551.798
20.79000 549.574
20.80000 546.147
20.81000 543.653
20.82000 543.896
20.83000 544.317
20.84000 544.599
20.85000 542.103
20.86000 540.194
20.87000 540.800
20.88000 544.757
20.89000 548.726
20.90000 549.502
20.91000 547.534
20.92000 545.589
20.93000 546.313
20.94000 548.501
20.95000 550.788
20.96000 555.002
20.97000 559.960
20.98000 564.034
20.99000 559.174
21.00000 551.992
21.01000 545.691
21.02000 535.284
21.03000 525.749
21.04000 519.637
21.05000 527.118
21.06000 536.002
21.07000 540.608
21.08000 533.787
21.09000 526.344
21.10000 521.515
21.11000 528.991
21.12000 534.650
21.13000 537.880
21.14000 538.186
21.15000 538.481
21.16000 537.440
21.17000 535.363
21.18000 533.320
21.19000 532.502
21.20000 532.323
21.21000 531.987
21.22000 529.065
21.23000 525.236
21.24000 522.333
21.25000 527.653
21.26000 534.909
21.27000 541.173
21.28000 541.292
21.29000 540.602
21.30000 541.564
21.31000 548.479
21.32000 555.929
21.33000 559.297
21.34000 552.728
21.35000 545.712
21.36000 541.324
21.37000 531.773
21.38000 524.825
21.39000 524.198
21.40000 530.421
21.41000 536.585
21.42000 534.633
21.43000 526.985
21.44000 519.503
21.45000 525.310
21.46000 536.901
21.47000 547.988
21.48000 552.088
21.49000 553.954
21.50000 555.293
21.51000 552.509
21.52000 548.847
21.53000 545.740
21.54000 546.118
21.55000 546.831
21.56000 547.055
21.57000 545.677
21.58000 544.175
21.59000 542.940
21.60000 542.299
21.61000 541.680
21.62000 541.307
21.63000 536.964
21.64000 533.849
21.65000 532.390
21.66000 532.542
21.67000 532.733
21.68000 536.189
21.69000 541.724
21.70000 547.105
21.71000 542.242
21.72000 533.429
21.73000 525.687
21.74000 530.699
21.75000 539.420
21.76000 547.604
21.77000 552.057
21.78000 555.792
21.79000 558.904
21.80000 557.892
21.81000 556.644
21.82000 555.633
21.83000 555.324
21.84000 555.062
21.85000 556.547
21.86000 561.560
21.87000 566.674
21.88000 569.623
21.89000 555.446
21.90000 545.470
21.91000 549.685
21.92000 566.304
21.93000 582.791
21.94000 591.813
21.95000 596.516
21.96000 601.057
21.97000 599.414
21.98000 595.586
21.99000 592.753
22.00000 600.223
22.01000 610.414
22.02000 618.751
22.03000 615.566
22.04000 610.392
22.05000 606.165
22.06000 600.339
22.07000 595.432
22.08000 595.883
22.09000 610.862
22.10000 626.656
22.11000 636.302
22.12000 634.648
22.13000 632.750
22.14000 631.704
22.15000 629.086
22.16000 627.266
22.17000 621.809
22.18000 613.484
22.19000 605.371
22.20000 606.109
22.21000 611.505
22.22000 616.674
22.23000 611.719
22.24000 603.729
22.25000 596.873
22.26000 600.291
22.27000 606.168
22.28000 610.795
22.29000 608.446
22.30000 605.019
22.31000 602.278
22.32000 610.186
22.33000 617.372
22.34000 619.607
22.35000 609.613
22.36000 599.051
22.37000 591.016
22.38000 587.208
22.39000 583.465
22.40000 581.502
22.41000 583.306
22.42000 584.492
22.43000 580.317
22.44000 572.318
22.45000 564.451
22.46000 560.806
22.47000 559.185
22.48000 557.645
22.49000 558.834
22.50000 560.749
22.51000 561.544
22.52000 553.382
22.53000 543.280
22.54000 535.362
22.55000 538.398
22.56000 542.945
22.57000 546.501
22.58000 546.268
22.59000 545.841
22.60000 546.832
22.61000 551.015
22.62000 555.319
22.63000 552.658
22.64000 539.425
22.65000 526.083
22.66000 525.340
22.67000 537.064
22.68000 548.671
22.69000 549.942
22.70000 544.529
22.71000 539.237
22.72000 536.999
22.73000 536.094
22.74000 535.243
22.75000 525.617
22.76000 514.456
22.77000 505.422
22.78000 511.484
22.79000 520.496
22.80000 526.833
22.81000 521.060
22.82000 513.808
22.83000 508.270
22.84000 508.002
22.85000 508.075
22.86000 508.732
22.87000 510.587
22.88000 512.477
22.89000 512.914
22.90000 511.353
22.91000 509.779
22.92000 505.746
22.93000 499.534
22.94000 493.449
22.95000 494.930
22.96000 500.855
22.97000 506.415
22.98000 504.401
22.99000 499.375
23.00000 494.698
23.01000 501.785
23.02000 511.040
23.03000 518.912
23.04000 518.023
23.05000 515.596
23.06000 513.088
23.07000 510.249
23.08000 507.373
23.09000 505.233
23.10000 497.224
23.11000 490.728
23.12000 487.828
23.13000 491.641
23.14000 495.606
23.15000 497.996
23.16000 498.426
23.17000 498.849
23.18000 500.859
23.19000 504.125
23.20000 507.229
23.21000 503.284
23.22000 495.573
23.23000 488.272
23.24000 488.048
23.25000 490.387
23.26000 492.539
23.27000 506.534
23.28000 521.616
23.29000 533.711
23.30000 528.856
23.31000 521.334
23.32000 514.378
23.33000 509.531
23.34000 504.882
23.35000 501.514
23.36000 505.591
23.37000 508.997
23.38000 509.699
23.39000 505.810
23.40000 501.846
23.41000 499.482
23.42000 498.913
23.43000 498.347
23.44000 494.304
23.45000 487.798
23.46000 481.379
23.47000 477.836
23.48000 475.691
23.49000 474.265
23.50000 483.323
23.51000 495.838
23.52000 507.209
23.53000 500.183
23.54000 490.395
23.55000 483.361
23.56000 490.379
23.57000 499.370
23.58000 506.436
23.59000 507.004
23.60000 507.040
23.61000 507.066
23.62000 495.240
23.63000 485.926
23.64000 480.367
23.65000 480.598
23.66000 480.894
23.67000 486.496
23.68000 497.442
23.69000 508.320
23.70000 510.385
23.71000 506.716
23.72000 503.092
23.73000 500.670
23.74000 498.781
23.75000 497.293
23.76000 500.808
23.77000 505.824
23.78000 510.321
23.79000 507.626
23.80000 504.023
23.81000 501.460
23.82000 503.684
23.83000 506.505
23.84000 506.085
23.85000 495.719
23.86000 484.656
23.87000 477.109
23.88000 478.971
23.89000 480.581
23.90000 480.406
23.91000 477.737
23.92000 475.055
23.93000 478.607
23.94000 487.797
23.95000 496.897
23.96000 497.323
23.97000 492.674
23.98000 487.929
23.99000 481.107
24.00000 473.448
24.01000 467.196
24.02000 476.167
24.03000 489.286
24.04000 500.880
24.05000 493.936
24.06000 485.077
24.07000 478.664
24.08000 482.438
24.09000 487.333
24.10000 489.991
24.11000 486.396
24.12000 482.429
24.13000 479.812
24.14000 485.324
24.15000 489.530
24.16000 491.836
24.17000 491.737
24.18000 491.623
24.19000 488.688
24.20000 483.452
24.21000 478.290
24.22000 477.587
24.23000 479.253
24.24000 480.543
24.25000 475.168
24.26000 467.340
24.27000 460.901
24.28000 467.570
24.29000 477.480
24.30000 486.102
24.31000 481.200
24.32000 475.165
24.33000 471.346
24.34000 475.892
24.35000 481.244
24.36000 484.092
24.37000 480.564
24.38000 476.720
24.39000 474.272
24.40000 489.075
24.41000 500.053
24.42000 502.308
24.43000 494.614
24.44000 486.921
24.45000 481.489
24.46000 477.722
24.47000 474.026
24.48000 473.871
24.49000 475.406
24.50000 476.600
24.51000 472.704
24.52000 467.103
24.53000 462.259
24.54000 463.713
24.55000 466.576
24.56000 469.027
24.57000 473.225
24.58000 476.977
24.59000 480.178
24.60000 481.489
24.61000 482.641
24.62000 482.438
24.63000 479.091
24.64000 475.617
24.65000 473.487
24.66000 468.352
24.67000 464.648
24.68000 463.149
24.69000 463.910
24.70000 464.686
24.71000 466.976
24.72000 470.277
24.73000 473.497
24.74000 476.041
24.75000 478.182
24.76000 480.307
24.77000 482.240
24.78000 484.113
24.79000 484.833
24.80000 477.049
24.81000 467.547
24.82000 459.560
24.83000 465.901
24.84000 472.704
24.85000 478.431
24.86000 480.804
24.87000 482.936
24.88000 481.810
24.89000 473.798
24.90000 465.565
24.91000 460.718
24.92000 471.881
24.93000 479.836
24.94000 477.527
24.95000 465.775
24.96000 454.255
24.97000 458.272
24.98000 471.702
24.99000 484.714
25.00000 479.164
25.01000 466.713
25.02000 455.572
25.03000 458.922
25.04000 466.282
25.05000 472.704
25.06000 472.963
25.07000 472.102
25.08000 471.391
25.09000 476.527
25.10000 481.295
25.11000 481.781
25.12000 470.112
25.13000 457.702
25.14000 452.276
25.15000 460.289
25.16000 468.637
25.17000 473.340
25.18000 478.425
25.19000 481.943
25.20000 478.205
25.21000 468.457
25.22000 458.975
25.23000 462.275
25.24000 472.615
25.25000 482.558
25.26000 479.152
25.27000 471.290
25.28000 463.636
25.29000 457.981
25.30000 452.828
25.31000 449.933
25.32000 460.302
25.33000 472.836
25.34000 482.966
25.35000 468.741
25.36000 455.222
25.37000 447.163
25.38000 453.217
25.39000 459.990
25.40000 461.844
25.41000 455.086
25.42000 448.169
25.43000 444.452
25.44000 464.567
25.45000 478.262
25.46000 478.550
25.47000 468.803
25.48000 459.388
25.49000 461.932
25.50000 470.473
25.51000 478.617
25.52000 479.769
25.53000 478.631
25.54000 477.035
25.55000 471.548
25.56000 465.176
25.57000 459.690
25.58000 458.886
25.59000 458.764
25.60000 458.668
25.61000 457.147
25.62000 455.826
25.63000 454.811
25.64000 454.516
25.65000 454.250
25.66000 453.727
25.67000 452.794
25.68000 451.856
25.69000 451.378
25.70000 450.012
25.71000 449.080
25.72000 446.489
25.73000 442.774
25.74000 439.470
25.75000 447.797
25.76000 461.435
25.77000 474.321
25.78000 475.488
25.79000 473.231
25.80000 471.172
25.81000 470.601
25.82000 470.336
25.83000 469.039
25.84000 462.835
25.85000 455.994
25.86000 450.708
25.87000 453.615
25.88000 456.400
25.89000 456.863
25.90000 452.347
25.91000 447.664
25.92000 446.420
25.93000 450.141
25.94000 453.901
25.95000 456.484
25.96000 457.967
25.97000 459.401
25.98000 457.379
25.99000 453.230
26.00000 449.255
26.01000 449.242
26.02000 450.876
26.03000 452.406
26.04000 448.128
26.05000 442.760
26.06000 438.883
26.07000 444.981
26.08000 452.926
26.09000 458.573
26.10000 454.341
26.11000 448.978
26.12000 444.934
26.13000 444.051
26.14000 443.514
26.15000 443.446
26.16000 444.291
26.17000 445.160
26.18000 445.120
26.19000 443.894
26.20000 442.664
26.21000 441.277
26.22000 439.762
26.23000 438.391
26.24000 444.272
26.25000 454.209
26.26000 463.365
26.27000 457.842
26.28000 446.756
26.29000 436.499
26.30000 436.593
26.31000 439.051
26.32000 442.054
26.33000 448.311
26.34000 455.109
26.35000 460.286
26.36000 459.150
26.37000 457.378
26.38000 456.078
26.39000 451.824
26.40000 448.416
26.41000 449.944
26.42000 460.244
26.43000 470.715
26.44000 473.102
26.45000 465.953
26.46000 458.806
26.47000 451.020
26.48000 442.803
26.49000 434.736
26.50000 432.350
26.51000 432.855
26.52000 433.420
26.53000 434.929
26.54000 436.764
26.55000 438.442
26.56000 434.120
26.57000 429.048
26.58000 426.130
26.59000 434.775
26.60000 445.137
26.61000 452.427
26.62000 448.854
26.63000 444.329
26.64000 441.100
26.65000 440.025
26.66000 439.277
26.67000 438.519
26.68000 437.745
26.69000 436.972
26.70000 436.116
26.71000 435.173
26.72000 434.235
26.73000 438.597
26.74000 446.517
26.75000 454.100
26.76000 451.748
26.77000 444.793
26.78000 438.392
26.79000 439.455
26.80000 442.862
26.81000 445.936
26.82000 443.717
26.83000 440.795
26.84000 437.646
26.85000 433.398
26.86000 429.004
26.87000 425.990
26.88000 427.409
26.89000 429.163
26.90000 430.377
26.91000 435.593
26.92000 439.623
26.93000 440.016
26.94000 435.076
26.95000 430.090
26.96000 428.997
26.97000 431.611
26.98000 434.204
26.99000 435.487
27.00000 435.943
27.01000 436.268
27.02000 433.498
27.03000 429.421
27.04000 426.124
27.05000 431.861
27.06000 440.177
27.07000 447.578
27.08000 439.568
27.09000 430.092
27.10000 422.943
27.11000 425.971
27.12000 430.188
27.13000 434.618
27.14000 439.670
27.15000 444.762
27.16000 448.177
27.17000 442.195
27.18000 437.564
27.19000 434.945
27.20000 434.997
27.21000 435.059
27.22000 432.893
27.23000 428.820
27.24000 424.794
27.25000 425.852
27.26000 429.700
27.27000 433.191
27.28000 429.762
27.29000 423.670
27.30000 418.155
27.31000 418.454
27.32000 420.259
27.33000 421.841
27.34000 424.126
27.35000 426.189
27.36000 429.610
27.37000 438.402
27.38000 447.747
27.39000 450.903
27.40000 437.574
27.41000 423.352
27.42000 414.134
27.43000 413.280
27.44000 412.780
27.45000 412.142
27.46000 411.340
27.47000 410.566
27.48000 417.093
27.49000 429.265
27.50000 441.236
27.51000 447.104
27.52000 449.730
27.53000 452.133
27.54000 450.921
27.55000 448.443
27.56000 445.498
27.57000 438.430
27.58000 430.392
27.59000 423.457
27.60000 422.998
27.61000 423.438
27.62000 424.985
27.63000 430.504
27.64000 436.378
27.65000 440.342
27.66000 439.666
27.67000 438.783
27.68000 438.232
27.69000 425.310
27.70000 415.858
27.71000 413.841
27.72000 419.853
27.73000 425.832
27.74000 427.073
27.75000 424.998
27.76000 422.968
27.77000 424.129
27.78000 426.683
27.79000 428.948
27.80000 427.245
27.81000 424.275
27.82000 421.828
27.83000 423.470
27.84000 425.979
27.85000 428.108
27.86000 421.831
27.87000 415.620
27.88000 412.055
27.89000 417.132
27.90000 422.877
27.91000 425.287
27.92000 420.320
27.93000 415.088
27.94000 411.945
27.95000 411.432
27.96000 411.086
27.97000 414.657
27.98000 422.026
27.99000 429.273
28.00000 426.678
28.01000 417.835
28.02000 409.239
28.03000 412.859
28.04000 421.279
28.05000 428.725
28.06000 424.620
28.07000 417.165
28.08000 412.112
28.09000 423.728
28.10000 438.536
28.11000 450.864
28.12000 439.447
28.13000 427.645
28.14000 419.573
28.15000 422.582
28.16000 426.323
28.17000 425.546
28.18000 415.672
28.19000 405.538
28.20000 399.704
28.21000 410.340
28.22000 417.837
28.23000 417.794
28.24000 411.184
28.25000 404.686
28.26000 404.507
28.27000 407.972
28.28000 411.317
28.29000 410.325
28.30000 407.796
28.31000 405.616
28.32000 407.040
28.33000 409.413
28.34000 411.355
28.35000 410.627
28.36000 409.439
28.37000 408.470
28.38000 406.811
28.39000 405.395
28.40000 403.505
28.41000 400.333
28.42000 397.091
28.43000 398.168
28.44000 407.163
28.45000 416.329
28.46000 421.371
28.47000 431.674
28.48000 438.749
28.49000 437.558
28.50000 429.869
28.51000 422.293
28.52000 419.343
28.53000 418.820
28.54000 418.319
28.55000 412.241
28.56000 404.725
28.57000 398.302
28.58000 401.747
28.59000 407.548
28.60000 410.980
28.61000 401.246
28.62000 389.484
28.63000 380.083
28.64000 393.808
28.65000 406.613
28.66000 415.025
28.67000 412.617
28.68000 409.709
28.69000 410.280
28.70000 416.649
28.71000 423.107
28.72000 426.489
28.73000 429.404
28.74000 431.337
28.75000 427.347
28.76000 419.148
28.77000 411.024
28.78000 405.317
28.79000 400.764
28.80000 396.443
28.81000 399.332
28.82000 404.153
28.83000 408.174
28.84000 405.823
28.85000 402.097
28.86000 399.261
28.87000 400.877
28.88000 403.104
28.89000 404.845
28.90000 407.431
28.91000 409.547
28.92000 412.878
28.93000 418.935
28.94000 425.093
28.95000 423.952
28.96000 411.764
28.97000 399.463
28.98000 394.939
28.99000 398.085
29.00000 401.219
29.01000 403.344
29.02000 404.818
29.03000 406.308
29.04000 408.214
29.05000 410.302
29.06000 412.264
29.07000 408.558
29.08000 403.648
29.09000 399.828
29.10000 403.708
29.11000 409.087
29.12000 411.968
29.13000 403.567
29.14000 393.793
29.15000 386.334
29.16000 380.551
29.17000 376.083
29.18000 378.390
29.19000 394.545
29.20000 411.110
29.21000 415.318
29.22000 402.579
29.23000 389.743
29.24000 388.524
29.25000 397.585
29.26000 406.560
29.27000 410.360
29.28000 411.129
29.29000 411.766
29.30000 409.665
29.31000 406.478
29.32000 403.513
29.33000 403.649
29.34000 404.521
29.35000 405.184
29.36000 404.524
29.37000 403.633
29.38000 402.088
29.39000 397.871
29.40000 393.368
29.41000 390.019
29.42000 394.777
29.43000 398.840
29.44000 402.186
29.45000 404.196
29.46000 406.176
29.47000 407.352
29.48000 407.530
29.49000 407.706
29.50000 406.954
29.51000 405.469
29.52000 404.010
29.53000 403.701
29.54000 404.004
29.55000 404.157
29.56000 401.735
29.57000 398.382
29.58000 395.298
29.59000 396.966
29.60000 399.486
29.61000 401.276
29.62000 398.939
29.63000 395.954
29.64000 394.576
29.65000 399.157
29.66000 404.297
29.67000 408.016
29.68000 395.175
29.69000 384.710
29.70000 381.486
29.71000 390.520
29.72000 399.755
29.73000 406.856
29.74000 411.574
29.75000 416.272
29.76000 414.339
29.77000 407.675
29.78000 401.109
29.79000 397.782
29.80000 396.025
29.81000 394.415
29.82000 394.953
29.83000 396.198
29.84000 397.327
29.85000 400.468
29.86000 403.632
29.87000 405.986
29.88000 404.219
29.89000 401.876
29.90000 399.916
29.91000 399.248
29.92000 398.684
29.93000 398.289
29.94000 403.398
29.95000 407.430
29.96000 409.562
29.97000 408.772
29.98000 407.951
29.99000 409.641
30.00000 413.854
30.01000 418.039
30.02000 417.580
30.03000 414.131
30.04000 410.742
30.05000 408.926
30.06000 407.806
30.07000 407.286
30.08000 414.237
30.09000 423.421
30.10000 431.652
30.11000 428.340
30.12000 423.450
30.13000 417.130
30.14000 404.246
30.15000 390.547
30.16000 382.854
30.17000 393.548
30.18000 405.525
30.19000 413.687
30.20000 410.208
30.21000 407.341
30.22000 406.339
30.23000 407.937
30.24000 409.548
30.25000 406.072
30.26000 398.009
30.27000 390.027
30.28000 387.638
30.29000 388.557
30.30000 389.555
30.31000 392.242
30.32000 395.609
30.33000 399.034
30.34000 403.086
30.35000 407.309
30.36000 411.038
30.37000 413.673
30.38000 415.779
30.39000 416.579
30.40000 411.952
30.41000 406.731
30.42000 403.079
30.43000 403.802
30.44000 404.782
30.45000 405.429
30.46000 410.259
30.47000 413.892
30.48000 417.073
30.49000 419.686
30.50000 422.283
30.51000 419.761
30.52000 413.080
30.53000 406.495
30.54000 402.432
30.55000 399.812
30.56000 397.300
30.57000 396.697
30.58000 396.794
30.59000 397.079
30.60000 399.133
30.61000 401.623
30.62000 403.789
30.63000 404.089
30.64000 404.092
30.65000 405.053
30.66000 409.623
30.67000 414.540
30.68000 418.839
30.69000 421.571
30.70000 424.226
30.71000 425.914
30.72000 420.981
30.73000 417.314
30.74000 415.286
30.75000 415.120
30.76000 414.957
30.77000 414.743
30.78000 414.493
30.79000 414.247
30.80000 416.983
30.81000 421.033
30.82000 424.682
30.83000 422.369
30.84000 418.065
30.85000 414.345
30.86000 415.469
30.87000 417.672
30.88000 419.557
30.89000 421.373
30.90000 422.896
30.91000 425.534
30.92000 431.982
30.93000 438.747
30.94000 442.808
30.95000 440.613
30.96000 438.166
30.97000 436.668
30.98000 450.285
30.99000 460.161
31.00000 466.413
31.01000 468.961
31.02000 471.569
31.03000 480.205
31.04000 492.852
31.05000 505.185
31.06000 519.232
31.07000 533.380
31.08000 547.439
31.09000 560.367
31.10000 572.952
31.11000 585.701
31.12000 599.654
31.13000 613.850
31.14000 625.776
31.15000 652.143
31.16000 675.633
31.17000 701.636
31.18000 735.449
31.19000 769.821
31.20000 796.574
31.21000 807.271
31.22000 817.454
31.23000 823.440
31.24000 873.627
31.25000 909.245
31.26000 947.744
31.27000 988.884
31.28000 1029.769
31.29000 1053.636
31.30000 1067.224
31.31000 1080.386
31.32000 1114.466
31.33000 1154.796
31.34000 1193.594
31.35000 1215.507
31.36000 1232.759
31.37000 1248.184
31.38000 1251.649
31.39000 1252.946
31.40000 1254.015
31.41000 1247.659
31.42000 1241.744
31.43000 1238.341
31.44000 1242.048
31.45000 1246.186
31.46000 1238.166
31.47000 1206.819
31.48000 1174.895
31.49000 1156.934
31.50000 1118.510
31.51000 1091.789
31.52000 1066.592
31.53000 1042.655
31.54000 1018.573
31.55000 987.595
31.56000 952.831
31.57000 919.407
31.58000 891.406
31.59000 867.061
31.60000 841.532
31.61000 804.622
31.62000 764.863
31.63000 728.930
31.64000 715.409
31.65000 705.533
31.66000 697.556
31.67000 673.282
31.68000 652.250
31.69000 631.889
31.70000 613.258
31.71000 594.716
31.72000 578.232
31.73000 565.342
31.74000 552.517
31.75000 545.636
31.76000 536.583
31.77000 530.376
31.78000 519.646
31.79000 505.541
31.80000 491.538
31.81000 481.186
31.82000 472.660
31.83000 464.531
31.84000 463.244
31.85000 464.200
31.86000 464.706
31.87000 461.405
31.88000 457.241
31.89000 452.656
31.90000 445.860
31.91000 438.743
31.92000 433.118
31.93000 427.726
31.94000 423.413
31.95000 420.168
31.96000 419.433
31.97000 418.803
31.98000 419.310
31.99000 421.620
32.00000 423.953
32.01000 425.143
32.02000 408.507
32.03000 397.433
32.04000 396.149
32.05000 401.483
32.06000 406.669
32.07000 407.685
32.08000 406.803
32.09000 405.970
32.10000 401.328
32.11000 395.990
32.12000 391.281
32.13000 391.290
32.14000 392.264
32.15000 393.524
32.16000 396.141
32.17000 398.933
32.18000 401.088
32.19000 394.585
32.20000 388.926
32.21000 386.000
32.22000 388.924
32.23000 392.043
32.24000 389.573
32.25000 379.060
32.26000 368.485
32.27000 366.811
32.28000 373.437
32.29000 380.029
32.30000 384.222
32.31000 386.944
32.32000 389.485
32.33000 387.930
32.34000 384.677
32.35000 381.635
32.36000 378.908
32.37000 376.511
32.38000 374.578
32.39000 375.731
32.40000 377.453
32.41000 377.801
32.42000 372.258
32.43000 366.044
32.44000 361.363
32.45000 367.987
32.46000 373.723
32.47000 374.906
32.48000 367.215
32.49000 359.296
32.50000 357.230
32.51000 362.790
32.52000 368.376
32.53000 372.317
32.54000 374.868
32.55000 377.376
32.56000 377.695
32.57000 376.794
32.58000 375.677
32.59000 370.519
32.60000 363.834
32.61000 357.651
32.62000 360.753
32.63000 365.661
32.64000 368.959
32.65000 362.663
32.66000 354.779
32.67000 349.108
32.68000 352.034
32.69000 355.821
32.70000 358.598
32.71000 360.650
32.72000 362.207
32.73000 361.825
32.74000 358.008
32.75000 354.125
32.76000 353.261
32.77000 355.947
32.78000 358.632
32.79000 361.959
32.80000 365.747
32.81000 369.391
32.82000 367.622
32.83000 363.107
32.84000 359.229
32.85000 365.364
32.86000 374.946
32.87000 383.703
32.88000 380.315
32.89000 374.821
32.90000 370.208
32.91000 370.317
32.92000 371.124
32.93000 371.232
32.94000 368.877
32.95000 366.307
32.96000 364.475
32.97000 371.729
32.98000 377.559
32.99000 378.292
33.00000 370.815
33.01000 363.227
33.02000 360.631
33.03000 363.318
33.04000 365.992
33.05000 365.122
33.06000 361.856
33.07000 358.793
33.08000 361.629
33.09000 367.192
33.10000 371.909
33.11000 365.311
33.12000 355.169
33.13000 346.020
33.14000 349.643
33.15000 355.162
33.16000 358.992
33.17000 354.681
33.18000 349.297
33.19000 344.203
33.20000 340.039
33.21000 335.945
33.22000 333.112
33.23000 339.412
33.24000 344.388
33.25000 345.125
33.26000 339.664
33.27000 334.149
33.28000 332.191
33.29000 333.608
33.30000 335.013
33.31000 334.505
33.32000 332.836
33.33000 331.291
33.34000 332.668
33.35000 335.277
33.36000 337.433
33.37000 334.367
33.38000 329.816
33.39000 325.767
33.40000 330.200
33.41000 335.431
33.42000 339.360
33.43000 337.615
33.44000 335.210
33.45000 333.533
33.46000 333.980
33.47000 334.563
33.48000 334.954
33.49000 335.512
33.50000 335.930
33.51000 334.826
33.52000 331.708
33.53000 328.583
33.54000 327.382
33.55000 327.825
33.56000 328.263
33.57000 329.687
33.58000 331.619
33.59000 333.480
33.60000 333.958
33.61000 333.905
33.62000 333.347
33.63000 327.724
33.64000 320.791
33.65000 314.715
33.66000 319.365
33.67000 324.906
33.68000 329.596
33.69000 330.930
33.70000 331.919
33.71000 332.127
33.72000 330.258
33.73000 328.278
33.74000 326.995
33.75000 324.747
33.76000 323.088
33.77000 321.619
33.78000 320.378
33.79000 319.140
33.80000 318.585
33.81000 318.555
33.82000 318.527
33.83000 320.281
33.84000 322.866
33.85000 325.211
33.86000 323.669
33.87000 320.769
33.88000 319.090
33.89000 328.156
33.90000 339.738
33.91000 349.726
33.92000 343.916
33.93000 336.970
33.94000 331.457
33.95000 331.079
33.96000 331.160
33.97000 329.944
33.98000 325.590
33.99000 321.097
34.00000 318.293
34.01000 318.414
34.02000 318.531
34.03000 319.779
34.04000 322.245
34.05000 324.669
34.06000 321.686
34.07000 314.930
34.08000 308.323
34.09000 317.520
34.10000 333.454
34.11000 348.118
34.12000 345.373
34.13000 337.091
34.14000 328.598
34.15000 318.464
34.16000 307.984
34.17000 299.101
34.18000 306.681
34.19000 314.884
34.20000 321.979
34.21000 325.466
34.22000 328.675
34.23000 330.671
34.24000 329.996
34.25000 329.224
34.26000 328.761
34.27000 330.699
34.28000 332.091
34.29000 328.251
34.30000 319.355
34.31000 310.527
34.32000 307.147
34.33000 307.215
34.34000 307.281
34.35000 311.368
34.36000 316.885
34.37000 322.022
34.38000 322.661
34.39000 321.999
34.40000 321.884
34.41000 325.549
34.42000 329.935
34.43000 333.585
34.44000 328.767
34.45000 323.945
34.46000 319.398
34.47000 315.669
34.48000 311.994
34.49000 310.533
34.50000 313.520
34.51000 316.632
34.52000 318.421
34.53000 319.127
34.54000 319.618
34.55000 321.245
34.56000 323.859
34.57000 326.355
34.58000 322.320
34.59000 314.529
34.60000 307.010
34.61000 304.468
34.62000 303.900
34.63000 303.769
34.64000 308.126
34.65000 313.662
34.66000 318.386
34.67000 318.098
34.68000 316.950
34.69000 316.013
34.70000 307.505
34.71000 299.900
34.72000 294.572
34.73000 295.385
34.74000 296.539
34.75000 299.256
34.76000 304.830
34.77000 310.464
34.78000 313.559
34.79000 324.659
34.80000 332.280
34.81000 330.647
34.82000 321.765
34.83000 313.086
34.84000 312.699
34.85000 316.650
34.86000 320.433
34.87000 317.434
34.88000 312.397
34.89000 308.242
34.90000 312.022
34.91000 317.690
34.92000 322.553
34.93000 322.955
34.94000 322.672
34.95000 322.446
34.96000 320.069
34.97000 317.989
34.98000 318.626
34.99000 325.931
35.00000 333.543
35.01000 335.477
35.02000 327.972
35.03000 320.323
35.04000 316.324
35.05000 322.949
35.06000 327.362
35.07000 321.329
35.08000 307.891
35.09000 294.903
35.10000 296.075
35.11000 303.991
35.12000 311.504
35.13000 315.422
35.14000 317.966
35.15000 319.796
35.16000 315.956
35.17000 310.897
35.18000 306.575
35.19000 305.934
35.20000 305.796
35.21000 305.688
35.22000 304.145
35.23000 302.824
35.24000 302.233
35.25000 303.275
35.26000 304.378
35.27000 304.117
35.28000 301.801
35.29000 299.463
35.30000 303.484
35.31000 313.754
35.32000 323.912
35.33000 324.406
35.34000 318.688
35.35000 313.143
35.36000 311.932
35.37000 312.601
35.38000 313.231
35.39000 311.281
35.40000 308.810
35.41000 306.643
35.42000 306.619
35.43000 307.010
35.44000 306.774
35.45000 303.706
35.46000 300.296
35.47000 297.695
35.48000 305.540
35.49000 312.275
35.50000 316.550
35.51000 315.811
35.52000 314.925
35.53000 315.731
35.54000 318.850
35.55000 321.981
35.56000 319.183
35.57000 311.159
35.58000 303.238
35.59000 301.366
35.60000 303.027
35.61000 304.644
35.62000 305.391
35.63000 305.793
35.64000 306.167
35.65000 308.284
35.66000 310.615
35.67000 312.624
35.68000 312.612
35.69000 312.247
35.70000 310.928
35.71000 305.725
35.72000 300.107
35.73000 295.931
35.74000 295.243
35.75000 294.862
35.76000 295.221
35.77000 296.950
35.78000 298.709
35.79000 300.382
35.80000 301.948
35.81000 303.511
35.82000 305.330
35.83000 307.343
35.84000 309.263
35.85000 307.194
35.86000 303.005
35.87000 298.843
35.88000 295.145
35.89000 291.614
35.90000 288.369
35.91000 292.290
35.92000 297.340
35.93000 302.259
35.94000 306.439
35.95000 310.503
35.96000 312.999
35.97000 309.702
35.98000 305.864
35.99000 303.088
36.00000 309.783
36.01000 315.266
36.02000 318.455
36.03000 317.775
36.04000 317.032
36.05000 317.492
36.06000 319.294
36.07000 321.089
36.08000 317.713
36.09000 310.674
36.10000 303.831
36.11000 303.387
36.12000 306.037
36.13000 308.309
36.14000 305.129
36.15000 300.160
36.16000 295.648
36.17000 300.363
36.18000 306.310
36.19000 310.242
36.20000 303.961
36.21000 296.255
36.22000 291.242
36.23000 295.263
36.24000 300.016
36.25000 303.355
36.26000 296.098
36.27000 290.293
36.28000 286.960
36.29000 287.416
36.30000 287.914
36.31000 290.027
36.32000 293.756
36.33000 297.461
36.34000 299.696
36.35000 300.951
36.36000 302.038
36.37000 298.783
36.38000 293.615
36.39000 289.149
36.40000 293.376
36.41000 300.197
36.42000 306.306
36.43000 302.209
36.44000 296.871
36.45000 292.818
36.46000 294.638
36.47000 297.185
36.48000 298.690
36.49000 297.018
36.50000 295.126
36.51000 293.837
36.52000 292.821
36.53000 292.068
36.54000 293.720
36.55000 298.713
36.56000 303.723
36.57000 303.913
36.58000 299.770
36.59000 295.668
36.60000 294.850
36.61000 295.955
36.62000 296.903
36.63000 294.519
36.64000 290.799
36.65000 287.332
36.66000 286.585
36.67000 286.575
36.68000 286.567
36.69000 288.870
36.70000 291.212
36.71000 292.555
36.72000 289.757
36.73000 286.508
36.74000 284.437
36.75000 285.640
36.76000 287.035
36.77000 287.954
36.78000 291.243
36.79000 293.706
36.80000 293.742
36.81000 290.727
36.82000 287.702
36.83000 284.827
36.84000 282.073
36.85000 279.359
36.86000 280.288
36.87000 283.098
36.88000 285.753
36.89000 285.671
36.90000 284.589
36.91000 284.313
36.92000 291.594
36.93000 300.731
36.94000 308.674
36.95000 308.475
36.96000 307.199
36.97000 305.506
36.98000 302.243
36.99000 298.831
37.00000 295.658
37.01000 293.094
37.02000 290.559
37.03000 288.948
37.04000 292.384
37.05000 294.942
37.06000 296.728
37.07000 297.637
37.08000 298.533
37.09000 297.227
37.10000 294.310
37.11000 291.449
37.12000 291.196
37.13000 292.187
37.14000 293.101
37.15000 292.892
37.16000 292.308
37.17000 291.178
37.18000 285.542
37.19000 278.903
37.20000 273.228
37.21000 285.399
37.22000 297.794
37.23000 307.165
37.24000 306.224
37.25000 304.428
37.26000 300.673
37.27000 292.399
37.28000 283.944
37.29000 278.772
37.30000 280.663
37.31000 282.075
37.32000 286.182
37.33000 293.033
37.34000 299.818
37.35000 300.068
37.36000 295.983
37.37000 292.000
37.38000 287.901
37.39000 283.937
37.40000 279.950
37.41000 275.664
37.42000 271.288
37.43000 267.889
37.44000 271.642
37.45000 276.831
37.46000 281.188
37.47000 279.978
37.48000 278.385
37.49000 277.943
37.50000 281.067
37.51000 284.445
37.52000 287.633
37.53000 290.424
37.54000 293.202
37.55000 294.833
37.56000 290.113
37.57000 286.754
37.58000 284.064
37.59000 281.985
37.60000 279.968
37.61000 282.051
37.62000 286.603
37.63000 291.012
37.64000 289.921
37.65000 286.770
37.66000 283.637
37.67000 280.703
37.68000 277.824
37.69000 275.604
37.70000 277.689
37.71000 280.550
37.72000 282.908
37.73000 285.906
37.74000 288.431
37.75000 290.064
37.76000 289.178
37.77000 288.141
37.78000 286.920
37.79000 285.348
37.80000 283.768
37.81000 282.880
37.82000 280.365
37.83000 278.614
37.84000 275.859
37.85000 272.277
37.86000 268.925
37.87000 276.377
37.88000 289.745
37.89000 302.594
37.90000 306.148
37.91000 306.244
37.92000 305.626
37.93000 298.169
37.94000 289.004
37.95000 280.741
37.96000 277.744
37.97000 275.602
37.98000 273.872
37.99000 274.500
38.00000 275.197
38.01000 276.385
38.02000 278.836
38.03000 281.350
38.04000 283.016
38.05000 283.203
38.06000 283.363
38.07000 283.449
38.08000 285.415
38.09000 286.754
38.10000 287.132
38.11000 286.796
38.12000 286.391
38.13000 283.523
38.14000 279.428
38.15000 275.525
38.16000 283.934
38.17000 295.588
38.18000 305.316
38.19000 298.810
38.20000 288.634
38.21000 279.880
38.22000 278.576
38.23000 278.351
38.24000 278.174
38.25000 287.685
38.26000 295.978
38.27000 301.238
38.28000 299.396
38.29000 297.260
38.30000 295.693
38.31000 295.028
38.32000 294.373
38.33000 294.040
38.34000 295.222
38.35000 296.030
38.36000 298.468
38.37000 302.006
38.38000 305.636
38.39000 311.846
38.40000 319.228
38.41000 326.200
38.42000 333.409
38.43000 340.092
38.44000 346.332
38.45000 349.279
38.46000 351.553
38.47000 355.598
38.48000 368.011
38.49000 381.502
38.50000 391.910
38.51000 405.776
38.52000 416.965
38.53000 429.937
38.54000 446.714
38.55000 463.617
38.56000 485.834
38.57000 515.676
38.58000 545.572
38.59000 566.352
38.60000 578.649
38.61000 591.092
38.62000 613.683
38.63000 642.481
38.64000 670.676
38.65000 685.265
38.66000 694.227
38.67000 702.605
38.68000 717.365
38.69000 732.384
38.70000 747.576
38.71000 763.914
38.72000 780.463
38.73000 794.558
38.74000 798.167
38.75000 800.583
38.76000 802.402
38.77000 800.412
38.78000 798.670
38.79000 784.135
38.80000 744.751
38.81000 704.730
38.82000 682.725
38.83000 684.114
38.84000 685.598
38.85000 679.683
38.86000 667.607
38.87000 655.417
38.88000 637.558
38.89000 616.546
38.90000 595.189
38.91000 567.409
38.92000 537.208
38.93000 509.284
38.94000 481.276
38.95000 456.106
38.96000 432.929
38.97000 421.593
38.98000 412.209
38.99000 401.871
39.00000 387.832
39.01000 373.424
39.02000 362.864
39.03000 350.296
39.04000 340.510
39.05000 333.501
39.06000 331.403
39.07000 329.398
39.08000 322.968
39.09000 311.350
39.10000 299.755
39.11000 296.672
39.12000 300.002
39.13000 303.128
39.14000 298.689
39.15000 290.422
39.16000 282.557
39.17000 280.991
39.18000 281.586
39.19000 282.129
39.20000 282.347
39.21000 282.473
39.22000 281.574
39.23000 275.205
39.24000 268.028
39.25000 262.782
39.26000 264.325
39.27000 266.457
39.28000 267.976
39.29000 268.039
39.30000 268.040
39.31000 268.111
39.32000 268.297
39.33000 268.484
39.34000 269.207
39.35000 270.496
39.36000 271.778
39.37000 269.115
39.38000 263.814
39.39000 258.685
39.40000 258.513
39.41000 260.627
39.42000 262.706
39.43000 264.323
39.44000 265.796
39.45000 267.124
39.46000 265.797
39.47000 264.148
39.48000 262.950
39.49000 263.918
39.50000 265.170
39.51000 265.816
39.52000 264.525
39.53000 263.088
39.54000 262.095
39.55000 260.823
39.56000 259.860
39.57000 261.226
39.58000 265.985
39.59000 270.772
39.60000 269.759
39.61000 263.258
39.62000 256.811
39.63000 261.034
39.64000 271.688
39.65000 281.676
39.66000 276.140
39.67000 264.085
39.68000 252.931
39.69000 252.115
39.70000 254.234
39.71000 256.118
39.72000 254.980
39.73000 253.502
39.74000 252.583
39.75000 254.089
39.76000 255.876
39.77000 258.233
39.78000 262.245
39.79000 266.362
39.80000 269.118
39.81000 266.299
39.82000 264.097
39.83000 260.823
39.84000 256.135
39.85000 251.447
39.86000 250.830
39.87000 253.679
39.88000 256.493
39.89000 260.904
39.90000 266.083
39.91000 270.915
39.92000 269.085
39.93000 264.707
39.94000 260.801
39.95000 261.615
39.96000 263.646
39.97000 265.424
39.98000 266.660
39.99000 267.642
40.00000 267.364
40.01000 262.124
40.02000 256.379
40.03000 254.648
40.04000 263.549
40.05000 273.020
40.06000 279.145
40.07000 276.372
40.08000 274.213
40.09000 269.901
40.10000 263.020
40.11000 256.147
40.12000 252.110
40.13000 250.254
40.14000 248.429
40.15000 245.610
40.16000 242.389
40.17000 239.492
40.18000 241.797
40.19000 245.914
40.20000 249.531
40.21000 248.761
40.22000 246.966
40.23000 245.419
40.24000 252.559
40.25000 259.718
40.26000 264.822
40.27000 262.589
40.28000 259.703
40.29000 256.487
40.30000 252.472
40.31000 248.423
40.32000 245.898
40.33000 244.553
40.34000 243.595
40.35000 244.056
40.36000 246.040
40.37000 248.034
40.38000 251.265
40.39000 255.357
40.40000 259.358
40.41000 259.022
40.42000 256.756
40.43000 254.409
40.44000 250.973
40.45000 247.192
40.46000 244.017
40.47000 245.533
40.48000 248.041
40.49000 250.165
40.50000 256.055
40.51000 261.411
40.52000 264.137
40.53000 258.325
40.54000 251.857
40.55000 247.763
40.56000 248.890
40.57000 250.202
40.58000 250.988
40.59000 251.254
40.60000 251.439
40.61000 250.006
40.62000 247.016
40.63000 244.028
40.64000 241.295
40.65000 238.721
40.66000 236.220
40.67000 240.727
40.68000 247.848
40.69000 254.565
40.70000 256.538
40.71000 257.144
40.72000 257.492
40.73000 256.071
40.74000 254.313
40.75000 252.851
40.76000 257.414
40.77000 261.780
40.78000 263.394
40.79000 256.881
40.80000 249.834
40.81000 244.817
40.82000 243.860
40.83000 243.016
40.84000 242.532
40.85000 243.382
40.86000 243.981
40.87000 244.205
40.88000 244.103
40.89000 243.986
40.90000 243.025
40.91000 241.579
40.92000 240.185
40.93000 240.201
40.94000 240.732
40.95000 241.146
40.96000 240.357
40.97000 239.253
40.98000 238.372
40.99000 238.865
41.00000 239.593
41.01000 240.186
41.02000 246.440
41.03000 252.036
41.04000 255.019
41.05000 250.977
41.06000 246.548
41.07000 241.805
41.08000 236.490
41.09000 231.163
41.10000 228.241
41.11000 233.457
41.12000 237.036
41.13000 234.576
41.14000 227.401
41.15000 220.565
41.16000 227.520
41.17000 241.669
41.18000 255.212
41.19000 252.431
41.20000 244.459
41.21000 237.691
41.22000 241.711
41.23000 248.290
41.24000 252.907
41.25000 246.695
41.26000 238.825
41.27000 232.543
41.28000 234.681
41.29000 237.025
41.30000 238.765
41.31000 239.026
41.32000 239.219
41.33000 238.260
41.34000 235.393
41.35000 232.497
41.36000 230.985
41.37000 234.844
41.38000 237.438
41.39000 237.564
41.40000 235.947
41.41000 234.497
41.42000 238.249
41.43000 244.473
41.44000 250.378
41.45000 242.509
41.46000 231.161
41.47000 221.239
41.48000 222.587
41.49000 226.352
41.50000 229.450
41.51000 229.231
41.52000 228.559
41.53000 228.035
41.54000 236.319
41.55000 243.477
41.56000 246.608
41.57000 240.750
41.58000 234.559
41.59000 231.364
41.60000 232.676
41.61000 234.033
41.62000 234.282
41.63000 233.445
41.64000 232.634
41.65000 234.022
41.66000 236.820
41.67000 239.620
41.68000 242.462
41.69000 245.323
41.70000 248.011
41.71000 247.547
41.72000 246.282
41.73000 245.141
41.74000 244.881
41.75000 244.792
41.76000 244.580
41.77000 243.823
41.78000 243.000
41.79000 242.373
41.80000 235.673
41.81000 230.076
41.82000 226.240
41.83000 225.982
41.84000 225.829
41.85000 226.706
41.86000 228.987
41.87000 231.275
41.88000 231.266
41.89000 229.239
41.90000 227.273
41.91000 228.841
41.92000 232.468
41.93000 236.037
41.94000 238.417
41.95000 240.328
41.96000 242.106
41.97000 239.299
41.98000 235.665
41.99000 232.177
42.00000 229.609
42.01000 227.202
42.02000 225.688
42.03000 227.807
42.04000 230.312
42.05000 232.173
42.06000 235.568
42.07000 238.275
42.08000 239.837
42.09000 239.278
42.10000 238.673
42.11000 236.552
42.12000 232.564
42.13000 228.579
42.14000 226.006
42.15000 224.562
42.16000 223.203
42.17000 225.419
42.18000 229.529
42.19000 233.212
42.20000 229.647
42.21000 223.478
42.22000 217.810
42.23000 216.865
42.24000 217.039
42.25000 217.585
42.26000 220.225
42.27000 223.192
42.28000 224.341
42.29000 218.797
42.30000 212.629
42.31000 208.173
42.32000 228.943
42.33000 245.788
42.34000 252.745
42.35000 243.062
42.36000 233.113
42.37000 229.192
42.38000 231.967
42.39000 234.736
42.40000 235.578
42.41000 235.040
42.42000 234.467
42.43000 232.742
42.44000 230.461
42.45000 228.344
42.46000 228.595
42.47000 229.619
42.48000 230.549
42.49000 229.647
42.50000 228.497
42.51000 226.842
42.52000 222.633
42.53000 218.068
42.54000 214.964
42.55000 216.747
42.56000 218.924
42.57000 220.451
42.58000 219.754
42.59000 219.161
42.60000 219.259
42.61000 220.412
42.62000 221.576
42.63000 223.431
42.64000 225.975
42.65000 228.502
42.66000 230.933
42.67000 233.265
42.68000 235.460
42.69000 234.124
42.70000 231.237
42.71000 228.402
42.72000 226.201
42.73000 224.188
42.74000 222.386
42.75000 228.166
42.76000 234.513
42.77000 238.930
42.78000 234.545
42.79000 229.076
42.80000 223.909
42.81000 219.661
42.82000 215.477
42.83000 212.631
42.84000 218.805
42.85000 223.620
42.86000 226.487
42.87000 226.656
42.88000 226.808
42.89000 225.842
42.90000 223.875
42.91000 221.928
42.92000 225.031
42.93000 230.989
42.94000 236.499
42.95000 232.595
42.96000 224.923
42.97000 217.952
42.98000 218.471
42.99000 221.013
43.00000 223.256
43.01000 226.146
43.02000 228.738
43.03000 231.246
43.04000 233.402
43.05000 235.520
43.06000 235.578
43.07000 229.924
43.08000 223.936
43.09000 219.997
43.10000 225.846
43.11000 230.320
43.12000 231.495
43.13000 228.535
43.14000 225.560
43.15000 221.177
43.16000 215.659
43.17000 210.221
43.18000 211.096
43.19000 215.243
43.20000 219.239
43.21000 220.610
43.22000 221.024
43.23000 221.744
43.24000 225.322
43.25000 229.600
43.26000 233.316
43.27000 230.973
43.28000 228.155
43.29000 225.424
43.30000 223.018
43.31000 220.642
43.32000 218.899
43.33000 218.749
43.34000 218.677
43.35000 218.631
43.36000 220.999
43.37000 222.748
43.38000 223.381
43.39000 222.755
43.40000 222.133
43.41000 222.472
43.42000 223.513
43.43000 224.534
43.44000 226.645
43.45000 229.192
43.46000 231.462
43.47000 229.653
43.48000 226.491
43.49000 223.397
43.50000 220.877
43.51000 218.484
43.52000 216.439
43.53000 218.565
43.54000 220.855
43.55000 222.777
43.56000 223.451
43.57000 224.021
43.58000 225.041
43.59000 227.094
43.60000 229.188
43.61000 230.467
43.62000 223.767
43.63000 218.909
43.64000 217.772
43.65000 220.413
43.66000 223.027
43.67000 222.964
43.68000 221.132
43.69000 219.345
43.70000 216.268
43.71000 212.781
43.72000 209.839
43.73000 213.780
43.74000 219.799
43.75000 224.600
43.76000 220.519
43.77000 214.661
43.78000 209.745
43.79000 206.910
43.80000 204.768
43.81000 205.565
43.82000 215.447
43.83000 225.972
43.84000 231.214
43.85000 225.385
43.86000 219.207
43.87000 215.585
43.88000 215.867
43.89000 216.086
43.90000 219.198
43.91000 224.945
43.92000 230.565
43.93000 227.862
43.94000 220.162
43.95000 212.706
43.96000 212.721
43.97000 215.604
43.98000 218.060
43.99000 215.858
44.00000 212.378
44.01000 208.943
44.02000 205.804
44.03000 202.719
44.04000 200.179
44.05000 203.561
44.06000 206.882
44.07000 208.538
44.08000 205.509
44.09000 202.197
44.10000 202.238
44.11000 208.675
44.12000 215.267
44.13000 218.965
44.14000 215.163
44.15000 212.520
44.16000 214.930
44.17000 221.486
44.18000 227.960
44.19000 230.594
44.20000 231.131
44.21000 231.647
44.22000 228.943
44.23000 225.295
44.24000 221.773
44.25000 219.451
44.26000 217.427
44.27000 215.405
44.28000 213.391
44.29000 211.379
44.30000 209.756
44.31000 208.909
44.32000 208.282
44.33000 209.484
44.34000 215.372
44.35000 221.495
44.36000 224.681
44.37000 222.770
44.38000 220.767
44.39000 219.696
44.40000 214.212
44.41000 210.492
44.42000 211.135
44.43000 215.013
44.44000 218.785
44.45000 218.784
44.46000 216.910
44.47000 215.123
44.48000 213.537
44.49000 212.129
44.50000 210.934
44.51000 211.524
44.52000 212.516
44.53000 213.482
44.54000 214.314
44.55000 215.127
44.56000 215.769
44.57000 217.321
44.58000 218.627
44.59000 218.867
44.60000 216.614
44.61000 214.260
44.62000 214.695
44.63000 219.529
44.64000 224.418
44.65000 226.902
44.66000 233.201
44.67000 237.411
44.68000 240.308
44.69000 242.322
44.70000 244.028
44.71000 237.186
44.72000 226.475
44.73000 216.362
44.74000 218.436
44.75000 223.767
44.76000 228.078
44.77000 224.814
44.78000 220.009
44.79000 216.417
44.80000 218.548
44.81000 221.412
44.82000 223.620
44.83000 230.663
44.84000 236.521
44.85000 238.892
44.86000 233.844
44.87000 228.552
44.88000 229.458
44.89000 239.230
44.90000 249.068
44.91000 249.353
44.92000 240.790
44.93000 232.405
44.94000 236.394
44.95000 247.930
44.96000 258.928
44.97000 257.871
44.98000 251.842
44.99000 246.208
45.00000 253.119
45.01000 262.564
45.02000 270.582
45.03000 269.157
45.04000 266.002
45.05000 263.151
45.06000 261.595
45.07000 260.185
45.08000 259.125
45.09000 257.827
45.10000 256.800
45.11000 256.812
45.12000 258.837
45.13000 260.914
45.14000 261.390
45.15000 259.793
45.16000 258.190
45.17000 256.685
45.18000 255.267
45.19000 253.883
45.20000 254.166
45.21000 255.374
45.22000 256.302
45.23000 252.043
45.24000 245.834
45.25000 240.096
45.26000 245.775
45.27000 253.464
45.28000 260.278
45.29000 261.907
45.30000 262.683
45.31000 262.940
45.32000 261.195
45.33000 259.250
45.34000 257.826
45.35000 256.435
45.36000 255.364
45.37000 255.576
45.38000 258.050
45.39000 260.566
45.40000 262.129
45.41000 262.578
45.42000 263.024
45.43000 259.189
45.44000 252.176
45.45000 245.389
45.46000 246.947
45.47000 252.717
45.48000 258.251
45.49000 260.139
45.50000 260.779
45.51000 261.364
45.52000 262.138
45.53000 262.864
45.54000 263.155
45.55000 261.136
45.56000 258.778
45.57000 256.460
45.58000 254.283
45.59000 252.118
45.60000 250.576
45.61000 246.938
45.62000 244.098
45.63000 241.893
45.64000 240.702
45.65000 239.526
45.66000 239.027
45.67000 239.242
45.68000 239.456
45.69000 240.561
45.70000 242.252
45.71000 243.784
45.72000 240.711
45.73000 235.523
45.74000 230.518
45.75000 227.936
45.76000 226.110
45.77000 224.463
45.78000 228.798
45.79000 233.690
45.80000 235.959
45.81000 225.662
45.82000 213.722
45.83000 205.215
45.84000 207.649
45.85000 210.898
45.86000 213.142
45.87000 213.724
45.88000 214.119
45.89000 215.589
45.90000 218.623
45.91000 221.670
45.92000 223.765
45.93000 224.963
45.94000 226.150
45.95000 228.202
45.96000 230.741
45.97000 233.085
45.98000 230.913
45.99000 226.849
46.00000 223.146
46.01000 223.565
46.02000 225.151
46.03000 226.561
46.04000 222.104
46.05000 217.288
46.06000 212.865
46.07000 210.144
46.08000 207.620
46.09000 205.753
46.10000 205.794
46.11000 205.956
46.12000 206.064
46.13000 202.252
46.14000 199.348
46.15000 200.330
46.16000 206.424
46.17000 212.537
46.18000 216.324
46.19000 218.137
46.20000 219.928
46.21000 219.348
46.22000 217.480
46.23000 215.768
46.24000 217.003
46.25000 219.362
46.26000 220.894
46.27000 214.187
46.28000 205.364
46.29000 197.639
46.30000 193.806
46.31000 191.077
46.32000 189.758
46.33000 193.965
46.34000 198.733
46.35000 202.400
46.36000 203.157
46.37000 203.759
46.38000 204.147
46.39000 208.135
46.40000 211.102
46.41000 209.774
46.42000 203.343
46.43000 196.925
46.44000 195.644
46.45000 198.299
46.46000 200.910
46.47000 202.378
46.48000 203.233
46.49000 204.078
46.50000 204.782
46.51000 205.437
46.52000 205.369
46.53000 198.987
46.54000 191.136
46.55000 184.373
46.56000 188.684
46.57000 193.742
46.58000 197.606
46.59000 197.218
46.60000 196.454
46.61000 195.100
46.62000 192.323
46.63000 189.484
46.64000 187.717
46.65000 199.619
46.66000 208.332
46.67000 208.652
46.68000 199.994
46.69000 191.401
46.70000 191.108
46.71000 196.571
46.72000 201.913
46.73000 202.309
46.74000 200.478
46.75000 198.996
46.76000 202.257
46.77000 207.018
46.78000 211.189
46.79000 210.797
46.80000 209.445
46.81000 208.300
46.82000 208.976
46.83000 209.746
46.84000 208.921
46.85000 202.937
46.86000 196.560
46.87000 191.364
46.88000 188.757
46.89000 186.242
46.90000 184.737
46.91000 187.366
46.92000 189.258
46.93000 194.084
46.94000 201.725
46.95000 209.268
46.96000 209.146
46.97000 204.200
46.98000 199.396
46.99000 200.787
47.00000 204.610
47.01000 207.821
47.02000 203.870
47.03000 197.861
47.04000 193.033
47.05000 196.314
47.06000 201.133
47.07000 205.137
47.08000 201.324
47.09000 197.406
47.10000 194.461
47.11000 194.379
47.12000 194.483
47.13000 193.957
47.14000 192.174
47.15000 190.356
47.16000 189.313
47.17000 192.806
47.18000 195.262
47.19000 196.289
47.20000 196.084
47.21000 195.815
47.22000 192.102
47.23000 186.420
47.24000 180.940
47.25000 184.419
47.26000 190.957
47.27000 196.841
47.28000 196.083
47.29000 193.591
47.30000 191.376
47.31000 190.859
47.32000 190.631
47.33000 190.445
47.34000 184.443
47.35000 179.044
47.36000 176.939
47.37000 183.663
47.38000 190.873
47.39000 194.371
47.40000 191.125
47.41000 187.738
47.42000 185.883
47.43000 191.602
47.44000 195.534
47.45000 195.944
47.46000 193.612
47.47000 191.210
47.48000 185.961
47.49000 179.233
47.50000 172.794
47.51000 174.057
47.52000 177.764
47.53000 181.027
47.54000 180.332
47.55000 178.701
47.56000 177.109
47.57000 175.729
47.58000 174.381
47.59000 173.306
47.60000 180.379
47.61000 186.683
47.62000 191.229
47.63000 191.481
47.64000 191.538
47.65000 191.413
47.66000 190.987
47.67000 190.557
47.68000 190.332
47.69000 192.993
47.70000 194.767
47.71000 193.104
47.72000 189.019
47.73000 184.968
47.74000 181.962
47.75000 179.451
47.76000 177.069
47.77000 181.663
47.78000 187.964
47.79000 193.678
47.80000 194.765
47.81000 194.863
47.82000 193.990
47.83000 188.303
47.84000 181.963
47.85000 177.019
47.86000 176.663
47.87000 176.666
47.88000 179.019
47.89000 186.602
47.90000 194.377
47.91000 197.065
47.92000 192.123
47.93000 187.106
47.94000 184.580
47.95000 184.487
47.96000 184.402
47.97000 185.011
47.98000 186.064
47.99000 187.004
48.00000 185.128
48.01000 182.038
48.02000 179.136
48.03000 177.813
48.04000 177.027
48.05000 176.570
48.06000 178.421
48.07000 180.717
48.08000 182.420
48.09000 181.469
48.10000 180.199
48.11000 179.231
48.12000 180.386
48.13000 181.406
48.14000 183.827
48.15000 189.090
48.16000 194.435
48.17000 195.916
48.18000 192.148
48.19000 188.351
48.20000 188.811
48.21000 192.999
48.22000 197.109
48.23000 196.767
48.24000 193.839
48.25000 190.688
48.26000 183.011
48.27000 173.555
48.28000 164.767
48.29000 168.444
48.30000 174.745
48.31000 180.599
48.32000 183.667
48.33000 186.251
48.34000 187.794
48.35000 185.116
48.36000 181.991
48.37000 179.672
48.38000 185.988
48.39000 191.274
48.40000 193.406
48.41000 189.720
48.42000 185.906
48.43000 183.608
48.44000 183.172
48.45000 182.741
48.46000 183.847
48.47000 186.160
48.48000 188.353
48.49000 185.517
48.50000 180.023
48.51000 174.873
48.52000 175.518
48.53000 178.238
48.54000 180.737
48.55000 179.186
48.56000 176.934
48.57000 175.649
48.58000 179.781
48.59000 184.754
48.60000 188.524
48.61000 187.881
48.62000 186.830
48.63000 186.070
48.64000 185.737
48.65000 185.497
48.66000 185.308
48.67000 185.204
48.68000 185.101
48.69000 182.507
48.70000 177.155
48.71000 171.821
48.72000 169.945
48.73000 170.539
48.74000 171.193
48.75000 173.809
48.76000 177.368
48.77000 180.974
48.78000 185.245
48.79000 189.732
48.80000 193.803
48.81000 187.834
48.82000 180.640
48.83000 175.180
48.84000 178.458
48.85000 182.947
48.86000 185.722
48.87000 182.784
48.88000 179.386
48.89000 177.005
48.90000 176.421
48.91000 176.032
48.92000 175.978
48.93000 176.436
48.94000 176.899
48.95000 178.671
48.96000 181.743
48.97000 184.795
48.98000 183.802
48.99000 180.239
49.00000 176.964
49.01000 181.067
49.02000 188.402
49.03000 194.922
49.04000 191.463
49.05000 185.043
49.06000 179.298
49.07000 180.667
49.08000 183.079
49.09000 184.493
49.10000 181.369
49.11000 177.687
49.12000 175.638
49.13000 178.541
49.14000 181.785
49.15000 183.990
49.16000 180.568
49.17000 177.888
49.18000 176.541
49.19000 177.037
49.20000 177.543
49.21000 177.038
49.22000 175.630
49.23000 174.236
49.24000 176.377
49.25000 180.510
49.26000 184.111
49.27000 176.588
49.28000 164.626
49.29000 153.816
49.30000 155.250
49.31000 159.981
49.32000 164.154
49.33000 163.868
49.34000 162.944
49.35000 163.461
49.36000 169.913
49.37000 177.007
49.38000 180.915
49.39000 176.018
49.40000 170.610
49.41000 167.055
49.42000 173.218
49.43000 177.919
49.44000 181.533
49.45000 183.789
49.46000 186.025
49.47000 182.612
49.48000 174.653
49.49000 166.810
49.50000 164.757
49.51000 165.778
49.52000 166.782
49.53000 167.490
49.54000 168.091
49.55000 168.818
49.56000 170.725
49.57000 172.919
49.58000 174.825
49.59000 171.662
49.60000 168.283
49.61000 166.257
49.62000 169.276
49.63000 172.773
49.64000 175.713
49.65000 177.253
49.66000 178.725
49.67000 179.658
49.68000 174.340
49.69000 170.405
49.70000 168.817
49.71000 169.870
49.72000 170.931
49.73000 172.914
49.74000 175.568
49.75000 178.169
49.76000 177.005
49.77000 174.114
49.78000 171.397
49.79000 171.243
49.80000 171.937
49.81000 172.728
49.82000 174.313
49.83000 176.074
49.84000 177.577
49.85000 176.343
49.86000 174.978
49.87000 173.793
49.88000 173.215
49.89000 172.688
49.90000 172.027
49.91000 171.058
49.92000 170.077
49.93000 169.479
49.94000 165.857
49.95000 163.244
49.96000 166.693
49.97000 176.276
49.98000 185.771
49.99000 186.756
50.00000 182.129
50.01000 177.620
50.02000 175.825
50.03000 175.264
50.04000 174.654
50.05000 173.428
50.06000 172.018
50.07000 171.268
50.08000 175.323
50.09000 180.336
50.10000 184.541
50.11000 182.740
50.12000 180.615
50.13000 178.934
50.14000 178.620
50.15000 178.401
50.16000 178.570
50.17000 179.546
50.18000 180.548
50.19000 181.135
50.20000 174.758
50.21000 170.234
50.22000 167.285
50.23000 165.764
50.24000 164.297
50.25000 166.323
50.26000 170.439
50.27000 174.424
50.28000 177.616
50.29000 180.330
50.30000 182.976
50.31000 184.875
50.32000 186.569
50.33000 187.775
50.34000 185.817
50.35000 183.290
50.36000 181.211
50.37000 180.984
50.38000 180.966
50.39000 180.655
50.40000 179.523
50.41000 178.342
50.42000 177.500
50.43000 177.304
50.44000 177.124
50.45000 177.023
50.46000 177.898
50.47000 178.507
50.48000 179.215
50.49000 180.002
50.50000 180.806
50.51000 182.347
50.52000 184.289
50.53000 186.156
50.54000 184.481
50.55000 181.690
50.56000 179.266
50.57000 180.327
50.58000 182.252
50.59000 184.117
50.60000 185.630
50.61000 187.086
50.62000 188.260
50.63000 188.625
50.64000 188.858
50.65000 190.363
50.66000 195.118
50.67000 200.036
50.68000 201.941
50.69000 198.635
50.70000 195.236
50.71000 193.421
50.72000 194.559
50.73000 195.319
50.74000 192.695
50.75000 187.570
50.76000 182.517
50.77000 179.972
50.78000 178.671
50.79000 177.432
50.80000 179.831
50.81000 183.188
50.82000 186.207
50.83000 186.408
50.84000 185.975
50.85000 186.176
50.86000 189.677
50.87000 193.653
50.88000 196.789
50.89000 190.096
50.90000 184.065
50.91000 179.372
50.92000 177.794
50.93000 176.342
50.94000 175.587
50.95000 175.925
50.96000 176.277
50.97000 176.456
50.98000 185.662
50.99000 191.783
51.00000 193.053
51.01000 191.073
51.02000 189.073
51.03000 186.489
51.04000 183.641
51.05000 180.954
51.06000 177.586
51.07000 174.307
51.08000 170.970
51.09000 167.206
51.10000 163.354
51.11000 161.473
51.12000 168.847
51.13000 177.404
51.14000 183.997
51.15000 182.814
51.16000 181.433
51.17000 180.271
51.18000 179.575
51.19000 178.895
51.20000 179.288
51.21000 181.212
51.22000 183.148
51.23000 180.879
51.24000 174.730
51.25000 168.643
51.26000 166.810
51.27000 167.566
51.28000 168.288
51.29000 168.294
51.30000 168.004
51.31000 167.734
51.32000 167.194
51.33000 166.636
51.34000 166.390
51.35000 168.198
51.36000 170.381
51.37000 171.562
51.38000 168.481
51.39000 164.919
51.40000 162.242
51.41000 165.075
51.42000 167.554
51.43000 168.239
51.44000 165.458
51.45000 162.589
51.46000 161.490
51.47000 162.673
51.48000 163.865
51.49000 165.669
51.50000 167.975
51.51000 170.219
51.52000 169.416
51.53000 166.930
51.54000 164.693
51.55000 167.048
51.56000 171.124
51.57000 174.890
51.58000 174.424
51.59000 173.047
51.60000 171.842
51.61000 171.648
51.62000 171.618
51.63000 171.958
51.64000 173.721
51.65000 175.624
51.66000 177.017
51.67000 171.136
51.68000 166.309
51.69000 162.177
51.70000 159.266
51.71000 156.378
51.72000 156.854
51.73000 161.250
51.74000 165.638
51.75000 166.733
51.76000 165.361
51.77000 164.007
51.78000 163.299
51.79000 162.916
51.80000 162.511
51.81000 161.757
51.82000 160.885
51.83000 160.089
51.84000 159.553
51.85000 159.131
51.86000 159.018
51.87000 160.549
51.88000 162.320
51.89000 163.862
51.90000 164.600
51.91000 165.269
51.92000 165.745
51.93000 159.945
51.94000 155.327
51.95000 155.774
51.96000 164.311
51.97000 172.954
51.98000 175.442
51.99000 171.483
52.00000 167.544
52.01000 165.060
52.02000 163.585
52.03000 162.101
52.04000 160.401
52.05000 158.601
52.06000 156.847
52.07000 155.708
52.08000 154.759
52.09000 153.905
52.10000 156.623
52.11000 159.655
52.12000 162.244
52.13000 162.715
52.14000 162.911
52.15000 163.233
52.16000 163.956
52.17000 164.710
52.18000 165.229
52.19000 169.873
52.20000 173.466
52.21000 172.943
52.22000 166.455
52.23000 159.919
52.24000 157.532
52.25000 159.045
52.26000 160.544
52.27000 158.492
52.28000 154.323
52.29000 150.450
52.30000 153.360
52.31000 159.103
52.32000 164.375
52.33000 164.290
52.34000 162.692
52.35000 161.273
52.36000 157.954
52.37000 154.769
52.38000 151.489
52.39000 147.795
52.40000 144.054
52.41000 142.285
52.42000 146.219
52.43000 150.513
52.44000 153.382
52.45000 156.402
52.46000 158.644
52.47000 158.310
52.48000 154.599
52.49000 150.876
52.50000 149.161
52.51000 149.145
52.52000 149.129
52.53000 150.876
52.54000 153.544
52.55000 156.021
52.56000 154.882
52.57000 152.367
52.58000 150.252
52.59000 152.107
52.60000 154.978
52.61000 157.491
52.62000 159.728
52.63000 161.605
52.64000 162.900
52.65000 161.913
52.66000 160.695
52.67000 158.134
52.68000 152.034
52.69000 145.747
52.70000 141.689
52.71000 150.405
52.72000 156.958
52.73000 159.384
52.74000 156.922
52.75000 154.453
52.76000 152.286
52.77000 150.349
52.78000 148.446
52.79000 151.474
52.80000 156.838
52.81000 161.645
52.82000 157.604
52.83000 150.497
52.84000 144.231
52.85000 145.281
52.86000 148.030
52.87000 150.396
52.88000 154.042
52.89000 157.292
52.90000 159.394
52.91000 157.421
52.92000 155.089
52.93000 153.677
52.94000 154.472
52.95000 155.363
52.96000 155.917
52.97000 153.906
52.98000 152.432
52.99000 154.062
53.00000 159.002
53.01000 163.895
53.02000 162.946
53.03000 157.956
53.04000 153.080
53.05000 153.728
53.06000 156.813
53.07000 159.669
53.08000 159.426
53.09000 158.205
53.10000 156.940
53.11000 155.334
53.12000 153.656
53.13000 152.236
53.14000 158.700
53.15000 164.987
53.16000 168.998
53.17000 165.665
53.18000 161.773
53.19000 158.562
53.20000 156.842
53.21000 155.175
53.22000 154.178
53.23000 157.687
53.24000 160.205
53.25000 160.916
53.26000 159.900
53.27000 158.855
53.28000 155.616
53.29000 151.000
53.30000 146.516
53.31000 145.243
53.32000 145.327
53.33000 145.209
53.34000 142.748
53.35000 139.615
53.36000 137.852
53.37000 145.469
53.38000 154.858
53.39000 162.657
53.40000 165.155
53.41000 166.706
53.42000 167.781
53.43000 167.455
53.44000 167.039
53.45000 166.734
53.46000 166.652
53.47000 166.576
53.48000 166.533
53.49000 159.141
53.50000 153.958
53.51000 153.315
53.52000 156.576
53.53000 159.714
53.54000 156.148
53.55000 148.760
53.56000 141.636
53.57000 141.606
53.58000 144.155
53.59000 146.346
53.60000 144.916
53.61000 142.545
53.62000 140.915
53.63000 143.818
53.64000 147.492
53.65000 150.483
53.66000 152.756
53.67000 154.553
53.68000 156.396
53.69000 158.364
53.70000 160.339
53.71000 160.091
53.72000 155.814
53.73000 151.453
53.74000 149.068
53.75000 143.257
53.76000 139.268
53.77000 137.964
53.78000 138.744
53.79000 139.601
53.80000 143.534
53.81000 149.063
53.82000 154.352
53.83000 154.194
53.84000 152.263
53.85000 150.589
53.86000 151.195
53.87000 152.338
53.88000 153.276
53.89000 153.089
53.90000 152.731
53.91000 152.446
53.92000 151.424
53.93000 150.546
53.94000 150.227
53.95000 151.269
53.96000 152.373
53.97000 153.024
53.98000 152.929
53.99000 152.823
54.00000 152.768
54.01000 147.879
54.02000 144.590
54.03000 143.370
54.04000 143.604
54.05000 143.905
54.06000 146.251
54.07000 149.563
54.08000 152.704
54.09000 150.352
54.10000 146.563
54.11000 143.161
54.12000 142.789
54.13000 143.064
54.14000 143.857
54.15000 147.206
54.16000 150.902
54.17000 153.782
54.18000 152.052
54.19000 150.388
54.20000 149.076
54.21000 148.546
54.22000 148.044
54.23000 147.639
54.24000 147.378
54.25000 147.119
54.26000 147.496
54.27000 148.495
54.28000 149.476
54.29000 149.075
54.30000 147.794
54.31000 146.616
54.32000 147.999
54.33000 150.484
54.34000 152.818
54.35000 153.883
54.36000 154.518
54.37000 155.133
54.38000 155.609
54.39000 156.057
54.40000 156.117
54.41000 154.443
54.42000 152.562
54.43000 151.131
54.44000 147.216
54.45000 144.005
54.46000 143.179
54.47000 147.172
54.48000 151.304
54.49000 156.137
54.50000 161.921
54.51000 167.708
54.52000 169.560
54.53000 167.974
54.54000 166.338
54.55000 161.908
54.56000 155.861
54.57000 150.038
54.58000 148.717
54.59000 149.163
54.60000 149.577
54.61000 148.321
54.62000 146.791
54.63000 145.412
54.64000 144.977
54.65000 144.706
54.66000 144.735
54.67000 145.982
54.68000 147.357
54.69000 148.376
54.70000 150.109
54.71000 151.486
54.72000 152.792
54.73000 153.967
54.74000 155.138
54.75000 154.845
54.76000 152.758
54.77000 150.671
54.78000 149.978
54.79000 150.383
54.80000 150.759
54.81000 149.973
54.82000 148.573
54.83000 147.326
54.84000 148.645
54.85000 150.880
54.86000 152.932
54.87000 153.421
54.88000 153.523
54.89000 153.294
54.90000 151.218
54.91000 148.857
54.92000 147.192
54.93000 148.080
54.94000 149.204
54.95000 150.014
54.96000 149.447
54.97000 148.963
54.98000 148.200
54.99000 146.973
55.00000 145.738
55.01000 146.488
55.02000 149.429
55.03000 152.360
55.04000 155.629
55.05000 159.107
55.06000 162.443
55.07000 161.207
55.08000 157.780
55.09000 154.334
55.10000 150.613
55.11000 146.802
55.12000 143.346
55.13000 145.913
55.14000 149.329
55.15000 152.197
55.16000 152.313
55.17000 152.049
55.18000 151.546
55.19000 150.250
55.20000 148.891
55.21000 147.939
55.22000 152.345
55.23000 155.830
55.24000 156.443
55.25000 152.691
55.26000 148.894
55.27000 148.822
55.28000 152.440
55.29000 156.034
55.30000 157.215
55.31000 156.841
55.32000 156.498
55.33000 156.959
55.34000 157.771
55.35000 158.723
55.36000 161.377
55.37000 164.536
55.38000 167.361
55.39000 164.823
55.40000 161.694
55.41000 159.650
55.42000 162.529
55.43000 166.010
55.44000 168.320
55.45000 167.088
55.46000 165.613
55.47000 164.612
55.48000 169.210
55.49000 172.765
55.50000 176.640
55.51000 180.957
55.52000 185.273
55.53000 185.077
55.54000 180.866
55.55000 176.700
55.56000 180.195
55.57000 188.018
55.58000 195.702
55.59000 200.499
55.60000 204.148
55.61000 207.519
55.62000 207.956
55.63000 207.604
55.64000 207.294
55.65000 219.266
55.66000 231.449
55.67000 241.904
55.68000 245.271
55.69000 247.874
55.70000 252.043
55.71000 260.530
55.72000 269.266
55.73000 275.001
55.74000 280.801
55.75000 285.070
55.76000 291.942
55.77000 302.054
55.78000 312.175
55.79000 322.019
55.80000 331.641
55.81000 341.121
55.82000 349.996
55.83000 358.294
55.84000 366.837
55.85000 379.603
55.86000 393.901
55.87000 407.727
55.88000 417.187
55.89000 425.584
55.90000 432.873
55.91000 446.585
55.92000 459.130
55.93000 468.019
55.94000 463.308
55.95000 457.314
55.96000 453.352
55.97000 454.493
55.98000 455.878
55.99000 456.755
56.00000 461.474
56.01000 464.942
56.02000 462.667
56.03000 453.944
56.04000 445.216
56.05000 436.624
56.06000 428.130
56.07000 419.803
56.08000 416.090
56.09000 414.677
56.10000 412.678
56.11000 402.119
56.12000 388.735
56.13000 376.181
56.14000 370.401
56.15000 366.114
56.16000 362.455
56.17000 355.645
56.18000 349.539
56.19000 341.409
56.20000 326.441
56.21000 310.915
56.22000 298.209
56.23000 291.954
56.24000 285.951
56.25000 282.293
56.26000 278.361
56.27000 275.548
56.28000 269.508
56.29000 260.212
56.30000 250.959
56.31000 245.806
56.32000 243.347
56.33000 240.952
56.34000 232.469
56.35000 221.801
56.36000 211.759
56.37000 209.532
56.38000 209.651
56.39000 209.003
56.40000 202.794
56.41000 195.479
56.42000 189.347
56.43000 183.856
56.44000 179.354
56.45000 176.174
56.46000 177.058
56.47000 178.228
56.48000 178.067
56.49000 175.136
56.50000 172.119
56.51000 170.354
56.52000 170.569
56.53000 170.729
56.54000 170.545
56.55000 170.050
56.56000 169.562
56.57000 169.549
56.58000 169.819
56.59000 170.081
56.60000 166.391
56.61000 161.394
56.62000 156.834
56.63000 156.998
56.64000 158.451
56.65000 160.348
56.66000 165.118
56.67000 170.402
56.68000 174.748
56.69000 167.231
56.70000 159.981
56.71000 155.212
56.72000 157.387
56.73000 159.974
56.74000 159.967
56.75000 155.040
56.76000 149.995
56.77000 147.172
56.78000 143.262
56.79000 140.555
56.80000 139.416
56.81000 139.556
56.82000 139.786
56.83000 144.086
56.84000 150.598
56.85000 156.852
56.86000 154.745
56.87000 149.893
56.88000 145.634
56.89000 146.986
56.90000 149.726
56.91000 152.608
56.92000 156.313
56.93000 160.149
56.94000 163.239
56.95000 155.689
56.96000 148.727
56.97000 144.885
56.98000 148.992
56.99000 153.494
57.00000 155.021
57.01000 151.416
57.02000 147.721
57.03000 145.751
57.04000 143.277
57.05000 141.597
57.06000 140.810
57.07000 140.681
57.08000 140.609
57.09000 142.513
57.10000 145.393
57.11000 148.137
57.12000 146.168
57.13000 142.881
57.14000 140.120
57.15000 141.740
57.16000 144.340
57.17000 146.997
57.18000 149.945
57.19000 152.934
57.20000 155.289
57.21000 151.023
57.22000 147.159
57.23000 143.502
57.24000 140.327
57.25000 137.172
57.26000 135.096
57.27000 134.711
57.28000 134.346
57.29000 134.161
57.30000 138.957
57.31000 142.145
57.32000 142.875
57.33000 141.965
57.34000 141.055
57.35000 140.150
57.36000 139.247
57.37000 138.395
57.38000 142.650
57.39000 147.979
57.40000 152.134
57.41000 147.630
57.42000 141.375
57.43000 137.198
57.44000 142.758
57.45000 149.557
57.46000 154.791
57.47000 148.549
57.48000 142.954
57.49000 139.633
57.50000 141.119
57.51000 142.761
57.52000 143.227
57.53000 142.021
57.54000 140.803
57.55000 140.257
57.56000 140.329
57.57000 140.376
57.58000 138.759
57.59000 136.133
57.60000 133.608
57.61000 133.328
57.62000 133.967
57.63000 134.565
57.64000 135.970
57.65000 137.448
57.66000 138.989
57.67000 140.948
57.68000 142.982
57.69000 144.649
57.70000 144.756
57.71000 144.689
57.72000 144.638
57.73000 139.721
57.74000 135.646
57.75000 133.772
57.76000 136.136
57.77000 138.607
57.78000 140.583
57.79000 141.922
57.80000 143.258
57.81000 141.623
57.82000 137.537
57.83000 133.537
57.84000 133.691
57.85000 136.135
57.86000 138.484
57.87000 139.101
57.88000 139.070
57.89000 139.041
57.90000 138.961
57.91000 138.877
57.92000 138.701
57.93000 137.982
57.94000 137.175
57.95000 136.911
57.96000 138.733
57.97000 140.761
57.98000 142.244
57.99000 139.830
58.00000 137.814
58.01000 136.683
58.02000 137.099
58.03000 137.545
58.04000 136.120
58.05000 132.525
58.06000 128.937
58.07000 129.730
58.08000 133.776
58.09000 137.690
58.10000 136.818
58.11000 133.545
58.12000 130.594
58.13000 132.612
58.14000 136.319
58.15000 139.703
58.16000 136.397
58.17000 132.113
58.18000 129.376
58.19000 134.808
58.20000 141.433
58.21000 145.936
58.22000 143.049
58.23000 139.528
58.24000 137.025
58.25000 135.259
58.26000 133.939
58.27000 133.785
58.28000 135.489
58.29000 137.217
58.30000 136.312
58.31000 132.657
58.32000 129.021
58.33000 130.206
58.34000 134.606
58.35000 138.915
58.36000 140.648
58.37000 141.204
58.38000 141.640
58.39000 140.507
58.40000 138.888
58.41000 137.430
58.42000 138.944
58.43000 140.808
58.44000 142.541
58.45000 143.652
58.46000 144.682
58.47000 145.743
58.48000 146.905
58.49000 148.073
58.50000 148.879
58.51000 141.813
58.52000 136.308
58.53000 133.667
58.54000 135.164
58.55000 136.694
58.56000 135.849
58.57000 132.779
58.58000 129.736
58.59000 131.010
58.60000 134.870
58.61000 138.439
58.62000 135.346
58.63000 129.481
58.64000 124.330
58.65000 127.272
58.66000 132.492
58.67000 137.128
58.68000 135.279
58.69000 132.635
58.70000 131.143
58.71000 134.615
58.72000 138.655
58.73000 141.763
58.74000 142.179
58.75000 142.427
58.76000 142.592
58.77000 138.379
58.78000 135.173
58.79000 133.621
58.80000 134.234
58.81000 134.855
58.82000 135.380
58.83000 135.825
58.84000 136.264
58.85000 138.524
58.86000 141.720
58.87000 144.649
58.88000 142.559
58.89000 138.565
58.90000 135.056
58.91000 136.347
58.92000 138.863
58.93000 141.063
58.94000 140.660
58.95000 139.944
58.96000 139.080
58.97000 137.644
58.98000 136.150
58.99000 134.717
59.00000 133.447
59.01000 132.185
59.02000 131.371
59.03000 130.100
59.04000 129.165
59.05000 130.564
59.06000 134.719
59.07000 138.865
59.08000 140.054
59.09000 138.990
59.10000 137.945
59.11000 135.385
59.12000 132.164
59.13000 129.132
59.14000 129.099
59.15000 130.101
59.16000 130.900
59.17000 129.937
59.18000 128.566
59.19000 127.386
59.20000 130.518
59.21000 133.713
59.22000 135.760
59.23000 133.740
59.24000 131.364
59.25000 130.132
59.26000 131.639
59.27000 133.264
59.28000 134.274
59.29000 138.247
59.30000 141.135
59.31000 141.005
59.32000 137.668
59.33000 134.330
59.34000 131.022
59.35000 127.736
59.36000 124.525
59.37000 125.254
59.38000 127.705
59.39000 130.255
59.40000 134.141
59.41000 138.447
59.42000 141.856
59.43000 138.384
59.44000 133.474
59.45000 129.321
59.46000 126.451
59.47000 124.191
59.48000 123.420
59.49000 127.441
59.50000 131.825
59.51000 135.898
59.52000 139.298
59.53000 142.673
59.54000 144.688
59.55000 132.774
59.56000 124.240
59.57000 123.086
59.58000 128.967
59.59000 134.777
59.60000 135.200
59.61000 132.255
59.62000 129.394
59.63000 127.602
59.64000 126.330
59.65000 125.329
59.66000 127.477
59.67000 130.524
59.68000 133.060
59.69000 132.105
59.70000 130.493
59.71000 129.155
59.72000 130.744
59.73000 132.342
59.74000 133.706
59.75000 134.385
59.76000 135.020
59.77000 135.239
59.78000 134.631
59.79000 134.000
59.80000 133.640
59.81000 128.224
59.82000 124.429
59.83000 122.838
59.84000 123.138
59.85000 123.529
59.86000 128.776
59.87000 136.783
59.88000 144.502
59.89000 140.274
59.90000 131.971
59.91000 124.514
59.92000 125.592
59.93000 128.884
59.94000 132.079
59.95000 134.681
59.96000 137.183
59.97000 139.218
59.98000 139.074
59.99000 138.773
60.00000 138.968
60.01000 140.486
60.02000 142.075
60.03000 141.392
60.04000 136.602
60.05000 131.727
60.06000 129.065
60.07000 131.688
60.08000 133.485
60.09000 132.490
60.10000 129.333
60.11000 126.285
60.12000 127.548
60.13000 131.041
60.14000 134.382
60.15000 132.525
60.16000 129.099
60.17000 126.196
60.18000 127.924
60.19000 130.741
60.20000 133.211
60.21000 133.786
60.22000 134.073
60.23000 134.302
60.24000 134.632
60.25000 134.905
60.26000 135.673
60.27000 137.643
60.28000 139.668
60.29000 140.154
60.30000 138.113
60.31000 136.036
60.32000 134.957
60.33000 136.906
60.34000 138.204
60.35000 137.113
60.36000 134.348
60.37000 131.652
60.38000 131.078
60.39000 131.504
60.40000 131.907
60.41000 130.834
60.42000 129.410
60.43000 127.927
60.44000 125.984
60.45000 123.943
60.46000 122.324
60.47000 122.782
60.48000 123.520
60.49000 124.095
60.50000 124.946
60.51000 125.640
60.52000 125.056
60.53000 121.642
60.54000 118.126
60.55000 118.604
60.56000 125.039
60.57000 131.531
60.58000 135.229
60.59000 136.216
60.60000 137.173
60.61000 135.694
60.62000 132.666
60.63000 129.787
60.64000 130.532
60.65000 132.832
60.66000 134.992
60.67000 134.519
60.68000 133.391
60.69000 132.091
60.70000 129.597
60.71000 126.874
60.72000 124.897
60.73000 126.235
60.74000 127.970
60.75000 129.288
60.76000 135.349
60.77000 140.363
60.78000 141.114
60.79000 133.273
60.80000 125.187
60.81000 123.160
60.82000 129.318
60.83000 135.517
60.84000 136.217
60.85000 132.129
60.86000 128.129
60.87000 129.120
60.88000 132.992
60.89000 136.650
60.90000 136.023
60.91000 133.720
60.92000 131.581
60.93000 132.177
60.94000 133.365
60.95000 134.466
60.96000 135.032
60.97000 135.506
60.98000 136.147
60.99000 137.463
61.00000 138.850
61.01000 139.878
61.02000 134.078
61.03000 129.279
61.04000 127.780
61.05000 132.333
61.06000 137.017
61.07000 137.952
61.08000 134.312
61.09000 130.667
61.10000 130.494
61.11000 133.039
61.12000 135.498
61.13000 134.348
61.14000 131.304
61.15000 128.513
61.16000 129.935
61.17000 132.858
61.18000 135.541
61.19000 136.407
61.20000 136.792
61.21000 137.192
61.22000 137.668
61.23000 138.157
61.24000 137.493
61.25000 132.623
61.26000 127.366
61.27000 123.578
61.28000 128.425
61.29000 132.445
61.30000 136.522
61.31000 140.693
61.32000 144.866
61.33000 144.580
61.34000 139.391
61.35000 134.221
61.36000 132.299
61.37000 132.687
61.38000 133.021
61.39000 131.668
61.40000 129.508
61.41000 127.779
61.42000 132.139
61.43000 138.472
61.44000 144.214
61.45000 145.534
61.46000 145.855
61.47000 145.615
61.48000 142.568
61.49000 139.135
61.50000 137.518
61.51000 141.926
61.52000 146.813
61.53000 150.232
61.54000 165.903
61.55000 178.098
61.56000 190.335
61.57000 202.637
61.58000 214.940
61.59000 224.106
61.60000 230.175
61.61000 236.203
61.62000 240.720
61.63000 244.209
61.64000 247.805
61.65000 254.125
61.66000 261.631
61.67000 268.948
61.68000 273.971
61.69000 278.318
61.70000 282.205
61.71000 276.199
61.72000 269.280
61.73000 262.975
61.74000 259.440
61.75000 256.243
61.76000 251.802
61.77000 243.605
61.78000 235.152
61.79000 229.420
61.80000 221.023
61.81000 214.702
61.82000 205.759
61.83000 193.215
61.84000 180.653
61.85000 171.733
61.86000 166.046
61.87000 160.417
61.88000 155.284
61.89000 150.548
61.90000 146.054
61.91000 146.539
61.92000 149.001
61.93000 150.861
61.94000 146.391
61.95000 140.224
61.96000 134.790
61.97000 134.287
61.98000 134.598
61.99000 135.219
62.00000 137.106
62.01000 139.129
62.02000 139.533
62.03000 135.491
62.04000 131.192
62.05000 128.374
62.06000 132.558
62.07000 135.752
62.08000 137.210
62.09000 136.512
62.10000 135.804
62.11000 134.008
62.12000 131.339
62.13000 128.711
62.14000 129.513
62.15000 132.065
62.16000 134.562
62.17000 136.099
62.18000 137.290
62.19000 138.629
62.20000 141.332
62.21000 144.367
62.22000 146.999
62.23000 144.171
62.24000 141.031
62.25000 138.299
62.26000 137.082
62.27000 136.007
62.28000 135.715
62.29000 137.387
62.30000 139.152
62.31000 140.268
62.32000 136.864
62.33000 134.342
62.34000 132.854
62.35000 132.523
62.36000 132.203
62.37000 133.572
62.38000 136.162
62.39000 138.701
62.40000 138.679
62.41000 137.462
62.42000 136.365
62.43000 136.992
62.44000 138.188
62.45000 138.967
62.46000 136.363
62.47000 133.016
62.48000 130.161
62.49000 137.229
62.50000 144.348
62.51000 150.082
62.52000 151.149
62.53000 151.836
62.54000 151.420
62.55000 148.488
62.56000 145.458
62.57000 143.614
62.58000 139.200
62.59000 136.027
62.60000 134.787
62.61000 135.488
62.62000 136.199
62.63000 137.865
62.64000 140.156
62.65000 142.388
62.66000 141.851
62.67000 140.170
62.68000 138.431
62.69000 135.969
62.70000 133.289
62.71000 130.978
62.72000 131.319
62.73000 132.187
62.74000 132.913
62.75000 133.354
62.76000 133.691
62.77000 134.716
62.78000 137.850
62.79000 141.132
62.80000 143.871
62.81000 145.480
62.82000 147.055
62.83000 147.975
62.84000 144.154
62.85000 141.446
62.86000 141.334
62.87000 143.566
62.88000 145.778
62.89000 146.771
62.90000 147.038
62.91000 147.297
62.92000 148.754
62.93000 150.586
62.94000 151.860
62.95000 147.105
62.96000 140.712
62.97000 135.813
62.98000 140.529
62.99000 146.961
63.00000 152.247
63.01000 149.146
63.02000 145.843
63.03000 143.887
63.04000 145.684
63.05000 147.703
63.06000 146.964
63.07000 141.008
63.08000 134.928
63.09000 131.531
63.10000 143.082
63.11000 151.103
63.12000 154.449
63.13000 153.996
63.14000 153.533
63.15000 152.640
63.16000 151.515
63.17000 150.434
63.18000 151.821
63.19000 153.967
63.20000 155.676
63.21000 153.277
63.22000 149.864
63.23000 146.576
63.24000 144.009
63.25000 141.556
63.26000 139.582
63.27000 139.837
63.28000 140.218
63.29000 140.552
63.30000 140.770
63.31000 140.982
63.32000 142.487
63.33000 146.217
63.34000 149.986
63.35000 151.993
63.36000 148.697
63.37000 146.464
63.38000 147.022
63.39000 149.632
63.40000 152.181
63.41000 152.652
63.42000 152.097
63.43000 151.569
63.44000 149.230
63.45000 146.503
63.46000 144.309
63.47000 146.537
63.48000 149.752
63.49000 151.805
63.50000 147.835
63.51000 143.006
63.52000 139.203
63.53000 137.716
63.54000 136.680
63.55000 137.913
63.56000 144.404
63.57000 151.106
63.58000 153.367
63.59000 148.685
63.60000 143.922
63.61000 141.513
63.62000 141.847
63.63000 142.088
63.64000 144.193
63.65000 147.539
63.66000 150.786
63.67000 151.324
63.68000 150.646
63.69000 150.006
63.70000 151.247
63.71000 152.908
63.72000 154.509
63.73000 155.672
63.74000 156.748
63.75000 156.877
63.76000 152.585
63.77000 147.732
63.78000 143.999
63.79000 146.464
63.80000 148.766
63.81000 150.850
63.82000 152.474
63.83000 154.083
63.84000 156.461
63.85000 159.931
63.86000 163.407
63.87000 163.325
63.88000 159.979
63.89000 156.622
63.90000 152.508
63.91000 147.936
63.92000 143.681
63.93000 146.406
63.94000 151.984
63.95000 157.193
63.96000 154.776
63.97000 150.675
63.98000 147.637
63.99000 151.558
64.00000 156.742
64.01000 161.208
64.02000 162.641
64.03000 163.734
64.04000 164.555
64.05000 160.447
64.06000 157.005
64.07000 154.030
64.08000 151.954
64.09000 149.900
64.10000 149.623
64.11000 151.626
64.12000 153.634
64.13000 155.575
64.14000 157.454
64.15000 159.282
64.16000 158.672
64.17000 156.722
64.18000 155.017
64.19000 157.782
64.20000 162.212
64.21000 166.303
64.22000 165.643
64.23000 163.985
64.24000 162.055
64.25000 158.538
64.26000 154.762
64.27000 152.431
64.28000 155.634
64.29000 159.380
64.30000 162.116
64.31000 163.565
64.32000 164.631
64.33000 164.389
64.34000 161.859
64.35000 159.287
64.36000 157.545
64.37000 156.764
64.38000 155.986
64.39000 154.095
64.40000 151.391
64.41000 148.789
64.42000 149.868
64.43000 152.788
64.44000 155.818
64.45000 160.534
64.46000 165.823
64.47000 170.648
64.48000 166.778
64.49000 161.598
64.50000 157.157
64.51000 156.615
64.52000 156.639
64.53000 157.867
64.54000 163.281
64.55000 169.053
64.56000 173.150
64.57000 167.732
64.58000 163.307
64.59000 162.255
64.60000 166.560
64.61000 170.932
64.62000 171.735
64.63000 168.823
64.64000 165.926
64.65000 167.093
64.66000 170.960
64.67000 174.673
64.68000 174.051
64.69000 171.452
64.70000 169.252
64.71000 172.261
64.72000 176.878
64.73000 181.034
64.74000 176.576
64.75000 171.118
64.76000 167.104
64.77000 169.940
64.78000 173.661
64.79000 175.543
64.80000 171.613
64.81000 167.256
64.82000 164.255
64.83000 166.585
64.84000 168.469
64.85000 171.607
64.86000 176.552
64.87000 181.510
64.88000 183.753
64.89000 183.460
64.90000 183.170
64.91000 182.750
64.92000 182.259
64.93000 181.773
64.94000 181.379
64.95000 181.022
64.96000 181.108
64.97000 186.174
64.98000 192.639
64.99000 198.377
65.00000 198.000
65.01000 196.695
65.02000 195.458
65.03000 194.515
65.04000 193.606
65.05000 192.465
65.06000 190.654
65.07000 188.801
65.08000 187.566
65.09000 186.712
65.10000 186.087
65.11000 187.313
65.12000 190.953
65.13000 194.598
65.14000 195.625
65.15000 194.451
65.16000 193.292
65.17000 195.213
65.18000 198.757
65.19000 202.333
65.20000 206.507
65.21000 210.906
65.22000 215.052
65.23000 216.708
65.24000 217.729
65.25000 218.623
65.26000 219.827
65.27000 220.904
65.28000 221.606
65.29000 220.857
65.30000 219.962
65.31000 220.145
65.32000 223.150
65.33000 226.303
65.34000 228.334
65.35000 225.768
65.36000 223.830
65.37000 227.121
65.38000 236.566
65.39000 245.995
65.40000 249.545
65.41000 248.632
65.42000 247.735
65.43000 246.405
65.44000 244.907
65.45000 243.682
65.46000 246.753
65.47000 251.303
65.48000 255.738
65.49000 259.168
65.50000 262.365
65.51000 265.116
65.52000 266.442
65.53000 267.387
65.54000 269.385
65.55000 275.106
65.56000 281.152
65.57000 286.533
65.58000 290.328
65.59000 294.054
65.60000 296.366
65.61000 304.407
65.62000 310.247
65.63000 317.229
65.64000 325.420
65.65000 333.662
65.66000 347.901
65.67000 366.264
65.68000 384.206
65.69000 413.054
65.70000 445.519
65.71000 478.579
65.72000 519.617
65.73000 563.155
65.74000 607.990
65.75000 662.723
65.76000 719.519
65.77000 767.528
65.78000 814.047
65.79000 852.794
65.80000 891.989
65.81000 932.625
65.82000 973.368
65.83000 1004.828
65.84000 1016.108
65.85000 1026.689
65.86000 1032.997
65.87000 1050.568
65.88000 1063.090
65.89000 1059.195
65.90000 1039.702
65.91000 1020.220
65.92000 1001.591
65.93000 983.495
65.94000 965.925
65.95000 933.005
65.96000 895.622
65.97000 856.293
65.98000 794.513
65.99000 726.336
66.00000 660.631
66.01000 611.731
66.02000 565.987
66.03000 528.036
66.04000 484.968
66.05000 448.884
66.06000 414.460
66.07000 384.881
66.08000 355.614
66.09000 336.414
66.10000 337.147
66.11000 338.419
66.12000 339.145
66.13000 330.599
66.14000 324.609
66.15000 320.882
66.16000 319.089
66.17000 317.210
66.18000 310.735
66.19000 301.655
66.20000 292.902
66.21000 291.884
66.22000 293.718
66.23000 295.543
66.24000 297.274
66.25000 298.981
66.26000 302.176
66.27000 314.412
66.28000 328.173
66.29000 339.365
66.30000 356.762
66.31000 371.483
66.32000 384.148
66.33000 391.348
66.34000 398.253
66.35000 406.043
66.36000 415.427
66.37000 424.843
66.38000 429.978
66.39000 441.370
66.40000 449.179
66.41000 451.572
66.42000 449.787
66.43000 448.041
66.44000 447.803
66.45000 448.343
66.46000 448.859
66.47000 443.327
66.48000 436.210
66.49000 429.284
66.50000 424.042
66.51000 419.195
66.52000 412.467
66.53000 395.493
66.54000 376.973
66.55000 362.229
66.56000 354.057
66.57000 347.942
66.58000 342.673
66.59000 339.453
66.60000 336.325
66.61000 333.445
66.62000 330.973
66.63000 328.507
66.64000 327.227
66.65000 320.774
66.66000 316.449
66.67000 316.318
66.68000 319.114
66.69000 321.833
66.70000 322.184
66.71000 321.423
66.72000 320.702
66.73000 325.160
66.74000 330.785
66.75000 335.060
66.76000 328.819
66.77000 320.350
66.78000 313.843
66.79000 316.966
66.80000 321.385
66.81000 324.823
66.82000 329.501
66.83000 333.302
66.84000 335.062
66.85000 332.315
66.86000 329.407
66.87000 329.990
66.88000 335.766
66.89000 341.590
66.90000 342.091
66.91000 337.447
66.92000 332.899
66.93000 336.032
66.94000 344.032
66.95000 351.781
66.96000 353.460
66.97000 352.540
66.98000 351.677
66.99000 349.140
67.00000 346.387
67.01000 344.152
67.02000 345.504
67.03000 347.542
67.04000 349.329
67.05000 349.999
67.06000 350.536
67.07000 350.944
67.08000 357.445
67.09000 362.871
67.10000 366.322
67.11000 365.801
67.12000 365.168
67.13000 364.606
67.14000 364.140
67.15000 363.674
67.16000 367.320
67.17000 374.529
67.18000 381.569
67.19000 379.277
67.20000 371.612
67.21000 364.243
67.22000 362.781
67.23000 363.621
67.24000 364.401
67.25000 370.803
67.26000 377.906
67.27000 384.359
67.28000 386.792
67.29000 388.535
67.30000 389.406
67.31000 386.779
67.32000 383.786
67.33000 381.571
67.34000 382.748
67.35000 383.808
67.36000 389.292
67.37000 402.870
67.38000 416.620
67.39000 422.918
67.40000 420.147
67.41000 417.359
67.42000 416.560
67.43000 417.316
67.44000 418.072
67.45000 418.823
67.46000 419.571
67.47000 420.290
67.48000 420.530
67.49000 420.601
67.50000 420.666
67.51000 426.219
67.52000 432.337
67.53000 436.291
67.54000 428.251
67.55000 418.367
67.56000 413.395
67.57000 426.305
67.58000 440.850
67.59000 451.323
67.60000 451.027
67.61000 450.421
67.62000 447.321
67.63000 440.071
67.64000 432.759
67.65000 435.521
67.66000 449.329
67.67000 463.086
67.68000 465.055
67.69000 458.723
67.70000 452.802
67.71000 459.891
67.72000 473.182
67.73000 485.252
67.74000 480.106
67.75000 469.395
67.76000 459.690
67.77000 464.713
67.78000 471.938
67.79000 479.101
67.80000 485.948
67.81000 492.752
67.82000 497.925
67.83000 497.705
67.84000 497.057
67.85000 496.604
67.86000 506.363
67.87000 514.025
67.88000 517.641
67.89000 515.148
67.90000 512.592
67.91000 511.462
67.92000 511.734
67.93000 512.004
67.94000 515.851
67.95000 521.902
67.96000 527.825
67.97000 530.542
67.98000 531.865
67.99000 532.954
68.00000 531.189
68.01000 528.585
68.02000 526.258
68.03000 526.966
68.04000 528.098
68.05000 529.909
68.06000 534.788
68.07000 540.038
68.08000 547.284
68.09000 560.536
68.10000 574.194
68.11000 583.447
68.12000 568.945
68.13000 557.614
68.14000 554.017
68.15000 561.008
68.16000 568.059
68.17000 572.006
68.18000 573.207
68.19000 574.396
68.20000 579.299
68.21000 586.213
68.22000 593.057
68.23000 598.458
68.24000 603.288
68.25000 608.010
68.26000 611.589
68.27000 614.863
68.28000 617.747
68.29000 634.570
68.30000 651.163
68.31000 663.548
68.32000 658.778
68.33000 652.174
68.34000 649.236
68.35000 656.345
68.36000 664.029
68.37000 669.062
68.38000 670.916
68.39000 672.225
68.40000 676.468
68.41000 684.341
68.42000 692.224
68.43000 700.504
68.44000 709.100
68.45000 717.567
68.46000 732.114
68.47000 749.361
68.48000 766.083
68.49000 773.842
68.50000 778.369
68.51000 783.864
68.52000 798.249
68.53000 814.784
68.54000 829.123
68.55000 830.770
68.56000 830.481
68.57000 837.627
68.58000 872.267
68.59000 909.477
68.60000 944.983
68.61000 976.230
68.62000 1007.275
68.63000 1026.892
68.64000 1082.294
68.65000 1122.861
68.66000 1174.799
68.67000 1239.421
68.68000 1303.909
68.69000 1346.204
68.70000 1372.496
68.71000 1398.260
68.72000 1452.541
68.73000 1518.036
68.74000 1582.717
68.75000 1635.637
68.76000 1684.697
68.77000 1732.928
68.78000 1774.441
68.79000 1814.484
68.80000 1848.623
68.81000 1915.816
68.82000 1976.232
68.83000 2048.014
68.84000 2157.983
68.85000 2271.046
68.86000 2388.013
68.87000 2513.854
68.88000 2640.039
68.89000 2716.759
68.90000 3192.118
68.91000 3534.630
68.92000 4175.444
68.93000 5115.037
68.94000 6064.040
68.95000 7886.768
68.96000 10280.586
68.97000 12612.229
68.98000 16260.978
68.99000 20293.379
69.00000 24350.297
69.01000 28711.033
69.02000 33162.461
69.03000 37502.223
69.04000 41039.375
69.05000 44417.910
69.06000 47246.840
69.07000 49145.527
69.08000 50628.074
69.09000 51840.313
69.10000 52226.598
69.11000 52555.484
69.12000 52902.930
69.13000 53288.824
69.14000 53675.898
69.15000 53901.688
69.16000 54863.074
69.17000 55542.270
69.18000 55911.359
69.19000 56001.559
69.20000 56071.652
69.21000 54888.863
69.22000 52962.367
69.23000 51098.680
69.24000 48070.320
69.25000 44768.227
69.26000 41519.863
69.27000 38848.340
69.28000 36333.238
69.29000 33923.965
69.30000 32193.010
69.31000 30582.658
69.32000 29260.072
69.33000 28391.924
69.34000 27719.762
69.35000 27055.508
69.36000 26413.256
69.37000 25772.297
69.38000 24957.898
69.39000 23816.383
69.40000 22667.186
69.41000 22026.033
69.42000 18892.354
69.43000 16717.939
69.44000 14496.060
69.45000 12235.704
69.46000 9987.179
69.47000 8271.356
69.48000 6843.103
69.49000 5471.955
69.50000 4525.663
69.51000 3786.065
69.52000 3079.051
69.53000 2677.831
69.54000 2351.818
69.55000 2051.954
69.56000 1902.223
69.57000 1776.418
69.58000 1675.205
69.59000 1568.054
69.60000 1480.680
69.61000 1400.700
69.62000 1339.452
69.63000 1279.122
69.64000 1230.269
69.65000 1201.105
69.66000 1172.278
69.67000 1156.949
69.68000 1107.934
69.69000 1074.556
69.70000 1042.351
69.71000 1011.008
69.72000 980.226
69.73000 968.691
69.74000 966.614
69.75000 964.637
69.76000 942.479
69.77000 915.740
69.78000 889.019
69.79000 862.444
69.80000 835.902
69.81000 812.714
69.82000 806.834
69.83000 803.417
69.84000 800.727
69.85000 784.037
69.86000 769.736
69.87000 760.098
69.88000 761.223
69.89000 762.780
69.90000 757.776
69.91000 742.546
69.92000 727.197
69.93000 719.448
69.94000 710.045
69.95000 703.733
69.96000 695.097
69.97000 684.918
69.98000 674.891
69.99000 668.956
70.00000 664.853
