20.00000 563.384
20.01000 558.581
20.02000 553.090
20.03000 549.924
20.04000 555.838
20.05000 562.670
20.06000 567.689
20.07000 558.054
20.08000 550.004
20.09000 546.107
20.10000 549.613
20.11000 553.264
20.12000 556.528
20.13000 559.334
20.14000 562.131
20.15000 564.827
20.16000 567.429
20.17000 569.969
20.18000 570.146
20.19000 569.118
20.20000 567.709
20.21000 560.270
20.22000 550.743
20.23000 542.030
20.24000 539.031
20.25000 537.543
20.26000 537.671
20.27000 546.503
20.28000 556.633
20.29000 565.316
20.30000 568.870
20.31000 571.972
20.32000 574.188
20.33000 567.430
20.34000 561.973
20.35000 557.337
20.36000 554.029
20.37000 550.740
20.38000 550.084
20.39000 552.232
20.40000 554.371
20.41000 549.173
20.42000 539.023
20.43000 529.294
20.44000 532.016
20.45000 540.527
20.46000 548.833
20.47000 554.373
20.48000 559.042
20.49000 563.258
20.50000 554.011
20.51000 543.405
20.52000 534.719
20.53000 535.351
20.54000 537.219
20.55000 540.155
20.56000 546.539
20.57000 553.184
20.58000 557.791
20.59000 557.616
20.60000 557.358
20.61000 552.686
20.62000 541.523
20.63000 530.303
20.64000 530.978
20.65000 543.016
20.66000 554.958
20.67000 556.539
20.68000 551.712
20.69000 547.050
20.70000 546.294
20.71000 547.192
20.72000 547.791
20.73000 544.915
20.74000 541.045
20.75000 537.599
20.76000 543.209
20.77000 549.569
20.78000 553.726
20.79000 548.228
20.80000 541.596
20.81000 536.870
20.82000 537.740
20.83000 538.971
20.84000 539.798
20.85000 539.922
20.86000 540.001
20.87000 540.922
20.88000 542.965
20.89000 545.010
20.90000 544.282
20.91000 541.172
20.92000 538.098
20.93000 536.257
20.94000 535.147
20.95000 533.947
20.96000 530.973
20.97000 527.315
20.98000 524.248
20.99000 527.153
21.00000 531.610
21.01000 535.520
21.02000 539.282
21.03000 542.492
21.04000 545.279
21.05000 546.394
21.06000 547.337
21.07000 545.523
21.08000 536.343
21.09000 526.763
21.10000 520.547
21.11000 526.452
21.12000 530.958
21.13000 531.031
21.14000 525.768
21.15000 520.527
21.16000 523.829
21.17000 533.758
21.18000 543.525
21.19000 548.424
21.20000 550.724
21.21000 552.731
21.22000 549.964
21.23000 545.519
21.24000 541.329
21.25000 539.390
21.26000 537.983
21.27000 536.768
21.28000 538.711
21.29000 540.766
21.30000 542.385
21.31000 542.434
21.32000 542.342
21.33000 542.039
21.34000 541.224
21.35000 540.386
21.36000 539.862
21.37000 541.160
21.38000 542.116
21.39000 540.088
21.40000 534.828
21.41000 529.606
21.42000 529.625
21.43000 533.323
21.44000 536.941
21.45000 537.526
21.46000 536.713
21.47000 536.150
21.48000 539.054
21.49000 543.067
21.50000 546.390
21.51000 544.310
21.52000 541.078
21.53000 538.336
21.54000 553.150
21.55000 567.565
21.56000 576.514
21.57000 567.576
21.58000 557.247
21.59000 547.470
21.60000 538.918
21.61000 530.410
21.62000 525.294
21.63000 516.166
21.64000 509.648
21.65000 514.665
21.66000 530.897
21.67000 547.017
21.68000 553.928
21.69000 554.977
21.70000 555.996
21.71000 555.317
21.72000 553.978
21.73000 552.161
21.74000 544.673
21.75000 535.534
21.76000 527.924
21.77000 530.954
21.78000 536.028
21.79000 540.255
21.80000 547.172
21.81000 553.170
21.82000 557.890
21.83000 558.807
21.84000 559.470
21.85000 560.866
21.86000 563.742
21.87000 566.660
21.88000 568.342
21.89000 572.497
21.90000 575.412
21.91000 575.578
21.92000 573.343
21.93000 571.179
21.94000 573.049
21.95000 577.254
21.96000 581.312
21.97000 578.168
21.98000 572.549
21.99000 568.068
22.00000 575.364
22.01000 585.771
22.02000 595.421
22.03000 600.362
22.04000 604.490
22.05000 607.862
22.06000 606.091
22.07000 604.197
22.08000 599.822
22.09000 588.716
22.10000 577.233
22.11000 573.429
22.12000 583.739
22.13000 594.356
22.14000 600.204
22.15000 608.488
22.16000 614.181
22.17000 614.427
22.18000 610.378
22.19000 606.468
22.20000 608.301
22.21000 613.156
22.22000 617.807
22.23000 614.551
22.24000 608.884
22.25000 603.951
22.26000 605.677
22.27000 608.997
22.28000 611.032
22.29000 605.905
22.30000 599.671
22.31000 594.686
22.32000 591.249
22.33000 588.586
22.34000 587.510
22.35000 590.354
22.36000 593.381
22.37000 595.297
22.38000 595.355
22.39000 595.385
22.40000 595.401
22.41000 568.913
22.42000 551.050
22.43000 546.525
22.44000 551.514
22.45000 556.330
22.46000 555.654
22.47000 552.346
22.48000 549.204
22.49000 544.350
22.50000 539.355
22.51000 535.103
22.52000 536.795
22.53000 539.775
22.54000 540.702
22.55000 531.333
22.56000 520.544
22.57000 512.107
22.58000 514.154
22.59000 516.456
22.60000 519.051
22.61000 522.307
22.62000 525.588
22.63000 527.309
22.64000 526.662
22.65000 525.990
22.66000 524.020
22.67000 520.765
22.68000 517.487
22.69000 512.113
22.70000 505.385
22.71000 499.156
22.72000 505.622
22.73000 517.628
22.74000 528.919
22.75000 528.051
22.76000 523.978
22.77000 520.040
22.78000 517.061
22.79000 514.270
22.80000 512.100
22.81000 512.747
22.82000 513.737
22.83000 514.494
22.84000 510.371
22.85000 506.859
22.86000 507.397
22.87000 516.239
22.88000 525.329
22.89000 528.554
22.90000 523.710
22.91000 518.820
22.92000 514.503
22.93000 510.699
22.94000 506.966
22.95000 507.472
22.96000 510.467
22.97000 513.425
22.98000 515.611
22.99000 517.490
23.00000 519.239
23.01000 512.826
23.02000 505.052
23.03000 497.777
23.04000 493.659
23.05000 490.096
23.06000 488.583
23.07000 495.471
23.08000 503.264
23.09000 509.064
23.10000 507.418
23.11000 505.803
23.12000 507.691
23.13000 516.120
23.14000 524.697
23.15000 525.926
23.16000 518.013
23.17000 510.086
23.18000 506.840
23.19000 507.342
23.20000 507.797
23.21000 506.190
23.22000 503.482
23.23000 500.845
23.24000 499.430
23.25000 498.458
23.26000 497.563
23.27000 493.765
23.28000 489.739
23.29000 487.395
23.30000 494.592
23.31000 503.291
23.32000 508.579
23.33000 501.192
23.34000 492.612
23.35000 486.396
23.36000 494.778
23.37000 501.754
23.38000 505.435
23.39000 503.523
23.40000 501.519
23.41000 500.989
23.42000 502.113
23.43000 503.235
23.44000 509.319
23.45000 518.916
23.46000 528.078
23.47000 522.744
23.48000 510.361
23.49000 498.214
23.50000 489.522
23.51000 481.967
23.52000 475.103
23.53000 480.545
23.54000 487.747
23.55000 493.481
23.56000 491.721
23.57000 488.909
23.58000 486.116
23.59000 483.392
23.60000 480.674
23.61000 478.761
23.62000 475.557
23.63000 473.092
23.64000 474.915
23.65000 483.353
23.66000 491.864
23.67000 491.891
23.68000 483.372
23.69000 474.907
23.70000 477.118
23.71000 486.210
23.72000 495.106
23.73000 498.854
23.74000 500.321
23.75000 501.439
23.76000 498.192
23.77000 493.636
23.78000 489.551
23.79000 484.149
23.80000 479.200
23.81000 474.741
23.82000 472.536
23.83000 470.613
23.84000 471.188
23.85000 479.434
23.86000 488.217
23.87000 494.208
23.88000 495.603
23.89000 496.539
23.90000 496.305
23.91000 494.437
23.92000 492.558
23.93000 490.324
23.94000 487.770
23.95000 485.240
23.96000 483.522
23.97000 482.313
23.98000 481.321
23.99000 484.968
24.00000 490.487
24.01000 495.318
24.02000 492.707
24.03000 488.067
24.04000 483.967
24.05000 485.219
24.06000 487.127
24.07000 488.948
24.08000 490.405
24.09000 491.823
24.10000 490.205
24.11000 480.103
24.12000 469.498
24.13000 462.500
24.14000 467.726
24.15000 471.795
24.16000 476.344
24.17000 481.503
24.18000 486.652
24.19000 487.135
24.20000 483.816
24.21000 480.544
24.22000 485.637
24.23000 494.996
24.24000 503.602
24.25000 498.857
24.26000 489.204
24.27000 480.025
24.28000 475.333
24.29000 471.750
24.30000 468.632
24.31000 471.396
24.32000 474.559
24.33000 476.507
24.34000 473.863
24.35000 470.778
24.36000 468.861
24.37000 469.921
24.38000 471.129
24.39000 471.898
24.40000 479.115
24.41000 484.442
24.42000 484.490
24.43000 478.517
24.44000 472.548
24.45000 468.451
24.46000 465.733
24.47000 463.066
24.48000 467.463
24.49000 475.061
24.50000 482.031
24.51000 479.589
24.52000 473.996
24.53000 468.561
24.54000 464.442
24.55000 460.617
24.56000 457.344
24.57000 469.856
24.58000 482.316
24.59000 491.009
24.60000 486.785
24.61000 481.482
24.62000 475.940
24.63000 469.845
24.64000 463.728
24.65000 459.977
24.66000 479.834
24.67000 494.259
24.68000 493.059
24.69000 475.840
24.70000 458.763
24.71000 456.214
24.72000 463.361
24.73000 470.331
24.74000 473.947
24.75000 475.961
24.76000 477.876
24.77000 478.540
24.78000 478.822
24.79000 478.839
24.80000 476.904
24.81000 474.574
24.82000 472.616
24.83000 479.269
24.84000 485.727
24.85000 489.959
24.86000 487.251
24.87000 484.045
24.88000 481.455
24.89000 480.168
24.90000 478.923
24.91000 478.190
24.92000 481.038
24.93000 483.064
24.94000 482.043
24.95000 478.219
24.96000 474.419
24.97000 472.250
24.98000 471.069
24.99000 469.925
25.00000 464.083
25.01000 456.733
25.02000 450.379
25.03000 455.056
25.04000 462.786
25.05000 469.460
25.06000 469.200
25.07000 467.679
25.08000 466.425
25.09000 463.657
25.10000 461.239
25.11000 460.376
25.12000 463.928
25.13000 467.749
25.14000 469.273
25.15000 466.376
25.16000 463.369
25.17000 461.674
25.18000 467.896
25.19000 472.232
25.20000 473.681
25.21000 472.739
25.22000 471.834
25.23000 472.729
25.24000 474.615
25.25000 476.429
25.26000 473.112
25.27000 468.208
25.28000 463.381
25.29000 459.286
25.30000 455.376
25.31000 451.792
25.32000 450.124
25.33000 448.769
25.34000 447.674
25.35000 445.406
25.36000 443.468
25.37000 443.302
25.38000 447.713
25.39000 452.359
25.40000 456.641
25.41000 460.290
25.42000 463.926
25.43000 465.881
25.44000 461.186
25.45000 457.999
25.46000 459.853
25.47000 465.481
25.48000 470.935
25.49000 470.126
25.50000 466.176
25.51000 462.410
25.52000 457.856
25.53000 453.381
25.54000 450.187
25.55000 457.857
25.56000 467.998
25.57000 476.783
25.58000 478.415
25.59000 479.005
25.60000 479.471
25.61000 474.018
25.62000 469.232
25.63000 465.832
25.64000 465.699
25.65000 465.702
25.66000 466.915
25.67000 470.054
25.68000 473.217
25.69000 474.832
25.70000 460.898
25.71000 451.630
25.72000 452.116
25.73000 459.215
25.74000 465.938
25.75000 462.034
25.76000 453.278
25.77000 445.005
25.78000 454.295
25.79000 467.814
25.80000 479.254
25.81000 475.081
25.82000 467.701
25.83000 462.337
25.84000 466.565
25.85000 472.036
25.86000 476.263
25.87000 471.836
25.88000 467.818
25.89000 466.416
25.90000 470.625
25.91000 475.022
25.92000 476.174
25.93000 472.643
25.94000 469.075
25.95000 463.953
25.96000 457.380
25.97000 450.905
25.98000 451.482
25.99000 456.399
26.00000 461.064
26.01000 459.972
26.02000 456.486
26.03000 453.225
26.04000 455.797
26.05000 459.624
26.06000 462.859
26.07000 462.133
26.08000 460.675
26.09000 460.113
26.10000 463.405
26.11000 467.139
26.12000 469.954
26.13000 467.066
26.14000 464.525
26.15000 461.595
26.16000 457.903
26.17000 454.192
26.18000 450.170
26.19000 445.742
26.20000 441.317
26.21000 445.332
26.22000 456.428
26.23000 467.273
26.24000 465.417
26.25000 456.457
26.26000 448.096
26.27000 450.982
26.28000 458.130
26.29000 464.744
26.30000 456.941
26.31000 446.624
26.32000 437.108
26.33000 432.388
26.34000 428.464
26.35000 426.738
26.36000 433.576
26.37000 441.275
26.38000 446.928
26.39000 452.429
26.40000 456.675
26.41000 455.506
26.42000 444.710
26.43000 433.727
26.44000 432.411
26.45000 442.500
26.46000 452.582
26.47000 454.696
26.48000 450.774
26.49000 446.829
26.50000 441.985
26.51000 436.685
26.52000 431.743
26.53000 432.472
26.54000 435.157
26.55000 437.612
26.56000 449.569
26.57000 462.146
26.58000 471.780
26.59000 465.617
26.60000 457.107
26.61000 450.601
26.62000 451.182
26.63000 452.383
26.64000 453.240
26.65000 444.592
26.66000 437.682
26.67000 435.384
26.68000 440.538
26.69000 445.794
26.70000 448.757
26.71000 449.287
26.72000 449.813
26.73000 450.001
26.74000 449.957
26.75000 449.881
26.76000 448.870
26.77000 447.425
26.78000 446.016
26.79000 445.090
26.80000 444.316
26.81000 443.617
26.82000 436.985
26.83000 430.069
26.84000 424.569
26.85000 425.915
26.86000 428.165
26.87000 429.480
26.88000 427.787
26.89000 425.867
26.90000 424.537
26.91000 425.004
26.92000 425.402
26.93000 427.858
26.94000 433.329
26.95000 438.826
26.96000 438.128
26.97000 431.531
26.98000 424.987
26.99000 428.197
27.00000 437.338
27.01000 446.032
27.02000 444.195
27.03000 437.911
27.04000 432.367
27.05000 435.397
27.06000 440.875
27.07000 445.750
27.08000 440.949
27.09000 435.196
27.10000 431.351
27.11000 435.843
27.12000 441.309
27.13000 444.138
27.14000 439.249
27.15000 433.864
27.16000 430.251
27.17000 428.726
27.18000 427.636
27.19000 429.171
27.20000 434.194
27.21000 439.226
27.22000 438.847
27.23000 433.833
27.24000 428.878
27.25000 423.090
27.26000 416.982
27.27000 411.214
27.28000 412.008
27.29000 415.328
27.30000 418.924
27.31000 425.308
27.32000 432.415
27.33000 438.646
27.34000 433.478
27.35000 427.387
27.36000 423.963
27.37000 431.095
27.38000 439.312
27.39000 443.432
27.40000 436.641
27.41000 429.258
27.42000 424.472
27.43000 424.663
27.44000 424.876
27.45000 424.635
27.46000 423.848
27.47000 423.077
27.48000 426.705
27.49000 433.733
27.50000 440.645
27.51000 440.741
27.52000 437.426
27.53000 434.445
27.54000 436.897
27.55000 441.252
27.56000 445.183
27.57000 445.359
27.58000 444.652
27.59000 444.043
27.60000 439.344
27.61000 434.832
27.62000 432.254
27.63000 436.619
27.64000 441.607
27.65000 445.904
27.66000 448.521
27.67000 451.063
27.68000 452.651
27.69000 438.549
27.70000 428.212
27.71000 426.764
27.72000 434.918
27.73000 443.005
27.74000 441.716
27.75000 433.865
27.76000 426.186
27.77000 425.355
27.78000 427.649
27.79000 429.629
27.80000 427.281
27.81000 423.553
27.82000 420.000
27.83000 417.819
27.84000 415.928
27.85000 414.325
27.86000 410.133
27.87000 406.327
27.88000 405.029
27.89000 411.918
27.90000 419.441
27.91000 423.991
27.92000 421.967
27.93000 419.706
27.94000 418.347
27.95000 422.967
27.96000 426.291
27.97000 427.794
27.98000 427.533
27.99000 427.285
28.00000 428.196
28.01000 429.843
28.02000 431.444
28.03000 429.594
28.04000 426.429
28.05000 423.596
28.06000 424.706
28.07000 426.958
28.08000 428.447
28.09000 424.635
28.10000 419.808
28.11000 415.789
28.12000 411.830
28.13000 408.557
28.14000 406.908
28.15000 410.085
28.16000 413.580
28.17000 417.791
28.18000 423.443
28.19000 429.136
28.20000 432.414
28.21000 425.349
28.22000 420.365
28.23000 415.355
28.24000 410.323
28.25000 405.420
28.26000 407.765
28.27000 414.290
28.28000 420.588
28.29000 418.176
28.30000 412.702
28.31000 407.842
28.32000 409.308
28.33000 412.439
28.34000 415.058
28.35000 414.503
28.36000 413.401
28.37000 412.501
28.38000 416.270
28.39000 419.754
28.40000 422.498
28.41000 423.240
28.42000 423.870
28.43000 424.016
28.44000 423.275
28.45000 422.516
28.46000 422.098
28.47000 416.453
28.48000 412.569
28.49000 411.874
28.50000 413.687
28.51000 415.397
28.52000 412.856
28.53000 408.085
28.54000 403.516
28.55000 407.248
28.56000 413.480
28.57000 419.170
28.58000 419.968
28.59000 419.599
28.60000 418.993
28.61000 417.073
28.62000 414.950
28.63000 413.253
28.64000 403.891
28.65000 395.758
28.66000 391.122
28.67000 395.101
28.68000 399.478
28.69000 403.945
28.70000 408.562
28.71000 413.181
28.72000 415.600
28.73000 404.434
28.74000 396.926
28.75000 397.889
28.76000 404.873
28.77000 411.671
28.78000 412.564
28.79000 410.634
28.80000 408.803
28.81000 405.329
28.82000 401.632
28.83000 398.769
28.84000 402.553
28.85000 407.772
28.86000 412.110
28.87000 412.036
28.88000 411.357
28.89000 410.827
28.90000 414.664
28.91000 418.002
28.92000 417.448
28.93000 408.156
28.94000 398.536
28.95000 396.520
28.96000 406.012
28.97000 415.621
28.98000 422.148
28.99000 425.635
29.00000 429.079
29.01000 428.865
29.02000 426.292
29.03000 423.842
29.04000 424.479
29.05000 426.460
29.06000 428.323
29.07000 417.855
29.08000 404.980
29.09000 394.616
29.10000 402.007
29.11000 412.855
29.12000 420.678
29.13000 414.840
29.14000 407.340
29.15000 401.617
29.16000 409.177
29.17000 415.845
29.18000 417.962
29.19000 410.776
29.20000 403.314
29.21000 401.971
29.22000 409.021
29.23000 416.117
29.24000 424.222
29.25000 433.208
29.26000 441.955
29.27000 436.552
29.28000 422.861
29.29000 409.330
29.30000 399.113
29.31000 390.210
29.32000 381.927
29.33000 397.206
29.34000 416.701
29.35000 432.395
29.36000 424.110
29.37000 411.625
29.38000 401.194
29.39000 399.153
29.40000 398.012
29.41000 397.164
29.42000 393.710
29.43000 390.908
29.44000 390.519
29.45000 394.622
29.46000 398.827
29.47000 407.037
29.48000 420.214
29.49000 433.383
29.50000 434.796
29.51000 426.851
29.52000 418.987
29.53000 414.640
29.54000 412.166
29.55000 409.746
29.56000 408.256
29.57000 407.102
29.58000 406.040
29.59000 408.046
29.60000 410.503
29.61000 411.663
29.62000 405.491
29.63000 398.168
29.64000 394.182
29.65000 402.561
29.66000 412.099
29.67000 419.003
29.68000 410.452
29.69000 403.321
29.70000 400.630
29.71000 405.455
29.72000 410.403
29.73000 414.268
29.74000 416.923
29.75000 419.568
29.76000 414.184
29.77000 403.099
29.78000 392.254
29.79000 389.332
29.80000 390.252
29.81000 391.463
29.82000 396.894
29.83000 403.713
29.84000 409.906
29.85000 413.424
29.86000 416.013
29.87000 417.091
29.88000 410.483
29.89000 402.799
29.90000 396.975
29.91000 397.410
29.92000 398.355
29.93000 399.019
29.94000 401.065
29.95000 402.656
29.96000 405.284
29.97000 409.506
29.98000 413.746
29.99000 413.539
30.00000 408.868
30.01000 404.227
30.02000 405.645
30.03000 410.951
30.04000 416.139
30.05000 418.245
30.06000 418.989
30.07000 419.478
30.08000 416.814
30.09000 413.207
30.10000 409.974
30.11000 415.183
30.12000 421.193
30.13000 426.041
30.14000 425.562
30.15000 424.420
30.16000 422.730
30.17000 419.358
30.18000 415.870
30.19000 413.492
30.20000 420.518
30.21000 425.986
30.22000 425.800
30.23000 417.735
30.24000 409.621
30.25000 406.011
30.26000 406.458
30.27000 406.901
30.28000 411.545
30.29000 418.536
30.30000 425.134
30.31000 423.367
30.32000 418.233
30.33000 412.884
30.34000 405.220
30.35000 396.926
30.36000 389.600
30.37000 399.522
30.38000 410.743
30.39000 419.606
30.40000 418.685
30.41000 416.691
30.42000 415.413
30.43000 416.127
30.44000 416.959
30.45000 417.508
30.46000 420.811
30.47000 423.294
30.48000 423.615
30.49000 421.213
30.50000 418.786
30.51000 410.236
30.52000 396.712
30.53000 383.379
30.54000 385.670
30.55000 396.106
30.56000 406.102
30.57000 408.343
30.58000 407.739
30.59000 407.290
30.60000 408.292
30.61000 409.651
30.62000 410.834
30.63000 412.033
30.64000 413.058
30.65000 413.977
30.66000 414.495
30.67000 414.974
30.68000 416.892
30.69000 422.462
30.70000 428.211
30.71000 431.868
30.72000 426.328
30.73000 422.187
30.74000 419.896
30.75000 419.709
30.76000 419.550
30.77000 423.962
30.78000 431.730
30.79000 439.350
30.80000 440.343
30.81000 438.156
30.82000 436.143
30.83000 436.727
30.84000 438.178
30.85000 438.984
30.86000 434.444
30.87000 428.713
30.88000 423.810
30.89000 431.515
30.90000 439.528
30.91000 445.747
30.92000 445.834
30.93000 445.411
30.94000 446.507
30.95000 451.117
30.96000 455.868
30.97000 458.778
30.98000 471.743
30.99000 481.111
31.00000 485.588
31.01000 485.068
31.02000 484.653
31.03000 494.819
31.04000 512.026
31.05000 528.804
31.06000 539.678
31.07000 547.533
31.08000 555.771
31.09000 568.871
31.10000 583.449
31.11000 598.694
31.12000 618.837
31.13000 639.967
31.14000 657.719
31.15000 676.822
31.16000 692.880
31.17000 711.438
31.18000 737.769
31.19000 764.656
31.20000 793.630
31.21000 826.999
31.22000 860.509
31.23000 880.209
31.24000 943.367
31.25000 988.120
31.26000 1018.033
31.27000 1034.337
31.28000 1050.916
31.29000 1085.770
31.30000 1131.664
31.31000 1176.120
31.32000 1209.762
31.33000 1237.410
31.34000 1265.138
31.35000 1293.748
31.36000 1322.601
31.37000 1347.546
31.38000 1346.923
31.39000 1341.664
31.40000 1337.329
31.41000 1327.143
31.42000 1318.222
31.43000 1313.061
31.44000 1318.544
31.45000 1324.673
31.46000 1316.610
31.47000 1281.314
31.48000 1245.345
31.49000 1225.109
31.50000 1191.873
31.51000 1168.756
31.52000 1140.114
31.53000 1106.908
31.54000 1073.719
31.55000 1041.353
31.56000 1009.440
31.57000 978.758
31.58000 959.366
31.59000 945.136
31.60000 929.152
31.61000 896.320
31.62000 859.268
31.63000 823.712
31.64000 796.911
31.65000 771.534
31.66000 751.039
31.67000 720.980
31.68000 695.782
31.69000 672.120
31.70000 652.414
31.71000 632.909
31.72000 617.941
31.73000 610.892
31.74000 603.988
31.75000 600.283
31.76000 559.551
31.77000 531.807
31.78000 523.251
31.79000 529.013
31.80000 534.374
31.81000 525.351
31.82000 509.137
31.83000 493.679
31.84000 483.668
31.85000 476.095
31.86000 468.737
31.87000 463.190
31.88000 458.053
31.89000 453.434
31.90000 451.538
31.91000 450.037
31.92000 448.851
31.93000 454.272
31.94000 459.077
31.95000 458.717
31.96000 446.233
31.97000 433.243
31.98000 425.929
31.99000 427.618
32.00000 429.420
32.01000 430.338
32.02000 433.605
32.03000 435.717
32.04000 429.055
32.05000 416.463
32.06000 404.136
32.07000 399.247
32.08000 397.743
32.09000 396.323
32.10000 400.371
32.11000 405.634
32.12000 410.202
32.13000 409.573
32.14000 407.879
32.15000 405.430
32.16000 399.399
32.17000 392.906
32.18000 387.892
32.19000 383.106
32.20000 379.324
32.21000 378.858
32.22000 385.485
32.23000 392.349
32.24000 395.853
32.25000 394.523
32.26000 393.155
32.27000 389.756
32.28000 384.464
32.29000 379.231
32.30000 378.136
32.31000 379.578
32.32000 381.225
32.33000 387.490
32.34000 395.672
32.35000 403.323
32.36000 396.580
32.37000 386.793
32.38000 378.119
32.39000 376.857
32.40000 376.963
32.41000 377.185
32.42000 377.901
32.43000 378.674
32.44000 379.257
32.45000 381.702
32.46000 383.706
32.47000 384.448
32.48000 382.729
32.49000 380.946
32.50000 380.157
32.51000 380.665
32.52000 381.177
32.53000 377.276
32.54000 369.689
32.55000 362.211
32.56000 360.169
32.57000 361.157
32.58000 362.056
32.59000 361.278
32.60000 359.865
32.61000 358.559
32.62000 361.181
32.63000 364.434
32.64000 366.644
32.65000 362.641
32.66000 357.608
32.67000 354.854
32.68000 360.948
32.69000 367.929
32.70000 373.049
32.71000 366.365
32.72000 360.724
32.73000 358.939
32.74000 363.990
32.75000 369.172
32.76000 372.424
32.77000 373.404
32.78000 374.379
32.79000 368.032
32.80000 356.212
32.81000 344.725
32.82000 345.736
32.83000 353.089
32.84000 360.139
32.85000 362.433
32.86000 363.089
32.87000 363.689
32.88000 365.496
32.89000 367.348
32.90000 368.607
32.91000 366.692
32.92000 364.308
32.93000 362.706
32.94000 363.859
32.95000 365.252
32.96000 366.246
32.97000 357.853
32.98000 351.146
32.99000 351.052
33.00000 361.614
33.01000 372.319
33.02000 376.609
33.03000 374.109
33.04000 371.621
33.05000 366.452
33.06000 359.524
33.07000 352.799
33.08000 352.020
33.09000 353.989
33.10000 355.557
33.11000 351.765
33.12000 346.294
33.13000 341.359
33.14000 346.146
33.15000 352.127
33.16000 357.091
33.17000 357.145
33.18000 356.553
33.19000 354.717
33.20000 348.892
33.21000 342.768
33.22000 338.529
33.23000 347.046
33.24000 353.784
33.25000 353.848
33.26000 344.153
33.27000 334.374
33.28000 332.553
33.29000 338.285
33.30000 343.971
33.31000 344.875
33.32000 342.837
33.33000 340.796
33.34000 338.692
33.35000 336.562
33.36000 334.571
33.37000 334.181
33.38000 334.246
33.39000 334.305
33.40000 340.172
33.41000 346.213
33.42000 350.328
33.43000 346.056
33.44000 340.806
33.45000 336.957
33.46000 337.194
33.47000 337.694
33.48000 338.028
33.49000 346.190
33.50000 352.402
33.51000 352.848
33.52000 345.660
33.53000 338.441
33.54000 335.254
33.55000 335.508
33.56000 335.760
33.57000 339.543
33.58000 345.182
33.59000 350.405
33.60000 347.610
33.61000 341.738
33.62000 336.431
33.63000 336.792
33.64000 338.617
33.65000 340.217
33.66000 339.649
33.67000 338.849
33.68000 337.324
33.69000 332.943
33.70000 328.268
33.71000 325.276
33.72000 326.749
33.73000 328.464
33.74000 329.573
33.75000 326.908
33.76000 324.902
33.77000 324.604
33.78000 326.350
33.79000 328.095
33.80000 328.886
33.81000 328.942
33.82000 328.997
33.83000 324.346
33.84000 317.503
33.85000 311.393
33.86000 317.123
33.87000 326.990
33.88000 335.522
33.89000 332.300
33.90000 326.325
33.91000 321.172
33.92000 321.771
33.93000 323.014
33.94000 324.485
33.95000 326.776
33.96000 329.139
33.97000 331.024
33.98000 331.753
33.99000 332.430
34.00000 332.853
34.01000 329.559
34.02000 327.145
34.03000 324.173
34.04000 320.600
34.05000 317.055
34.06000 317.078
34.07000 319.592
34.08000 322.051
34.09000 323.429
34.10000 324.264
34.11000 325.150
34.12000 326.738
34.13000 328.550
34.14000 330.590
34.15000 334.407
34.16000 338.601
34.17000 342.155
34.18000 335.706
34.19000 329.176
34.20000 323.673
34.21000 321.510
34.22000 319.604
34.23000 320.798
34.24000 328.825
34.25000 337.098
34.26000 342.060
34.27000 331.142
34.28000 323.281
34.29000 319.935
34.30000 320.950
34.31000 322.011
34.32000 326.736
34.33000 333.779
34.34000 340.624
34.35000 331.342
34.36000 315.969
34.37000 302.147
34.38000 306.651
34.39000 316.453
34.40000 325.671
34.41000 330.857
34.42000 335.273
34.43000 338.948
34.44000 334.229
34.45000 329.496
34.46000 325.316
34.47000 322.773
34.48000 320.337
34.49000 316.906
34.50000 311.474
34.51000 305.986
34.52000 302.830
34.53000 310.564
34.54000 316.012
34.55000 320.620
34.56000 324.498
34.57000 328.289
34.58000 327.331
34.59000 323.640
34.60000 320.079
34.61000 321.375
34.62000 324.376
34.63000 326.755
34.64000 322.745
34.65000 317.058
34.66000 312.940
34.67000 318.507
34.68000 325.736
34.69000 331.633
34.70000 325.713
34.71000 319.860
34.72000 317.324
34.73000 323.734
34.74000 330.639
34.75000 332.766
34.76000 326.158
34.77000 319.363
34.78000 315.632
34.79000 313.781
34.80000 312.521
34.81000 314.322
34.82000 318.521
34.83000 322.637
34.84000 323.310
34.85000 322.184
34.86000 321.105
34.87000 319.623
34.88000 318.108
34.89000 316.804
34.90000 317.395
34.91000 318.438
34.92000 318.738
34.93000 314.926
34.94000 310.481
34.95000 306.931
34.96000 306.757
34.97000 306.866
34.98000 307.593
34.99000 309.842
35.00000 312.160
35.01000 312.816
35.02000 310.709
35.03000 308.560
35.04000 307.436
35.05000 308.539
35.06000 309.300
35.07000 312.079
35.08000 316.289
35.09000 320.216
35.10000 315.246
35.11000 306.037
35.12000 297.298
35.13000 295.744
35.14000 296.452
35.15000 297.383
35.16000 300.091
35.17000 303.181
35.18000 306.394
35.19000 310.223
35.20000 314.135
35.21000 317.191
35.22000 308.564
35.23000 300.946
35.24000 296.798
35.25000 300.414
35.26000 304.320
35.27000 305.142
35.28000 301.311
35.29000 297.432
35.30000 300.062
35.31000 309.088
35.32000 318.032
35.33000 319.885
35.34000 317.179
35.35000 314.435
35.36000 310.736
35.37000 306.622
35.38000 302.756
35.39000 305.805
35.40000 310.442
35.41000 315.287
35.42000 321.602
35.43000 328.202
35.44000 331.437
35.45000 319.528
35.46000 305.782
35.47000 295.301
35.48000 297.916
35.49000 300.673
35.50000 302.572
35.51000 302.722
35.52000 302.820
35.53000 302.943
35.54000 303.100
35.55000 303.257
35.56000 298.996
35.57000 290.846
35.58000 282.885
35.59000 286.025
35.60000 295.649
35.61000 304.949
35.62000 307.629
35.63000 307.692
35.64000 307.751
35.65000 309.894
35.66000 312.331
35.67000 314.245
35.68000 312.867
35.69000 310.914
35.70000 308.167
35.71000 302.186
35.72000 295.859
35.73000 291.157
35.74000 297.594
35.75000 303.094
35.76000 306.680
35.77000 306.715
35.78000 306.671
35.79000 306.040
35.80000 304.683
35.81000 303.327
35.82000 303.599
35.83000 305.160
35.84000 306.625
35.85000 303.965
35.86000 299.113
35.87000 294.578
35.88000 295.435
35.89000 298.234
35.90000 300.808
35.91000 304.036
35.92000 307.060
35.93000 309.169
35.94000 306.123
35.95000 302.271
35.96000 299.522
35.97000 300.853
35.98000 302.564
35.99000 303.801
36.00000 294.880
36.01000 287.664
36.02000 285.546
36.03000 292.030
36.04000 298.654
36.05000 302.946
36.06000 304.642
36.07000 306.330
36.08000 307.721
36.09000 308.888
36.10000 310.021
36.11000 310.022
36.12000 309.476
36.13000 308.953
36.14000 308.743
36.15000 308.636
36.16000 308.539
36.17000 303.066
36.18000 297.193
36.19000 292.432
36.20000 293.305
36.21000 294.965
36.22000 295.588
36.23000 292.733
36.24000 289.597
36.25000 287.394
36.26000 287.522
36.27000 287.687
36.28000 287.642
36.29000 287.275
36.30000 286.905
36.31000 288.002
36.32000 290.566
36.33000 293.114
36.34000 295.372
36.35000 297.410
36.36000 299.049
36.37000 290.320
36.38000 277.023
36.39000 265.521
36.40000 276.220
36.41000 293.539
36.42000 309.054
36.43000 302.412
36.44000 292.794
36.45000 285.674
36.46000 289.984
36.47000 295.708
36.48000 298.632
36.49000 293.010
36.50000 286.795
36.51000 282.563
36.52000 283.493
36.53000 284.305
36.54000 288.418
36.55000 297.118
36.56000 305.843
36.57000 307.998
36.58000 304.250
36.59000 300.539
36.60000 295.988
36.61000 291.047
36.62000 286.268
36.63000 284.917
36.64000 284.942
36.65000 285.009
36.66000 285.527
36.67000 286.166
36.68000 286.731
36.69000 283.991
36.70000 281.120
36.71000 279.760
36.72000 284.659
36.73000 290.241
36.74000 294.944
36.75000 297.203
36.76000 299.319
36.77000 300.713
36.78000 300.706
36.79000 300.676
36.80000 301.705
36.81000 304.062
36.82000 306.408
36.83000 302.650
36.84000 293.950
36.85000 285.375
36.86000 281.339
36.87000 279.798
36.88000 278.627
36.89000 283.963
36.90000 291.678
36.91000 298.232
36.92000 293.909
36.93000 286.913
36.94000 280.832
36.95000 279.706
36.96000 279.419
36.97000 282.149
36.98000 296.204
36.99000 311.341
37.00000 317.817
37.01000 302.367
37.02000 285.845
37.03000 275.345
37.04000 275.488
37.05000 275.723
37.06000 278.800
37.07000 285.097
37.08000 291.394
37.09000 297.113
37.10000 302.407
37.11000 307.600
37.12000 306.983
37.13000 303.642
37.14000 300.153
37.15000 294.492
37.16000 288.107
37.17000 282.306
37.18000 281.334
37.19000 281.436
37.20000 281.523
37.21000 287.169
37.22000 292.593
37.23000 295.967
37.24000 292.350
37.25000 288.155
37.26000 284.077
37.27000 280.272
37.28000 276.478
37.29000 274.158
37.30000 274.841
37.31000 275.355
37.32000 276.774
37.33000 279.115
37.34000 281.443
37.35000 282.512
37.36000 282.746
37.37000 282.974
37.38000 283.795
37.39000 284.831
37.40000 285.629
37.41000 283.399
37.42000 280.251
37.43000 277.499
37.44000 277.641
37.45000 278.364
37.46000 278.971
37.47000 285.436
37.48000 291.435
37.49000 295.072
37.50000 291.383
37.51000 287.173
37.52000 283.951
37.53000 282.805
37.54000 281.725
37.55000 281.091
37.56000 284.165
37.57000 286.351
37.58000 290.143
37.59000 295.403
37.60000 300.520
37.61000 296.235
37.62000 286.286
37.63000 276.652
37.64000 282.348
37.65000 293.643
37.66000 303.661
37.67000 299.667
37.68000 291.818
37.69000 284.240
37.70000 278.427
37.71000 272.932
37.72000 268.406
37.73000 269.795
37.74000 271.480
37.75000 272.227
37.76000 270.330
37.77000 268.273
37.78000 267.016
37.79000 267.287
37.80000 267.596
37.81000 267.769
37.82000 271.695
37.83000 274.430
37.84000 277.551
37.85000 280.990
37.86000 284.375
37.87000 285.186
37.88000 284.588
37.89000 284.013
37.90000 281.830
37.91000 279.226
37.92000 276.925
37.93000 277.520
37.94000 278.838
37.95000 280.685
37.96000 285.616
37.97000 291.047
37.98000 295.431
37.99000 292.279
38.00000 289.120
38.01000 285.953
38.02000 282.766
38.03000 279.578
38.04000 278.270
38.05000 280.234
38.06000 282.258
38.07000 283.342
38.08000 276.046
38.09000 271.101
38.10000 273.849
38.11000 282.321
38.12000 290.504
38.13000 288.388
38.14000 281.139
38.15000 274.229
38.16000 280.808
38.17000 291.136
38.18000 300.571
38.19000 302.486
38.20000 302.702
38.21000 301.027
38.22000 289.433
38.23000 276.404
38.24000 266.114
38.25000 273.789
38.26000 281.172
38.27000 286.210
38.28000 285.759
38.29000 285.080
38.30000 285.453
38.31000 287.486
38.32000 289.541
38.33000 290.586
38.34000 290.295
38.35000 290.149
38.36000 295.284
38.37000 303.980
38.38000 312.517
38.39000 316.637
38.40000 318.752
38.41000 320.749
38.42000 324.222
38.43000 327.826
38.44000 332.183
38.45000 342.159
38.46000 353.281
38.47000 363.989
38.48000 372.737
38.49000 381.232
38.50000 387.787
38.51000 403.158
38.52000 415.850
38.53000 430.157
38.54000 447.909
38.55000 465.774
38.56000 482.492
38.57000 497.566
38.58000 512.624
38.59000 530.852
38.60000 552.018
38.61000 573.249
38.62000 599.057
38.63000 627.665
38.64000 655.596
38.65000 668.265
38.66000 674.620
38.67000 680.562
38.68000 691.178
38.69000 702.001
38.70000 713.270
38.71000 727.498
38.72000 742.270
38.73000 753.541
38.74000 749.847
38.75000 744.451
38.76000 740.390
38.77000 716.160
38.78000 696.222
38.79000 676.958
38.80000 659.004
38.81000 641.083
38.82000 625.297
38.83000 612.283
38.84000 599.294
38.85000 587.446
38.86000 576.583
38.87000 565.560
38.88000 546.562
38.89000 523.130
38.90000 500.074
38.91000 484.011
38.92000 470.583
38.93000 458.167
38.94000 433.989
38.95000 409.599
38.96000 386.523
38.97000 371.250
38.98000 357.264
38.99000 344.626
39.00000 337.211
39.01000 330.316
39.02000 325.263
39.03000 327.068
39.04000 328.737
39.05000 330.083
39.06000 330.857
39.07000 331.621
39.08000 325.522
39.09000 311.380
39.10000 297.264
39.11000 292.850
39.12000 295.753
39.13000 298.494
39.14000 295.245
39.15000 288.966
39.16000 282.787
39.17000 278.201
39.18000 274.160
39.19000 270.469
39.20000 273.793
39.21000 278.176
39.22000 281.326
39.23000 277.898
39.24000 273.500
39.25000 270.612
39.26000 273.033
39.27000 275.915
39.28000 277.968
39.29000 280.370
39.30000 282.212
39.31000 281.472
39.32000 276.585
39.33000 271.642
39.34000 269.705
39.35000 270.939
39.36000 272.167
39.37000 274.277
39.38000 276.958
39.39000 279.445
39.40000 276.305
39.41000 270.571
39.42000 265.023
39.43000 261.948
39.44000 259.645
39.45000 257.568
39.46000 260.034
39.47000 263.028
39.48000 264.881
39.49000 261.249
39.50000 256.898
39.51000 253.947
39.52000 255.473
39.53000 257.334
39.54000 258.620
39.55000 262.031
39.56000 264.650
39.57000 266.836
39.58000 268.389
39.59000 269.936
39.60000 269.200
39.61000 266.304
39.62000 263.432
39.63000 262.111
39.64000 261.760
39.65000 261.403
39.66000 260.901
39.67000 260.339
39.68000 259.983
39.69000 261.997
39.70000 264.683
39.71000 267.072
39.72000 268.582
39.73000 269.750
39.74000 268.721
39.75000 258.151
39.76000 246.473
39.77000 239.725
39.78000 247.314
39.79000 255.817
39.80000 261.508
39.81000 261.583
39.82000 261.527
39.83000 259.519
39.84000 254.933
39.85000 250.343
39.86000 250.245
39.87000 253.971
39.88000 257.652
39.89000 259.615
39.90000 260.582
39.91000 261.544
39.92000 262.384
39.93000 263.178
39.94000 263.588
39.95000 260.159
39.96000 255.741
39.97000 251.871
39.98000 251.742
39.99000 252.169
40.00000 253.122
40.01000 256.138
40.02000 259.365
40.03000 261.277
40.04000 259.706
40.05000 257.949
40.06000 256.812
40.07000 250.008
40.08000 244.949
40.09000 244.238
40.10000 248.710
40.11000 253.174
40.12000 253.548
40.13000 250.781
40.14000 248.059
40.15000 250.930
40.16000 256.485
40.17000 261.663
40.18000 260.780
40.19000 257.784
40.20000 255.419
40.21000 258.591
40.22000 263.055
40.23000 266.902
40.24000 260.659
40.25000 254.081
40.26000 248.864
40.27000 248.503
40.28000 248.573
40.29000 250.679
40.30000 257.698
40.31000 264.933
40.32000 269.443
40.33000 257.254
40.34000 248.298
40.35000 245.576
40.36000 249.544
40.37000 253.491
40.38000 254.561
40.39000 253.629
40.40000 252.718
40.41000 254.005
40.42000 256.226
40.43000 258.223
40.44000 257.164
40.45000 255.137
40.46000 253.138
40.47000 251.365
40.48000 249.640
40.49000 248.179
40.50000 243.936
40.51000 240.069
40.52000 238.838
40.53000 246.157
40.54000 254.133
40.55000 256.789
40.56000 247.754
40.57000 238.302
40.58000 232.639
40.59000 241.114
40.60000 247.224
40.61000 251.602
40.62000 254.311
40.63000 256.986
40.64000 256.898
40.65000 255.067
40.66000 253.287
40.67000 248.896
40.68000 243.666
40.69000 239.066
40.70000 241.861
40.71000 246.789
40.72000 250.628
40.73000 246.960
40.74000 241.863
40.75000 237.626
40.76000 246.266
40.77000 254.680
40.78000 259.232
40.79000 252.384
40.80000 244.789
40.81000 240.210
40.82000 241.669
40.83000 243.297
40.84000 244.232
40.85000 255.437
40.86000 263.298
40.87000 263.185
40.88000 256.171
40.89000 249.240
40.90000 246.927
40.91000 247.263
40.92000 247.586
40.93000 244.989
40.94000 241.478
40.95000 238.594
40.96000 242.124
40.97000 247.333
40.98000 251.103
40.99000 246.009
41.00000 239.401
41.01000 234.013
41.02000 233.773
41.03000 234.014
41.04000 233.908
41.05000 232.868
41.06000 231.775
41.07000 233.493
41.08000 240.332
41.09000 247.280
41.10000 251.091
41.11000 247.905
41.12000 245.709
41.13000 245.524
41.14000 246.910
41.15000 248.148
41.16000 243.419
41.17000 235.578
41.18000 228.073
41.19000 231.343
41.20000 237.941
41.21000 243.792
41.22000 242.952
41.23000 240.524
41.24000 238.756
41.25000 240.625
41.26000 243.051
41.27000 244.988
41.28000 245.570
41.29000 245.940
41.30000 245.433
41.31000 242.776
41.32000 240.020
41.33000 238.551
41.34000 239.214
41.35000 239.910
41.36000 240.273
41.37000 245.572
41.38000 249.114
41.39000 246.537
41.40000 239.634
41.41000 232.977
41.42000 233.972
41.43000 238.603
41.44000 242.997
41.45000 246.211
41.46000 248.825
41.47000 250.530
41.48000 245.052
41.49000 238.032
41.50000 232.227
41.51000 232.457
41.52000 233.510
41.53000 234.332
41.54000 235.244
41.55000 235.978
41.56000 237.624
41.57000 241.310
41.58000 245.071
41.59000 247.880
41.60000 249.257
41.61000 250.620
41.62000 247.272
41.63000 239.307
41.64000 231.404
41.65000 228.651
41.66000 229.199
41.67000 229.900
41.68000 234.412
41.69000 240.573
41.70000 246.362
41.71000 245.868
41.72000 243.740
41.73000 241.187
41.74000 235.656
41.75000 229.550
41.76000 224.817
41.77000 226.246
41.78000 228.419
41.79000 230.074
41.80000 236.241
41.81000 241.335
41.82000 242.545
41.83000 235.857
41.84000 228.939
41.85000 226.519
41.86000 230.230
41.87000 233.975
41.88000 237.839
41.89000 241.800
41.90000 245.677
41.91000 244.599
41.92000 240.637
41.93000 236.848
41.94000 236.607
41.95000 237.765
41.96000 238.841
41.97000 243.650
41.98000 248.887
41.99000 252.327
42.00000 244.496
42.01000 234.705
42.02000 226.873
42.03000 226.999
42.04000 227.972
42.05000 228.694
42.06000 231.619
42.07000 233.988
42.08000 234.005
42.09000 229.666
42.10000 225.231
42.11000 224.474
42.12000 228.249
42.13000 232.030
42.14000 230.164
42.15000 223.843
42.16000 217.651
42.17000 216.904
42.18000 219.042
42.19000 221.419
42.20000 227.845
42.21000 235.726
42.22000 242.968
42.23000 241.159
42.24000 237.596
42.25000 234.764
42.26000 236.042
42.27000 237.960
42.28000 239.096
42.29000 237.349
42.30000 235.333
42.31000 233.877
42.32000 235.308
42.33000 236.509
42.34000 235.507
42.35000 230.796
42.36000 226.025
42.37000 225.543
42.38000 229.824
42.39000 234.091
42.40000 235.081
42.41000 233.729
42.42000 232.444
42.43000 233.363
42.44000 235.344
42.45000 237.234
42.46000 237.813
42.47000 237.963
42.48000 238.099
42.49000 231.343
42.50000 224.052
42.51000 217.367
42.52000 213.743
42.53000 210.544
42.54000 208.711
42.55000 211.451
42.56000 214.559
42.57000 216.740
42.58000 222.219
42.59000 226.462
42.60000 227.804
42.61000 224.713
42.62000 221.575
42.63000 218.659
42.64000 215.964
42.65000 213.286
42.66000 217.619
42.67000 226.383
42.68000 234.713
42.69000 231.836
42.70000 224.038
42.71000 216.826
42.72000 216.845
42.73000 219.013
42.74000 220.955
42.75000 219.846
42.76000 218.355
42.77000 217.340
42.78000 218.499
42.79000 219.926
42.80000 221.353
42.81000 222.779
42.82000 224.205
42.83000 225.175
42.84000 225.789
42.85000 226.240
42.86000 227.817
42.87000 230.957
42.88000 234.104
42.89000 233.200
42.90000 228.669
42.91000 224.184
42.92000 222.345
42.93000 222.077
42.94000 221.900
42.95000 223.644
42.96000 226.156
42.97000 228.203
42.98000 225.275
42.99000 221.003
43.00000 217.233
43.01000 218.070
43.02000 219.496
43.03000 220.794
43.04000 221.566
43.05000 222.280
43.06000 223.406
43.07000 225.673
43.08000 228.006
43.09000 229.541
43.10000 224.037
43.11000 219.864
43.12000 217.533
43.13000 217.508
43.14000 217.490
43.15000 217.266
43.16000 216.875
43.17000 216.490
43.18000 216.304
43.19000 216.228
43.20000 216.221
43.21000 217.442
43.22000 219.109
43.23000 220.818
43.24000 222.906
43.25000 225.088
43.26000 226.984
43.27000 222.651
43.28000 218.114
43.29000 214.672
43.30000 215.328
43.31000 216.373
43.32000 217.811
43.33000 220.238
43.34000 222.713
43.35000 224.284
43.36000 233.176
43.37000 239.721
43.38000 237.546
43.39000 225.521
43.40000 213.543
43.41000 210.982
43.42000 215.294
43.43000 219.521
43.44000 220.247
43.45000 219.294
43.46000 218.346
43.47000 217.474
43.48000 216.627
43.49000 216.020
43.50000 217.384
43.51000 219.185
43.52000 220.724
43.53000 220.726
43.54000 220.544
43.55000 220.974
43.56000 223.483
43.57000 226.164
43.58000 226.629
43.59000 221.999
43.60000 217.166
43.61000 214.214
43.62000 214.091
43.63000 214.027
43.64000 213.310
43.65000 211.932
43.66000 210.627
43.67000 216.578
43.68000 227.328
43.69000 237.807
43.70000 238.912
43.71000 235.978
43.72000 232.986
43.73000 229.273
43.74000 225.342
43.75000 221.887
43.76000 221.899
43.77000 222.605
43.78000 223.198
43.79000 222.309
43.80000 221.413
43.81000 220.496
43.82000 219.514
43.83000 218.526
43.84000 218.179
43.85000 219.174
43.86000 220.210
43.87000 220.818
43.88000 224.229
43.89000 226.643
43.90000 224.704
43.91000 218.798
43.92000 212.920
43.93000 208.825
43.94000 205.801
43.95000 202.873
43.96000 205.013
43.97000 208.984
43.98000 212.696
43.99000 213.582
44.00000 213.693
44.01000 213.689
44.02000 212.937
44.03000 212.051
44.04000 211.321
44.05000 215.194
44.06000 218.800
44.07000 220.718
44.08000 217.888
44.09000 214.773
44.10000 212.934
44.11000 213.532
44.12000 214.188
44.13000 214.557
44.14000 222.624
44.15000 228.225
44.16000 228.530
44.17000 224.489
44.18000 220.485
44.19000 218.207
44.20000 216.871
44.21000 215.587
44.22000 218.607
44.23000 222.926
44.24000 226.653
44.25000 224.731
44.26000 221.403
44.27000 219.115
44.28000 222.880
44.29000 227.623
44.30000 231.449
44.31000 229.022
44.32000 226.557
44.33000 223.889
44.34000 220.701
44.35000 217.487
44.36000 215.098
44.37000 214.139
44.38000 213.207
44.39000 212.708
44.40000 216.246
44.41000 218.668
44.42000 222.133
44.43000 226.372
44.44000 230.480
44.45000 229.969
44.46000 227.163
44.47000 224.489
44.48000 223.085
44.49000 222.181
44.50000 221.501
44.51000 222.704
44.52000 224.330
44.53000 225.176
44.54000 221.941
44.55000 218.117
44.56000 215.099
44.57000 217.536
44.58000 219.861
44.59000 221.329
44.60000 220.799
44.61000 220.186
44.62000 219.900
44.63000 220.127
44.64000 220.361
44.65000 220.480
44.66000 224.710
44.67000 227.508
44.68000 226.418
44.69000 222.716
44.70000 219.172
44.71000 220.020
44.72000 222.857
44.73000 225.535
44.74000 223.408
44.75000 220.105
44.76000 217.392
44.77000 219.062
44.78000 221.625
44.79000 223.548
44.80000 222.454
44.81000 220.974
44.82000 219.832
44.83000 225.957
44.84000 231.228
44.85000 233.784
44.86000 230.567
44.87000 227.160
44.88000 228.035
44.89000 235.037
44.90000 242.085
44.91000 241.235
44.92000 233.071
44.93000 225.049
44.94000 226.811
44.95000 234.540
44.96000 241.864
44.97000 240.126
44.98000 234.650
44.99000 229.533
45.00000 230.691
45.01000 233.328
45.02000 235.622
45.03000 235.642
45.04000 235.246
45.05000 236.079
45.06000 242.157
45.07000 248.828
45.08000 253.846
45.09000 254.193
45.10000 254.240
45.11000 251.806
45.12000 244.566
45.13000 237.205
45.14000 238.751
45.15000 251.831
45.16000 264.942
45.17000 269.710
45.18000 267.521
45.19000 265.334
45.20000 263.277
45.21000 261.292
45.22000 259.218
45.23000 255.501
45.24000 251.166
45.25000 247.159
45.26000 252.143
45.27000 258.657
45.28000 263.578
45.29000 259.072
45.30000 253.015
45.31000 248.163
45.32000 247.967
45.33000 248.234
45.34000 248.429
45.35000 253.181
45.36000 257.031
45.37000 258.379
45.38000 255.317
45.39000 252.173
45.40000 248.864
45.41000 245.364
45.42000 241.873
45.43000 240.817
45.44000 241.592
45.45000 242.414
45.46000 244.951
45.47000 248.355
45.48000 251.255
45.49000 246.312
45.50000 238.685
45.51000 231.720
45.52000 240.550
45.53000 251.599
45.54000 260.630
45.55000 258.937
45.56000 255.666
45.57000 253.550
45.58000 255.477
45.59000 257.755
45.60000 259.376
45.61000 249.159
45.62000 240.991
45.63000 236.129
45.64000 236.563
45.65000 237.066
45.66000 237.966
45.67000 239.284
45.68000 240.596
45.69000 241.456
45.70000 242.002
45.71000 242.451
45.72000 240.115
45.73000 236.500
45.74000 232.891
45.75000 229.366
45.76000 225.867
45.77000 222.713
45.78000 228.848
45.79000 235.919
45.80000 240.781
45.81000 235.056
45.82000 227.946
45.83000 222.761
45.84000 223.707
45.85000 225.111
45.86000 226.080
45.87000 229.517
45.88000 232.163
45.89000 231.535
45.90000 226.149
45.91000 220.723
45.92000 217.223
45.93000 215.540
45.94000 213.870
45.95000 214.321
45.96000 216.052
45.97000 217.739
45.98000 218.403
45.99000 218.638
46.00000 218.694
46.01000 216.702
46.02000 214.132
46.03000 211.846
46.04000 213.104
46.05000 214.769
46.06000 215.971
46.07000 215.175
46.08000 214.148
46.09000 213.374
46.10000 213.338
46.11000 213.348
46.12000 213.355
46.13000 204.539
46.14000 197.829
46.15000 195.298
46.16000 198.264
46.17000 201.256
46.18000 204.779
46.19000 208.752
46.20000 212.677
46.21000 212.605
46.22000 210.342
46.23000 208.206
46.24000 208.497
46.25000 209.714
46.26000 210.707
46.27000 209.470
46.28000 207.659
46.29000 206.074
46.30000 205.603
46.31000 205.358
46.32000 205.830
46.33000 209.118
46.34000 212.691
46.35000 214.640
46.36000 212.299
46.37000 209.728
46.38000 208.068
46.39000 203.448
46.40000 200.028
46.41000 197.750
46.42000 196.830
46.43000 195.912
46.44000 194.653
46.45000 193.135
46.46000 191.642
46.47000 189.720
46.48000 187.650
46.49000 186.040
46.50000 191.769
46.51000 200.048
46.52000 207.112
46.53000 203.554
46.54000 197.523
46.55000 192.328
46.56000 196.143
46.57000 200.520
46.58000 203.618
46.59000 202.165
46.60000 200.308
46.61000 199.874
46.62000 202.862
46.63000 206.000
46.64000 207.954
46.65000 202.675
46.66000 198.798
46.67000 198.424
46.68000 201.795
46.69000 205.141
46.70000 205.273
46.71000 203.175
46.72000 201.123
46.73000 197.697
46.74000 193.796
46.75000 190.437
46.76000 194.426
46.77000 200.738
46.78000 206.410
46.79000 207.142
46.80000 206.834
46.81000 206.573
46.82000 199.646
46.83000 193.101
46.84000 188.668
46.85000 191.067
46.86000 193.988
46.87000 196.975
46.88000 200.107
46.89000 203.245
46.90000 205.122
46.91000 202.963
46.92000 201.405
46.93000 198.605
46.94000 194.614
46.95000 190.657
46.96000 189.400
46.97000 189.842
46.98000 190.271
46.99000 192.047
47.00000 194.279
47.01000 196.208
47.02000 194.595
47.03000 191.962
47.04000 190.201
47.05000 194.423
47.06000 199.780
47.07000 204.232
47.08000 200.723
47.09000 197.043
47.10000 194.018
47.11000 192.925
47.12000 191.958
47.13000 192.445
47.14000 195.836
47.15000 199.307
47.16000 201.297
47.17000 199.020
47.18000 197.414
47.19000 195.984
47.20000 194.706
47.21000 193.459
47.22000 193.924
47.23000 195.367
47.24000 196.760
47.25000 195.083
47.26000 192.387
47.27000 190.153
47.28000 192.627
47.29000 196.330
47.30000 198.716
47.31000 193.025
47.32000 185.958
47.33000 180.200
47.34000 181.933
47.35000 183.985
47.36000 185.827
47.37000 187.107
47.38000 188.356
47.39000 189.258
47.40000 189.531
47.41000 189.792
47.42000 189.934
47.43000 188.505
47.44000 187.516
47.45000 185.574
47.46000 182.889
47.47000 180.303
47.48000 181.689
47.49000 185.140
47.50000 188.442
47.51000 188.948
47.52000 188.500
47.53000 188.168
47.54000 188.870
47.55000 189.817
47.56000 191.324
47.57000 195.915
47.58000 200.977
47.59000 205.014
47.60000 201.531
47.61000 198.170
47.62000 194.518
47.63000 190.158
47.64000 185.765
47.65000 183.028
47.66000 183.026
47.67000 183.065
47.68000 183.086
47.69000 177.143
47.70000 173.172
47.71000 175.783
47.72000 183.034
47.73000 190.093
47.74000 191.205
47.75000 189.500
47.76000 187.883
47.77000 188.258
47.78000 189.193
47.79000 189.641
47.80000 186.246
47.81000 182.030
47.82000 178.876
47.83000 180.990
47.84000 183.819
47.85000 186.026
47.86000 188.830
47.87000 191.102
47.88000 192.599
47.89000 192.370
47.90000 192.077
47.91000 191.052
47.92000 188.926
47.93000 186.789
47.94000 185.797
47.95000 185.923
47.96000 186.029
47.97000 184.539
47.98000 182.029
47.99000 179.622
48.00000 179.749
48.01000 180.971
48.02000 182.118
48.03000 183.217
48.04000 184.207
48.05000 184.717
48.06000 181.872
48.07000 178.381
48.08000 175.982
48.09000 178.468
48.10000 181.542
48.11000 183.882
48.12000 185.471
48.13000 186.683
48.14000 185.873
48.15000 180.964
48.16000 175.938
48.17000 174.990
48.18000 179.588
48.19000 184.214
48.20000 186.234
48.21000 185.967
48.22000 185.747
48.23000 188.201
48.24000 192.209
48.25000 196.023
48.26000 195.933
48.27000 194.308
48.28000 192.797
48.29000 187.967
48.30000 182.814
48.31000 177.908
48.32000 174.543
48.33000 171.446
48.34000 169.521
48.35000 172.341
48.36000 175.664
48.37000 178.130
48.38000 180.388
48.39000 182.133
48.40000 184.034
48.41000 186.220
48.42000 188.414
48.43000 187.015
48.44000 181.204
48.45000 175.393
48.46000 174.978
48.47000 178.817
48.48000 182.618
48.49000 184.772
48.50000 186.058
48.51000 187.276
48.52000 187.348
48.53000 187.010
48.54000 186.699
48.55000 181.665
48.56000 176.158
48.57000 171.995
48.58000 175.349
48.59000 179.871
48.60000 183.184
48.61000 182.055
48.62000 180.515
48.63000 179.403
48.64000 182.749
48.65000 185.474
48.66000 186.048
48.67000 183.013
48.68000 179.920
48.69000 176.528
48.70000 172.803
48.71000 169.093
48.72000 169.589
48.73000 173.063
48.74000 176.460
48.75000 177.345
48.76000 177.021
48.77000 176.677
48.78000 176.032
48.79000 175.288
48.80000 174.614
48.81000 174.110
48.82000 173.697
48.83000 173.832
48.84000 176.728
48.85000 180.006
48.86000 181.439
48.87000 176.717
48.88000 171.502
48.89000 167.846
48.90000 168.319
48.91000 168.796
48.92000 169.620
48.93000 170.973
48.94000 172.331
48.95000 177.714
48.96000 187.098
48.97000 196.418
48.98000 193.681
48.99000 183.276
49.00000 173.279
49.01000 173.753
49.02000 178.812
49.03000 183.252
49.04000 180.094
49.05000 174.683
49.06000 169.840
49.07000 172.459
49.08000 176.022
49.09000 178.341
49.10000 175.010
49.11000 170.985
49.12000 168.005
49.13000 168.198
49.14000 168.608
49.15000 168.887
49.16000 175.957
49.17000 181.386
49.18000 183.565
49.19000 181.254
49.20000 178.915
49.21000 177.515
49.22000 176.953
49.23000 176.397
49.24000 174.967
49.25000 173.066
49.26000 171.082
49.27000 167.394
49.28000 163.026
49.29000 159.479
49.30000 164.660
49.31000 172.191
49.32000 178.835
49.33000 182.021
49.34000 184.243
49.35000 185.252
49.36000 181.275
49.37000 176.758
49.38000 174.471
49.39000 178.345
49.40000 182.577
49.41000 185.358
49.42000 183.292
49.43000 181.690
49.44000 177.390
49.45000 169.718
49.46000 162.061
49.47000 162.985
49.48000 170.815
49.49000 178.530
49.50000 179.907
49.51000 177.945
49.52000 176.010
49.53000 174.555
49.54000 173.275
49.55000 172.230
49.56000 173.374
49.57000 175.053
49.58000 176.511
49.59000 177.023
49.60000 177.333
49.61000 177.557
49.62000 177.461
49.63000 177.334
49.64000 177.868
49.65000 180.062
49.66000 182.337
49.67000 183.779
49.68000 173.887
49.69000 166.572
49.70000 164.552
49.71000 168.494
49.72000 172.407
49.73000 170.893
49.74000 165.428
49.75000 160.071
49.76000 161.522
49.77000 166.120
49.78000 170.634
49.79000 173.930
49.80000 176.823
49.81000 179.166
49.82000 177.010
49.83000 173.861
49.84000 171.171
49.85000 167.497
49.86000 164.286
49.87000 163.014
49.88000 168.318
49.89000 174.161
49.90000 178.106
49.91000 177.698
49.92000 177.118
49.93000 176.764
49.94000 172.031
49.95000 168.612
49.96000 169.038
49.97000 173.353
49.98000 177.616
49.99000 176.856
50.00000 172.783
50.01000 168.813
50.02000 165.987
50.03000 163.776
50.04000 162.114
50.05000 167.347
50.06000 174.655
50.07000 180.911
50.08000 179.514
50.09000 176.591
50.10000 174.139
50.11000 173.478
50.12000 173.114
50.13000 172.192
50.14000 169.549
50.15000 166.784
50.16000 166.343
50.17000 170.756
50.18000 175.321
50.19000 177.994
50.20000 180.278
50.21000 181.884
50.22000 184.324
50.23000 187.519
50.24000 190.569
50.25000 184.206
50.26000 172.206
50.27000 160.589
50.28000 161.551
50.29000 167.278
50.30000 172.861
50.31000 176.884
50.32000 180.479
50.33000 182.788
50.34000 176.770
50.35000 169.258
50.36000 163.077
50.37000 165.542
50.38000 168.355
50.39000 171.798
50.40000 177.009
50.41000 182.326
50.42000 185.417
50.43000 184.273
50.44000 183.026
50.45000 182.328
50.46000 180.227
50.47000 178.771
50.48000 178.981
50.49000 180.553
50.50000 182.195
50.51000 187.043
50.52000 193.638
50.53000 199.973
50.54000 192.499
50.55000 180.730
50.56000 169.933
50.57000 168.363
50.58000 169.083
50.59000 170.945
50.60000 179.427
50.61000 188.975
50.62000 196.671
50.63000 190.600
50.64000 184.587
50.65000 179.090
50.66000 174.915
50.67000 170.805
50.68000 170.652
50.69000 177.343
50.70000 184.156
50.71000 187.795
50.72000 192.093
50.73000 195.007
50.74000 194.837
50.75000 192.386
50.76000 189.897
50.77000 186.060
50.78000 181.555
50.79000 177.264
50.80000 174.316
50.81000 172.002
50.82000 170.189
50.83000 172.559
50.84000 175.869
50.85000 178.384
50.86000 176.762
50.87000 174.544
50.88000 172.795
50.89000 170.239
50.90000 168.135
50.91000 168.604
50.92000 175.064
50.93000 181.769
50.94000 186.295
50.95000 187.396
50.96000 188.456
50.97000 188.993
50.98000 181.765
50.99000 176.939
51.00000 173.846
51.01000 171.915
51.02000 170.184
51.03000 173.985
51.04000 180.282
51.05000 186.226
51.06000 185.802
51.07000 183.629
51.08000 181.385
51.09000 178.626
51.10000 175.762
51.11000 173.708
51.12000 175.461
51.13000 177.701
51.14000 179.426
51.15000 177.158
51.16000 175.134
51.17000 174.197
51.18000 175.568
51.19000 177.014
51.20000 178.066
51.21000 178.557
51.22000 179.044
51.23000 176.845
51.24000 172.168
51.25000 167.541
51.26000 166.423
51.27000 167.439
51.28000 168.302
51.29000 165.768
51.30000 161.836
51.31000 158.163
51.32000 160.544
51.33000 164.230
51.34000 166.954
51.35000 163.333
51.36000 158.555
51.37000 155.210
51.38000 157.962
51.39000 161.402
51.40000 163.987
51.41000 162.483
51.42000 161.111
51.43000 161.386
51.44000 164.843
51.45000 168.380
51.46000 172.318
51.47000 176.774
51.48000 181.226
51.49000 178.713
51.50000 170.430
51.51000 162.312
51.52000 162.242
51.53000 166.621
51.54000 170.710
51.55000 169.467
51.56000 166.226
51.57000 163.231
51.58000 165.109
51.59000 167.896
51.60000 169.744
51.61000 166.048
51.62000 161.445
51.63000 158.274
51.64000 160.618
51.65000 163.507
51.66000 165.622
51.67000 160.526
51.68000 156.308
51.69000 153.926
51.70000 154.769
51.71000 155.673
51.72000 155.819
51.73000 155.083
51.74000 154.347
51.75000 154.450
51.76000 155.180
51.77000 155.927
51.78000 157.345
51.79000 159.100
51.80000 160.657
51.81000 159.160
51.82000 156.621
51.83000 154.304
51.84000 157.508
51.85000 161.470
51.86000 164.476
51.87000 162.417
51.88000 159.617
51.89000 158.500
51.90000 163.267
51.91000 168.542
51.92000 172.294
51.93000 163.718
51.94000 156.791
51.95000 153.423
51.96000 155.739
51.97000 158.128
51.98000 159.931
51.99000 161.118
52.00000 162.298
52.01000 164.388
52.02000 167.064
52.03000 169.594
52.04000 167.970
52.05000 164.442
52.06000 161.100
52.07000 160.218
52.08000 160.099
52.09000 159.992
52.10000 162.209
52.11000 164.575
52.12000 165.705
52.13000 160.937
52.14000 155.400
52.15000 151.705
52.16000 153.863
52.17000 156.455
52.18000 158.244
52.19000 160.764
52.20000 162.676
52.21000 164.061
52.22000 164.685
52.23000 165.301
52.24000 162.916
52.25000 157.712
52.26000 152.551
52.27000 152.538
52.28000 155.645
52.29000 158.576
52.30000 157.426
52.31000 154.574
52.32000 152.092
52.33000 153.834
52.34000 156.768
52.35000 159.375
52.36000 156.561
52.37000 153.248
52.38000 151.148
52.39000 154.288
52.40000 158.032
52.41000 161.430
52.42000 163.826
52.43000 166.160
52.44000 167.718
52.45000 160.564
52.46000 155.092
52.47000 153.837
52.48000 158.114
52.49000 162.408
52.50000 162.320
52.51000 158.525
52.52000 154.778
52.53000 153.800
52.54000 154.361
52.55000 154.960
52.56000 156.257
52.57000 157.820
52.58000 159.440
52.59000 161.621
52.60000 163.945
52.61000 165.980
52.62000 163.107
52.63000 159.942
52.64000 156.996
52.65000 154.907
52.66000 152.905
52.67000 152.158
52.68000 154.718
52.69000 157.453
52.70000 159.217
52.71000 163.419
52.72000 166.523
52.73000 165.232
52.74000 158.733
52.75000 152.248
52.76000 151.085
52.77000 153.987
52.78000 156.839
52.79000 154.838
52.80000 150.506
52.81000 146.424
52.82000 146.326
52.83000 147.606
52.84000 148.784
52.85000 149.061
52.86000 149.130
52.87000 149.189
52.88000 151.228
52.89000 153.205
52.90000 155.106
52.91000 156.737
52.92000 158.343
52.93000 159.841
52.94000 161.077
52.95000 162.301
52.96000 163.063
52.97000 160.458
52.98000 158.549
52.99000 157.882
53.00000 158.539
53.01000 159.209
53.02000 161.327
53.03000 164.447
53.04000 167.497
53.05000 166.671
53.06000 164.152
53.07000 161.597
53.08000 158.549
53.09000 155.345
53.10000 152.439
53.11000 151.819
53.12000 151.679
53.13000 151.560
53.14000 153.486
53.15000 155.325
53.16000 156.279
53.17000 154.381
53.18000 152.265
53.19000 151.741
53.20000 154.697
53.21000 157.775
53.22000 159.615
53.23000 158.628
53.24000 157.909
53.25000 157.323
53.26000 156.862
53.27000 156.452
53.28000 160.046
53.29000 166.153
53.30000 172.084
53.31000 169.628
53.32000 163.920
53.33000 158.510
53.34000 156.568
53.35000 155.621
53.36000 154.550
53.37000 152.630
53.38000 150.549
53.39000 148.821
53.40000 153.304
53.41000 157.615
53.42000 160.301
53.43000 158.211
53.44000 155.811
53.45000 155.237
53.46000 158.296
53.47000 161.456
53.48000 163.265
53.49000 160.160
53.50000 157.974
53.51000 156.013
53.52000 154.246
53.53000 152.479
53.54000 150.695
53.55000 148.903
53.56000 147.174
53.57000 149.904
53.58000 154.090
53.59000 157.938
53.60000 158.359
53.61000 157.889
53.62000 157.914
53.63000 160.967
53.64000 164.533
53.65000 167.438
53.66000 160.125
53.67000 153.289
53.68000 149.319
53.69000 153.015
53.70000 157.128
53.71000 159.849
53.72000 160.047
53.73000 160.193
53.74000 160.272
53.75000 157.415
53.76000 155.453
53.77000 155.116
53.78000 156.041
53.79000 156.895
53.80000 154.931
53.81000 151.504
53.82000 148.226
53.83000 146.404
53.84000 145.183
53.85000 144.435
53.86000 147.883
53.87000 152.320
53.88000 155.807
53.89000 154.082
53.90000 151.565
53.91000 149.559
53.92000 149.073
53.93000 148.792
53.94000 146.943
53.95000 141.279
53.96000 135.442
53.97000 135.760
53.98000 146.217
53.99000 156.824
54.00000 162.344
54.01000 162.578
54.02000 162.722
54.03000 161.159
54.04000 158.397
54.05000 155.627
54.06000 152.588
54.07000 149.422
54.08000 146.420
54.09000 150.094
54.10000 155.449
54.11000 160.182
54.12000 160.023
54.13000 158.821
54.14000 157.702
54.15000 156.991
54.16000 156.337
54.17000 155.826
54.18000 151.405
54.19000 147.640
54.20000 145.686
54.21000 147.752
54.22000 149.965
54.23000 151.645
54.24000 152.525
54.25000 153.398
54.26000 156.694
54.27000 162.347
54.28000 167.884
54.29000 163.773
54.30000 153.514
54.31000 143.546
54.32000 140.754
54.33000 141.050
54.34000 141.327
54.35000 144.100
54.36000 147.292
54.37000 150.234
54.38000 151.438
54.39000 152.308
54.40000 152.494
54.41000 149.629
54.42000 146.398
54.43000 143.941
54.44000 153.046
54.45000 160.816
54.46000 166.010
54.47000 166.001
54.48000 165.843
54.49000 163.296
54.50000 157.513
54.51000 151.714
54.52000 151.066
54.53000 154.917
54.54000 158.690
54.55000 158.055
54.56000 154.867
54.57000 151.742
54.58000 149.869
54.59000 148.488
54.60000 147.205
54.61000 145.792
54.62000 144.486
54.63000 143.929
54.64000 148.024
54.65000 152.925
54.66000 157.063
54.67000 158.126
54.68000 158.865
54.69000 159.413
54.70000 156.182
54.71000 153.509
54.72000 152.122
54.73000 153.104
54.74000 154.137
54.75000 153.638
54.76000 151.262
54.77000 148.886
54.78000 148.012
54.79000 148.321
54.80000 148.643
54.81000 149.466
54.82000 150.553
54.83000 151.642
54.84000 152.779
54.85000 153.933
54.86000 154.993
54.87000 159.303
54.88000 163.844
54.89000 166.949
54.90000 162.040
54.91000 155.891
54.92000 150.370
54.93000 147.148
54.94000 144.138
54.95000 141.967
54.96000 143.066
54.97000 144.026
54.98000 144.281
54.99000 143.359
55.00000 142.419
55.01000 145.181
55.02000 152.029
55.03000 158.852
55.04000 160.870
55.05000 159.471
55.06000 158.196
55.07000 160.876
55.08000 165.453
55.09000 169.593
55.10000 167.524
55.11000 163.435
55.12000 159.728
55.13000 159.934
55.14000 160.864
55.15000 161.707
55.16000 162.110
55.17000 162.453
55.18000 161.073
55.19000 153.965
55.20000 146.399
55.21000 141.100
55.22000 146.129
55.23000 150.228
55.24000 153.625
55.25000 155.955
55.26000 158.273
55.27000 158.170
55.28000 155.667
55.29000 153.181
55.30000 153.218
55.31000 154.861
55.32000 156.526
55.33000 158.725
55.34000 161.156
55.35000 163.297
55.36000 161.880
55.37000 159.411
55.38000 157.203
55.39000 162.555
55.40000 168.512
55.41000 173.779
55.42000 175.918
55.43000 177.673
55.44000 177.474
55.45000 171.356
55.46000 164.833
55.47000 160.406
55.48000 169.663
55.49000 176.875
55.50000 181.667
55.51000 183.129
55.52000 184.568
55.53000 184.469
55.54000 182.999
55.55000 181.545
55.56000 183.493
55.57000 187.355
55.58000 191.062
55.59000 191.572
55.60000 190.809
55.61000 190.449
55.62000 194.343
55.63000 199.380
55.64000 203.821
55.65000 205.990
55.66000 207.515
55.67000 211.129
55.68000 223.312
55.69000 236.418
55.70000 248.061
55.71000 255.672
55.72000 263.050
55.73000 267.894
55.74000 268.272
55.75000 268.475
55.76000 271.215
55.77000 277.113
55.78000 283.026
55.79000 291.021
55.80000 300.686
55.81000 310.208
55.82000 317.125
55.83000 322.486
55.84000 328.060
55.85000 337.324
55.86000 347.925
55.87000 358.147
55.88000 364.858
55.89000 370.715
55.90000 375.798
55.91000 375.231
55.92000 373.989
55.93000 373.170
55.94000 373.925
55.95000 374.828
55.96000 376.834
55.97000 381.609
55.98000 386.518
55.99000 389.627
56.00000 385.336
56.01000 382.135
56.02000 378.663
56.03000 374.888
56.04000 371.111
56.05000 367.159
56.06000 363.079
56.07000 359.080
56.08000 356.546
56.09000 354.793
56.10000 352.560
56.11000 343.326
56.12000 331.781
56.13000 320.747
56.14000 313.886
56.15000 307.944
56.16000 302.872
56.17000 290.277
56.18000 278.782
56.19000 270.194
56.20000 271.433
56.21000 273.475
56.22000 271.700
56.23000 261.193
56.24000 250.345
56.25000 243.733
56.26000 237.572
56.27000 233.172
56.28000 228.890
56.29000 224.726
56.30000 220.573
56.31000 217.374
56.32000 214.802
56.33000 212.296
56.34000 212.630
56.35000 214.150
56.36000 215.058
56.37000 208.324
56.38000 199.294
56.39000 191.206
56.40000 189.936
56.41000 190.021
56.42000 190.093
56.43000 184.923
56.44000 180.079
56.45000 175.280
56.46000 170.617
56.47000 165.965
56.48000 163.051
56.49000 163.759
56.50000 164.580
56.51000 165.060
56.52000 168.114
56.53000 170.275
56.54000 171.408
56.55000 171.609
56.56000 171.793
56.57000 170.867
56.58000 169.277
56.59000 167.739
56.60000 162.174
56.61000 155.379
56.62000 149.296
56.63000 150.933
56.64000 154.675
56.65000 157.949
56.66000 158.194
56.67000 157.897
56.68000 157.653
56.69000 155.946
56.70000 154.411
56.71000 154.239
56.72000 157.881
56.73000 161.750
56.74000 162.641
56.75000 157.886
56.76000 152.996
56.77000 150.260
56.78000 147.787
56.79000 146.076
56.80000 145.271
56.81000 145.204
56.82000 145.123
56.83000 144.385
56.84000 143.291
56.85000 142.240
56.86000 143.155
56.87000 144.688
56.88000 146.115
56.89000 146.537
56.90000 146.710
56.91000 147.381
56.92000 150.936
56.93000 154.954
56.94000 158.190
56.95000 153.338
56.96000 148.766
56.97000 145.609
56.98000 146.062
56.99000 146.692
57.00000 146.860
57.01000 146.229
57.02000 145.584
57.03000 145.240
57.04000 145.216
57.05000 145.210
57.06000 146.912
57.07000 149.873
57.08000 152.729
57.09000 151.917
57.10000 149.293
57.11000 146.794
57.12000 144.348
57.13000 142.099
57.14000 140.055
57.15000 139.722
57.16000 139.771
57.17000 139.600
57.18000 138.285
57.19000 136.806
57.20000 135.641
57.21000 140.226
57.22000 144.288
57.23000 146.981
57.24000 146.493
57.25000 145.877
57.26000 145.753
57.27000 146.402
57.28000 147.060
57.29000 147.393
57.30000 147.688
57.31000 147.886
57.32000 148.127
57.33000 148.396
57.34000 148.576
57.35000 146.305
57.36000 142.932
57.37000 139.750
57.38000 140.754
57.39000 142.845
57.40000 144.538
57.41000 143.291
57.42000 141.450
57.43000 140.211
57.44000 141.792
57.45000 143.732
57.46000 145.226
57.47000 144.507
57.48000 143.811
57.49000 143.597
57.50000 144.399
57.51000 145.235
57.52000 145.613
57.53000 145.341
57.54000 145.064
57.55000 145.008
57.56000 145.156
57.57000 145.288
57.58000 144.345
57.59000 142.752
57.60000 141.224
57.61000 141.141
57.62000 141.652
57.63000 142.129
57.64000 143.867
57.65000 145.760
57.66000 146.871
57.67000 142.835
57.68000 137.862
57.69000 134.834
57.70000 140.048
57.71000 146.189
57.72000 150.799
57.73000 146.785
57.74000 143.236
57.75000 141.656
57.76000 143.866
57.77000 146.171
57.78000 145.673
57.79000 141.570
57.80000 137.457
57.81000 137.418
57.82000 140.747
57.83000 143.994
57.84000 143.276
57.85000 140.371
57.86000 137.622
57.87000 137.695
57.88000 138.822
57.89000 139.864
57.90000 140.751
57.91000 141.512
57.92000 142.087
57.93000 141.565
57.94000 140.863
57.95000 140.082
57.96000 138.995
57.97000 137.878
57.98000 137.062
57.99000 131.207
58.00000 126.491
58.01000 126.639
58.02000 135.308
58.03000 144.134
58.04000 146.423
58.05000 141.123
58.06000 135.827
58.07000 134.752
58.08000 136.824
58.09000 138.851
58.10000 139.221
58.11000 138.759
58.12000 138.309
58.13000 138.039
58.14000 137.829
58.15000 137.638
58.16000 141.379
58.17000 145.491
58.18000 148.514
58.19000 145.787
58.20000 142.221
58.21000 139.565
58.22000 140.082
58.23000 140.871
58.24000 141.432
58.25000 140.280
58.26000 139.348
58.27000 139.419
58.28000 141.085
58.29000 142.771
58.30000 141.366
58.31000 136.734
58.32000 132.127
58.33000 130.322
58.34000 130.418
58.35000 130.470
58.36000 129.285
58.37000 127.534
58.38000 126.020
58.39000 127.624
58.40000 130.194
58.41000 132.508
58.42000 133.080
58.43000 133.268
58.44000 133.526
58.45000 134.117
58.46000 134.752
58.47000 136.147
58.48000 139.953
58.49000 143.937
58.50000 146.684
58.51000 140.533
58.52000 135.689
58.53000 133.788
58.54000 136.137
58.55000 138.520
58.56000 139.378
58.57000 138.806
58.58000 138.240
58.59000 138.690
58.60000 139.746
58.61000 140.747
58.62000 140.480
58.63000 139.684
58.64000 138.985
58.65000 139.390
58.66000 140.105
58.67000 140.740
58.68000 141.076
58.69000 141.320
58.70000 140.934
58.71000 137.836
58.72000 134.427
58.73000 131.692
58.74000 130.902
58.75000 130.234
58.76000 129.788
58.77000 129.393
58.78000 129.102
58.79000 129.977
58.80000 132.378
58.81000 134.781
58.82000 134.526
58.83000 132.032
58.84000 129.568
58.85000 131.952
58.86000 136.917
58.87000 141.530
58.88000 139.514
58.89000 134.985
58.90000 130.793
58.91000 129.936
58.92000 129.930
58.93000 129.926
58.94000 127.650
58.95000 125.377
58.96000 123.600
58.97000 123.761
58.98000 124.117
58.99000 125.275
59.00000 128.538
59.01000 131.912
59.02000 134.087
59.03000 133.721
59.04000 133.418
59.05000 133.093
59.06000 132.744
59.07000 132.391
59.08000 131.496
59.09000 130.187
59.10000 128.901
59.11000 129.518
59.12000 131.051
59.13000 132.466
59.14000 132.018
59.15000 130.927
59.16000 130.194
59.17000 132.573
59.18000 135.672
59.19000 138.338
59.20000 140.327
59.21000 141.926
59.22000 143.150
59.23000 143.047
59.24000 142.827
59.25000 141.308
59.26000 136.682
59.27000 131.920
59.28000 128.963
59.29000 131.369
59.30000 133.154
59.31000 135.075
59.32000 137.139
59.33000 139.176
59.34000 137.876
59.35000 134.275
59.36000 130.756
59.37000 131.250
59.38000 133.506
59.39000 135.492
59.40000 133.838
59.41000 131.041
59.42000 128.249
59.43000 125.505
59.44000 122.770
59.45000 120.458
59.46000 125.174
59.47000 129.898
59.48000 133.347
59.49000 132.696
59.50000 131.734
59.51000 131.047
59.52000 130.956
59.53000 130.887
59.54000 130.845
59.55000 131.453
59.56000 131.889
59.57000 134.221
59.58000 138.362
59.59000 142.451
59.60000 142.605
59.61000 140.298
59.62000 138.057
59.63000 138.135
59.64000 139.140
59.65000 139.894
59.66000 137.735
59.67000 134.742
59.68000 131.944
59.69000 130.468
59.70000 129.242
59.71000 128.224
59.72000 127.181
59.73000 126.317
59.74000 126.647
59.75000 130.473
59.76000 134.525
59.77000 136.560
59.78000 134.592
59.79000 132.515
59.80000 131.328
59.81000 131.981
59.82000 132.447
59.83000 135.040
59.84000 139.457
59.85000 143.787
59.86000 143.455
59.87000 140.473
59.88000 137.598
59.89000 136.296
59.90000 135.641
59.91000 134.636
59.92000 130.107
59.93000 124.665
59.94000 120.255
59.95000 122.144
59.96000 125.098
59.97000 127.502
59.98000 128.529
59.99000 129.252
60.00000 130.251
60.01000 131.985
60.02000 133.760
60.03000 133.834
60.04000 130.837
60.05000 127.776
60.06000 126.105
60.07000 131.368
60.08000 135.002
60.09000 140.923
60.10000 148.614
60.11000 156.002
60.12000 151.423
60.13000 140.654
60.14000 130.355
60.15000 133.493
60.16000 140.801
60.17000 147.162
60.18000 145.142
60.19000 141.152
60.20000 137.666
60.21000 136.933
60.22000 136.617
60.23000 136.366
60.24000 132.518
60.25000 129.155
60.26000 127.282
60.27000 129.031
60.28000 130.943
60.29000 131.937
60.30000 131.424
60.31000 130.889
60.32000 130.612
60.33000 131.520
60.34000 132.133
60.35000 132.621
60.36000 133.021
60.37000 133.358
60.38000 131.769
60.39000 129.272
60.40000 126.906
60.41000 128.315
60.42000 130.725
60.43000 132.895
60.44000 133.196
60.45000 133.100
60.46000 133.397
60.47000 135.631
60.48000 138.126
60.49000 140.069
60.50000 139.076
60.51000 138.104
60.52000 135.734
60.53000 130.268
60.54000 124.691
60.55000 121.624
60.56000 122.302
60.57000 123.016
60.58000 124.950
60.59000 128.067
60.60000 131.151
60.61000 131.560
60.62000 130.270
60.63000 129.167
60.64000 132.658
60.65000 138.120
60.66000 143.247
60.67000 138.948
60.68000 132.534
60.69000 127.057
60.70000 128.087
60.71000 130.365
60.72000 132.799
60.73000 135.927
60.74000 139.137
60.75000 141.578
60.76000 140.300
60.77000 139.100
60.78000 137.169
60.79000 133.761
60.80000 130.311
60.81000 129.483
60.82000 132.198
60.83000 134.931
60.84000 136.849
60.85000 138.054
60.86000 139.211
60.87000 137.701
60.88000 134.651
60.89000 131.650
60.90000 129.629
60.91000 127.991
60.92000 126.470
60.93000 125.940
60.94000 125.696
60.95000 125.817
60.96000 128.197
60.97000 130.966
60.98000 133.047
60.99000 132.361
61.00000 131.385
61.01000 130.661
61.02000 129.567
61.03000 128.702
61.04000 128.837
61.05000 130.807
61.06000 132.817
61.07000 133.980
61.08000 134.108
61.09000 134.233
61.10000 133.335
61.11000 131.641
61.12000 129.991
61.13000 130.148
61.14000 131.254
61.15000 132.324
61.16000 132.805
61.17000 133.076
61.18000 133.325
61.19000 134.785
61.20000 136.346
61.21000 137.312
61.22000 134.971
61.23000 132.120
61.24000 129.504
61.25000 127.748
61.26000 126.072
61.27000 124.863
61.28000 136.953
61.29000 146.686
61.30000 151.121
61.31000 146.716
61.32000 142.174
61.33000 138.855
61.34000 136.879
61.35000 134.913
61.36000 133.232
61.37000 131.770
61.38000 130.428
61.39000 132.934
61.40000 137.280
61.41000 141.278
61.42000 140.346
61.43000 137.817
61.44000 135.524
61.45000 136.715
61.46000 138.429
61.47000 140.105
61.48000 141.597
61.49000 143.063
61.50000 144.813
61.51000 147.501
61.52000 150.265
61.53000 152.198
61.54000 163.791
61.55000 172.828
61.56000 181.272
61.57000 188.816
61.58000 196.351
61.59000 205.756
61.60000 217.006
61.61000 228.179
61.62000 239.084
61.63000 249.650
61.64000 260.029
61.65000 265.702
61.66000 269.324
61.67000 272.043
61.68000 263.775
61.69000 252.267
61.70000 241.976
61.71000 246.381
61.72000 252.719
61.73000 257.923
61.74000 257.997
61.75000 257.447
61.76000 255.379
61.77000 248.732
61.78000 241.773
61.79000 237.055
61.80000 230.160
61.81000 224.970
61.82000 215.733
61.83000 200.941
61.84000 186.119
61.85000 175.512
61.86000 168.644
61.87000 161.849
61.88000 158.689
61.89000 157.685
61.90000 156.701
61.91000 156.152
61.92000 155.776
61.93000 154.940
61.94000 149.259
61.95000 142.280
61.96000 136.130
61.97000 138.621
61.98000 142.074
61.99000 144.555
62.00000 143.064
62.01000 141.145
62.02000 140.254
62.03000 142.186
62.04000 144.280
62.05000 145.653
62.06000 141.601
62.07000 138.531
62.08000 139.557
62.09000 145.667
62.10000 151.771
62.11000 150.958
62.12000 144.613
62.13000 138.362
62.14000 136.989
62.15000 138.180
62.16000 139.218
62.17000 137.617
62.18000 135.063
62.19000 132.882
62.20000 134.147
62.21000 136.248
62.22000 138.071
62.23000 139.939
62.24000 141.536
62.25000 143.264
62.26000 145.479
62.27000 147.739
62.28000 149.103
62.29000 148.225
62.30000 147.239
62.31000 146.615
62.32000 139.844
62.33000 134.861
62.34000 132.094
62.35000 131.805
62.36000 131.547
62.37000 136.032
62.38000 143.946
62.39000 151.702
62.40000 152.808
62.41000 150.766
62.42000 148.479
62.43000 142.647
62.44000 135.647
62.45000 129.723
62.46000 132.547
62.47000 137.293
62.48000 141.341
62.49000 140.461
62.50000 139.139
62.51000 138.186
62.52000 138.475
62.53000 138.864
62.54000 138.941
62.55000 138.304
62.56000 137.640
62.57000 137.235
62.58000 139.933
62.59000 141.884
62.60000 142.131
62.61000 140.667
62.62000 139.223
62.63000 139.737
62.64000 141.535
62.65000 143.287
62.66000 144.877
62.67000 146.325
62.68000 147.429
62.69000 144.247
62.70000 139.782
62.71000 135.582
62.72000 133.296
62.73000 131.390
62.74000 129.793
62.75000 138.655
62.76000 147.105
62.77000 152.964
62.78000 150.883
62.79000 148.247
62.80000 145.018
62.81000 140.556
62.82000 136.056
62.83000 133.427
62.84000 138.807
62.85000 142.628
62.86000 142.767
62.87000 139.586
62.88000 136.441
62.89000 135.565
62.90000 136.040
62.91000 136.499
62.92000 141.350
62.93000 147.605
62.94000 153.047
62.95000 149.738
62.96000 144.048
62.97000 139.352
62.98000 141.053
62.99000 143.894
63.00000 146.230
63.01000 144.301
63.02000 142.333
63.03000 141.992
63.04000 146.192
63.05000 150.659
63.06000 152.273
63.07000 148.490
63.08000 144.579
63.09000 142.394
63.10000 143.448
63.11000 144.184
63.12000 144.554
63.13000 144.625
63.14000 144.770
63.15000 148.230
63.16000 153.485
63.17000 158.531
63.18000 156.973
63.19000 153.247
63.20000 149.384
63.21000 144.220
63.22000 138.735
63.23000 134.295
63.24000 135.881
63.25000 138.430
63.26000 140.483
63.27000 142.571
63.28000 144.269
63.29000 146.480
63.30000 149.997
63.31000 153.578
63.32000 153.753
63.33000 148.069
63.34000 142.283
63.35000 139.202
63.36000 142.937
63.37000 145.484
63.38000 147.659
63.39000 149.561
63.40000 151.349
63.41000 149.236
63.42000 145.201
63.43000 141.359
63.44000 141.421
63.45000 142.688
63.46000 144.364
63.47000 149.444
63.48000 155.285
63.49000 159.774
63.50000 157.269
63.51000 153.765
63.52000 151.006
63.53000 147.925
63.54000 145.436
63.55000 144.379
63.56000 146.641
63.57000 149.037
63.58000 149.242
63.59000 146.020
63.60000 142.758
63.61000 141.108
63.62000 150.147
63.63000 156.144
63.64000 156.913
63.65000 154.200
63.66000 151.637
63.67000 153.162
63.68000 156.522
63.69000 159.692
63.70000 159.522
63.71000 158.437
63.72000 157.301
63.73000 155.789
63.74000 154.202
63.75000 152.741
63.76000 151.871
63.77000 151.075
63.78000 150.463
63.79000 154.986
63.80000 158.856
63.81000 161.075
63.82000 159.812
63.83000 158.438
63.84000 156.798
63.85000 154.782
63.86000 152.763
63.87000 153.508
63.88000 156.787
63.89000 159.981
63.90000 157.424
63.91000 151.392
63.92000 145.630
63.93000 145.837
63.94000 148.484
63.95000 150.955
63.96000 149.052
63.97000 146.231
63.98000 143.761
63.99000 143.595
64.00000 143.845
64.01000 144.869
64.02000 149.153
64.03000 153.803
64.04000 157.291
64.05000 158.577
64.06000 159.477
64.07000 158.504
64.08000 153.934
64.09000 149.274
64.10000 148.148
64.11000 151.553
64.12000 154.971
64.13000 156.492
64.14000 156.445
64.15000 156.377
64.16000 155.295
64.17000 153.657
64.18000 152.217
64.19000 154.395
64.20000 157.921
64.21000 161.176
64.22000 162.275
64.23000 162.776
64.24000 162.563
64.25000 158.157
64.26000 153.068
64.27000 149.711
64.28000 152.981
64.29000 156.901
64.30000 159.764
64.31000 160.759
64.32000 161.453
64.33000 163.536
64.34000 168.046
64.35000 172.601
64.36000 172.684
64.37000 167.589
64.38000 162.503
64.39000 158.991
64.40000 156.671
64.41000 154.445
64.42000 155.607
64.43000 158.464
64.44000 161.284
64.45000 163.533
64.46000 165.587
64.47000 167.462
64.48000 166.754
64.49000 165.607
64.50000 165.279
64.51000 169.265
64.52000 173.878
64.53000 176.738
64.54000 173.506
64.55000 169.755
64.56000 167.091
64.57000 172.680
64.58000 177.195
64.59000 179.413
64.60000 177.985
64.61000 176.511
64.62000 172.644
64.63000 166.287
64.64000 159.964
64.65000 159.156
64.66000 162.041
64.67000 164.841
64.68000 165.222
64.69000 164.501
64.70000 163.854
64.71000 164.173
64.72000 164.791
64.73000 165.348
64.74000 169.216
64.75000 173.203
64.76000 176.408
64.77000 175.904
64.78000 174.921
64.79000 173.981
64.80000 173.180
64.81000 172.388
64.82000 171.843
64.83000 173.516
64.84000 174.828
64.85000 176.975
64.86000 180.325
64.87000 183.684
64.88000 185.694
64.89000 186.445
64.90000 187.189
64.91000 185.356
64.92000 182.005
64.93000 178.903
64.94000 181.441
64.95000 186.321
64.96000 190.562
64.97000 187.587
64.98000 182.587
64.99000 178.149
65.00000 181.811
65.01000 186.281
65.02000 190.365
65.03000 192.793
65.04000 195.031
65.05000 196.504
65.06000 195.781
65.07000 194.920
65.08000 194.346
65.09000 192.194
65.10000 190.570
65.11000 189.772
65.12000 190.052
65.13000 190.341
65.14000 193.241
65.15000 198.336
65.16000 203.366
65.17000 203.887
65.18000 201.943
65.19000 200.046
65.20000 199.025
65.21000 198.337
65.22000 198.278
65.23000 204.415
65.24000 212.130
65.25000 218.875
65.26000 215.944
65.27000 212.059
65.28000 209.475
65.29000 211.948
65.30000 214.929
65.31000 218.259
65.32000 222.504
65.33000 226.798
65.34000 229.563
65.35000 232.266
65.36000 234.238
65.37000 234.996
65.38000 234.323
65.39000 233.671
65.40000 238.175
65.41000 246.592
65.42000 254.863
65.43000 255.608
65.44000 252.635
65.45000 249.844
65.46000 249.929
65.47000 251.005
65.48000 252.551
65.49000 258.155
65.50000 264.696
65.51000 270.322
65.52000 275.766
65.53000 280.352
65.54000 284.180
65.55000 285.334
65.56000 286.255
65.57000 286.774
65.58000 286.336
65.59000 285.856
65.60000 285.558
65.61000 298.222
65.62000 307.459
65.63000 314.965
65.64000 320.636
65.65000 326.343
65.66000 336.262
65.67000 349.078
65.68000 361.601
65.69000 390.447
65.70000 425.309
65.71000 461.459
65.72000 514.853
65.73000 573.652
65.74000 631.209
65.75000 679.278
65.76000 725.369
65.77000 764.329
65.78000 816.267
65.79000 861.143
65.80000 904.527
65.81000 943.127
65.82000 981.366
65.83000 1012.112
65.84000 1026.572
65.85000 1040.467
65.86000 1048.750
65.87000 1068.613
65.88000 1082.760
65.89000 1079.315
65.90000 1059.156
65.91000 1038.998
65.92000 1018.941
65.93000 998.947
65.94000 979.535
65.95000 948.545
65.96000 914.502
65.97000 877.812
65.98000 810.571
65.99000 734.624
66.00000 661.573
66.01000 608.200
66.02000 558.524
66.03000 517.309
66.04000 477.359
66.05000 444.466
66.06000 414.091
66.07000 391.066
66.08000 368.513
66.09000 349.068
66.10000 335.775
66.11000 322.648
66.12000 315.151
66.13000 317.932
66.14000 319.900
66.15000 317.846
66.16000 312.353
66.17000 306.929
66.18000 305.169
66.19000 305.485
66.20000 305.790
66.21000 306.549
66.22000 307.426
66.23000 308.384
66.24000 310.164
66.25000 312.156
66.26000 315.087
66.27000 323.715
66.28000 333.304
66.29000 341.102
66.30000 361.191
66.31000 378.618
66.32000 393.146
66.33000 399.966
66.34000 406.370
66.35000 414.240
66.36000 424.750
66.37000 435.313
66.38000 441.074
66.39000 439.439
66.40000 438.325
66.41000 441.666
66.42000 448.444
66.43000 455.040
66.44000 454.480
66.45000 450.229
66.46000 446.164
66.47000 446.276
66.48000 447.741
66.49000 448.268
66.50000 440.537
66.51000 430.871
66.52000 421.006
66.53000 410.063
66.54000 398.956
66.55000 390.114
66.56000 383.823
66.57000 378.934
66.58000 372.010
66.59000 360.156
66.60000 348.082
66.61000 337.281
66.62000 328.565
66.63000 319.878
66.64000 315.371
66.65000 322.211
66.66000 326.805
66.67000 328.104
66.68000 327.101
66.69000 325.985
66.70000 321.414
66.71000 315.220
66.72000 309.350
66.73000 314.113
66.74000 321.617
66.75000 328.196
66.76000 327.573
66.77000 325.423
66.78000 323.954
66.79000 325.823
66.80000 328.141
66.81000 329.945
66.82000 334.284
66.83000 337.895
66.84000 341.192
66.85000 343.798
66.86000 346.379
66.87000 345.636
66.88000 339.952
66.89000 334.221
66.90000 334.866
66.91000 341.675
66.92000 348.400
66.93000 348.313
66.94000 343.911
66.95000 339.872
66.96000 344.673
66.97000 353.256
66.98000 361.310
66.99000 360.670
67.00000 357.794
67.01000 354.229
67.02000 345.903
67.03000 336.668
67.04000 331.182
67.05000 342.321
67.06000 355.438
67.07000 365.401
67.08000 364.304
67.09000 362.869
67.10000 363.686
67.11000 369.028
67.12000 374.499
67.13000 372.794
67.14000 361.425
67.15000 350.011
67.16000 351.980
67.17000 365.560
67.18000 378.888
67.19000 378.208
67.20000 369.465
67.21000 361.351
67.22000 365.771
67.23000 375.076
67.24000 383.715
67.25000 384.535
67.26000 383.422
67.27000 383.311
67.28000 389.398
67.29000 396.549
67.30000 401.485
67.31000 397.526
67.32000 392.636
67.33000 389.017
67.34000 381.686
67.35000 375.838
67.36000 373.634
67.37000 378.097
67.38000 382.702
67.39000 391.126
67.40000 404.196
67.41000 417.251
67.42000 422.420
67.43000 421.409
67.44000 420.327
67.45000 416.332
67.46000 410.812
67.47000 405.814
67.48000 409.491
67.49000 416.248
67.50000 422.449
67.51000 425.583
67.52000 427.726
67.53000 429.495
67.54000 429.187
67.55000 428.560
67.56000 428.495
67.57000 430.478
67.58000 432.648
67.59000 434.210
67.60000 443.844
67.61000 451.507
67.62000 458.760
67.63000 465.332
67.64000 471.893
67.65000 472.543
67.66000 466.712
67.67000 460.902
67.68000 461.036
67.69000 465.345
67.70000 469.605
67.71000 472.331
67.72000 474.326
67.73000 475.912
67.74000 471.760
67.75000 465.752
67.76000 460.308
67.77000 456.939
67.78000 454.363
67.79000 454.351
67.80000 467.138
67.81000 481.678
67.82000 492.086
67.83000 488.827
67.84000 484.487
67.85000 481.453
67.86000 491.068
67.87000 498.690
67.88000 500.936
67.89000 495.060
67.90000 489.103
67.91000 491.585
67.92000 502.371
67.93000 513.082
67.94000 519.090
67.95000 522.025
67.96000 524.818
67.97000 524.044
67.98000 521.720
67.99000 520.117
68.00000 527.219
68.01000 536.879
68.02000 545.515
68.03000 545.304
68.04000 543.622
68.05000 542.459
68.06000 543.640
68.07000 545.105
68.08000 548.788
68.09000 559.149
68.10000 569.962
68.11000 577.287
68.12000 590.593
68.13000 600.642
68.14000 600.701
68.15000 587.086
68.16000 573.398
68.17000 568.754
68.18000 572.107
68.19000 575.425
68.20000 580.980
68.21000 587.689
68.22000 594.265
68.23000 598.117
68.24000 600.892
68.25000 604.403
68.26000 615.655
68.27000 628.972
68.28000 640.703
68.29000 636.925
68.30000 631.337
68.31000 629.276
68.32000 641.602
68.33000 655.467
68.34000 666.046
68.35000 667.619
68.36000 668.677
68.37000 669.370
68.38000 674.528
68.39000 678.393
68.40000 684.509
68.41000 693.411
68.42000 702.305
68.43000 706.463
68.44000 706.844
68.45000 707.220
68.46000 709.572
68.47000 712.874
68.48000 716.746
68.49000 730.378
68.50000 747.528
68.51000 764.982
68.52000 785.230
68.53000 806.154
68.54000 824.297
68.55000 850.914
68.56000 874.707
68.57000 895.666
68.58000 906.146
68.59000 915.646
68.60000 932.864
68.61000 969.349
68.62000 1006.749
68.63000 1030.382
68.64000 1088.251
68.65000 1130.587
68.66000 1178.845
68.67000 1233.707
68.68000 1288.537
68.69000 1337.678
68.70000 1382.715
68.71000 1426.848
68.72000 1469.996
68.73000 1511.043
68.74000 1552.419
68.75000 1598.545
68.76000 1646.228
68.77000 1692.571
68.78000 1728.047
68.79000 1761.144
68.80000 1789.363
68.81000 1895.260
68.82000 1993.480
68.83000 2086.994
68.84000 2164.694
68.85000 2241.112
68.86000 2338.775
68.87000 2484.748
68.88000 2632.589
68.89000 2722.476
68.90000 3146.137
68.91000 3451.232
68.92000 4059.779
68.93000 4972.261
68.94000 5894.081
68.95000 7682.786
68.96000 10038.112
68.97000 12332.263
68.98000 15981.011
68.99000 20029.172
69.00000 24105.127
69.01000 28525.541
69.02000 33048.773
69.03000 37448.383
69.04000 40959.359
69.05000 44294.727
69.06000 47087.508
69.07000 49004.152
69.08000 50507.195
69.09000 51735.582
69.10000 52124.727
69.11000 52455.551
69.12000 52801.910
69.13000 53180.449
69.14000 53559.977
69.15000 53781.367
69.16000 54819.609
69.17000 55553.203
69.18000 55954.371
69.19000 56056.574
69.20000 56139.145
69.21000 54998.164
69.22000 53130.891
69.23000 51324.492
69.24000 48321.004
69.25000 45030.102
69.26000 41780.609
69.27000 38975.715
69.28000 36291.379
69.29000 33744.066
69.30000 32075.074
69.31000 30562.240
69.32000 29319.748
69.33000 28308.510
69.34000 27498.826
69.35000 26772.080
69.36000 26276.043
69.37000 25793.576
69.38000 25045.967
69.39000 23798.287
69.40000 22538.865
69.41000 21836.215
69.42000 18866.979
69.43000 16806.660
69.44000 14619.085
69.45000 12328.359
69.46000 10049.922
69.47000 8324.822
69.48000 6898.432
69.49000 5529.073
69.50000 4549.032
69.51000 3765.708
69.52000 3020.453
69.53000 2632.479
69.54000 2332.374
69.55000 2052.765
69.56000 1890.831
69.57000 1747.651
69.58000 1632.459
69.59000 1543.756
69.60000 1473.862
69.61000 1411.004
69.62000 1365.973
69.63000 1321.817
69.64000 1277.894
69.65000 1234.372
69.66000 1190.857
69.67000 1167.718
69.68000 1121.065
69.69000 1089.318
69.70000 1061.402
69.71000 1036.293
69.72000 1011.224
69.73000 987.471
69.74000 964.367
69.75000 942.374
69.76000 927.384
69.77000 915.667
69.78000 903.139
69.79000 883.912
69.80000 863.194
69.81000 844.549
69.82000 836.611
69.83000 830.197
69.84000 825.148
69.85000 816.530
69.86000 809.389
69.87000 797.267
69.88000 773.644
69.89000 749.561
69.90000 733.779
69.91000 730.935
69.92000 728.242
69.93000 726.882
69.94000 723.855
69.95000 721.765
69.96000 713.049
69.97000 699.934
69.98000 686.643
69.99000 668.570
70.00000 648.358
