20.00000 569.587
20.01000 562.449
20.02000 554.290
20.03000 546.676
20.04000 541.185
20.05000 535.908
20.06000 532.031
20.07000 554.789
20.08000 573.475
20.09000 582.735
20.10000 575.188
20.11000 567.312
20.12000 559.672
20.13000 552.312
20.14000 544.972
20.15000 545.717
20.16000 552.588
20.17000 559.261
20.18000 558.431
20.19000 553.769
20.20000 549.545
20.21000 552.251
20.22000 557.356
20.23000 562.025
20.24000 556.757
20.25000 550.026
20.26000 544.385
20.27000 544.612
20.28000 545.714
20.29000 546.944
20.30000 548.633
20.31000 550.361
20.32000 551.596
20.33000 553.550
20.34000 555.065
20.35000 559.108
20.36000 567.246
20.37000 575.442
20.38000 575.333
20.39000 566.382
20.40000 557.471
20.41000 558.866
20.42000 567.282
20.43000 575.338
20.44000 572.704
20.45000 565.101
20.46000 557.995
20.47000 557.600
20.48000 559.318
20.49000 560.870
20.50000 556.489
20.51000 551.545
20.52000 547.987
20.53000 551.152
20.54000 555.209
20.55000 555.571
20.56000 544.020
20.57000 531.564
20.58000 522.928
20.59000 521.559
20.60000 520.721
20.61000 524.792
20.62000 536.086
20.63000 547.442
20.64000 552.155
20.65000 550.521
20.66000 548.900
20.67000 547.248
20.68000 545.607
20.69000 543.899
20.70000 540.626
20.71000 536.689
20.72000 533.351
20.73000 536.979
20.74000 542.601
20.75000 547.608
20.76000 548.907
20.77000 549.428
20.78000 548.803
20.79000 543.154
20.80000 536.916
20.81000 533.434
20.82000 538.034
20.83000 543.158
20.84000 546.599
20.85000 550.119
20.86000 552.735
20.87000 549.676
20.88000 539.059
20.89000 528.417
20.90000 527.618
20.91000 535.277
20.92000 542.845
20.93000 543.827
20.94000 541.125
20.95000 538.713
20.96000 541.964
20.97000 547.400
20.98000 551.840
20.99000 546.203
21.00000 537.945
21.01000 530.701
21.02000 529.965
21.03000 530.281
21.04000 531.700
21.05000 537.500
21.06000 543.751
21.07000 548.076
21.08000 547.254
21.09000 546.151
21.10000 545.436
21.11000 530.280
21.12000 518.965
21.13000 520.074
21.14000 536.135
21.15000 552.189
21.16000 558.500
21.17000 557.254
21.18000 556.028
21.19000 551.311
21.20000 544.993
21.21000 539.168
21.22000 541.383
21.23000 546.423
21.24000 550.330
21.25000 544.180
21.26000 535.660
21.27000 528.306
21.28000 528.964
21.29000 530.553
21.30000 532.736
21.31000 537.051
21.32000 541.558
21.33000 543.968
21.34000 541.276
21.35000 538.354
21.36000 536.526
21.37000 539.402
21.38000 541.527
21.39000 540.626
21.40000 536.447
21.41000 532.257
21.42000 526.902
21.43000 520.728
21.44000 514.688
21.45000 512.307
21.46000 511.680
21.47000 511.523
21.48000 517.874
21.49000 526.306
21.50000 533.800
21.51000 533.937
21.52000 532.507
21.53000 531.294
21.54000 538.953
21.55000 546.382
21.56000 551.844
21.57000 550.862
21.58000 549.379
21.59000 547.705
21.60000 545.608
21.61000 543.496
21.62000 542.226
21.63000 529.224
21.64000 519.899
21.65000 521.697
21.66000 534.310
21.67000 546.778
21.68000 547.293
21.69000 540.198
21.70000 533.300
21.71000 535.254
21.72000 540.730
21.73000 545.360
21.74000 539.906
21.75000 531.518
21.76000 525.254
21.77000 533.775
21.78000 545.136
21.79000 554.600
21.80000 558.128
21.81000 560.461
21.82000 561.044
21.83000 556.414
21.84000 551.437
21.85000 550.179
21.86000 556.432
21.87000 562.899
21.88000 566.628
21.89000 567.463
21.90000 568.038
21.91000 569.069
21.92000 570.500
21.93000 571.954
21.94000 574.779
21.95000 578.396
21.96000 581.887
21.97000 579.751
21.98000 575.663
21.99000 571.855
22.00000 570.944
22.01000 570.797
22.02000 570.343
22.03000 567.978
22.04000 565.282
22.05000 563.080
22.06000 580.783
22.07000 596.989
22.08000 606.709
22.09000 598.839
22.10000 589.983
22.11000 583.890
22.12000 582.876
22.13000 581.971
22.14000 581.473
22.15000 591.777
22.16000 598.875
22.17000 600.007
22.18000 596.436
22.19000 593.014
22.20000 595.798
22.21000 601.847
22.22000 607.641
22.23000 603.621
22.24000 596.606
22.25000 589.161
22.26000 577.815
22.27000 565.536
22.28000 556.556
22.29000 565.972
22.30000 578.233
22.31000 588.039
22.32000 572.624
22.33000 558.286
22.34000 549.790
22.35000 555.729
22.36000 562.339
22.37000 566.180
22.38000 565.391
22.39000 564.530
22.40000 564.078
22.41000 563.411
22.42000 562.960
22.43000 562.610
22.44000 562.333
22.45000 562.106
22.46000 563.497
22.47000 565.665
22.48000 567.722
22.49000 559.866
22.50000 549.642
22.51000 539.439
22.52000 529.408
22.53000 519.415
22.54000 512.563
22.55000 521.470
22.56000 532.549
22.57000 541.214
22.58000 537.465
22.59000 533.683
22.60000 533.364
22.61000 540.838
22.62000 548.607
22.63000 548.603
22.64000 536.803
22.65000 524.881
22.66000 521.785
22.67000 527.424
22.68000 532.901
22.69000 524.164
22.70000 506.236
22.71000 488.912
22.72000 486.954
22.73000 491.702
22.74000 496.167
22.75000 502.496
22.76000 508.780
22.77000 514.205
22.78000 513.537
22.79000 511.678
22.80000 510.476
22.81000 512.249
22.82000 514.385
22.83000 516.016
22.84000 506.743
22.85000 498.846
22.86000 492.372
22.87000 488.813
22.88000 485.340
22.89000 487.184
22.90000 496.342
22.91000 505.541
22.92000 508.609
22.93000 506.230
22.94000 503.823
22.95000 499.699
22.96000 494.567
22.97000 489.873
22.98000 494.238
22.99000 502.206
23.00000 509.620
23.01000 508.001
23.02000 504.347
23.03000 501.231
23.04000 501.522
23.05000 502.412
23.06000 502.925
23.07000 501.888
23.08000 500.685
23.09000 499.790
23.10000 503.994
23.11000 507.495
23.12000 508.574
23.13000 505.135
23.14000 501.593
23.15000 498.231
23.16000 495.094
23.17000 491.962
23.18000 494.413
23.19000 501.310
23.20000 508.007
23.21000 506.017
23.22000 499.385
23.23000 493.140
23.24000 493.565
23.25000 496.405
23.26000 499.018
23.27000 509.435
23.28000 520.441
23.29000 528.435
23.30000 519.334
23.31000 507.542
23.32000 498.044
23.33000 497.071
23.34000 496.902
23.35000 496.779
23.36000 494.780
23.37000 493.176
23.38000 493.791
23.39000 498.172
23.40000 502.616
23.41000 506.180
23.42000 508.758
23.43000 511.326
23.44000 507.675
23.45000 499.587
23.46000 491.718
23.47000 491.117
23.48000 494.051
23.49000 496.561
23.50000 492.882
23.51000 487.161
23.52000 481.963
23.53000 485.644
23.54000 490.624
23.55000 494.716
23.56000 494.275
23.57000 493.197
23.58000 490.888
23.59000 484.423
23.60000 477.618
23.61000 472.830
23.62000 482.917
23.63000 491.002
23.64000 495.727
23.65000 495.274
23.66000 494.763
23.67000 494.985
23.68000 495.946
23.69000 496.900
23.70000 497.094
23.71000 496.793
23.72000 496.411
23.73000 493.876
23.74000 490.389
23.75000 487.220
23.76000 488.034
23.77000 490.042
23.78000 491.843
23.79000 490.211
23.80000 488.189
23.81000 486.175
23.82000 484.197
23.83000 482.224
23.84000 480.796
23.85000 481.041
23.86000 481.403
23.87000 481.650
23.88000 477.521
23.89000 474.333
23.90000 477.087
23.91000 488.147
23.92000 499.259
23.93000 502.200
23.94000 497.754
23.95000 493.351
23.96000 490.416
23.97000 488.400
23.98000 486.587
23.99000 489.121
24.00000 493.409
24.01000 496.826
24.02000 490.832
24.03000 482.273
24.04000 474.709
24.05000 470.919
24.06000 468.227
24.07000 466.813
24.08000 470.717
24.09000 475.205
24.10000 481.575
24.11000 493.208
24.12000 505.154
24.13000 513.036
24.14000 499.649
24.15000 489.405
24.16000 483.876
24.17000 484.308
24.18000 484.764
24.19000 486.877
24.20000 490.340
24.21000 493.755
24.22000 493.746
24.23000 491.933
24.24000 489.677
24.25000 479.558
24.26000 466.548
24.27000 455.678
24.28000 465.036
24.29000 479.394
24.30000 491.887
24.31000 486.792
24.32000 480.035
24.33000 476.200
24.34000 483.394
24.35000 491.649
24.36000 496.973
24.37000 494.834
24.38000 492.325
24.39000 490.728
24.40000 487.782
24.41000 485.623
24.42000 488.046
24.43000 495.694
24.44000 503.276
24.45000 498.067
24.46000 483.439
24.47000 469.089
24.48000 473.113
24.49000 485.735
24.50000 497.502
24.51000 496.482
24.52000 491.181
24.53000 487.269
24.54000 494.915
24.55000 505.147
24.56000 513.903
24.57000 505.899
24.58000 497.124
24.59000 490.203
24.60000 489.639
24.61000 489.606
24.62000 486.139
24.63000 474.704
24.64000 462.947
24.65000 455.739
24.66000 462.807
24.67000 467.992
24.68000 472.034
24.69000 474.903
24.70000 477.759
24.71000 479.225
24.72000 479.763
24.73000 480.288
24.74000 477.088
24.75000 472.430
24.76000 468.288
24.77000 470.739
24.78000 475.198
24.79000 479.350
24.80000 481.246
24.81000 482.686
24.82000 483.896
24.83000 486.467
24.84000 488.753
24.85000 490.718
24.86000 491.683
24.87000 492.576
24.88000 491.442
24.89000 486.026
24.90000 480.473
24.91000 477.203
24.92000 460.009
24.93000 447.812
24.94000 448.084
24.95000 459.828
24.96000 471.457
24.97000 475.310
24.98000 474.453
24.99000 473.623
25.00000 474.148
25.01000 475.171
25.02000 476.167
25.03000 476.867
25.04000 477.485
25.05000 477.740
25.06000 475.611
25.07000 473.048
25.08000 470.934
25.09000 468.167
25.10000 465.828
25.11000 465.084
25.12000 468.867
25.13000 472.926
25.14000 473.128
25.15000 465.910
25.16000 458.508
25.17000 454.337
25.18000 468.380
25.19000 478.164
25.20000 480.283
25.21000 476.053
25.22000 471.851
25.23000 468.969
25.24000 466.815
25.25000 464.743
25.26000 467.512
25.27000 471.799
25.28000 475.421
25.29000 472.615
25.30000 468.194
25.31000 463.843
25.32000 459.906
25.33000 456.036
25.34000 452.908
25.35000 462.877
25.36000 472.033
25.37000 476.765
25.38000 470.062
25.39000 462.775
25.40000 458.410
25.41000 459.162
25.42000 460.007
25.43000 460.461
25.44000 458.384
25.45000 456.969
25.46000 456.889
25.47000 457.808
25.48000 458.736
25.49000 459.959
25.50000 461.331
25.51000 462.639
25.52000 460.295
25.53000 456.968
25.54000 454.781
25.55000 462.270
25.56000 471.961
25.57000 478.575
25.58000 468.951
25.59000 456.959
25.60000 447.476
25.61000 448.023
25.62000 449.153
25.63000 450.476
25.64000 452.255
25.65000 454.053
25.66000 454.632
25.67000 453.273
25.68000 451.889
25.69000 451.183
25.70000 467.662
25.71000 478.633
25.72000 479.264
25.73000 472.884
25.74000 466.496
25.75000 459.859
25.76000 453.110
25.77000 446.733
25.78000 450.680
25.79000 457.236
25.80000 462.890
25.81000 461.769
25.82000 459.257
25.83000 457.062
25.84000 456.384
25.85000 455.902
25.86000 455.530
25.87000 463.674
25.88000 470.631
25.89000 474.678
25.90000 472.481
25.91000 470.074
25.92000 467.132
25.93000 463.418
25.94000 459.697
25.95000 454.172
25.96000 446.959
25.97000 439.861
25.98000 440.943
25.99000 447.060
26.00000 453.031
26.01000 455.697
26.02000 456.987
26.03000 458.194
26.04000 461.495
26.05000 465.028
26.06000 466.958
26.07000 458.165
26.08000 447.387
26.09000 439.266
26.10000 442.567
26.11000 447.177
26.12000 450.651
26.13000 445.168
26.14000 440.434
26.15000 439.749
26.16000 446.972
26.17000 454.402
26.18000 458.844
26.19000 459.383
26.20000 459.904
26.21000 455.486
26.22000 446.930
26.23000 438.559
26.24000 439.508
26.25000 445.669
26.26000 451.548
26.27000 452.109
26.28000 450.655
26.29000 449.310
26.30000 450.078
26.31000 451.253
26.32000 452.831
26.33000 456.826
26.34000 461.221
26.35000 465.556
26.36000 469.653
26.37000 473.725
26.38000 476.715
26.39000 465.144
26.40000 455.608
26.41000 447.759
26.42000 442.906
26.43000 438.111
26.44000 438.781
26.45000 445.896
26.46000 453.003
26.47000 455.923
26.48000 455.659
26.49000 455.355
26.50000 453.566
26.51000 451.022
26.52000 448.311
26.53000 442.989
26.54000 436.767
26.55000 431.077
26.56000 436.012
26.57000 442.578
26.58000 448.372
26.59000 450.015
26.60000 451.043
26.61000 450.255
26.62000 443.050
26.63000 435.283
26.64000 429.739
26.65000 430.875
26.66000 431.961
26.67000 434.307
26.68000 438.687
26.69000 443.095
26.70000 445.107
26.71000 444.575
26.72000 444.045
26.73000 442.901
26.74000 441.351
26.75000 439.731
26.76000 436.089
26.77000 431.508
26.78000 427.436
26.79000 430.194
26.80000 435.097
26.81000 439.522
26.82000 439.254
26.83000 438.157
26.84000 437.373
26.85000 438.097
26.86000 439.020
26.87000 437.820
26.88000 429.796
26.89000 421.255
26.90000 415.340
26.91000 420.340
26.92000 424.389
26.93000 428.360
26.94000 432.216
26.95000 436.071
26.96000 437.657
26.97000 437.083
26.98000 436.514
26.99000 436.951
27.00000 437.998
27.01000 439.146
27.02000 442.696
27.03000 447.260
27.04000 450.970
27.05000 444.780
27.06000 435.764
27.07000 427.739
27.08000 424.437
27.09000 422.340
27.10000 421.808
27.11000 428.115
27.12000 435.221
27.13000 441.860
27.14000 447.135
27.15000 452.323
27.16000 455.802
27.17000 446.894
27.18000 440.032
27.19000 436.638
27.20000 437.852
27.21000 439.084
27.22000 437.828
27.23000 434.441
27.24000 431.095
27.25000 428.717
27.26000 426.936
27.27000 425.459
27.28000 429.887
27.29000 436.586
27.30000 442.963
27.31000 446.091
27.32000 448.377
27.33000 450.381
27.34000 442.403
27.35000 434.105
27.36000 427.261
27.37000 426.175
27.38000 425.681
27.39000 425.811
27.40000 427.600
27.41000 429.480
27.42000 430.699
27.43000 438.656
27.44000 444.581
27.45000 447.776
27.46000 447.696
27.47000 447.611
27.48000 447.693
27.49000 447.904
27.50000 448.112
27.51000 446.408
27.52000 443.801
27.53000 441.349
27.54000 441.392
27.55000 442.308
27.56000 442.791
27.57000 439.437
27.58000 435.182
27.59000 431.511
27.60000 433.171
27.61000 435.264
27.62000 436.039
27.63000 432.084
27.64000 427.704
27.65000 425.264
27.66000 427.530
27.67000 430.006
27.68000 431.553
27.69000 429.396
27.70000 427.801
27.71000 425.589
27.72000 422.711
27.73000 419.891
27.74000 424.667
27.75000 434.758
27.76000 444.629
27.77000 444.386
27.78000 439.587
27.79000 434.708
27.80000 428.728
27.81000 422.397
27.82000 417.349
27.83000 422.317
27.84000 429.413
27.85000 435.430
27.86000 426.464
27.87000 417.256
27.88000 411.335
27.89000 416.144
27.90000 421.783
27.91000 428.267
27.92000 436.617
27.93000 445.034
27.94000 450.090
27.95000 435.131
27.96000 424.365
27.97000 419.077
27.98000 419.098
27.99000 419.122
28.00000 419.397
28.01000 419.832
28.02000 420.255
28.03000 423.215
28.04000 427.064
28.05000 430.567
28.06000 429.986
28.07000 428.220
28.08000 427.058
28.09000 430.088
28.10000 433.922
28.11000 437.113
28.12000 434.349
28.13000 431.470
28.14000 427.485
28.15000 420.213
28.16000 412.723
28.17000 411.447
28.18000 422.681
28.19000 434.271
28.20000 440.943
28.21000 438.386
28.22000 436.558
28.23000 430.921
28.24000 421.966
28.25000 413.216
28.26000 415.893
28.27000 425.161
28.28000 434.107
28.29000 434.968
28.30000 432.805
28.31000 430.554
28.32000 427.386
28.33000 423.977
28.34000 420.680
28.35000 418.080
28.36000 415.599
28.37000 413.574
28.38000 413.464
28.39000 413.540
28.40000 413.435
28.41000 412.847
28.42000 412.231
28.43000 416.169
28.44000 428.457
28.45000 440.923
28.46000 447.781
28.47000 429.683
28.48000 417.216
28.49000 415.601
28.50000 422.513
28.51000 429.406
28.52000 435.531
28.53000 441.252
28.54000 446.730
28.55000 447.660
28.56000 447.019
28.57000 445.348
28.58000 434.391
28.59000 421.217
28.60000 411.710
28.61000 422.580
28.62000 436.590
28.63000 447.788
28.64000 439.031
28.65000 430.477
28.66000 424.676
28.67000 425.658
28.68000 426.953
28.69000 427.575
28.70000 427.075
28.71000 426.558
28.72000 426.287
28.73000 425.230
28.74000 424.536
28.75000 426.865
28.76000 431.344
28.77000 435.780
28.78000 438.858
28.79000 441.287
28.80000 443.592
28.81000 440.463
28.82000 435.951
28.83000 431.792
28.84000 430.448
28.85000 429.712
28.86000 429.416
28.87000 431.323
28.88000 433.531
28.89000 435.258
28.90000 446.257
28.91000 455.622
28.92000 461.470
28.93000 459.424
28.94000 457.082
28.95000 452.852
28.96000 445.767
28.97000 438.653
28.98000 430.982
28.99000 422.761
29.00000 414.615
29.01000 413.020
29.02000 415.649
29.03000 418.281
29.04000 420.974
29.05000 423.693
29.06000 426.250
29.07000 416.564
29.08000 404.426
29.09000 394.470
29.10000 399.941
29.11000 408.416
29.12000 415.442
29.13000 415.929
29.14000 415.619
29.15000 415.383
29.16000 414.996
29.17000 414.684
29.18000 414.814
29.19000 415.849
29.20000 416.911
29.21000 417.225
29.22000 416.512
29.23000 415.794
29.24000 414.245
29.25000 411.963
29.26000 409.677
29.27000 407.152
29.28000 404.485
29.29000 402.078
29.30000 404.992
29.31000 410.018
29.32000 414.693
29.33000 415.255
29.34000 414.770
29.35000 414.196
29.36000 413.066
29.37000 411.839
29.38000 411.961
29.39000 417.599
29.40000 423.827
29.41000 428.460
29.42000 410.377
29.43000 395.298
29.44000 388.365
29.45000 396.594
29.46000 405.165
29.47000 408.324
29.48000 404.770
29.49000 401.204
29.50000 401.709
29.51000 405.449
29.52000 409.163
29.53000 411.747
29.54000 413.729
29.55000 415.488
29.56000 413.423
29.57000 409.976
29.58000 406.806
29.59000 411.460
29.60000 417.314
29.61000 421.415
29.62000 415.607
29.63000 408.245
29.64000 402.307
29.65000 401.648
29.66000 401.484
29.67000 401.365
29.68000 409.301
29.69000 415.689
29.70000 419.038
29.71000 417.246
29.72000 415.369
29.73000 415.146
29.74000 416.773
29.75000 418.396
29.76000 416.586
29.77000 412.336
29.78000 408.126
29.79000 405.251
29.80000 403.022
29.81000 401.679
29.82000 413.172
29.83000 428.886
29.84000 443.159
29.85000 434.374
29.86000 422.143
29.87000 411.129
29.88000 406.306
29.89000 402.350
29.90000 399.994
29.91000 403.026
29.92000 406.496
29.93000 408.935
29.94000 415.591
29.95000 420.758
29.96000 422.058
29.97000 417.413
29.98000 412.703
29.99000 408.708
30.00000 405.430
30.01000 402.174
30.02000 401.920
30.03000 403.606
30.04000 405.208
30.05000 404.608
30.06000 403.035
30.07000 401.459
30.08000 399.845
30.09000 398.219
30.10000 396.762
30.11000 398.836
30.12000 401.259
30.13000 403.401
30.14000 404.251
30.15000 404.942
30.16000 405.533
30.17000 405.819
30.18000 406.085
30.19000 406.265
30.20000 408.407
30.21000 410.052
30.22000 412.422
30.23000 415.800
30.24000 419.180
30.25000 415.795
30.26000 406.313
30.27000 396.924
30.28000 398.026
30.29000 405.213
30.30000 412.330
30.31000 417.988
30.32000 423.057
30.33000 427.329
30.34000 423.012
30.35000 416.361
30.36000 410.486
30.37000 407.714
30.38000 405.799
30.39000 406.573
30.40000 418.512
30.41000 431.674
30.42000 438.056
30.43000 425.539
30.44000 411.906
30.45000 402.919
30.46000 404.507
30.47000 405.861
30.48000 403.785
30.49000 397.384
30.50000 390.984
30.51000 390.359
30.52000 394.423
30.53000 398.431
30.54000 404.070
30.55000 410.405
30.56000 416.573
30.57000 419.780
30.58000 421.903
30.59000 423.004
30.60000 414.490
30.61000 403.608
30.62000 394.143
30.63000 392.310
30.64000 391.786
30.65000 392.716
30.66000 399.120
30.67000 406.049
30.68000 409.704
30.69000 405.047
30.70000 399.981
30.71000 396.758
30.72000 409.103
30.73000 418.268
30.74000 420.331
30.75000 414.318
30.76000 408.331
30.77000 408.132
30.78000 412.183
30.79000 416.156
30.80000 418.284
30.81000 419.459
30.82000 420.515
30.83000 419.784
30.84000 418.457
30.85000 417.637
30.86000 421.017
30.87000 425.335
30.88000 429.027
30.89000 435.621
30.90000 441.530
30.91000 446.365
30.92000 447.530
30.93000 448.390
30.94000 449.435
30.95000 450.909
30.96000 452.401
30.97000 453.314
30.98000 465.054
30.99000 473.551
31.00000 483.947
31.01000 496.283
31.02000 508.477
31.03000 506.344
31.04000 494.678
31.05000 483.302
31.06000 494.185
31.07000 514.112
31.08000 533.282
31.09000 542.813
31.10000 549.417
31.11000 556.788
31.12000 569.787
31.13000 583.921
31.14000 595.795
31.15000 604.716
31.16000 611.836
31.17000 624.083
31.18000 652.272
31.19000 681.601
31.20000 707.397
31.21000 725.749
31.22000 743.862
31.23000 754.511
31.24000 793.517
31.25000 821.166
31.26000 845.380
31.27000 866.443
31.28000 887.554
31.29000 911.806
31.30000 937.954
31.31000 963.283
31.32000 978.846
31.33000 989.794
31.34000 1001.972
31.35000 1027.691
31.36000 1057.147
31.37000 1081.495
31.38000 1072.419
31.39000 1057.284
31.40000 1044.808
31.41000 1050.599
31.42000 1057.047
31.43000 1062.458
31.44000 1064.935
31.45000 1067.234
31.46000 1067.976
31.47000 1065.731
31.48000 1063.411
31.49000 1062.106
31.50000 1040.270
31.51000 1025.044
31.52000 1003.092
31.53000 975.585
31.54000 948.056
31.55000 919.482
31.56000 890.335
31.57000 862.311
31.58000 839.225
31.59000 819.315
31.60000 799.592
31.61000 781.652
31.62000 764.159
31.63000 745.550
31.64000 720.400
31.65000 694.187
31.66000 673.016
31.67000 646.399
31.68000 624.326
31.69000 607.668
31.70000 604.965
31.71000 602.970
31.72000 590.423
31.73000 559.456
31.74000 528.153
31.75000 511.357
31.76000 508.534
31.77000 506.622
31.78000 505.239
31.79000 504.252
31.80000 503.098
31.81000 495.994
31.82000 485.917
31.83000 476.308
31.84000 468.808
31.85000 462.514
31.86000 455.483
31.87000 442.222
31.88000 427.549
31.89000 416.890
31.90000 427.350
31.91000 440.880
31.92000 451.571
31.93000 434.713
31.94000 419.292
31.95000 409.093
31.96000 411.154
31.97000 413.726
31.98000 418.616
31.99000 427.184
32.00000 435.799
32.01000 440.191
32.02000 424.708
32.03000 414.405
32.04000 413.739
32.05000 419.587
32.06000 425.098
32.07000 421.174
32.08000 412.955
32.09000 405.191
32.10000 406.777
32.11000 410.880
32.12000 414.567
32.13000 415.135
32.14000 415.065
32.15000 414.540
32.16000 411.858
32.17000 408.899
32.18000 406.613
32.19000 402.687
32.20000 399.479
32.21000 397.835
32.22000 399.539
32.23000 401.355
32.24000 400.668
32.25000 396.380
32.26000 392.065
32.27000 391.476
32.28000 394.361
32.29000 397.215
32.30000 397.856
32.31000 397.140
32.32000 396.456
32.33000 396.525
32.34000 396.905
32.35000 397.261
32.36000 392.875
32.37000 387.684
32.38000 383.828
32.39000 388.866
32.40000 395.543
32.41000 400.093
32.42000 395.519
32.43000 389.904
32.44000 385.674
32.45000 377.195
32.46000 370.350
32.47000 365.628
32.48000 365.039
32.49000 364.557
32.50000 365.973
32.51000 369.864
32.52000 373.760
32.53000 376.190
32.54000 377.384
32.55000 378.524
32.56000 376.937
32.57000 373.830
32.58000 370.955
32.59000 372.422
32.60000 375.530
32.61000 378.405
32.62000 375.743
32.63000 372.086
32.64000 369.575
32.65000 373.892
32.66000 379.340
32.67000 382.180
32.68000 374.890
32.69000 366.584
32.70000 360.492
32.71000 361.726
32.72000 362.975
32.73000 365.046
32.74000 368.573
32.75000 372.128
32.76000 373.488
32.77000 372.269
32.78000 371.048
32.79000 367.475
32.80000 362.154
32.81000 357.067
32.82000 360.741
32.83000 368.862
32.84000 376.658
32.85000 379.353
32.86000 380.291
32.87000 381.149
32.88000 380.559
32.89000 379.738
32.90000 378.040
32.91000 371.648
32.92000 364.563
32.93000 360.222
32.94000 365.557
32.95000 371.737
32.96000 376.145
32.97000 361.648
32.98000 349.974
32.99000 346.948
33.00000 357.855
33.01000 368.950
33.02000 371.749
33.03000 365.769
33.04000 359.817
33.05000 353.528
33.06000 347.084
33.07000 340.805
33.08000 339.376
33.09000 340.189
33.10000 341.189
33.11000 344.703
33.12000 349.004
33.13000 352.885
33.14000 352.304
33.15000 350.978
33.16000 349.490
33.17000 347.220
33.18000 344.847
33.19000 343.687
33.20000 346.415
33.21000 349.435
33.22000 351.525
33.23000 348.666
33.24000 346.387
33.25000 344.070
33.26000 341.700
33.27000 339.331
33.28000 342.098
33.29000 349.740
33.30000 357.320
33.31000 354.777
33.32000 346.086
33.33000 337.688
33.34000 336.155
33.35000 337.514
33.36000 339.257
33.37000 345.432
33.38000 352.870
33.39000 359.487
33.40000 347.462
33.41000 333.985
33.42000 322.930
33.43000 322.434
33.44000 323.168
33.45000 323.591
33.46000 323.107
33.47000 322.565
33.48000 322.202
33.49000 325.494
33.50000 328.010
33.51000 331.061
33.52000 334.821
33.53000 338.580
33.54000 338.904
33.55000 336.296
33.56000 333.719
33.57000 333.516
33.58000 334.629
33.59000 335.513
33.60000 331.991
33.61000 326.777
33.62000 322.382
33.63000 326.191
33.64000 332.122
33.65000 337.319
33.66000 333.875
33.67000 329.669
33.68000 325.747
33.69000 322.943
33.70000 320.255
33.71000 319.081
33.72000 321.932
33.73000 325.000
33.74000 326.986
33.75000 324.342
33.76000 322.340
33.77000 323.942
33.78000 329.856
33.79000 335.753
33.80000 335.545
33.81000 330.631
33.82000 325.798
33.83000 326.598
33.84000 330.179
33.85000 333.592
33.86000 334.297
33.87000 334.057
33.88000 333.845
33.89000 333.887
33.90000 333.988
33.91000 334.076
33.92000 335.701
33.93000 337.277
33.94000 336.732
33.95000 328.595
33.96000 319.781
33.97000 315.015
33.98000 320.043
33.99000 325.507
34.00000 328.917
34.01000 328.395
34.02000 327.979
34.03000 326.323
34.04000 323.334
34.05000 320.387
34.06000 322.955
34.07000 329.371
34.08000 335.646
34.09000 337.800
34.10000 338.012
34.11000 338.123
34.12000 336.859
34.13000 335.157
34.14000 332.865
34.15000 325.975
34.16000 318.111
34.17000 311.447
34.18000 318.391
34.19000 325.742
34.20000 330.387
34.21000 326.224
34.22000 321.383
34.23000 317.014
34.24000 313.687
34.25000 310.398
34.26000 308.425
34.27000 312.456
34.28000 315.359
34.29000 316.506
34.30000 315.957
34.31000 315.418
34.32000 315.747
34.33000 316.625
34.34000 317.479
34.35000 323.373
34.36000 331.024
34.37000 337.695
34.38000 332.808
34.39000 324.579
34.40000 317.628
34.41000 319.517
34.42000 323.094
34.43000 326.070
34.44000 327.576
34.45000 328.677
34.46000 329.240
34.47000 328.206
34.48000 327.068
34.49000 323.947
34.50000 316.847
34.51000 309.634
34.52000 305.487
34.53000 308.585
34.54000 310.781
34.55000 314.733
34.56000 320.210
34.57000 325.636
34.58000 328.181
34.59000 329.069
34.60000 329.927
34.61000 326.858
34.62000 322.529
34.63000 318.724
34.64000 320.285
34.65000 323.256
34.66000 326.002
34.67000 327.356
34.68000 328.471
34.69000 329.381
34.70000 335.111
34.71000 340.209
34.72000 340.697
34.73000 328.752
34.74000 316.118
34.75000 309.369
34.76000 313.377
34.77000 317.613
34.78000 319.940
34.79000 316.193
34.80000 313.611
34.81000 312.919
34.82000 313.710
34.83000 314.470
34.84000 313.995
34.85000 312.874
34.86000 311.801
34.87000 318.502
34.88000 327.318
34.89000 334.115
34.90000 322.761
34.91000 307.087
34.92000 294.666
34.93000 300.259
34.94000 308.619
34.95000 315.296
34.96000 305.921
34.97000 297.165
34.98000 294.894
34.99000 308.553
35.00000 322.943
35.01000 330.046
35.02000 325.035
35.03000 319.840
35.04000 317.124
35.05000 316.755
35.06000 316.461
35.07000 309.889
35.08000 298.865
35.09000 288.153
35.10000 287.240
35.11000 290.995
35.12000 294.558
35.13000 299.694
35.14000 304.901
35.15000 309.520
35.16000 309.473
35.17000 308.422
35.18000 308.413
35.19000 313.602
35.20000 319.503
35.21000 324.111
35.22000 318.802
35.23000 313.942
35.24000 309.681
35.25000 306.758
35.26000 303.886
35.27000 303.219
35.28000 305.879
35.29000 308.573
35.30000 311.860
35.31000 315.730
35.32000 319.532
35.33000 317.523
35.34000 311.779
35.35000 306.233
35.36000 305.653
35.37000 307.229
35.38000 308.711
35.39000 314.403
35.40000 320.729
35.41000 325.502
35.42000 319.339
35.43000 311.053
35.44000 304.549
35.45000 306.068
35.46000 308.559
35.47000 310.459
35.48000 305.131
35.49000 300.551
35.50000 299.491
35.51000 305.607
35.52000 311.935
35.53000 313.886
35.54000 309.851
35.55000 305.784
35.56000 305.070
35.57000 307.316
35.58000 309.564
35.59000 311.890
35.60000 314.261
35.61000 316.305
35.62000 311.647
35.63000 304.338
35.64000 297.542
35.65000 298.378
35.66000 300.972
35.67000 303.713
35.68000 307.377
35.69000 311.202
35.70000 313.983
35.71000 312.511
35.72000 310.585
35.73000 309.153
35.74000 306.772
35.75000 304.878
35.76000 301.487
35.77000 295.318
35.78000 289.086
35.79000 287.299
35.80000 291.008
35.81000 294.725
35.82000 294.355
35.83000 290.746
35.84000 287.163
35.85000 284.664
35.86000 282.741
35.87000 280.951
35.88000 281.446
35.89000 282.762
35.90000 283.973
35.91000 284.473
35.92000 284.767
35.93000 285.345
35.94000 287.519
35.95000 289.944
35.96000 291.617
35.97000 290.516
35.98000 289.155
35.99000 288.171
36.00000 288.749
36.01000 289.249
36.02000 292.694
36.03000 301.107
36.04000 309.601
36.05000 313.301
36.06000 311.661
36.07000 310.022
36.08000 307.788
36.09000 305.149
36.10000 302.648
36.11000 304.699
36.12000 308.950
36.13000 312.919
36.14000 312.823
36.15000 311.394
36.16000 310.096
36.17000 307.323
36.18000 304.589
36.19000 302.481
36.20000 303.544
36.21000 305.049
36.22000 305.588
36.23000 302.884
36.24000 299.918
36.25000 297.834
36.26000 303.003
36.27000 307.129
36.28000 305.976
36.29000 296.733
36.30000 287.402
36.31000 288.237
36.32000 299.243
36.33000 310.177
36.34000 314.621
36.35000 314.823
36.36000 314.858
36.37000 310.562
36.38000 304.358
36.39000 298.738
36.40000 300.341
36.41000 304.099
36.42000 307.465
36.43000 307.041
36.44000 306.018
36.45000 305.029
36.46000 304.197
36.47000 303.383
36.48000 303.604
36.49000 306.980
36.50000 310.575
36.51000 313.022
36.52000 303.486
36.53000 296.089
36.54000 292.867
36.55000 295.444
36.56000 298.058
36.57000 299.319
36.58000 299.364
36.59000 299.408
36.60000 295.550
36.61000 289.509
36.62000 283.837
36.63000 285.947
36.64000 291.181
36.65000 295.667
36.66000 292.140
36.67000 286.442
36.68000 281.412
36.69000 286.199
36.70000 291.836
36.71000 295.275
36.72000 289.617
36.73000 282.966
36.74000 278.617
36.75000 280.668
36.76000 283.094
36.77000 284.692
36.78000 278.527
36.79000 273.851
36.80000 274.260
36.81000 281.059
36.82000 287.867
36.83000 290.337
36.84000 289.294
36.85000 288.267
36.86000 291.130
36.87000 295.950
36.88000 300.708
36.89000 304.380
36.90000 307.655
36.91000 310.147
36.92000 305.294
36.93000 298.636
36.94000 292.849
36.95000 290.039
36.96000 288.046
36.97000 286.596
36.98000 287.182
36.99000 287.962
37.00000 288.542
37.01000 288.612
37.02000 288.657
37.03000 288.686
37.04000 289.219
37.05000 289.612
37.06000 289.528
37.07000 288.905
37.08000 288.272
37.09000 286.118
37.10000 282.850
37.11000 279.645
37.12000 279.389
37.13000 280.537
37.14000 281.740
37.15000 283.779
37.16000 286.095
37.17000 288.114
37.18000 287.680
37.19000 286.699
37.20000 285.861
37.21000 285.610
37.22000 285.469
37.23000 285.420
37.24000 285.684
37.25000 285.975
37.26000 285.710
37.27000 284.161
37.28000 282.561
37.29000 281.582
37.30000 286.456
37.31000 289.993
37.32000 291.675
37.33000 291.470
37.34000 291.264
37.35000 290.964
37.36000 290.601
37.37000 290.247
37.38000 287.630
37.39000 284.166
37.40000 281.050
37.41000 282.343
37.42000 284.972
37.43000 287.485
37.44000 289.149
37.45000 290.642
37.46000 291.895
37.47000 288.665
37.48000 285.504
37.49000 283.340
37.50000 284.267
37.51000 285.415
37.52000 286.736
37.53000 288.421
37.54000 290.117
37.55000 291.113
37.56000 288.634
37.57000 286.870
37.58000 287.943
37.59000 291.606
37.60000 295.172
37.61000 292.253
37.62000 285.429
37.63000 278.820
37.64000 275.234
37.65000 273.008
37.66000 271.197
37.67000 273.931
37.68000 277.916
37.69000 281.561
37.70000 282.992
37.71000 284.023
37.72000 284.873
37.73000 282.388
37.74000 280.038
37.75000 278.141
37.76000 277.526
37.77000 276.987
37.78000 278.417
37.79000 283.613
37.80000 288.901
37.81000 291.872
37.82000 291.582
37.83000 291.370
37.84000 289.895
37.85000 287.381
37.86000 284.937
37.87000 285.812
37.88000 288.504
37.89000 291.092
37.90000 294.371
37.91000 297.682
37.92000 300.351
37.93000 296.861
37.94000 291.833
37.95000 286.877
37.96000 282.338
37.97000 277.866
37.98000 274.257
37.99000 277.219
38.00000 280.147
38.01000 282.347
38.02000 282.677
38.03000 282.911
38.04000 281.733
38.05000 278.096
38.06000 274.413
38.07000 272.441
38.08000 281.386
38.09000 287.475
38.10000 289.024
38.11000 287.195
38.12000 285.390
38.13000 284.419
38.14000 283.864
38.15000 283.335
38.16000 281.615
38.17000 279.648
38.18000 278.313
38.19000 282.313
38.20000 287.518
38.21000 292.431
38.22000 295.814
38.23000 298.975
38.24000 301.472
38.25000 296.989
38.26000 292.916
38.27000 290.800
38.28000 293.266
38.29000 295.921
38.30000 295.979
38.31000 291.929
38.32000 287.828
38.33000 285.741
38.34000 308.257
38.35000 323.223
38.36000 323.677
38.37000 314.350
38.38000 305.413
38.39000 307.384
38.40000 314.305
38.41000 320.842
38.42000 333.581
38.43000 347.020
38.44000 358.690
38.45000 357.173
38.46000 352.963
38.47000 350.137
38.48000 353.855
38.49000 358.416
38.50000 361.935
38.51000 375.323
38.52000 386.505
38.53000 400.318
38.54000 419.745
38.55000 439.358
38.56000 449.911
38.57000 447.463
38.58000 444.915
38.59000 453.206
38.60000 471.566
38.61000 489.784
38.62000 498.106
38.63000 500.373
38.64000 503.137
38.65000 517.083
38.66000 535.655
38.67000 553.017
38.68000 559.236
38.69000 562.056
38.70000 563.369
38.71000 554.680
38.72000 544.152
38.73000 536.111
38.74000 538.704
38.75000 542.505
38.76000 545.366
38.77000 541.946
38.78000 538.966
38.79000 534.233
38.80000 526.098
38.81000 517.875
38.82000 504.582
38.83000 484.705
38.84000 464.822
38.85000 451.857
38.86000 444.702
38.87000 437.492
38.88000 427.550
38.89000 416.090
38.90000 404.847
38.91000 397.643
38.92000 391.961
38.93000 386.708
38.94000 374.780
38.95000 362.549
38.96000 351.499
38.97000 347.463
38.98000 344.585
38.99000 341.378
39.00000 336.903
39.01000 332.302
39.02000 328.929
39.03000 315.859
39.04000 305.375
39.05000 296.867
39.06000 291.850
39.07000 286.900
39.08000 284.611
39.09000 285.440
39.10000 286.272
39.11000 285.971
39.12000 284.822
39.13000 283.662
39.14000 282.147
39.15000 280.453
39.16000 278.942
39.17000 280.316
39.18000 282.678
39.19000 284.837
39.20000 280.375
39.21000 275.064
39.22000 270.890
39.23000 272.792
39.24000 275.590
39.25000 277.602
39.26000 276.846
39.27000 275.851
39.28000 275.141
39.29000 271.794
39.30000 269.157
39.31000 266.583
39.32000 264.110
39.33000 261.639
39.34000 263.394
39.35000 269.606
39.36000 275.787
39.37000 277.423
39.38000 275.963
39.39000 274.470
39.40000 271.994
39.41000 269.066
39.42000 266.326
39.43000 266.083
39.44000 266.620
39.45000 267.104
39.46000 265.895
39.47000 264.525
39.48000 262.647
39.49000 258.328
39.50000 253.689
39.51000 250.072
39.52000 249.724
39.53000 249.619
39.54000 249.548
39.55000 253.088
39.56000 255.843
39.57000 259.237
39.58000 263.561
39.59000 267.894
39.60000 272.238
39.61000 276.593
39.62000 280.913
39.63000 278.892
39.64000 273.041
39.65000 267.403
39.66000 266.734
39.67000 268.153
39.68000 269.477
39.69000 269.725
39.70000 269.666
39.71000 269.614
39.72000 264.373
39.73000 258.982
39.74000 255.098
39.75000 257.762
39.76000 261.186
39.77000 263.893
39.78000 264.511
39.79000 264.996
39.80000 265.320
39.81000 260.274
39.82000 256.425
39.83000 256.641
39.84000 262.225
39.85000 267.828
39.86000 269.625
39.87000 268.182
39.88000 266.756
39.89000 267.337
39.90000 269.007
39.91000 270.530
39.92000 269.220
39.93000 266.826
39.94000 264.403
39.95000 261.686
39.96000 258.895
39.97000 256.449
39.98000 253.729
39.99000 251.357
40.00000 249.729
40.01000 251.033
40.02000 252.636
40.03000 253.594
40.04000 252.843
40.05000 252.000
40.06000 251.455
40.07000 253.091
40.08000 254.320
40.09000 252.847
40.10000 248.156
40.11000 243.476
40.12000 243.188
40.13000 246.274
40.14000 249.309
40.15000 249.687
40.16000 248.732
40.17000 247.928
40.18000 249.540
40.19000 251.994
40.20000 254.075
40.21000 252.878
40.22000 250.917
40.23000 249.226
40.24000 245.032
40.25000 241.158
40.26000 239.544
40.27000 246.001
40.28000 253.176
40.29000 257.702
40.30000 255.837
40.31000 253.690
40.32000 252.352
40.33000 248.663
40.34000 245.980
40.35000 245.931
40.36000 248.708
40.37000 251.491
40.38000 254.945
40.39000 258.864
40.40000 262.697
40.41000 256.049
40.42000 244.973
40.43000 235.077
40.44000 241.288
40.45000 252.608
40.46000 262.839
40.47000 264.631
40.48000 264.643
40.49000 264.653
40.50000 259.057
40.51000 253.741
40.52000 248.673
40.53000 244.413
40.54000 240.214
40.55000 237.402
40.56000 237.636
40.57000 237.978
40.58000 238.183
40.59000 244.361
40.60000 248.786
40.61000 251.298
40.62000 251.969
40.63000 252.684
40.64000 256.891
40.65000 263.303
40.66000 269.533
40.67000 269.221
40.68000 266.275
40.69000 263.516
40.70000 262.939
40.71000 262.992
40.72000 262.379
40.73000 257.177
40.74000 251.102
40.75000 246.051
40.76000 249.455
40.77000 253.101
40.78000 255.381
40.79000 253.625
40.80000 251.606
40.81000 249.516
40.82000 247.289
40.83000 245.057
40.84000 243.775
40.85000 246.500
40.86000 248.413
40.87000 245.322
40.88000 237.897
40.89000 230.610
40.90000 230.842
40.91000 235.386
40.92000 239.769
40.93000 240.283
40.94000 239.352
40.95000 238.732
40.96000 241.288
40.97000 244.674
40.98000 247.304
40.99000 245.279
41.00000 242.457
41.01000 240.157
41.02000 244.601
41.03000 248.808
41.04000 251.638
41.05000 250.767
41.06000 249.691
41.07000 247.174
41.08000 242.032
41.09000 236.835
41.10000 233.984
41.11000 240.733
41.12000 245.377
41.13000 246.463
41.14000 244.769
41.15000 243.134
41.16000 243.925
41.17000 245.981
41.18000 247.949
41.19000 244.944
41.20000 240.505
41.21000 236.879
41.22000 240.537
41.23000 245.922
41.24000 250.123
41.25000 247.788
41.26000 244.454
41.27000 241.792
41.28000 240.124
41.29000 238.851
41.30000 239.216
41.31000 243.596
41.32000 248.159
41.33000 249.208
41.34000 244.430
41.35000 239.566
41.36000 237.026
41.37000 240.292
41.38000 242.486
41.39000 242.350
41.40000 240.567
41.41000 238.781
41.42000 236.926
41.43000 235.037
41.44000 233.246
41.45000 230.736
41.46000 228.208
41.47000 225.411
41.48000 220.487
41.49000 215.107
41.50000 211.755
41.51000 218.488
41.52000 226.595
41.53000 232.923
41.54000 232.563
41.55000 231.856
41.56000 231.770
41.57000 233.066
41.58000 234.414
41.59000 237.493
41.60000 243.177
41.61000 248.887
41.62000 248.480
41.63000 242.081
41.64000 235.750
41.65000 235.232
41.66000 238.439
41.67000 241.589
41.68000 243.332
41.69000 244.466
41.70000 245.532
41.71000 248.494
41.72000 251.704
41.73000 253.694
41.74000 247.122
41.75000 238.893
41.76000 232.462
41.77000 234.101
41.78000 236.714
41.79000 238.705
41.80000 232.710
41.81000 227.567
41.82000 226.022
41.83000 231.792
41.84000 237.775
41.85000 238.507
41.86000 232.078
41.87000 225.612
41.88000 225.769
41.89000 231.749
41.90000 237.653
41.91000 239.142
41.92000 238.060
41.93000 237.127
41.94000 239.226
41.95000 242.521
41.96000 245.583
41.97000 245.584
41.98000 244.850
41.99000 244.100
42.00000 243.254
42.01000 242.391
42.02000 241.417
42.03000 239.994
42.04000 238.522
42.05000 237.430
42.06000 232.767
42.07000 228.985
42.08000 225.543
42.09000 222.727
42.10000 219.926
42.11000 222.136
42.12000 230.521
42.13000 238.908
42.14000 241.925
42.15000 240.685
42.16000 239.406
42.17000 236.532
42.18000 232.812
42.19000 229.386
42.20000 230.940
42.21000 234.284
42.22000 237.357
42.23000 233.375
42.24000 228.301
42.25000 224.866
42.26000 230.642
42.27000 237.853
42.28000 243.024
42.29000 240.682
42.30000 237.641
42.31000 235.443
42.32000 226.081
42.33000 218.640
42.34000 218.031
42.35000 228.918
42.36000 239.988
42.37000 243.814
42.38000 239.595
42.39000 235.387
42.40000 231.293
42.41000 227.319
42.42000 223.410
42.43000 221.639
42.44000 220.898
42.45000 220.392
42.46000 223.270
42.47000 227.253
42.48000 230.869
42.49000 235.029
42.50000 238.807
42.51000 240.995
42.52000 235.150
42.53000 228.188
42.54000 223.717
42.55000 227.584
42.56000 232.122
42.57000 235.307
42.58000 236.567
42.59000 237.465
42.60000 237.339
42.61000 235.647
42.62000 233.938
42.63000 234.732
42.64000 238.021
42.65000 241.289
42.66000 239.014
42.67000 233.219
42.68000 227.518
42.69000 224.240
42.70000 222.026
42.71000 219.766
42.72000 216.949
42.73000 213.966
42.74000 211.294
42.75000 212.448
42.76000 214.112
42.77000 215.345
42.78000 214.615
42.79000 213.643
42.80000 214.173
42.81000 219.274
42.82000 224.690
42.83000 228.374
42.84000 224.556
42.85000 221.535
42.86000 219.710
42.87000 219.542
42.88000 219.385
42.89000 220.228
42.90000 221.966
42.91000 223.687
42.92000 223.412
42.93000 221.988
42.94000 220.785
42.95000 224.230
42.96000 229.536
42.97000 233.840
42.98000 227.462
42.99000 218.198
43.00000 210.022
43.01000 215.144
43.02000 221.593
43.03000 226.524
43.04000 225.192
43.05000 223.180
43.06000 222.139
43.07000 223.794
43.08000 225.606
43.09000 226.798
43.10000 218.768
43.11000 212.697
43.12000 210.914
43.13000 214.503
43.14000 218.111
43.15000 222.423
43.16000 227.304
43.17000 232.115
43.18000 231.171
43.19000 227.250
43.20000 223.465
43.21000 222.048
43.22000 221.493
43.23000 221.062
43.24000 221.789
43.25000 222.799
43.26000 223.677
43.27000 225.220
43.28000 226.626
43.29000 227.109
43.30000 224.138
43.31000 220.838
43.32000 219.136
43.33000 221.467
43.34000 223.993
43.35000 225.597
43.36000 222.902
43.37000 220.892
43.38000 219.324
43.39000 218.254
43.40000 217.183
43.41000 215.989
43.42000 214.705
43.43000 213.446
43.44000 215.918
43.45000 220.056
43.46000 224.207
43.47000 228.541
43.48000 232.936
43.49000 236.644
43.50000 234.705
43.51000 231.513
43.52000 228.786
43.53000 226.201
43.54000 224.039
43.55000 222.277
43.56000 221.878
43.57000 221.590
43.58000 220.356
43.59000 216.945
43.60000 213.448
43.61000 211.311
43.62000 217.359
43.63000 221.752
43.64000 222.775
43.65000 220.377
43.66000 217.959
43.67000 213.525
43.68000 207.757
43.69000 202.135
43.70000 202.158
43.71000 204.582
43.72000 207.088
43.73000 210.611
43.74000 214.441
43.75000 218.425
43.76000 223.523
43.77000 228.844
43.78000 233.309
43.79000 228.793
43.80000 224.094
43.81000 220.176
43.82000 218.671
43.83000 217.338
43.84000 215.697
43.85000 213.412
43.86000 211.107
43.87000 209.755
43.88000 218.405
43.89000 224.545
43.90000 224.504
43.91000 218.831
43.92000 213.277
43.93000 215.479
43.94000 222.338
43.95000 228.979
43.96000 227.717
43.97000 223.487
43.98000 219.688
43.99000 220.589
44.00000 222.781
44.01000 224.100
44.02000 219.749
44.03000 214.378
44.04000 209.955
44.05000 214.091
44.06000 218.272
44.07000 220.899
44.08000 219.152
44.09000 217.142
44.10000 216.312
44.11000 217.732
44.12000 219.207
44.13000 220.035
44.14000 222.036
44.15000 223.417
44.16000 221.159
44.17000 215.913
44.18000 210.759
44.19000 209.883
44.20000 211.343
44.21000 212.745
44.22000 211.181
44.23000 208.689
44.24000 206.437
44.25000 206.480
44.26000 207.093
44.27000 207.713
44.28000 208.368
44.29000 209.028
44.30000 209.561
44.31000 210.085
44.32000 210.510
44.33000 210.706
44.34000 210.314
44.35000 209.893
44.36000 209.879
44.37000 210.572
44.38000 211.278
44.39000 211.656
44.40000 214.892
44.41000 217.093
44.42000 217.541
44.43000 216.690
44.44000 215.860
44.45000 215.794
44.46000 216.107
44.47000 216.406
44.48000 213.431
44.49000 209.651
44.50000 206.488
44.51000 208.508
44.52000 211.696
44.53000 213.900
44.54000 210.960
44.55000 207.277
44.56000 204.371
44.57000 212.863
44.58000 220.448
44.59000 225.999
44.60000 226.797
44.61000 227.400
44.62000 224.698
44.63000 216.784
44.64000 208.805
44.65000 204.751
44.66000 212.483
44.67000 217.641
44.68000 220.154
44.69000 220.890
44.70000 221.590
44.71000 221.321
44.72000 220.613
44.73000 219.944
44.74000 220.234
44.75000 220.768
44.76000 222.020
44.77000 228.603
44.78000 236.271
44.79000 241.720
44.80000 236.708
44.81000 230.355
44.82000 225.457
44.83000 231.164
44.84000 236.295
44.85000 238.091
44.86000 232.792
44.87000 227.260
44.88000 224.967
44.89000 227.307
44.90000 229.682
44.91000 227.761
44.92000 221.861
44.93000 216.065
44.94000 217.458
44.95000 223.235
44.96000 228.916
44.97000 232.440
44.98000 235.075
44.99000 237.537
45.00000 241.475
45.01000 245.422
45.02000 248.514
45.03000 245.948
45.04000 242.345
45.05000 238.439
45.06000 233.238
45.07000 227.889
45.08000 223.867
45.09000 230.724
45.10000 236.613
45.11000 243.062
45.12000 250.596
45.13000 258.158
45.14000 258.930
45.15000 250.912
45.16000 242.866
45.17000 237.309
45.18000 233.838
45.19000 230.380
45.20000 227.532
45.21000 225.023
45.22000 222.988
45.23000 229.733
45.24000 239.777
45.25000 249.061
45.26000 249.519
45.27000 247.927
45.28000 246.535
45.29000 246.324
45.30000 246.308
45.31000 246.900
45.32000 249.841
45.33000 253.014
45.34000 255.338
45.35000 250.923
45.36000 247.246
45.37000 245.471
45.38000 247.051
45.39000 248.693
45.40000 248.435
45.41000 245.955
45.42000 243.478
45.43000 241.396
45.44000 239.622
45.45000 237.896
45.46000 237.927
45.47000 238.845
45.48000 239.941
45.49000 243.803
45.50000 248.612
45.51000 253.003
45.52000 250.627
45.53000 247.142
45.54000 243.732
45.55000 240.728
45.56000 237.783
45.57000 236.245
45.58000 239.636
45.59000 243.454
45.60000 246.172
45.61000 241.633
45.62000 237.940
45.63000 234.488
45.64000 231.423
45.65000 228.364
45.66000 224.766
45.67000 220.604
45.68000 216.463
45.69000 214.876
45.70000 215.032
45.71000 215.377
45.72000 221.180
45.73000 229.492
45.74000 236.871
45.75000 231.889
45.76000 223.058
45.77000 215.097
45.78000 218.635
45.79000 223.828
45.80000 228.211
45.81000 228.709
45.82000 228.698
45.83000 227.984
45.84000 225.026
45.85000 221.901
45.86000 219.742
45.87000 221.581
45.88000 223.066
45.89000 224.904
45.90000 227.256
45.91000 229.611
45.92000 225.986
45.93000 216.722
45.94000 207.535
45.95000 203.852
45.96000 203.582
45.97000 203.352
45.98000 204.061
45.99000 205.163
46.00000 206.277
46.01000 207.527
46.02000 208.815
46.03000 209.960
46.04000 203.253
46.05000 196.164
46.06000 191.223
46.07000 195.589
46.08000 201.031
46.09000 204.277
46.10000 201.152
46.11000 197.624
46.12000 195.264
46.13000 196.983
46.14000 198.338
46.15000 200.787
46.16000 204.674
46.17000 208.563
46.18000 209.399
46.19000 207.644
46.20000 205.910
46.21000 203.998
46.22000 202.037
46.23000 200.178
46.24000 200.288
46.25000 201.148
46.26000 201.824
46.27000 200.658
46.28000 199.019
46.29000 197.584
46.30000 196.179
46.31000 194.978
46.32000 195.162
46.33000 200.781
46.34000 206.952
46.35000 209.730
46.36000 203.548
46.37000 196.889
46.38000 192.587
46.39000 198.344
46.40000 202.699
46.41000 203.865
46.42000 201.243
46.43000 198.626
46.44000 198.902
46.45000 201.394
46.46000 203.844
46.47000 204.534
46.48000 204.328
46.49000 204.011
46.50000 201.907
46.51000 199.183
46.52000 196.592
46.53000 195.172
46.54000 194.025
46.55000 193.037
46.56000 192.320
46.57000 191.748
46.58000 190.685
46.59000 187.877
46.60000 184.914
46.61000 184.411
46.62000 189.825
46.63000 195.499
46.64000 199.032
46.65000 198.683
46.66000 198.393
46.67000 198.977
46.68000 200.496
46.69000 202.008
46.70000 202.623
46.71000 202.617
46.72000 202.611
46.73000 204.054
46.74000 206.086
46.75000 207.986
46.76000 208.100
46.77000 207.649
46.78000 207.069
46.79000 205.494
46.80000 203.709
46.81000 202.198
46.82000 204.577
46.83000 207.004
46.84000 207.957
46.85000 204.137
46.86000 199.953
46.87000 195.502
46.88000 190.468
46.89000 185.413
46.90000 182.389
46.91000 193.590
46.92000 201.632
46.93000 201.061
46.94000 192.227
46.95000 183.507
46.96000 183.733
46.97000 189.589
46.98000 195.278
46.99000 194.432
47.00000 190.989
47.01000 187.718
47.02000 186.452
47.03000 185.762
47.04000 186.231
47.05000 194.659
47.06000 204.595
47.07000 212.854
47.08000 208.307
47.09000 203.296
47.10000 198.785
47.11000 195.750
47.12000 192.811
47.13000 190.643
47.14000 190.017
47.15000 189.434
47.16000 189.099
47.17000 197.242
47.18000 202.954
47.19000 202.112
47.20000 195.614
47.21000 189.240
47.22000 189.635
47.23000 193.899
47.24000 198.012
47.25000 197.064
47.26000 194.327
47.27000 191.697
47.28000 190.148
47.29000 188.882
47.30000 188.385
47.31000 192.608
47.32000 197.636
47.33000 201.732
47.34000 196.587
47.35000 191.598
47.36000 188.333
47.37000 189.688
47.38000 191.296
47.39000 192.660
47.40000 193.580
47.41000 194.490
47.42000 194.988
47.43000 188.549
47.44000 184.129
47.45000 184.723
47.46000 189.219
47.47000 193.609
47.48000 193.715
47.49000 191.591
47.50000 189.559
47.51000 186.143
47.52000 182.507
47.53000 179.454
47.54000 181.594
47.55000 184.964
47.56000 187.566
47.57000 185.945
47.58000 183.681
47.59000 181.874
47.60000 183.357
47.61000 184.795
47.62000 185.458
47.63000 184.229
47.64000 182.914
47.65000 181.614
47.66000 180.339
47.67000 179.064
47.68000 178.399
47.69000 185.819
47.70000 190.816
47.71000 193.029
47.72000 193.280
47.73000 193.428
47.74000 190.391
47.75000 185.846
47.76000 181.536
47.77000 178.206
47.78000 175.426
47.79000 172.936
47.80000 172.728
47.81000 173.008
47.82000 174.394
47.83000 181.264
47.84000 188.879
47.85000 194.818
47.86000 188.214
47.87000 182.167
47.88000 176.899
47.89000 173.365
47.90000 169.894
47.91000 170.941
47.92000 178.763
47.93000 186.652
47.94000 189.406
47.95000 187.146
47.96000 184.899
47.97000 183.734
47.98000 183.261
47.99000 182.815
48.00000 183.038
48.01000 183.549
48.02000 184.029
48.03000 183.496
48.04000 182.741
48.05000 182.262
48.06000 183.718
48.07000 185.546
48.08000 187.588
48.09000 190.583
48.10000 193.693
48.11000 196.061
48.12000 190.135
48.13000 185.034
48.14000 180.148
48.15000 175.695
48.16000 171.254
48.17000 172.174
48.18000 180.379
48.19000 188.621
48.20000 191.575
48.21000 189.893
48.22000 188.238
48.23000 188.199
48.24000 189.097
48.25000 189.963
48.26000 190.166
48.27000 190.109
48.28000 190.056
48.29000 188.494
48.30000 186.723
48.31000 185.148
48.32000 184.801
48.33000 184.666
48.34000 183.780
48.35000 179.854
48.36000 175.605
48.37000 172.452
48.38000 173.885
48.39000 175.200
48.40000 176.082
48.41000 176.167
48.42000 176.235
48.43000 176.921
48.44000 178.367
48.45000 179.812
48.46000 180.397
48.47000 180.302
48.48000 180.262
48.49000 182.540
48.50000 186.043
48.51000 189.491
48.52000 192.001
48.53000 194.174
48.54000 196.171
48.55000 192.436
48.56000 187.873
48.57000 183.666
48.58000 181.457
48.59000 179.559
48.60000 178.388
48.61000 179.890
48.62000 181.639
48.63000 182.902
48.64000 175.925
48.65000 170.280
48.66000 167.895
48.67000 170.982
48.68000 174.155
48.69000 175.657
48.70000 175.309
48.71000 174.961
48.72000 176.126
48.73000 178.355
48.74000 180.515
48.75000 180.460
48.76000 179.340
48.77000 178.311
48.78000 178.594
48.79000 179.304
48.80000 179.949
48.81000 179.479
48.82000 178.851
48.83000 177.907
48.84000 175.376
48.85000 172.624
48.86000 170.852
48.87000 172.347
48.88000 174.104
48.89000 175.336
48.90000 174.768
48.91000 174.286
48.92000 172.786
48.93000 169.733
48.94000 166.664
48.95000 167.248
48.96000 171.461
48.97000 175.646
48.98000 177.644
48.99000 178.211
49.00000 178.914
49.01000 183.062
49.02000 188.720
49.03000 193.853
49.04000 192.535
49.05000 189.305
49.06000 186.414
49.07000 173.662
49.08000 160.848
49.09000 151.831
49.10000 160.083
49.11000 170.455
49.12000 177.824
49.13000 176.076
49.14000 173.703
49.15000 172.089
49.16000 172.022
49.17000 172.006
49.18000 171.584
49.19000 170.601
49.20000 169.617
49.21000 172.602
49.22000 179.130
49.23000 185.590
49.24000 184.195
49.25000 178.300
49.26000 172.718
49.27000 173.684
49.28000 177.264
49.29000 180.760
49.30000 183.358
49.31000 185.714
49.32000 187.793
49.33000 185.297
49.34000 182.449
49.35000 180.010
49.36000 179.256
49.37000 178.685
49.38000 178.324
49.39000 178.543
49.40000 178.796
49.41000 178.962
49.42000 175.859
49.43000 173.519
49.44000 171.341
49.45000 169.362
49.46000 167.389
49.47000 167.039
49.48000 167.994
49.49000 168.936
49.50000 171.387
49.51000 174.551
49.52000 177.351
49.53000 173.803
49.54000 167.947
49.55000 163.079
49.56000 167.399
49.57000 173.963
49.58000 179.663
49.59000 175.543
49.60000 170.709
49.61000 168.177
49.62000 174.236
49.63000 181.110
49.64000 184.621
49.65000 179.667
49.66000 174.305
49.67000 170.905
49.68000 169.932
49.69000 169.255
49.70000 167.590
49.71000 164.814
49.72000 162.068
49.73000 164.406
49.74000 170.443
49.75000 176.361
49.76000 176.564
49.77000 174.073
49.78000 171.893
49.79000 174.280
49.80000 178.178
49.81000 181.188
49.82000 176.926
49.83000 171.056
49.84000 166.044
49.85000 168.650
49.86000 171.752
49.87000 173.218
49.88000 169.143
49.89000 164.613
49.90000 163.089
49.91000 168.456
49.92000 174.096
49.93000 177.537
49.94000 172.556
49.95000 168.926
49.96000 166.983
49.97000 166.745
49.98000 166.509
49.99000 166.383
50.00000 166.329
50.01000 166.277
50.02000 169.635
50.03000 174.286
50.04000 178.510
50.05000 177.379
50.06000 174.636
50.07000 171.874
50.08000 168.985
50.09000 166.070
50.10000 163.626
50.11000 167.181
50.12000 170.764
50.13000 174.232
50.14000 177.343
50.15000 180.430
50.16000 180.684
50.17000 175.022
50.18000 169.175
50.19000 165.751
50.20000 171.539
50.21000 175.659
50.22000 177.975
50.23000 178.653
50.24000 179.323
50.25000 179.521
50.26000 179.436
50.27000 179.354
50.28000 177.416
50.29000 174.874
50.30000 172.354
50.31000 170.082
50.32000 167.878
50.33000 166.886
50.34000 173.745
50.35000 182.013
50.36000 188.816
50.37000 184.557
50.38000 180.051
50.39000 176.211
50.40000 174.242
50.41000 172.384
50.42000 171.954
50.43000 174.241
50.44000 176.593
50.45000 177.910
50.46000 181.195
50.47000 183.470
50.48000 183.495
50.49000 181.677
50.50000 179.942
50.51000 182.029
50.52000 186.196
50.53000 190.200
50.54000 187.768
50.55000 183.269
50.56000 179.218
50.57000 179.432
50.58000 180.705
50.59000 182.404
50.60000 186.575
50.61000 191.144
50.62000 194.827
50.63000 191.114
50.64000 187.518
50.65000 186.904
50.66000 193.914
50.67000 201.305
50.68000 202.452
50.69000 192.794
50.70000 182.945
50.71000 177.684
50.72000 184.181
50.73000 188.601
50.74000 189.831
50.75000 188.702
50.76000 187.524
50.77000 184.643
50.78000 180.918
50.79000 177.369
50.80000 180.362
50.81000 185.174
50.82000 189.355
50.83000 188.266
50.84000 185.994
50.85000 184.612
50.86000 187.870
50.87000 191.796
50.88000 194.892
50.89000 191.668
50.90000 188.657
50.91000 185.955
50.92000 183.974
50.93000 182.022
50.94000 180.981
50.95000 181.373
50.96000 181.783
50.97000 181.990
50.98000 181.790
50.99000 181.695
51.00000 185.706
51.01000 192.466
51.02000 198.901
51.03000 196.361
51.04000 189.769
51.05000 183.547
51.06000 179.352
51.07000 176.074
51.08000 173.041
51.09000 171.816
51.10000 170.959
51.11000 170.590
51.12000 172.516
51.13000 174.735
51.14000 176.444
51.15000 176.574
51.16000 176.586
51.17000 176.141
51.18000 174.727
51.19000 173.282
51.20000 172.188
51.21000 171.595
51.22000 171.006
51.23000 171.216
51.24000 172.162
51.25000 173.066
51.26000 171.047
51.27000 167.250
51.28000 163.682
51.29000 165.193
51.30000 168.793
51.31000 172.156
51.32000 173.805
51.33000 174.868
51.34000 175.462
51.35000 172.962
51.36000 169.897
51.37000 167.588
51.38000 168.494
51.39000 169.764
51.40000 170.718
51.41000 161.463
51.42000 153.737
51.43000 149.629
51.44000 152.509
51.45000 155.565
51.46000 160.023
51.47000 166.290
51.48000 172.557
51.49000 174.450
51.50000 172.708
51.51000 171.016
51.52000 171.702
51.53000 173.703
51.54000 175.322
51.55000 169.900
51.56000 161.841
51.57000 154.395
51.58000 156.162
51.59000 159.832
51.60000 163.470
51.61000 166.922
51.62000 170.344
51.63000 172.805
51.64000 171.569
51.65000 169.968
51.66000 168.796
51.67000 165.206
51.68000 162.339
51.69000 161.666
51.70000 164.846
51.71000 168.098
51.72000 169.081
51.73000 167.421
51.74000 165.763
51.75000 161.349
51.76000 154.909
51.77000 148.701
51.78000 150.920
51.79000 157.381
51.80000 163.323
51.81000 161.253
51.82000 156.448
51.83000 152.062
51.84000 152.895
51.85000 154.692
51.86000 156.300
51.87000 156.909
51.88000 157.371
51.89000 158.108
51.90000 159.804
51.91000 161.583
51.92000 162.848
51.93000 169.256
51.94000 174.302
51.95000 173.844
51.96000 164.596
51.97000 155.233
51.98000 151.873
51.99000 154.801
52.00000 157.714
52.01000 161.025
52.02000 164.563
52.03000 167.917
52.04000 166.044
52.05000 161.776
52.06000 157.824
52.07000 158.059
52.08000 159.593
52.09000 160.975
52.10000 161.498
52.11000 161.802
52.12000 162.255
52.13000 163.416
52.14000 164.670
52.15000 165.551
52.16000 165.250
52.17000 164.862
52.18000 164.594
52.19000 162.733
52.20000 161.295
52.21000 160.404
52.22000 160.307
52.23000 160.216
52.24000 161.133
52.25000 162.998
52.26000 164.846
52.27000 163.203
52.28000 159.474
52.29000 155.983
52.30000 157.963
52.31000 162.228
52.32000 165.814
52.33000 161.676
52.34000 155.357
52.35000 149.743
52.36000 154.830
52.37000 160.966
52.38000 165.470
52.39000 162.921
52.40000 159.561
52.41000 156.911
52.42000 156.316
52.43000 155.850
52.44000 155.538
52.45000 162.183
52.46000 167.243
52.47000 170.045
52.48000 169.887
52.49000 169.710
52.50000 166.263
52.51000 160.049
52.52000 153.912
52.53000 154.631
52.54000 159.082
52.55000 163.260
52.56000 162.247
52.57000 159.260
52.58000 156.581
52.59000 156.945
52.60000 158.089
52.61000 159.090
52.62000 155.529
52.63000 151.825
52.64000 149.477
52.65000 152.436
52.66000 155.932
52.67000 158.221
52.68000 157.331
52.69000 156.273
52.70000 155.590
52.71000 157.839
52.72000 159.524
52.73000 159.446
52.74000 157.278
52.75000 155.103
52.76000 152.148
52.77000 148.598
52.78000 145.108
52.79000 146.923
52.80000 151.296
52.81000 155.446
52.82000 156.032
52.83000 155.383
52.84000 155.101
52.85000 158.009
52.86000 161.658
52.87000 164.800
52.88000 162.435
52.89000 159.734
52.90000 157.192
52.91000 155.211
52.92000 153.280
52.93000 151.948
52.94000 152.052
52.95000 152.219
52.96000 152.323
52.97000 159.286
52.98000 164.368
52.99000 166.907
53.00000 166.736
53.01000 166.570
53.02000 167.049
53.03000 167.976
53.04000 168.882
53.05000 168.161
53.06000 166.746
53.07000 165.352
53.08000 164.252
53.09000 163.243
53.10000 162.409
53.11000 162.913
53.12000 163.697
53.13000 164.360
53.14000 163.148
53.15000 161.926
53.16000 160.845
53.17000 160.222
53.18000 159.634
53.19000 157.730
53.20000 152.950
53.21000 148.069
53.22000 145.151
53.23000 149.507
53.24000 152.643
53.25000 154.139
53.26000 154.067
53.27000 153.984
53.28000 153.119
53.29000 151.763
53.30000 150.445
53.31000 153.656
53.32000 158.527
53.33000 163.064
53.34000 163.708
53.35000 163.235
53.36000 162.289
53.37000 158.107
53.38000 153.312
53.39000 149.330
53.40000 147.670
53.41000 146.524
53.42000 147.515
53.43000 154.781
53.44000 162.453
53.45000 166.627
53.46000 163.835
53.47000 160.851
53.48000 159.142
53.49000 158.093
53.50000 157.361
53.51000 155.946
53.52000 153.945
53.53000 152.007
53.54000 153.528
53.55000 157.022
53.56000 160.391
53.57000 156.714
53.58000 150.697
53.59000 145.667
53.60000 150.644
53.61000 158.225
53.62000 164.357
53.63000 161.630
53.64000 157.398
53.65000 153.952
53.66000 153.174
53.67000 152.764
53.68000 151.655
53.69000 148.676
53.70000 145.595
53.71000 145.785
53.72000 151.904
53.73000 158.146
53.74000 161.560
53.75000 158.676
53.76000 156.686
53.77000 155.166
53.78000 154.011
53.79000 152.896
53.80000 153.396
53.81000 154.734
53.82000 156.014
53.83000 149.983
53.84000 141.970
53.85000 135.442
53.86000 142.101
53.87000 151.870
53.88000 159.658
53.89000 156.584
53.90000 151.858
53.91000 148.091
53.92000 149.753
53.93000 151.489
53.94000 154.435
53.95000 160.331
53.96000 166.361
53.97000 167.399
53.98000 160.215
53.99000 152.910
54.00000 149.108
54.01000 146.729
54.02000 145.135
54.03000 145.188
54.04000 146.399
54.05000 147.551
54.06000 146.905
54.07000 145.410
54.08000 143.992
54.09000 147.286
54.10000 151.713
54.11000 155.675
54.12000 155.996
54.13000 155.541
54.14000 155.456
54.15000 157.202
54.16000 159.196
54.17000 160.749
54.18000 164.398
54.19000 167.436
54.20000 166.421
54.21000 156.412
54.22000 146.075
54.23000 142.703
54.24000 149.746
54.25000 156.891
54.26000 159.065
54.27000 156.401
54.28000 153.742
54.29000 151.448
54.30000 149.387
54.31000 147.400
54.32000 147.261
54.33000 147.917
54.34000 148.532
54.35000 148.667
54.36000 148.661
54.37000 148.956
54.38000 151.346
54.39000 154.139
54.40000 156.692
54.41000 158.178
54.42000 159.535
54.43000 160.567
54.44000 155.143
54.45000 150.538
54.46000 147.641
54.47000 148.199
54.48000 148.856
54.49000 151.219
54.50000 155.896
54.51000 160.582
54.52000 161.254
54.53000 158.420
54.54000 155.590
54.55000 153.079
54.56000 150.751
54.57000 148.497
54.58000 147.703
54.59000 147.482
54.60000 147.276
54.61000 148.832
54.62000 150.656
54.63000 152.637
54.64000 155.601
54.65000 158.734
54.66000 160.350
54.67000 155.838
54.68000 150.680
54.69000 146.855
54.70000 152.675
54.71000 157.615
54.72000 159.219
54.73000 154.684
54.74000 150.015
54.75000 146.962
54.76000 145.885
54.77000 144.815
54.78000 146.509
54.79000 150.366
54.80000 154.088
54.81000 152.244
54.82000 147.468
54.83000 143.159
54.84000 146.703
54.85000 153.051
54.86000 158.881
54.87000 160.090
54.88000 160.182
54.89000 160.102
54.90000 159.067
54.91000 157.883
54.92000 156.621
54.93000 155.070
54.94000 153.492
54.95000 152.354
54.96000 150.964
54.97000 149.890
54.98000 148.102
54.99000 145.121
55.00000 142.122
55.01000 142.384
55.02000 146.245
55.03000 150.093
55.04000 154.454
55.05000 159.137
55.06000 163.678
55.07000 163.667
55.08000 161.474
55.09000 159.398
55.10000 158.997
55.11000 159.139
55.12000 159.269
55.13000 162.323
55.14000 165.577
55.15000 167.322
55.16000 161.487
55.17000 154.607
55.18000 149.845
55.19000 152.137
55.20000 154.991
55.21000 156.990
55.22000 161.412
55.23000 164.826
55.24000 166.463
55.25000 165.399
55.26000 164.307
55.27000 161.779
55.28000 157.827
55.29000 153.902
55.30000 156.759
55.31000 163.894
55.32000 170.728
55.33000 169.907
55.34000 165.742
55.35000 161.774
55.36000 160.213
55.37000 159.363
55.38000 158.603
55.39000 161.404
55.40000 164.454
55.41000 167.395
55.42000 169.836
55.43000 172.216
55.44000 173.485
55.45000 171.392
55.46000 169.069
55.47000 167.492
55.48000 166.280
55.49000 165.384
55.50000 165.182
55.51000 165.938
55.52000 166.700
55.53000 168.322
55.54000 170.710
55.55000 173.073
55.56000 174.182
55.57000 174.547
55.58000 175.144
55.59000 180.574
55.60000 187.926
55.61000 194.856
55.62000 197.316
55.63000 198.576
55.64000 199.686
55.65000 200.385
55.66000 200.925
55.67000 202.724
55.68000 209.688
55.69000 217.208
55.70000 222.604
55.71000 222.147
55.72000 221.352
55.73000 220.830
55.74000 224.507
55.75000 227.283
55.76000 230.614
55.77000 234.637
55.78000 238.662
55.79000 242.579
55.80000 246.411
55.81000 250.187
55.82000 255.110
55.83000 260.483
55.84000 265.466
55.85000 263.713
55.86000 259.518
55.87000 256.744
55.88000 267.137
55.89000 280.735
55.90000 292.538
55.91000 290.212
55.92000 286.334
55.93000 283.192
55.94000 282.790
55.95000 282.648
55.96000 281.974
55.97000 279.966
55.98000 277.894
55.99000 276.582
56.00000 275.804
56.01000 275.246
56.02000 275.208
56.03000 275.752
56.04000 276.303
56.05000 277.756
56.06000 279.863
56.07000 281.930
56.08000 272.565
56.09000 258.197
56.10000 244.748
56.11000 244.724
56.12000 249.131
56.13000 252.501
56.14000 247.402
56.15000 240.436
56.16000 234.491
56.17000 235.815
56.18000 237.791
56.19000 238.028
56.20000 232.392
56.21000 226.276
56.22000 220.429
56.23000 215.199
56.24000 209.994
56.25000 206.821
56.26000 207.096
56.27000 207.321
56.28000 207.064
56.29000 206.321
56.30000 205.523
56.31000 199.439
56.32000 189.880
56.33000 180.565
56.34000 179.721
56.35000 182.499
56.36000 184.959
56.37000 183.450
56.38000 180.749
56.39000 177.999
56.40000 174.883
56.41000 171.694
56.42000 169.022
56.43000 170.049
56.44000 171.287
56.45000 172.643
56.46000 174.361
56.47000 176.105
56.48000 175.928
56.49000 171.752
56.50000 167.451
56.51000 164.935
56.52000 161.376
56.53000 158.867
56.54000 157.888
56.55000 158.294
56.56000 158.745
56.57000 162.024
56.58000 166.993
56.59000 171.802
56.60000 163.385
56.61000 150.381
56.62000 138.641
56.63000 140.582
56.64000 146.256
56.65000 151.610
56.66000 154.909
56.67000 157.839
56.68000 160.249
56.69000 154.799
56.70000 149.609
56.71000 145.500
56.72000 144.414
56.73000 143.508
56.74000 142.996
56.75000 143.231
56.76000 143.485
56.77000 143.627
56.78000 141.104
56.79000 139.357
56.80000 140.665
56.81000 144.463
56.82000 148.213
56.83000 149.768
56.84000 150.130
56.85000 150.478
56.86000 150.243
56.87000 149.823
56.88000 149.064
56.89000 145.102
56.90000 140.347
56.91000 136.369
56.92000 136.883
56.93000 138.118
56.94000 139.112
56.95000 145.508
56.96000 151.121
56.97000 153.145
56.98000 146.019
56.99000 138.439
57.00000 136.466
57.01000 144.168
57.02000 152.039
57.03000 156.237
57.04000 152.246
57.05000 149.523
57.06000 147.377
57.07000 145.654
57.08000 143.898
57.09000 140.953
57.10000 137.420
57.11000 134.056
57.12000 136.835
57.13000 141.316
57.14000 145.616
57.15000 148.407
57.16000 150.860
57.17000 152.819
57.18000 152.218
57.19000 151.249
57.20000 150.486
57.21000 147.837
57.22000 145.586
57.23000 144.477
57.24000 146.015
57.25000 147.661
57.26000 149.145
57.27000 150.378
57.28000 151.607
57.29000 152.230
57.30000 147.445
57.31000 144.263
57.32000 143.351
57.33000 143.956
57.34000 144.526
57.35000 144.141
57.36000 143.327
57.37000 142.558
57.38000 141.609
57.39000 140.690
57.40000 139.918
57.41000 140.233
57.42000 140.767
57.43000 141.499
57.44000 143.155
57.45000 144.930
57.46000 146.295
57.47000 145.590
57.48000 144.914
57.49000 144.688
57.50000 145.411
57.51000 146.165
57.52000 146.705
57.53000 146.938
57.54000 147.170
57.55000 146.407
57.56000 144.729
57.57000 143.099
57.58000 144.627
57.59000 148.072
57.60000 151.413
57.61000 152.475
57.62000 152.603
57.63000 152.722
57.64000 149.688
57.65000 146.144
57.66000 143.199
57.67000 144.188
57.68000 145.893
57.69000 146.916
57.70000 145.047
57.71000 142.853
57.72000 141.206
57.73000 142.459
57.74000 143.577
57.75000 142.985
57.76000 139.100
57.77000 135.132
57.78000 134.812
57.79000 139.184
57.80000 143.570
57.81000 142.449
57.82000 136.780
57.83000 131.211
57.84000 130.504
57.85000 132.477
57.86000 134.535
57.87000 138.147
57.88000 142.338
57.89000 146.210
57.90000 141.569
57.91000 135.486
57.92000 130.436
57.93000 131.459
57.94000 133.473
57.95000 135.535
57.96000 137.781
57.97000 140.046
57.98000 141.701
57.99000 141.101
58.00000 140.550
58.01000 141.300
58.02000 144.331
58.03000 147.405
58.04000 147.595
58.05000 144.438
58.06000 141.286
58.07000 139.794
58.08000 139.549
58.09000 139.274
58.10000 137.961
58.11000 136.127
58.12000 134.396
58.13000 134.260
58.14000 134.666
58.15000 135.037
58.16000 138.062
58.17000 141.281
58.18000 143.550
58.19000 140.791
58.20000 137.298
58.21000 134.698
58.22000 135.212
58.23000 135.992
58.24000 136.547
58.25000 135.776
58.26000 135.147
58.27000 134.991
58.28000 135.585
58.29000 136.190
58.30000 137.092
58.31000 138.304
58.32000 139.510
58.33000 140.899
58.34000 142.393
58.35000 143.843
58.36000 144.036
58.37000 143.655
58.38000 143.091
58.39000 140.134
58.40000 136.437
58.41000 133.107
58.42000 132.391
58.43000 132.234
58.44000 132.788
58.45000 136.731
58.46000 141.114
58.47000 144.056
58.48000 142.432
58.49000 140.470
58.50000 139.118
58.51000 141.203
58.52000 142.855
58.53000 143.103
58.54000 141.322
58.55000 139.523
58.56000 137.791
58.57000 136.121
58.58000 134.465
58.59000 134.018
58.60000 134.311
58.61000 134.537
58.62000 133.222
58.63000 131.265
58.64000 129.608
58.65000 131.347
58.66000 134.041
58.67000 136.433
58.68000 137.499
58.69000 138.210
58.70000 138.856
58.71000 139.227
58.72000 139.567
58.73000 139.539
58.74000 138.453
58.75000 137.301
58.76000 136.532
58.77000 136.528
58.78000 136.539
58.79000 135.900
58.80000 134.408
58.81000 132.916
58.82000 133.767
58.83000 136.592
58.84000 139.381
58.85000 138.688
58.86000 136.113
58.87000 133.698
58.88000 134.301
58.89000 136.049
58.90000 137.940
58.91000 141.242
58.92000 144.903
58.93000 148.106
58.94000 140.422
58.95000 132.285
58.96000 126.472
58.97000 129.716
58.98000 133.872
58.99000 137.425
59.00000 139.395
59.01000 141.280
59.02000 142.496
59.03000 141.492
59.04000 140.728
59.05000 139.234
59.06000 136.879
59.07000 134.536
59.08000 135.129
59.09000 137.958
59.10000 140.739
59.11000 140.739
59.12000 139.369
59.13000 138.054
59.14000 137.597
59.15000 137.436
59.16000 136.989
59.17000 134.052
59.18000 130.539
59.19000 127.515
59.20000 127.858
59.21000 128.573
59.22000 129.577
59.23000 131.608
59.24000 133.728
59.25000 134.759
59.26000 133.185
59.27000 131.497
59.28000 130.449
59.29000 132.179
59.30000 133.452
59.31000 133.509
59.32000 132.274
59.33000 131.050
59.34000 131.271
59.35000 132.489
59.36000 133.679
59.37000 133.484
59.38000 132.681
59.39000 132.088
59.40000 134.312
59.41000 137.422
59.42000 139.550
59.43000 134.149
59.44000 127.173
59.45000 121.274
59.46000 126.678
59.47000 132.451
59.48000 136.916
59.49000 137.172
59.50000 137.110
59.51000 136.036
59.52000 132.759
59.53000 129.404
59.54000 127.402
59.55000 131.267
59.56000 134.044
59.57000 135.604
59.58000 136.003
59.59000 136.369
59.60000 134.160
59.61000 130.341
59.62000 126.632
59.63000 127.128
59.64000 129.288
59.65000 131.465
59.66000 133.850
59.67000 136.294
59.68000 138.538
59.69000 139.408
59.70000 140.019
59.71000 140.527
59.72000 133.462
59.73000 126.889
59.74000 123.793
59.75000 130.875
59.76000 138.615
59.77000 141.513
59.78000 134.799
59.79000 127.823
59.80000 123.833
59.81000 132.962
59.82000 139.371
59.83000 139.323
59.84000 133.738
59.85000 128.218
59.86000 126.127
59.87000 125.986
59.88000 125.851
59.89000 127.669
59.90000 130.087
59.91000 132.382
59.92000 133.441
59.93000 134.180
59.94000 135.172
59.95000 137.703
59.96000 140.494
59.97000 142.766
59.98000 136.632
59.99000 130.917
60.00000 128.017
60.01000 132.625
60.02000 137.641
60.03000 141.482
60.04000 143.201
60.05000 144.876
60.06000 145.792
60.07000 135.818
60.08000 128.960
60.09000 124.230
60.10000 121.146
60.11000 118.193
60.12000 120.382
60.13000 125.231
60.14000 129.868
60.15000 131.356
60.16000 131.713
60.17000 131.918
60.18000 130.777
60.19000 129.319
60.20000 128.450
60.21000 130.798
60.22000 133.633
60.23000 135.892
60.24000 138.457
60.25000 140.548
60.26000 141.860
60.27000 141.277
60.28000 140.610
60.29000 137.968
60.30000 132.080
60.31000 126.145
60.32000 123.061
60.33000 130.728
60.34000 135.873
60.35000 136.330
60.36000 133.503
60.37000 130.847
60.38000 133.417
60.39000 138.449
60.40000 143.218
60.41000 141.212
60.42000 137.371
60.43000 133.941
60.44000 133.728
60.45000 134.198
60.46000 134.961
60.47000 137.170
60.48000 139.574
60.49000 141.446
60.50000 138.312
60.51000 135.506
60.52000 134.004
60.53000 135.384
60.54000 136.869
60.55000 137.684
60.56000 137.498
60.57000 137.303
60.58000 138.122
60.59000 139.924
60.60000 141.696
60.61000 140.969
60.62000 138.655
60.63000 136.437
60.64000 136.602
60.65000 137.789
60.66000 138.902
60.67000 135.988
60.68000 132.266
60.69000 129.184
60.70000 130.551
60.71000 132.771
60.72000 134.686
60.73000 135.249
60.74000 135.649
60.75000 135.954
60.76000 137.495
60.77000 138.771
60.78000 139.048
60.79000 137.310
60.80000 135.514
60.81000 134.516
60.82000 134.594
60.83000 134.677
60.84000 135.434
60.85000 136.776
60.86000 138.080
60.87000 137.250
60.88000 135.190
60.89000 133.173
60.90000 132.020
60.91000 131.205
60.92000 130.448
60.93000 134.783
60.94000 139.904
60.95000 144.302
60.96000 144.219
60.97000 143.365
60.98000 141.522
60.99000 135.699
61.00000 129.457
61.01000 124.834
61.02000 124.594
61.03000 124.598
61.04000 126.800
61.05000 133.034
61.06000 139.355
61.07000 142.519
61.08000 141.827
61.09000 141.127
61.10000 138.882
61.11000 135.437
61.12000 132.087
61.13000 132.628
61.14000 135.213
61.15000 137.742
61.16000 139.359
61.17000 140.650
61.18000 141.835
61.19000 141.407
61.20000 140.681
61.21000 139.742
61.22000 137.617
61.23000 135.310
61.24000 134.609
61.25000 139.775
61.26000 145.481
61.27000 149.592
61.28000 140.578
61.29000 133.206
61.30000 129.540
61.31000 132.056
61.32000 134.668
61.33000 136.434
61.34000 137.270
61.35000 138.102
61.36000 137.793
61.37000 136.682
61.38000 135.698
61.39000 138.737
61.40000 143.701
61.41000 148.229
61.42000 146.594
61.43000 142.960
61.44000 139.666
61.45000 141.674
61.46000 144.455
61.47000 146.883
61.48000 147.542
61.49000 147.957
61.50000 148.118
61.51000 147.435
61.52000 146.684
61.53000 146.159
61.54000 162.512
61.55000 175.355
61.56000 187.585
61.57000 198.889
61.58000 210.183
61.59000 219.110
61.60000 225.700
61.61000 232.245
61.62000 239.015
61.63000 245.822
61.64000 252.389
61.65000 252.891
61.66000 250.750
61.67000 248.831
61.68000 249.598
61.69000 251.158
61.70000 252.553
61.71000 254.262
61.72000 255.806
61.73000 257.249
61.74000 258.236
61.75000 259.168
61.76000 258.694
61.77000 253.981
61.78000 248.979
61.79000 245.587
61.80000 230.324
61.81000 218.679
61.82000 205.476
61.83000 190.135
61.84000 174.786
61.85000 164.892
61.86000 159.835
61.87000 154.832
61.88000 151.690
61.89000 149.686
61.90000 147.722
61.91000 146.606
61.92000 145.827
61.93000 144.885
61.94000 142.233
61.95000 139.123
61.96000 136.383
61.97000 139.667
61.98000 143.407
61.99000 146.327
62.00000 145.892
62.01000 145.097
62.02000 143.539
62.03000 139.883
62.04000 136.106
62.05000 133.630
62.06000 135.515
62.07000 136.974
62.08000 139.727
62.09000 144.085
62.10000 148.435
62.11000 148.720
62.12000 145.752
62.13000 142.829
62.14000 142.560
62.15000 143.673
62.16000 144.639
62.17000 143.091
62.18000 140.634
62.19000 138.670
62.20000 141.253
62.21000 144.941
62.22000 148.140
62.23000 141.469
62.24000 134.466
62.25000 129.798
62.26000 133.791
62.27000 138.597
62.28000 143.912
62.29000 150.501
62.30000 157.151
62.31000 161.358
62.32000 159.977
62.33000 158.910
62.34000 154.656
62.35000 146.838
62.36000 139.060
62.37000 138.009
62.38000 141.824
62.39000 145.562
62.40000 143.865
62.41000 139.694
62.42000 135.778
62.43000 135.571
62.44000 136.584
62.45000 137.699
62.46000 139.638
62.47000 141.758
62.48000 143.567
62.49000 140.807
62.50000 137.945
62.51000 136.274
62.52000 138.615
62.53000 141.282
62.54000 143.119
62.55000 143.062
62.56000 142.931
62.57000 142.851
62.58000 143.308
62.59000 143.639
62.60000 144.210
62.61000 145.022
62.62000 145.839
62.63000 147.152
62.64000 148.790
62.65000 150.386
62.66000 146.932
62.67000 141.507
62.68000 136.540
62.69000 137.259
62.70000 139.681
62.71000 142.242
62.72000 145.802
62.73000 149.561
62.74000 152.710
62.75000 149.149
62.76000 145.494
62.77000 143.312
62.78000 145.640
62.79000 148.284
62.80000 150.098
62.81000 150.187
62.82000 150.224
62.83000 150.245
62.84000 148.730
62.85000 147.657
62.86000 146.729
62.87000 145.931
62.88000 145.113
62.89000 142.994
62.90000 140.099
62.91000 137.298
62.92000 137.543
62.93000 138.933
62.94000 140.611
62.95000 145.389
62.96000 151.011
62.97000 155.704
62.98000 154.431
62.99000 152.094
63.00000 150.173
63.01000 149.237
63.02000 148.557
63.03000 147.822
63.04000 146.935
63.05000 146.038
63.06000 144.910
63.07000 143.344
63.08000 141.767
63.09000 140.887
63.10000 140.462
63.11000 140.177
63.12000 142.850
63.13000 147.930
63.14000 152.936
63.15000 154.601
63.16000 154.456
63.17000 154.318
63.18000 153.358
63.19000 152.179
63.20000 150.856
63.21000 148.176
63.22000 145.162
63.23000 142.826
63.24000 144.400
63.25000 146.600
63.26000 148.371
63.27000 147.988
63.28000 147.511
63.29000 146.727
63.30000 145.168
63.31000 143.570
63.32000 143.094
63.33000 144.549
63.34000 146.038
63.35000 146.831
63.36000 150.659
63.37000 153.251
63.38000 152.897
63.39000 150.378
63.40000 147.840
63.41000 144.636
63.42000 141.105
63.43000 137.742
63.44000 139.414
63.45000 142.521
63.46000 145.929
63.47000 151.844
63.48000 158.318
63.49000 163.263
63.50000 160.293
63.51000 156.193
63.52000 152.964
63.53000 151.943
63.54000 151.272
63.55000 150.175
63.56000 148.093
63.57000 145.970
63.58000 147.165
63.59000 153.544
63.60000 159.985
63.61000 163.242
63.62000 162.427
63.63000 161.862
63.64000 159.178
63.65000 155.084
63.66000 151.076
63.67000 149.439
63.68000 148.864
63.69000 148.323
63.70000 148.770
63.71000 149.456
63.72000 150.713
63.73000 156.172
63.74000 162.478
63.75000 167.424
63.76000 166.018
63.77000 163.806
63.78000 162.105
63.79000 161.981
63.80000 161.973
63.81000 162.117
63.82000 162.584
63.83000 163.061
63.84000 162.036
63.85000 158.880
63.86000 155.709
63.87000 152.025
63.88000 147.875
63.89000 143.851
63.90000 148.324
63.91000 157.935
63.92000 167.017
63.93000 164.469
63.94000 157.166
63.95000 150.347
63.96000 148.915
63.97000 148.966
63.98000 149.192
63.99000 150.571
64.00000 152.158
64.01000 153.334
64.02000 152.778
64.03000 152.028
64.04000 151.466
64.05000 158.254
64.06000 163.906
64.07000 166.032
64.08000 161.387
64.09000 156.574
64.10000 154.244
64.11000 155.099
64.12000 155.965
64.13000 157.421
64.14000 159.359
64.15000 161.290
64.16000 162.879
64.17000 164.280
64.18000 165.603
64.19000 165.517
64.20000 164.907
64.21000 164.343
64.22000 164.918
64.23000 165.691
64.24000 166.631
64.25000 168.560
64.26000 170.649
64.27000 171.762
64.28000 169.138
64.29000 166.149
64.30000 163.965
64.31000 160.024
64.32000 156.917
64.33000 155.539
64.34000 157.181
64.35000 158.880
64.36000 161.843
64.37000 166.271
64.38000 170.689
64.39000 171.027
64.40000 168.338
64.41000 165.701
64.42000 164.906
64.43000 165.033
64.44000 165.155
64.45000 165.199
64.46000 165.216
64.47000 165.232
64.48000 168.328
64.49000 171.694
64.50000 173.918
64.51000 170.136
64.52000 165.481
64.53000 162.328
64.54000 164.398
64.55000 166.913
64.56000 168.699
64.57000 167.304
64.58000 166.142
64.59000 168.359
64.60000 175.940
64.61000 183.589
64.62000 185.859
64.63000 182.530
64.64000 179.218
64.65000 179.557
64.66000 182.330
64.67000 184.942
64.68000 183.001
64.69000 178.986
64.70000 175.106
64.71000 173.003
64.72000 171.448
64.73000 170.048
64.74000 170.869
64.75000 171.988
64.76000 173.418
64.77000 176.329
64.78000 179.430
64.79000 182.719
64.80000 186.596
64.81000 190.516
64.82000 193.216
64.83000 190.397
64.84000 188.142
64.85000 184.011
64.86000 177.178
64.87000 170.325
64.88000 171.189
64.89000 179.259
64.90000 187.260
64.91000 188.323
64.92000 185.188
64.93000 182.295
64.94000 184.932
64.95000 189.864
64.96000 194.621
64.97000 197.389
64.98000 199.600
64.99000 201.562
65.00000 198.581
65.01000 195.207
65.02000 191.974
65.03000 189.350
65.04000 186.795
65.05000 185.144
65.06000 186.089
65.07000 187.197
65.08000 187.936
65.09000 195.017
65.10000 200.381
65.11000 202.115
65.12000 199.115
65.13000 196.096
65.14000 194.069
65.15000 192.876
65.16000 191.698
65.17000 196.410
65.18000 204.202
65.19000 211.457
65.20000 208.650
65.21000 202.037
65.22000 196.136
65.23000 197.245
65.24000 200.138
65.25000 202.668
65.26000 203.017
65.27000 203.006
65.28000 203.279
65.29000 204.654
65.30000 206.140
65.31000 208.159
65.32000 211.570
65.33000 215.055
65.34000 217.299
65.35000 219.357
65.36000 220.858
65.37000 223.156
65.38000 226.393
65.39000 229.631
65.40000 232.568
65.41000 235.276
65.42000 237.938
65.43000 243.028
65.44000 249.138
65.45000 254.897
65.46000 255.132
65.47000 253.464
65.48000 252.002
65.49000 252.319
65.50000 253.045
65.51000 253.670
65.52000 261.831
65.53000 269.686
65.54000 274.178
65.55000 266.800
65.56000 258.387
65.57000 255.344
65.58000 265.117
65.59000 275.442
65.60000 281.848
65.61000 292.603
65.62000 300.384
65.63000 309.432
65.64000 319.821
65.65000 330.178
65.66000 336.640
65.67000 340.426
65.68000 344.126
65.69000 366.424
65.70000 396.025
65.71000 426.351
65.72000 466.397
65.73000 509.489
65.74000 554.225
65.75000 611.515
65.76000 671.421
65.77000 722.060
65.78000 777.198
65.79000 823.815
65.80000 870.099
65.81000 915.313
65.82000 960.447
65.83000 992.874
65.84000 997.682
65.85000 1001.531
65.86000 1003.826
65.87000 1008.419
65.88000 1011.689
65.89000 1017.034
65.90000 1024.353
65.91000 1031.416
65.92000 1019.225
65.93000 995.024
65.94000 971.527
65.95000 948.605
65.96000 927.079
65.97000 901.721
65.98000 832.129
65.99000 749.930
66.00000 673.008
66.01000 631.941
66.02000 597.610
66.03000 569.126
66.04000 509.153
66.05000 456.558
66.06000 414.092
66.07000 401.200
66.08000 390.206
66.09000 375.416
66.10000 353.111
66.11000 330.602
66.12000 317.747
66.13000 321.790
66.14000 324.658
66.15000 321.372
66.16000 312.825
66.17000 304.475
66.18000 306.568
66.19000 314.581
66.20000 322.305
66.21000 323.902
66.22000 323.190
66.23000 322.520
66.24000 322.258
66.25000 322.101
66.26000 322.845
66.27000 329.052
66.28000 336.181
66.29000 341.978
66.30000 365.549
66.31000 386.278
66.32000 400.217
66.33000 396.104
66.34000 391.017
66.35000 392.987
66.36000 407.672
66.37000 422.615
66.38000 430.763
66.39000 429.712
66.40000 429.009
66.41000 436.205
66.42000 449.495
66.43000 462.399
66.44000 460.211
66.45000 450.239
66.46000 440.705
66.47000 436.998
66.48000 435.445
66.49000 432.945
66.50000 422.099
66.51000 409.296
66.52000 398.105
66.53000 395.698
66.54000 394.616
66.55000 393.754
66.56000 385.986
66.57000 379.226
66.58000 371.153
66.59000 359.904
66.60000 348.512
66.61000 338.257
66.62000 329.862
66.63000 321.494
66.64000 317.153
66.65000 323.787
66.66000 328.228
66.67000 327.460
66.68000 323.055
66.69000 318.789
66.70000 318.773
66.71000 320.751
66.72000 322.627
66.73000 323.470
66.74000 323.945
66.75000 324.342
66.76000 324.136
66.77000 323.802
66.78000 324.823
66.79000 332.499
66.80000 341.069
66.81000 347.738
66.82000 343.749
66.83000 339.917
66.84000 336.534
66.85000 334.139
66.86000 331.780
66.87000 334.843
66.88000 345.966
66.89000 357.164
66.90000 358.594
66.91000 350.581
66.92000 342.676
66.93000 343.616
66.94000 350.159
66.95000 356.575
66.96000 359.903
66.97000 361.910
66.98000 363.793
66.99000 359.927
67.00000 354.887
67.01000 350.659
67.02000 352.050
67.03000 354.513
67.04000 357.241
67.05000 361.136
67.06000 365.170
67.07000 368.235
67.08000 369.148
67.09000 369.755
67.10000 370.254
67.11000 370.538
67.12000 370.815
67.13000 370.619
67.14000 369.787
67.15000 368.951
67.16000 368.927
67.17000 369.606
67.18000 370.327
67.19000 373.351
67.20000 377.699
67.21000 381.735
67.22000 379.548
67.23000 374.934
67.24000 370.651
67.25000 370.786
67.26000 371.955
67.27000 373.122
67.28000 374.277
67.29000 375.431
67.30000 378.434
67.31000 388.857
67.32000 400.058
67.33000 408.348
67.34000 406.987
67.35000 405.514
67.36000 404.307
67.37000 403.588
67.38000 402.879
67.39000 404.059
67.40000 407.537
67.41000 411.014
67.42000 412.593
67.43000 412.685
67.44000 412.779
67.45000 412.962
67.46000 413.193
67.47000 413.370
67.48000 412.647
67.49000 411.604
67.50000 410.647
67.51000 409.014
67.52000 407.416
67.53000 407.536
67.54000 417.185
67.55000 428.299
67.56000 438.767
67.57000 446.884
67.58000 454.786
67.59000 460.476
67.60000 459.116
67.61000 457.826
67.62000 457.463
67.63000 458.642
67.64000 459.844
67.65000 462.536
67.66000 466.862
67.67000 471.170
67.68000 468.205
67.69000 460.159
67.70000 452.534
67.71000 458.184
67.72000 470.164
67.73000 481.385
67.74000 481.916
67.75000 478.993
67.76000 476.344
67.77000 479.847
67.78000 484.103
67.79000 488.092
67.80000 490.743
67.81000 493.210
67.82000 494.600
67.83000 492.422
67.84000 489.962
67.85000 488.242
67.86000 482.149
67.87000 477.421
67.88000 481.723
67.89000 499.664
67.90000 517.743
67.91000 523.116
67.92000 515.987
67.93000 508.907
67.94000 509.789
67.95000 515.699
67.96000 521.635
67.97000 528.197
67.98000 535.032
67.99000 542.136
68.00000 552.497
68.01000 563.815
68.02000 573.932
68.03000 569.195
68.04000 562.550
68.05000 556.500
68.06000 553.130
68.07000 550.085
68.08000 551.954
68.09000 568.612
68.10000 586.272
68.11000 598.235
68.12000 594.384
68.13000 591.166
68.14000 589.887
68.15000 591.262
68.16000 592.650
68.17000 592.281
68.18000 590.358
68.19000 588.455
68.20000 592.987
68.21000 601.092
68.22000 608.887
68.23000 610.308
68.24000 609.207
68.25000 608.462
68.26000 611.459
68.27000 615.455
68.28000 618.975
68.29000 629.615
68.30000 639.852
68.31000 648.186
68.32000 648.759
68.33000 648.502
68.34000 649.007
68.35000 651.598
68.36000 654.308
68.37000 656.083
68.38000 667.267
68.39000 675.644
68.40000 684.155
68.41000 692.834
68.42000 701.510
68.43000 709.007
68.44000 715.565
68.45000 722.023
68.46000 730.877
68.47000 740.701
68.48000 750.359
68.49000 757.193
68.50000 763.009
68.51000 770.087
68.52000 788.770
68.53000 810.262
68.54000 828.898
68.55000 844.210
68.56000 856.805
68.57000 869.731
68.58000 883.884
68.59000 898.152
68.60000 918.687
68.61000 954.866
68.62000 991.789
68.63000 1015.120
68.64000 1061.819
68.65000 1095.932
68.66000 1138.091
68.67000 1189.224
68.68000 1240.396
68.69000 1296.722
68.70000 1356.764
68.71000 1415.599
68.72000 1461.306
68.73000 1499.160
68.74000 1538.280
68.75000 1595.704
68.76000 1659.136
68.77000 1720.754
68.78000 1767.671
68.79000 1811.370
68.80000 1848.627
68.81000 1898.407
68.82000 1941.761
68.83000 1994.244
68.84000 2077.396
68.85000 2163.032
68.86000 2256.656
68.87000 2368.440
68.88000 2480.928
68.89000 2549.320
68.90000 2906.542
68.91000 3163.850
68.92000 3680.508
68.93000 4456.930
68.94000 5241.272
68.95000 6760.994
68.96000 8761.379
68.97000 10709.807
68.98000 14109.386
68.99000 17960.576
69.00000 21863.051
69.01000 26401.047
69.02000 31128.744
69.03000 35751.914
69.04000 39623.746
69.05000 43347.098
69.06000 46464.750
69.07000 48887.121
69.08000 50829.191
69.09000 52397.297
69.10000 52822.742
69.11000 53168.781
69.12000 53515.285
69.13000 53862.762
69.14000 54210.270
69.15000 54412.980
69.16000 55383.820
69.17000 56069.902
69.18000 56581.535
69.19000 56936.266
69.20000 57274.027
69.21000 56554.004
69.22000 55206.090
69.23000 53902.117
69.24000 51045.648
69.25000 47758.754
69.26000 44491.652
69.27000 41437.094
69.28000 38440.172
69.29000 35587.344
69.30000 33658.133
69.31000 31893.139
69.32000 30443.545
69.33000 29327.490
69.34000 28440.904
69.35000 27644.957
69.36000 27101.137
69.37000 26572.148
69.38000 25866.674
69.39000 24828.336
69.40000 23782.184
69.41000 23198.521
69.42000 20405.516
69.43000 18466.881
69.44000 16248.320
69.45000 13802.865
69.46000 11368.547
69.47000 9435.729
69.48000 7773.636
69.49000 6177.999
69.50000 5085.688
69.51000 4236.387
69.52000 3421.968
69.53000 2934.931
69.54000 2528.410
69.55000 2155.402
69.56000 1974.802
69.57000 1824.868
69.58000 1704.242
69.59000 1585.269
69.60000 1488.896
69.61000 1408.487
69.62000 1368.530
69.63000 1330.556
69.64000 1289.577
69.65000 1243.441
69.66000 1197.217
69.67000 1172.638
69.68000 1127.167
69.69000 1096.234
69.70000 1070.588
69.71000 1048.814
69.72000 1027.010
69.73000 1004.155
69.74000 980.783
69.75000 958.535
69.76000 938.656
69.77000 920.982
69.78000 902.892
69.79000 881.357
69.80000 859.054
69.81000 837.461
69.82000 819.535
69.83000 802.130
69.84000 788.432
69.85000 784.046
69.86000 781.153
69.87000 776.804
69.88000 769.096
69.89000 761.255
69.90000 749.240
69.91000 730.724
69.92000 712.131
69.93000 702.745
69.94000 697.363
69.95000 693.742
69.96000 688.065
69.97000 681.022
69.98000 674.103
69.99000 670.544
70.00000 668.488
