20.00000 547.854
20.01000 544.140
20.02000 539.895
20.03000 538.558
20.04000 548.585
20.05000 559.760
20.06000 567.971
20.07000 572.612
20.08000 576.054
20.09000 576.063
20.10000 569.950
20.11000 563.718
20.12000 559.856
20.13000 558.801
20.14000 557.753
20.15000 559.415
20.16000 563.121
20.17000 566.656
20.18000 563.663
20.19000 557.339
20.20000 551.517
20.21000 553.659
20.22000 558.558
20.23000 563.038
20.24000 556.896
20.25000 549.248
20.26000 544.366
20.27000 554.380
20.28000 566.615
20.29000 574.345
20.30000 566.103
20.31000 556.455
20.32000 549.562
20.33000 542.786
20.34000 537.620
20.35000 538.689
20.36000 549.862
20.37000 561.175
20.38000 564.396
20.39000 559.001
20.40000 553.630
20.41000 549.643
20.42000 546.648
20.43000 543.851
20.44000 546.926
20.45000 552.729
20.46000 557.478
20.47000 547.982
20.48000 533.999
20.49000 521.374
20.50000 527.839
20.51000 537.037
20.52000 545.175
20.53000 548.166
20.54000 550.475
20.55000 553.677
20.56000 559.758
20.57000 566.058
20.58000 570.426
20.59000 572.437
20.60000 573.888
20.61000 574.029
20.62000 572.241
20.63000 570.436
20.64000 565.961
20.65000 558.935
20.66000 551.965
20.67000 547.372
20.68000 544.325
20.69000 541.229
20.70000 536.988
20.71000 532.261
20.72000 528.478
20.73000 535.671
20.74000 546.007
20.75000 555.211
20.76000 552.862
20.77000 548.926
20.78000 546.205
20.79000 548.816
20.80000 552.053
20.81000 553.174
20.82000 548.088
20.83000 542.600
20.84000 538.915
20.85000 543.193
20.86000 546.533
20.87000 549.047
20.88000 550.462
20.89000 551.872
20.90000 553.527
20.91000 555.392
20.92000 557.234
20.93000 557.301
20.94000 556.378
20.95000 555.281
20.96000 550.797
20.97000 545.005
20.98000 540.023
20.99000 543.236
21.00000 548.580
21.01000 553.268
21.02000 545.966
21.03000 537.948
21.04000 532.469
21.05000 537.066
21.06000 542.703
21.07000 546.894
21.08000 547.221
21.09000 547.339
21.10000 547.415
21.11000 553.789
21.12000 558.551
21.13000 555.366
21.14000 542.617
21.15000 529.889
21.16000 527.586
21.17000 533.368
21.18000 539.057
21.19000 539.604
21.20000 537.555
21.21000 535.840
21.22000 539.582
21.23000 545.241
21.24000 550.413
21.25000 551.255
21.26000 551.077
21.27000 550.923
21.28000 542.661
21.29000 534.605
21.30000 528.684
21.31000 530.453
21.32000 532.914
21.33000 532.664
21.34000 525.817
21.35000 518.673
21.36000 514.205
21.37000 523.306
21.38000 530.019
21.39000 534.695
21.40000 537.163
21.41000 539.622
21.42000 540.964
21.43000 541.522
21.44000 542.068
21.45000 544.880
21.46000 548.606
21.47000 551.796
21.48000 547.562
21.49000 540.953
21.50000 535.423
21.51000 538.337
21.52000 543.050
21.53000 547.049
21.54000 540.698
21.55000 534.199
21.56000 529.058
21.57000 528.365
21.58000 528.017
21.59000 531.562
21.60000 543.736
21.61000 556.225
21.62000 563.736
21.63000 561.872
21.64000 560.483
21.65000 555.195
21.66000 546.116
21.67000 537.188
21.68000 540.707
21.69000 552.151
21.70000 563.278
21.71000 568.355
21.72000 570.709
21.73000 572.735
21.74000 570.840
21.75000 567.805
21.76000 565.339
21.77000 566.843
21.78000 569.110
21.79000 570.998
21.80000 578.574
21.81000 585.416
21.82000 591.526
21.83000 595.459
21.84000 599.246
21.85000 602.748
21.86000 605.671
21.87000 608.577
21.88000 610.253
21.89000 620.055
21.90000 626.944
21.91000 629.240
21.92000 627.520
21.93000 625.858
21.94000 627.422
21.95000 630.852
21.96000 634.164
21.97000 643.354
21.98000 654.179
21.99000 664.314
22.00000 667.309
22.01000 668.419
22.02000 669.755
22.03000 672.494
22.04000 675.476
22.05000 677.911
22.06000 677.665
22.07000 677.232
22.08000 678.428
22.09000 684.042
22.10000 689.904
22.11000 694.947
22.12000 698.483
22.13000 701.988
22.14000 703.918
22.15000 686.028
22.16000 673.679
22.17000 664.665
22.18000 658.280
22.19000 652.115
22.20000 655.133
22.21000 662.983
22.22000 670.502
22.23000 664.901
22.24000 655.311
22.25000 645.588
22.26000 634.662
22.27000 623.446
22.28000 614.111
22.29000 615.260
22.30000 618.029
22.31000 620.243
22.32000 615.054
22.33000 610.307
22.34000 606.034
22.35000 602.930
22.36000 599.881
22.37000 600.457
22.38000 607.095
22.39000 613.827
22.40000 617.358
22.41000 602.882
22.42000 593.105
22.43000 588.855
22.44000 588.545
22.45000 588.125
22.46000 584.164
22.47000 578.506
22.48000 573.133
22.49000 570.383
22.50000 568.629
22.51000 566.614
22.52000 562.503
22.53000 557.940
22.54000 554.023
22.55000 553.355
22.56000 553.134
22.57000 552.961
22.58000 547.884
22.59000 543.518
22.60000 538.634
22.61000 532.582
22.62000 526.486
22.63000 521.449
22.64000 518.020
22.65000 514.607
22.66000 517.838
22.67000 527.644
22.68000 537.333
22.69000 536.606
22.70000 529.144
22.71000 522.002
22.72000 522.969
22.73000 527.475
22.74000 531.713
22.75000 521.922
22.76000 509.194
22.77000 499.014
22.78000 506.913
22.79000 518.344
22.80000 527.833
22.81000 528.527
22.82000 528.146
22.83000 527.855
22.84000 507.968
22.85000 491.238
22.86000 482.783
22.87000 491.294
22.88000 500.310
22.89000 505.875
22.90000 506.692
22.91000 507.480
22.92000 513.947
22.93000 525.448
22.94000 536.675
22.95000 531.496
22.96000 516.682
22.97000 502.376
22.98000 498.622
22.99000 499.063
23.00000 499.473
23.01000 498.541
23.02000 497.374
23.03000 496.590
23.04000 498.236
23.05000 500.308
23.06000 502.822
23.07000 507.145
23.08000 511.664
23.09000 515.027
23.10000 513.981
23.11000 512.969
23.12000 509.421
23.13000 501.140
23.14000 492.751
23.15000 490.626
23.16000 496.290
23.17000 501.968
23.18000 505.015
23.19000 505.949
23.20000 506.780
23.21000 503.135
23.22000 497.100
23.23000 491.422
23.24000 491.911
23.25000 494.632
23.26000 497.136
23.27000 490.562
23.28000 482.714
23.29000 477.135
23.30000 484.438
23.31000 493.768
23.32000 499.766
23.33000 493.383
23.34000 485.834
23.35000 480.365
23.36000 484.259
23.37000 487.594
23.38000 493.988
23.39000 505.576
23.40000 517.249
23.41000 523.475
23.42000 523.594
23.43000 523.707
23.44000 522.374
23.45000 520.014
23.46000 517.553
23.47000 511.721
23.48000 504.249
23.49000 497.298
23.50000 497.930
23.51000 501.061
23.52000 503.907
23.53000 501.441
23.54000 498.228
23.55000 495.947
23.56000 498.420
23.57000 501.562
23.58000 503.951
23.59000 503.802
23.60000 503.445
23.61000 503.194
23.62000 493.943
23.63000 486.666
23.64000 484.126
23.65000 488.890
23.66000 493.736
23.67000 496.452
23.68000 497.022
23.69000 497.589
23.70000 497.852
23.71000 497.914
23.72000 497.777
23.73000 492.383
23.74000 484.661
23.75000 477.951
23.76000 483.887
23.77000 493.616
23.78000 502.339
23.79000 498.961
23.80000 493.910
23.81000 490.671
23.82000 495.777
23.83000 501.922
23.84000 505.236
23.85000 499.856
23.86000 493.867
23.87000 489.781
23.88000 489.259
23.89000 488.951
23.90000 488.882
23.91000 489.147
23.92000 489.414
23.93000 488.654
23.94000 486.965
23.95000 485.294
23.96000 486.272
23.97000 488.777
23.98000 491.049
23.99000 488.359
24.00000 483.666
24.01000 479.520
24.02000 481.295
24.03000 484.685
24.04000 487.680
24.05000 479.004
24.06000 469.709
24.07000 463.116
24.08000 467.775
24.09000 473.670
24.10000 478.998
24.11000 482.741
24.12000 486.390
24.13000 488.798
24.14000 483.650
24.15000 479.722
24.16000 477.823
24.17000 478.492
24.18000 479.170
24.19000 480.022
24.20000 481.017
24.21000 481.997
24.22000 484.090
24.23000 486.710
24.24000 489.197
24.25000 489.330
24.26000 488.598
24.27000 487.856
24.28000 487.021
24.29000 486.164
24.30000 485.418
24.31000 476.780
24.32000 468.327
24.33000 463.190
24.34000 470.571
24.35000 479.157
24.36000 486.223
24.37000 489.416
24.38000 492.418
24.39000 494.330
24.40000 481.560
24.41000 472.092
24.42000 472.458
24.43000 484.039
24.44000 495.559
24.45000 494.130
24.46000 483.163
24.47000 472.405
24.48000 472.576
24.49000 477.943
24.50000 483.153
24.51000 486.027
24.52000 488.119
24.53000 489.383
24.54000 483.760
24.55000 476.595
24.56000 470.465
24.57000 476.052
24.58000 482.178
24.59000 486.420
24.60000 484.201
24.61000 481.441
24.62000 478.199
24.63000 473.835
24.64000 469.426
24.65000 466.723
24.66000 467.287
24.67000 467.719
24.68000 469.936
24.69000 473.982
24.70000 477.983
24.71000 477.421
24.72000 473.813
24.73000 470.294
24.74000 472.106
24.75000 476.128
24.76000 479.984
24.77000 481.731
24.78000 482.836
24.79000 483.268
24.80000 478.751
24.81000 473.234
24.82000 468.596
24.83000 473.355
24.84000 478.316
24.85000 479.795
24.86000 470.419
24.87000 460.262
24.88000 456.521
24.89000 466.334
24.90000 476.585
24.91000 482.619
24.92000 470.926
24.93000 462.586
24.94000 458.604
24.95000 458.630
24.96000 458.715
24.97000 462.772
24.98000 469.236
24.99000 475.498
25.00000 473.812
25.01000 469.133
25.02000 464.703
25.03000 463.019
25.04000 462.096
25.05000 461.867
25.06000 466.205
25.07000 471.373
25.08000 475.635
25.09000 480.544
25.10000 484.645
25.11000 486.899
25.12000 483.913
25.13000 480.608
25.14000 476.119
25.15000 469.352
25.16000 462.529
25.17000 458.684
25.18000 457.816
25.19000 457.222
25.20000 456.894
25.21000 456.786
25.22000 456.713
25.23000 458.300
25.24000 460.801
25.25000 463.206
25.26000 469.313
25.27000 476.332
25.28000 482.411
25.29000 479.416
25.30000 474.141
25.31000 468.755
25.32000 462.715
25.33000 456.567
25.34000 451.600
25.35000 463.659
25.36000 474.829
25.37000 480.252
25.38000 470.823
25.39000 460.636
25.40000 455.317
25.41000 458.520
25.42000 461.881
25.43000 463.686
25.44000 452.581
25.45000 445.051
25.46000 451.114
25.47000 467.351
25.48000 483.163
25.49000 483.640
25.50000 476.428
25.51000 469.551
25.52000 473.362
25.53000 480.270
25.54000 485.224
25.55000 473.604
25.56000 458.215
25.57000 445.172
25.58000 444.518
25.59000 445.670
25.60000 446.581
25.61000 448.814
25.62000 450.698
25.63000 451.989
25.64000 451.883
25.65000 451.719
25.66000 451.875
25.67000 452.541
25.68000 453.214
25.69000 453.557
25.70000 459.818
25.71000 463.986
25.72000 464.217
25.73000 461.780
25.74000 459.377
25.75000 457.959
25.76000 456.989
25.77000 456.073
25.78000 457.088
25.79000 458.567
25.80000 459.984
25.81000 460.924
25.82000 461.766
25.83000 461.126
25.84000 453.435
25.85000 444.831
25.86000 438.182
25.87000 449.226
25.88000 459.020
25.89000 464.081
25.90000 458.988
25.91000 453.555
25.92000 452.474
25.93000 457.673
25.94000 462.922
25.95000 461.681
25.96000 454.368
25.97000 447.120
25.98000 444.539
25.99000 444.830
26.00000 445.219
26.01000 447.861
26.02000 451.439
26.03000 454.787
26.04000 457.867
26.05000 460.597
26.06000 463.191
26.07000 464.878
26.08000 466.398
26.09000 467.745
26.10000 468.357
26.11000 468.883
26.12000 469.280
26.13000 462.910
26.14000 457.590
26.15000 454.998
26.16000 457.737
26.17000 460.616
26.18000 460.773
26.19000 457.376
26.20000 453.968
26.21000 450.262
26.22000 446.316
26.23000 442.479
26.24000 444.159
26.25000 448.924
26.26000 453.467
26.27000 453.825
26.28000 452.597
26.29000 451.460
26.30000 442.135
26.31000 431.877
26.32000 423.522
26.33000 426.541
26.34000 431.449
26.35000 436.319
26.36000 441.040
26.37000 445.746
26.38000 449.200
26.39000 453.266
26.40000 456.432
26.41000 456.563
26.42000 451.296
26.43000 445.925
26.44000 441.831
26.45000 439.246
26.46000 436.669
26.47000 439.550
26.48000 446.536
26.49000 453.322
26.50000 452.529
26.51000 447.879
26.52000 443.662
26.53000 446.283
26.54000 451.263
26.55000 455.816
26.56000 451.056
26.57000 444.914
26.58000 439.440
26.59000 437.550
26.60000 436.193
26.61000 436.740
26.62000 444.020
26.63000 451.889
26.64000 457.506
26.65000 439.839
26.66000 425.595
26.67000 420.135
26.68000 428.869
26.69000 437.797
26.70000 441.316
26.71000 439.091
26.72000 436.876
26.73000 434.207
26.74000 431.260
26.75000 428.532
26.76000 432.242
26.77000 438.935
26.78000 445.052
26.79000 443.417
26.80000 439.346
26.81000 435.673
26.82000 438.410
26.83000 441.990
26.84000 442.526
26.85000 428.333
26.86000 412.193
26.87000 402.373
26.88000 412.872
26.89000 424.905
26.90000 433.241
26.91000 433.349
26.92000 433.214
26.93000 436.782
26.94000 445.780
26.95000 454.823
26.96000 454.649
26.97000 445.697
26.98000 436.816
26.99000 431.435
27.00000 428.297
27.01000 425.350
27.02000 426.922
27.03000 430.403
27.04000 434.471
27.05000 445.346
27.06000 458.166
27.07000 469.575
27.08000 461.230
27.09000 450.751
27.10000 441.482
27.11000 437.494
27.12000 434.124
27.13000 432.468
27.14000 435.826
27.15000 439.507
27.16000 441.976
27.17000 443.344
27.18000 444.338
27.19000 437.350
27.20000 419.762
27.21000 402.148
27.22000 401.563
27.23000 415.567
27.24000 429.404
27.25000 431.617
27.26000 427.335
27.27000 423.075
27.28000 419.221
27.29000 415.523
27.30000 412.822
27.31000 420.159
27.32000 430.097
27.33000 438.812
27.34000 436.085
27.35000 432.085
27.36000 429.564
27.37000 432.901
27.38000 436.840
27.39000 438.042
27.40000 431.953
27.41000 425.469
27.42000 421.267
27.43000 430.603
27.44000 437.638
27.45000 439.581
27.46000 435.415
27.47000 431.243
27.48000 428.777
27.49000 427.629
27.50000 426.499
27.51000 421.685
27.52000 415.184
27.53000 409.106
27.54000 409.900
27.55000 413.102
27.56000 416.579
27.57000 422.485
27.58000 428.961
27.59000 434.549
27.60000 428.932
27.61000 422.730
27.62000 418.309
27.63000 420.287
27.64000 422.839
27.65000 423.679
27.66000 420.368
27.67000 416.870
27.68000 414.685
27.69000 421.194
27.70000 425.980
27.71000 433.470
27.72000 443.883
27.73000 454.193
27.74000 451.113
27.75000 438.660
27.76000 426.480
27.77000 419.665
27.78000 415.550
27.79000 411.929
27.80000 415.134
27.81000 420.516
27.82000 425.298
27.83000 425.397
27.84000 424.502
27.85000 423.743
27.86000 419.073
27.87000 414.717
27.88000 410.078
27.89000 404.517
27.90000 398.885
27.91000 395.541
27.92000 397.257
27.93000 399.155
27.94000 400.296
27.95000 423.046
27.96000 439.360
27.97000 441.373
27.98000 429.527
27.99000 417.790
28.00000 414.989
28.01000 417.860
28.02000 420.651
28.03000 418.700
28.04000 414.911
28.05000 411.592
28.06000 413.833
28.07000 417.686
28.08000 419.993
28.09000 411.568
28.10000 401.087
28.11000 392.362
28.12000 402.584
28.13000 412.922
28.14000 420.132
28.15000 418.051
28.16000 415.354
28.17000 414.944
28.18000 419.137
28.19000 423.461
28.20000 425.950
28.21000 421.653
28.22000 418.624
28.23000 418.827
28.24000 421.847
28.25000 424.868
28.26000 427.957
28.27000 431.085
28.28000 434.104
28.29000 433.786
28.30000 432.260
28.31000 430.993
28.32000 432.409
28.33000 434.532
28.34000 435.500
28.35000 429.319
28.36000 421.906
28.37000 415.856
28.38000 413.616
28.39000 412.112
28.40000 410.687
28.41000 409.480
28.42000 408.285
28.43000 409.420
28.44000 414.826
28.45000 420.324
28.46000 423.348
28.47000 412.319
28.48000 404.730
28.49000 405.667
28.50000 413.304
28.51000 420.866
28.52000 425.348
28.53000 428.214
28.54000 430.959
28.55000 428.229
28.56000 423.867
28.57000 419.308
28.58000 412.969
28.59000 406.206
28.60000 401.624
28.61000 409.170
28.62000 418.585
28.63000 426.110
28.64000 426.011
28.65000 425.366
28.66000 425.243
28.67000 426.409
28.68000 427.635
28.69000 424.340
28.70000 413.510
28.71000 402.563
28.72000 396.831
28.73000 405.095
28.74000 410.661
28.75000 411.200
28.76000 408.165
28.77000 405.340
28.78000 409.193
28.79000 416.236
28.80000 422.921
28.81000 419.775
28.82000 413.933
28.83000 408.133
28.84000 402.658
28.85000 397.254
28.86000 392.172
28.87000 388.703
28.88000 385.456
28.89000 382.918
28.90000 391.790
28.91000 399.592
28.92000 405.714
28.93000 408.064
28.94000 410.273
28.95000 411.333
28.96000 410.654
28.97000 409.958
28.98000 409.379
28.99000 408.918
29.00000 408.441
29.01000 406.657
29.02000 404.030
29.03000 401.576
29.04000 403.495
29.05000 407.316
29.06000 410.909
29.07000 412.920
29.08000 414.330
29.09000 416.173
29.10000 421.070
29.11000 426.561
29.12000 429.010
29.13000 417.724
29.14000 404.766
29.15000 394.878
29.16000 398.346
29.17000 401.794
29.18000 402.716
29.19000 398.475
29.20000 394.082
29.21000 391.357
29.22000 390.921
29.23000 390.498
29.24000 390.536
29.25000 390.980
29.26000 391.450
29.27000 393.442
29.28000 396.325
29.29000 399.065
29.30000 398.836
29.31000 397.431
29.32000 396.125
29.33000 394.309
29.34000 392.547
29.35000 392.238
29.36000 401.101
29.37000 411.571
29.38000 417.957
29.39000 407.659
29.40000 395.571
29.41000 386.580
29.42000 384.542
29.43000 383.266
29.44000 384.109
29.45000 388.893
29.46000 393.766
29.47000 396.883
29.48000 397.824
29.49000 398.756
29.50000 395.339
29.51000 388.476
29.52000 381.980
29.53000 391.341
29.54000 409.148
29.55000 426.052
29.56000 427.470
29.57000 423.295
29.58000 419.455
29.59000 413.721
29.60000 408.188
29.61000 403.877
29.62000 406.469
29.63000 410.144
29.64000 412.838
29.65000 411.897
29.66000 410.615
29.67000 409.687
29.68000 403.502
29.69000 398.562
29.70000 397.948
29.71000 404.655
29.72000 411.482
29.73000 413.317
29.74000 409.571
29.75000 405.835
29.76000 398.824
29.77000 389.530
29.78000 380.615
29.79000 384.204
29.80000 393.857
29.81000 403.242
29.82000 408.735
29.83000 412.950
29.84000 416.777
29.85000 422.350
29.86000 427.612
29.87000 430.903
29.88000 424.168
29.89000 416.029
29.90000 410.196
29.91000 412.122
29.92000 414.678
29.93000 416.476
29.94000 414.277
29.95000 412.493
29.96000 411.446
29.97000 411.529
29.98000 411.625
29.99000 412.274
30.00000 413.479
30.01000 414.677
30.02000 418.272
30.03000 423.362
30.04000 428.186
30.05000 426.038
30.06000 420.810
30.07000 415.833
30.08000 413.967
30.09000 413.031
30.10000 412.193
30.11000 410.378
30.12000 408.623
30.13000 409.087
30.14000 419.735
30.15000 431.647
30.16000 435.544
30.17000 414.900
30.18000 392.546
30.19000 377.312
30.20000 401.560
30.21000 420.590
30.22000 429.235
30.23000 423.407
30.24000 417.486
30.25000 414.867
30.26000 415.224
30.27000 415.577
30.28000 413.307
30.29000 409.558
30.30000 406.017
30.31000 406.894
30.32000 409.551
30.33000 412.247
30.34000 415.368
30.35000 418.605
30.36000 421.464
30.37000 415.615
30.38000 409.225
30.39000 404.917
30.40000 409.248
30.41000 414.526
30.42000 417.333
30.43000 413.257
30.44000 408.775
30.45000 405.820
30.46000 409.162
30.47000 411.735
30.48000 414.309
30.49000 416.885
30.50000 419.448
30.51000 417.022
30.52000 410.546
30.53000 404.160
30.54000 403.635
30.55000 406.203
30.56000 408.731
30.57000 410.527
30.58000 412.055
30.59000 413.001
30.60000 408.476
30.61000 402.602
30.62000 397.493
30.63000 403.809
30.64000 410.755
30.65000 418.127
30.66000 427.098
30.67000 436.223
30.68000 440.229
30.69000 431.242
30.70000 421.615
30.71000 415.490
30.72000 419.544
30.73000 422.617
30.74000 424.354
30.75000 424.571
30.76000 424.780
30.77000 423.750
30.78000 421.811
30.79000 419.909
30.80000 425.837
30.81000 435.263
30.82000 444.210
30.83000 446.006
30.84000 445.416
30.85000 445.341
30.86000 449.529
30.87000 454.669
30.88000 459.065
30.89000 458.038
30.90000 456.520
30.91000 457.108
30.92000 464.900
30.93000 473.291
30.94000 481.716
30.95000 490.222
30.96000 498.731
30.97000 503.942
30.98000 520.236
30.99000 531.996
31.00000 542.330
31.01000 551.207
31.02000 560.108
31.03000 571.482
31.04000 584.501
31.05000 597.196
31.06000 618.136
31.07000 641.664
31.08000 665.536
31.09000 693.772
31.10000 723.334
31.11000 754.196
31.12000 794.611
31.13000 836.950
31.14000 872.521
31.15000 946.537
31.16000 1012.256
31.17000 1074.834
31.18000 1127.646
31.19000 1179.759
31.20000 1235.183
31.21000 1297.584
31.22000 1360.208
31.23000 1397.024
31.24000 1445.041
31.25000 1478.965
31.26000 1525.197
31.27000 1582.715
31.28000 1640.129
31.29000 1690.577
31.30000 1736.817
31.31000 1781.608
31.32000 1836.155
31.33000 1891.533
31.34000 1944.944
31.35000 1976.679
31.36000 2002.432
31.37000 2022.664
31.38000 2006.772
31.39000 1984.332
31.40000 1965.835
31.41000 1982.203
31.42000 1998.883
31.43000 2000.543
31.44000 1959.703
31.45000 1916.282
31.46000 1865.424
31.47000 1800.296
31.48000 1734.814
31.49000 1697.974
31.50000 1608.915
31.51000 1546.989
31.52000 1497.227
31.53000 1457.511
31.54000 1417.611
31.55000 1368.947
31.56000 1315.469
31.57000 1264.054
31.58000 1210.691
31.59000 1160.013
31.60000 1109.018
31.61000 1054.971
31.62000 1000.160
31.63000 947.226
31.64000 905.287
31.65000 865.136
31.66000 832.708
31.67000 799.387
31.68000 772.226
31.69000 747.098
31.70000 727.206
31.71000 707.580
31.72000 684.015
31.73000 653.571
31.74000 623.002
31.75000 606.600
31.76000 584.818
31.77000 569.948
31.78000 556.587
31.79000 544.349
31.80000 532.096
31.81000 519.250
31.82000 506.108
31.83000 493.578
31.84000 487.900
31.85000 484.789
31.86000 481.247
31.87000 474.068
31.88000 466.064
31.89000 458.406
31.90000 452.562
31.91000 446.982
31.92000 442.573
31.93000 433.850
31.94000 426.551
31.95000 423.369
31.96000 429.850
31.97000 436.734
31.98000 438.794
31.99000 433.203
32.00000 427.516
32.01000 424.617
32.02000 415.427
32.03000 409.272
32.04000 404.465
32.05000 400.567
32.06000 396.964
32.07000 401.617
32.08000 410.031
32.09000 417.979
32.10000 407.597
32.11000 392.879
32.12000 380.290
32.13000 383.646
32.14000 390.266
32.15000 395.921
32.16000 396.995
32.17000 397.478
32.18000 397.850
32.19000 399.920
32.20000 401.661
32.21000 402.414
32.22000 401.056
32.23000 399.627
32.24000 396.663
32.25000 391.488
32.26000 386.296
32.27000 382.776
32.28000 380.817
32.29000 378.845
32.30000 376.017
32.31000 372.664
32.32000 369.430
32.33000 368.883
32.34000 369.450
32.35000 369.980
32.36000 374.473
32.37000 379.562
32.38000 383.597
32.39000 380.610
32.40000 376.328
32.41000 373.341
32.42000 375.907
32.43000 379.108
32.44000 381.519
32.45000 381.912
32.46000 382.122
32.47000 382.135
32.48000 381.766
32.49000 381.387
32.50000 382.325
32.51000 384.978
32.52000 387.637
32.53000 387.690
32.54000 385.561
32.55000 383.427
32.56000 380.971
32.57000 378.336
32.58000 375.573
32.59000 370.414
32.60000 364.349
32.61000 358.739
32.62000 361.125
32.63000 365.096
32.64000 368.220
32.65000 366.302
32.66000 363.549
32.67000 362.221
32.68000 366.431
32.69000 371.195
32.70000 374.690
32.71000 367.135
32.72000 360.852
32.73000 358.814
32.74000 364.301
32.75000 369.933
32.76000 373.942
32.77000 376.043
32.78000 378.135
32.79000 374.225
32.80000 365.821
32.81000 357.648
32.82000 358.163
32.83000 363.088
32.84000 367.897
32.85000 370.893
32.86000 373.265
32.87000 375.434
32.88000 380.120
32.89000 384.799
32.90000 388.277
32.91000 385.326
32.92000 381.423
32.93000 378.924
32.94000 381.369
32.95000 384.245
32.96000 386.297
32.97000 396.705
32.98000 404.916
32.99000 407.210
33.00000 399.971
33.01000 392.605
33.02000 384.860
33.03000 376.714
33.04000 368.609
33.05000 359.002
33.06000 348.489
33.07000 338.407
33.08000 340.890
33.09000 349.180
33.10000 356.771
33.11000 355.000
33.12000 350.296
33.13000 346.053
33.14000 345.050
33.15000 344.761
33.16000 344.589
33.17000 344.976
33.18000 345.436
33.19000 345.137
33.20000 342.404
33.21000 339.487
33.22000 337.469
33.23000 340.786
33.24000 343.420
33.25000 342.887
33.26000 337.723
33.27000 332.520
33.28000 332.863
33.29000 338.472
33.30000 344.034
33.31000 342.707
33.32000 337.187
33.33000 331.891
33.34000 331.841
33.35000 333.999
33.36000 336.055
33.37000 336.927
33.38000 337.461
33.39000 337.936
33.40000 337.042
33.41000 336.043
33.42000 335.711
33.43000 338.288
33.44000 341.204
33.45000 344.579
33.46000 349.288
33.47000 354.083
33.48000 357.296
33.49000 351.552
33.50000 347.110
33.51000 343.043
33.52000 339.472
33.53000 335.908
33.54000 335.128
33.55000 336.725
33.56000 338.303
33.57000 340.315
33.58000 342.516
33.59000 344.415
33.60000 340.484
33.61000 334.318
33.62000 329.015
33.63000 332.376
33.64000 337.977
33.65000 342.886
33.66000 339.817
33.67000 336.029
33.68000 332.241
33.69000 328.450
33.70000 324.658
33.71000 324.214
33.72000 332.659
33.73000 341.584
33.74000 347.363
33.75000 334.757
33.76000 325.263
33.77000 322.600
33.78000 328.105
33.79000 333.620
33.80000 337.689
33.81000 340.642
33.82000 343.547
33.83000 339.214
33.84000 331.416
33.85000 324.071
33.86000 324.049
33.87000 326.585
33.88000 328.826
33.89000 328.469
33.90000 327.503
33.91000 326.671
33.92000 327.117
33.93000 327.658
33.94000 327.421
33.95000 324.393
33.96000 321.116
33.97000 320.184
33.98000 324.925
33.99000 329.918
34.00000 333.034
34.01000 330.081
34.02000 327.890
34.03000 327.962
34.04000 330.473
34.05000 332.960
34.06000 332.367
34.07000 329.625
34.08000 326.943
34.09000 323.206
34.10000 319.147
34.11000 315.380
34.12000 315.614
34.13000 317.120
34.14000 318.090
34.15000 314.889
34.16000 310.806
34.17000 307.344
34.18000 307.566
34.19000 308.166
34.20000 310.704
34.21000 319.550
34.22000 328.882
34.23000 334.167
34.24000 330.529
34.25000 326.571
34.26000 324.196
34.27000 321.446
34.28000 319.489
34.29000 318.298
34.30000 317.846
34.31000 317.374
34.32000 315.281
34.33000 312.162
34.34000 309.131
34.35000 312.767
34.36000 318.932
34.37000 324.651
34.38000 325.104
34.39000 324.034
34.40000 323.370
34.41000 325.507
34.42000 328.179
34.43000 330.402
34.44000 323.651
34.45000 317.178
34.46000 313.647
34.47000 318.829
34.48000 324.584
34.49000 326.398
34.50000 320.294
34.51000 313.968
34.52000 310.330
34.53000 308.563
34.54000 307.336
34.55000 308.562
34.56000 311.918
34.57000 315.274
34.58000 318.683
34.59000 322.121
34.60000 325.440
34.61000 321.626
34.62000 315.420
34.63000 310.053
34.64000 313.290
34.65000 318.786
34.66000 323.538
34.67000 323.694
34.68000 323.061
34.69000 322.545
34.70000 310.791
34.71000 300.216
34.72000 293.656
34.73000 297.918
34.74000 302.781
34.75000 306.473
34.76000 308.024
34.77000 309.530
34.78000 310.358
34.79000 310.569
34.80000 310.715
34.81000 311.410
34.82000 312.536
34.83000 313.679
34.84000 315.550
34.85000 317.803
34.86000 319.960
34.87000 320.558
34.88000 320.600
34.89000 320.450
34.90000 318.575
34.91000 316.288
34.92000 314.487
34.93000 315.374
34.94000 316.673
34.95000 317.711
34.96000 321.414
34.97000 324.602
34.98000 323.430
34.99000 311.549
35.00000 299.175
35.01000 292.381
35.02000 294.859
35.03000 297.478
35.04000 298.848
35.05000 304.511
35.06000 308.327
35.07000 309.611
35.08000 309.100
35.09000 308.619
35.10000 309.064
35.11000 309.949
35.12000 310.789
35.13000 311.151
35.14000 311.343
35.15000 311.009
35.16000 306.494
35.17000 301.080
35.18000 297.198
35.19000 300.958
35.20000 305.762
35.21000 309.515
35.22000 301.688
35.23000 294.715
35.24000 290.607
35.25000 292.912
35.26000 295.457
35.27000 300.224
35.28000 308.347
35.29000 316.504
35.30000 316.648
35.31000 308.916
35.32000 301.277
35.33000 301.688
35.34000 307.274
35.35000 312.613
35.36000 311.763
35.37000 308.228
35.38000 304.905
35.39000 302.650
35.40000 300.877
35.41000 299.196
35.42000 298.161
35.43000 297.251
35.44000 297.041
35.45000 299.983
35.46000 303.307
35.47000 305.841
35.48000 299.737
35.49000 294.469
35.50000 292.004
35.51000 295.251
35.52000 298.667
35.53000 300.205
35.54000 299.176
35.55000 298.132
35.56000 297.329
35.57000 296.741
35.58000 296.154
35.59000 295.658
35.60000 295.215
35.61000 295.094
35.62000 301.553
35.63000 310.613
35.64000 319.039
35.65000 316.166
35.66000 310.850
35.67000 306.022
35.68000 304.267
35.69000 303.048
35.70000 302.418
35.71000 304.186
35.72000 306.210
35.73000 307.715
35.74000 308.941
35.75000 309.882
35.76000 308.907
35.77000 304.374
35.78000 299.762
35.79000 298.469
35.80000 301.279
35.81000 304.096
35.82000 309.355
35.83000 316.529
35.84000 323.479
35.85000 320.859
35.86000 313.155
35.87000 305.920
35.88000 306.674
35.89000 310.304
35.90000 313.642
35.91000 308.851
35.92000 302.815
35.93000 297.307
35.94000 294.771
35.95000 292.700
35.96000 292.912
35.97000 301.557
35.98000 310.990
35.99000 317.811
36.00000 313.448
36.01000 309.692
36.02000 306.070
36.03000 302.671
36.04000 299.276
36.05000 295.960
36.06000 292.731
36.07000 289.514
36.08000 288.542
36.09000 289.183
36.10000 289.864
36.11000 291.900
36.12000 294.590
36.13000 297.189
36.14000 298.481
36.15000 299.345
36.16000 300.129
36.17000 299.838
36.18000 299.373
36.19000 298.690
36.20000 296.904
36.21000 294.963
36.22000 293.129
36.23000 291.651
36.24000 290.203
36.25000 289.185
36.26000 291.022
36.27000 292.496
36.28000 291.519
36.29000 286.783
36.30000 282.006
36.31000 282.459
36.32000 288.145
36.33000 293.795
36.34000 294.897
36.35000 293.059
36.36000 291.292
36.37000 291.386
36.38000 292.301
36.39000 293.098
36.40000 292.433
36.41000 291.331
36.42000 290.345
36.43000 295.896
36.44000 301.870
36.45000 306.693
36.46000 306.250
36.47000 305.156
36.48000 303.776
36.49000 301.527
36.50000 299.218
36.51000 297.645
36.52000 293.405
36.53000 290.177
36.54000 286.811
36.55000 283.254
36.56000 279.699
36.57000 281.816
36.58000 289.029
36.59000 296.169
36.60000 298.258
36.61000 297.370
36.62000 296.670
36.63000 299.930
36.64000 304.780
36.65000 309.628
36.66000 314.449
36.67000 319.264
36.68000 323.514
36.69000 311.328
36.70000 298.290
36.71000 288.771
36.72000 293.814
36.73000 300.446
36.74000 304.194
36.75000 299.925
36.76000 295.185
36.77000 292.064
36.78000 299.275
36.79000 304.765
36.80000 303.893
36.81000 295.027
36.82000 286.153
36.83000 284.275
36.84000 288.060
36.85000 291.791
36.86000 294.658
36.87000 296.990
36.88000 299.313
36.89000 301.475
36.90000 303.578
36.91000 305.063
36.92000 300.752
36.93000 295.018
36.94000 290.033
36.95000 293.356
36.96000 297.318
36.97000 298.626
36.98000 289.973
36.99000 280.368
37.00000 276.102
37.01000 285.350
37.02000 295.259
37.03000 301.556
37.04000 296.018
37.05000 291.849
37.06000 291.175
37.07000 294.464
37.08000 297.755
37.09000 300.682
37.10000 303.344
37.11000 305.954
37.12000 300.966
37.13000 292.567
37.14000 284.892
37.15000 287.950
37.16000 294.581
37.17000 300.313
37.18000 298.619
37.19000 295.275
37.20000 292.415
37.21000 294.226
37.22000 296.312
37.23000 296.785
37.24000 291.759
37.25000 286.278
37.26000 282.227
37.27000 281.474
37.28000 280.852
37.29000 280.472
37.30000 287.720
37.31000 292.970
37.32000 294.056
37.33000 290.901
37.34000 287.775
37.35000 287.442
37.36000 288.962
37.37000 290.444
37.38000 285.035
37.39000 276.928
37.40000 269.433
37.41000 269.681
37.42000 272.273
37.43000 274.937
37.44000 278.116
37.45000 281.398
37.46000 284.154
37.47000 280.935
37.48000 277.625
37.49000 277.061
37.50000 285.004
37.51000 293.554
37.52000 298.231
37.53000 294.775
37.54000 291.059
37.55000 288.878
37.56000 286.293
37.57000 284.469
37.58000 282.736
37.59000 281.086
37.60000 279.447
37.61000 278.597
37.62000 278.221
37.63000 277.858
37.64000 275.576
37.65000 272.677
37.66000 270.245
37.67000 272.922
37.68000 277.006
37.69000 280.954
37.70000 284.020
37.71000 286.927
37.72000 289.322
37.73000 285.250
37.74000 281.307
37.75000 276.796
37.76000 270.683
37.77000 264.474
37.78000 263.387
37.79000 272.099
37.80000 281.052
37.81000 286.081
37.82000 293.663
37.83000 298.909
37.84000 295.332
37.85000 284.491
37.86000 273.875
37.87000 273.916
37.88000 279.792
37.89000 285.441
37.90000 285.687
37.91000 284.040
37.92000 282.509
37.93000 282.085
37.94000 281.938
37.95000 281.733
37.96000 281.187
37.97000 280.587
37.98000 280.102
37.99000 280.187
38.00000 280.301
38.01000 282.408
38.02000 289.637
38.03000 297.124
38.04000 299.164
38.05000 291.726
38.06000 284.116
38.07000 280.039
38.08000 282.706
38.09000 284.536
38.10000 287.163
38.11000 290.383
38.12000 293.542
38.13000 294.513
38.14000 294.393
38.15000 294.278
38.16000 291.353
38.17000 287.760
38.18000 285.001
38.19000 289.266
38.20000 295.120
38.21000 299.594
38.22000 296.835
38.23000 293.028
38.24000 290.022
38.25000 300.814
38.26000 310.416
38.27000 317.171
38.28000 317.263
38.29000 317.078
38.30000 316.314
38.31000 314.632
38.32000 312.939
38.33000 312.077
38.34000 328.813
38.35000 339.966
38.36000 343.416
38.37000 341.675
38.38000 340.099
38.39000 343.129
38.40000 348.251
38.41000 353.088
38.42000 367.818
38.43000 384.125
38.44000 398.390
38.45000 397.416
38.46000 393.331
38.47000 393.783
38.48000 415.688
38.49000 440.354
38.50000 459.384
38.51000 474.317
38.52000 485.914
38.53000 500.324
38.54000 520.732
38.55000 541.338
38.56000 562.955
38.57000 586.022
38.58000 609.095
38.59000 626.206
38.60000 637.766
38.61000 649.250
38.62000 655.365
38.63000 658.196
38.64000 661.323
38.65000 671.110
38.66000 683.651
38.67000 695.376
38.68000 708.532
38.69000 720.839
38.70000 731.987
38.71000 735.440
38.72000 737.479
38.73000 738.199
38.74000 733.286
38.75000 727.731
38.76000 723.551
38.77000 703.964
38.78000 687.889
38.79000 673.225
38.80000 661.300
38.81000 649.444
38.82000 637.648
38.83000 625.926
38.84000 614.218
38.85000 597.996
38.86000 578.051
38.87000 558.107
38.88000 538.177
38.89000 518.255
38.90000 498.604
38.91000 483.974
38.92000 471.236
38.93000 459.459
38.94000 448.469
38.95000 438.780
38.96000 428.359
38.97000 413.590
38.98000 398.104
38.99000 382.559
39.00000 366.782
39.01000 350.982
39.02000 339.401
39.03000 333.907
39.04000 329.908
39.05000 324.220
39.06000 315.546
39.07000 306.816
39.08000 299.964
39.09000 295.315
39.10000 290.682
39.11000 287.542
39.12000 285.544
39.13000 283.629
39.14000 284.765
39.15000 287.446
39.16000 289.993
39.17000 290.437
39.18000 290.158
39.19000 289.904
39.20000 286.416
39.21000 282.658
39.22000 279.558
39.23000 279.962
39.24000 280.883
39.25000 281.541
39.26000 281.275
39.27000 280.929
39.28000 280.683
39.29000 270.234
39.30000 261.938
39.31000 259.217
39.32000 265.452
39.33000 271.807
39.34000 276.180
39.35000 278.466
39.36000 280.739
39.37000 281.559
39.38000 281.385
39.39000 281.295
39.40000 283.618
39.41000 287.054
39.42000 289.642
39.43000 280.934
39.44000 268.699
39.45000 257.666
39.46000 259.477
39.47000 263.409
39.48000 267.063
39.49000 269.387
39.50000 271.535
39.51000 272.722
39.52000 270.838
39.53000 268.723
39.54000 267.261
39.55000 260.882
39.56000 255.959
39.57000 254.394
39.58000 257.727
39.59000 261.101
39.60000 266.268
39.61000 273.130
39.62000 279.935
39.63000 279.304
39.64000 274.149
39.65000 269.002
39.66000 264.078
39.67000 259.248
39.68000 254.585
39.69000 251.831
39.70000 249.620
39.71000 247.654
39.72000 253.019
39.73000 258.866
39.74000 263.790
39.75000 264.702
39.76000 265.149
39.77000 264.344
39.78000 259.896
39.79000 255.216
39.80000 252.083
39.81000 257.141
39.82000 261.055
39.83000 263.969
39.84000 265.564
39.85000 267.151
39.86000 267.673
39.87000 267.289
39.88000 266.909
39.89000 264.242
39.90000 260.382
39.91000 256.608
39.92000 254.483
39.93000 252.989
39.94000 251.783
39.95000 253.444
39.96000 255.845
39.97000 257.949
39.98000 262.210
39.99000 266.177
40.00000 268.365
40.01000 263.551
40.02000 258.023
40.03000 253.952
40.04000 253.739
40.05000 253.733
40.06000 253.729
40.07000 260.723
40.08000 265.940
40.09000 268.892
40.10000 269.145
40.11000 269.377
40.12000 265.946
40.13000 259.700
40.14000 253.559
40.15000 251.409
40.16000 251.313
40.17000 251.179
40.18000 250.417
40.19000 249.438
40.20000 248.783
40.21000 250.974
40.22000 253.830
40.23000 256.291
40.24000 254.188
40.25000 251.823
40.26000 250.856
40.27000 254.879
40.28000 259.346
40.29000 261.082
40.30000 256.225
40.31000 251.078
40.32000 247.870
40.33000 244.179
40.34000 241.514
40.35000 245.777
40.36000 257.473
40.37000 269.084
40.38000 269.557
40.39000 262.284
40.40000 255.171
40.41000 253.143
40.42000 253.479
40.43000 254.087
40.44000 258.404
40.45000 263.896
40.46000 269.047
40.47000 271.544
40.48000 273.482
40.49000 275.124
40.50000 265.935
40.51000 257.023
40.52000 250.357
40.53000 250.978
40.54000 252.159
40.55000 251.915
40.56000 248.538
40.57000 245.050
40.58000 242.961
40.59000 249.535
40.60000 254.260
40.61000 253.476
40.62000 247.388
40.63000 241.359
40.64000 239.971
40.65000 241.511
40.66000 243.008
40.67000 247.889
40.68000 253.898
40.69000 258.871
40.70000 251.672
40.71000 240.963
40.72000 231.937
40.73000 234.515
40.74000 239.300
40.75000 243.279
40.76000 243.683
40.77000 243.667
40.78000 243.065
40.79000 240.731
40.80000 238.284
40.81000 236.987
40.82000 237.992
40.83000 239.062
40.84000 239.676
40.85000 236.549
40.86000 234.357
40.87000 238.153
40.88000 247.135
40.89000 255.963
40.90000 256.356
40.91000 251.912
40.92000 247.624
40.93000 248.414
40.94000 251.014
40.95000 252.861
40.96000 247.030
40.97000 239.189
40.98000 232.855
40.99000 235.799
41.00000 240.330
41.01000 244.023
41.02000 245.000
41.03000 245.567
41.04000 246.441
41.05000 248.138
41.06000 249.881
41.07000 250.970
41.08000 250.868
41.09000 250.741
41.10000 250.672
41.11000 242.722
41.12000 237.261
41.13000 237.342
41.14000 241.751
41.15000 246.028
41.16000 244.955
41.17000 241.091
41.18000 237.393
41.19000 241.247
41.20000 247.327
41.21000 253.145
41.22000 256.615
41.23000 259.527
41.24000 261.344
41.25000 257.112
41.26000 251.953
41.27000 247.836
41.28000 245.954
41.29000 244.599
41.30000 243.587
41.31000 243.413
41.32000 243.277
41.33000 243.083
41.34000 242.790
41.35000 242.496
41.36000 242.342
41.37000 243.186
41.38000 243.757
41.39000 244.173
41.40000 244.479
41.41000 244.717
41.42000 242.779
41.43000 239.809
41.44000 236.991
41.45000 238.921
41.46000 242.111
41.47000 244.866
41.48000 244.183
41.49000 242.763
41.50000 241.757
41.51000 242.811
41.52000 244.145
41.53000 245.186
41.54000 247.516
41.55000 249.455
41.56000 248.000
41.57000 238.971
41.58000 229.663
41.59000 225.943
41.60000 230.633
41.61000 235.406
41.62000 239.650
41.63000 243.377
41.64000 247.024
41.65000 243.930
41.66000 236.515
41.67000 229.379
41.68000 229.181
41.69000 231.985
41.70000 234.620
41.71000 230.017
41.72000 223.881
41.73000 218.620
41.74000 219.495
41.75000 221.558
41.76000 224.538
41.77000 231.634
41.78000 239.226
41.79000 245.010
41.80000 242.550
41.81000 240.177
41.82000 237.067
41.83000 232.457
41.84000 227.804
41.85000 228.810
41.86000 237.529
41.87000 246.289
41.88000 247.461
41.89000 241.960
41.90000 236.543
41.91000 235.925
41.92000 238.103
41.93000 240.147
41.94000 239.455
41.95000 237.685
41.96000 236.040
41.97000 240.886
41.98000 246.819
41.99000 251.355
42.00000 247.138
42.01000 241.399
42.02000 236.242
42.03000 233.454
42.04000 230.917
42.05000 229.033
42.06000 230.756
42.07000 232.255
42.08000 232.243
42.09000 229.437
42.10000 226.569
42.11000 228.559
42.12000 236.535
42.13000 244.512
42.14000 245.061
42.15000 239.737
42.16000 234.544
42.17000 234.917
42.18000 238.239
42.19000 241.204
42.20000 238.132
42.21000 232.892
42.22000 228.075
42.23000 230.527
42.24000 234.280
42.25000 237.725
42.26000 239.438
42.27000 240.882
42.28000 242.067
42.29000 242.298
42.30000 242.440
42.31000 242.542
42.32000 245.219
42.33000 247.365
42.34000 245.972
42.35000 238.624
42.36000 231.180
42.37000 227.888
42.38000 229.205
42.39000 230.520
42.40000 231.419
42.41000 232.014
42.42000 232.529
42.43000 230.455
42.44000 227.133
42.45000 223.883
42.46000 221.654
42.47000 219.761
42.48000 218.042
42.49000 220.672
42.50000 223.831
42.51000 227.042
42.52000 230.513
42.53000 234.020
42.54000 236.614
42.55000 236.153
42.56000 235.446
42.57000 234.950
42.58000 231.945
42.59000 229.599
42.60000 226.620
42.61000 222.676
42.62000 218.721
42.63000 220.338
42.64000 227.511
42.65000 234.636
42.66000 238.611
42.67000 240.507
42.68000 242.164
42.69000 237.663
42.70000 230.458
42.71000 223.707
42.72000 222.540
42.73000 223.034
42.74000 223.476
42.75000 227.571
42.76000 231.773
42.77000 235.070
42.78000 234.244
42.79000 232.909
42.80000 231.009
42.81000 227.388
42.82000 223.649
42.83000 221.106
42.84000 220.815
42.85000 220.649
42.86000 220.520
42.87000 220.443
42.88000 220.367
42.89000 221.163
42.90000 222.742
42.91000 224.304
42.92000 227.384
42.93000 231.275
42.94000 234.752
42.95000 229.554
42.96000 220.882
42.97000 212.780
42.98000 210.755
42.99000 210.371
43.00000 210.032
43.01000 220.134
43.02000 230.444
43.03000 238.535
43.04000 237.466
43.05000 235.402
43.06000 231.996
43.07000 224.875
43.08000 217.536
43.09000 212.708
43.10000 224.384
43.11000 233.263
43.12000 233.800
43.13000 223.887
43.14000 213.970
43.15000 214.219
43.16000 222.675
43.17000 231.009
43.18000 232.466
43.19000 230.289
43.20000 228.064
43.21000 225.009
43.22000 221.653
43.23000 218.541
43.24000 217.713
43.25000 217.446
43.26000 217.213
43.27000 224.024
43.28000 230.785
43.29000 237.082
43.30000 241.644
43.31000 246.040
43.32000 248.501
43.33000 246.075
43.34000 243.411
43.35000 241.720
43.36000 234.524
43.37000 229.233
43.38000 228.297
43.39000 232.279
43.40000 236.218
43.41000 232.028
43.42000 221.905
43.43000 211.979
43.44000 213.177
43.45000 219.576
43.46000 225.511
43.47000 224.619
43.48000 221.461
43.49000 218.647
43.50000 218.660
43.51000 219.300
43.52000 219.846
43.53000 223.326
43.54000 226.609
43.55000 229.124
43.56000 229.033
43.57000 228.727
43.58000 227.584
43.59000 224.519
43.60000 221.377
43.61000 219.457
43.62000 218.102
43.63000 217.137
43.64000 218.398
43.65000 221.918
43.66000 225.428
43.67000 228.031
43.68000 230.033
43.69000 231.985
43.70000 227.373
43.71000 220.176
43.72000 213.532
43.73000 213.847
43.74000 216.264
43.75000 218.399
43.76000 218.479
43.77000 218.149
43.78000 217.872
43.79000 220.782
43.80000 223.539
43.81000 225.514
43.82000 225.073
43.83000 224.460
43.84000 222.715
43.85000 218.597
43.86000 214.403
43.87000 211.944
43.88000 212.272
43.89000 212.516
43.90000 212.708
43.91000 212.850
43.92000 213.041
43.93000 216.306
43.94000 221.417
43.95000 226.367
43.96000 222.544
43.97000 215.558
43.98000 209.135
43.99000 208.852
44.00000 210.253
44.01000 211.553
44.02000 212.192
44.03000 212.713
44.04000 213.141
44.05000 215.960
44.06000 218.497
44.07000 219.001
44.08000 213.787
44.09000 208.229
44.10000 206.780
44.11000 213.172
44.12000 219.755
44.13000 223.448
44.14000 219.513
44.15000 216.769
44.16000 215.007
44.17000 214.053
44.18000 213.163
44.19000 215.302
44.20000 219.094
44.21000 222.738
44.22000 220.861
44.23000 217.191
44.24000 214.075
44.25000 216.245
44.26000 219.732
44.27000 222.761
44.28000 223.131
44.29000 223.072
44.30000 223.025
44.31000 220.817
44.32000 218.854
44.33000 217.420
44.34000 217.346
44.35000 217.339
44.36000 219.454
44.37000 225.250
44.38000 231.113
44.39000 234.249
44.40000 233.438
44.41000 232.872
44.42000 230.483
44.43000 226.743
44.44000 222.968
44.45000 217.939
44.46000 212.287
44.47000 206.901
44.48000 210.491
44.49000 216.622
44.50000 222.259
44.51000 223.760
44.52000 224.328
44.53000 225.187
44.54000 227.564
44.55000 230.161
44.56000 232.210
44.57000 230.777
44.58000 229.391
44.59000 228.541
44.60000 228.942
44.61000 229.395
44.62000 231.229
44.63000 235.243
44.64000 239.283
44.65000 241.336
44.66000 237.751
44.67000 235.377
44.68000 236.122
44.69000 238.965
44.70000 241.679
44.71000 240.844
44.72000 238.403
44.73000 236.099
44.74000 235.757
44.75000 235.996
44.76000 237.077
44.77000 244.413
44.78000 253.022
44.79000 260.985
44.80000 265.896
44.81000 270.417
44.82000 273.902
44.83000 269.373
44.84000 265.323
44.85000 264.207
44.86000 269.333
44.87000 274.664
44.88000 278.713
44.89000 280.929
44.90000 283.131
44.91000 284.316
44.92000 284.559
44.93000 284.790
44.94000 284.205
44.95000 283.121
44.96000 282.229
44.97000 285.617
44.98000 290.770
44.99000 295.585
45.00000 297.403
45.01000 298.294
45.02000 299.804
45.03000 305.415
45.04000 311.777
45.05000 317.383
45.06000 319.768
45.07000 321.789
45.08000 323.308
45.09000 323.318
45.10000 323.253
45.11000 321.034
45.12000 314.645
45.13000 308.150
45.14000 306.019
45.15000 309.540
45.16000 313.079
45.17000 317.658
45.18000 323.089
45.19000 328.343
45.20000 324.911
45.21000 316.664
45.22000 308.995
45.23000 312.022
45.24000 319.068
45.25000 325.581
45.26000 319.330
45.27000 310.822
45.28000 302.948
45.29000 298.830
45.30000 295.330
45.31000 291.952
45.32000 289.043
45.33000 286.181
45.34000 284.085
45.35000 287.329
45.36000 290.047
45.37000 287.912
45.38000 277.226
45.39000 266.378
45.40000 264.732
45.41000 273.837
45.42000 282.933
45.43000 284.283
45.44000 279.825
45.45000 275.470
45.46000 274.917
45.47000 276.283
45.48000 277.377
45.49000 274.252
45.50000 269.684
45.51000 265.511
45.52000 263.231
45.53000 261.592
45.54000 260.146
45.55000 259.732
45.56000 259.470
45.57000 258.328
45.58000 254.103
45.59000 249.610
45.60000 246.412
45.61000 245.590
45.62000 245.041
45.63000 245.701
45.64000 248.301
45.65000 250.925
45.66000 252.794
45.67000 253.867
45.68000 254.935
45.69000 253.808
45.70000 251.214
45.71000 248.611
45.72000 245.765
45.73000 242.807
45.74000 239.897
45.75000 237.638
45.76000 235.582
45.77000 233.728
45.78000 230.093
45.79000 226.580
45.80000 223.988
45.81000 225.808
45.82000 228.206
45.83000 230.584
45.84000 232.902
45.85000 235.216
45.86000 236.814
45.87000 231.412
45.88000 227.173
45.89000 224.418
45.90000 223.821
45.91000 223.241
45.92000 222.649
45.93000 222.045
45.94000 221.446
45.95000 221.910
45.96000 223.013
45.97000 223.980
45.98000 221.805
45.99000 218.313
46.00000 215.356
46.01000 218.522
46.02000 223.421
46.03000 227.775
46.04000 227.106
46.05000 225.714
46.06000 224.107
46.07000 221.574
46.08000 218.933
46.09000 217.894
46.10000 221.500
46.11000 225.401
46.12000 228.009
46.13000 218.018
46.14000 210.362
46.15000 204.608
46.16000 201.356
46.17000 198.119
46.18000 197.278
46.19000 198.470
46.20000 199.647
46.21000 204.119
46.22000 210.285
46.23000 215.913
46.24000 211.294
46.25000 202.765
46.26000 195.241
46.27000 197.706
46.28000 202.738
46.29000 207.144
46.30000 204.548
46.31000 201.316
46.32000 198.469
46.33000 197.131
46.34000 195.946
46.35000 195.985
46.36000 199.254
46.37000 202.696
46.38000 204.919
46.39000 198.854
46.40000 194.299
46.41000 193.159
46.42000 196.076
46.43000 199.002
46.44000 202.265
46.45000 205.787
46.46000 209.250
46.47000 211.302
46.48000 212.588
46.49000 213.732
46.50000 212.608
46.51000 210.695
46.52000 208.613
46.53000 205.043
46.54000 201.128
46.55000 197.755
46.56000 199.635
46.57000 201.894
46.58000 203.792
46.59000 204.405
46.60000 204.905
46.61000 204.239
46.62000 200.772
46.63000 197.182
46.64000 194.947
46.65000 194.598
46.66000 194.365
46.67000 195.411
46.68000 197.822
46.69000 200.238
46.70000 203.056
46.71000 206.155
46.72000 209.184
46.73000 205.543
46.74000 199.069
46.75000 192.999
46.76000 192.425
46.77000 193.589
46.78000 195.139
46.79000 199.674
46.80000 204.837
46.81000 209.208
46.82000 201.553
46.83000 193.800
46.84000 189.537
46.85000 196.571
46.86000 204.467
46.87000 207.887
46.88000 201.494
46.89000 194.754
46.90000 190.721
46.91000 198.007
46.92000 203.250
46.93000 203.222
46.94000 198.135
46.95000 193.089
46.96000 191.221
46.97000 191.352
46.98000 191.480
46.99000 189.855
47.00000 187.605
47.01000 185.766
47.02000 188.743
47.03000 193.105
47.04000 197.278
47.05000 200.148
47.06000 202.771
47.07000 204.951
47.08000 201.372
47.09000 197.850
47.10000 195.077
47.11000 194.508
47.12000 194.083
47.13000 192.609
47.14000 189.040
47.15000 185.412
47.16000 183.332
47.17000 180.173
47.18000 177.969
47.19000 181.333
47.20000 189.502
47.21000 197.577
47.22000 200.491
47.23000 200.454
47.24000 200.419
47.25000 198.705
47.26000 196.481
47.27000 194.220
47.28000 191.571
47.29000 188.822
47.30000 186.488
47.31000 186.709
47.32000 187.365
47.33000 187.899
47.34000 186.832
47.35000 185.824
47.36000 185.843
47.37000 188.613
47.38000 191.535
47.39000 193.668
47.40000 194.370
47.41000 195.042
47.42000 195.410
47.43000 191.469
47.44000 188.759
47.45000 187.618
47.46000 187.698
47.47000 187.769
47.48000 187.458
47.49000 186.947
47.50000 186.459
47.51000 189.269
47.52000 192.972
47.53000 195.942
47.54000 192.375
47.55000 187.263
47.56000 183.081
47.57000 184.027
47.58000 185.754
47.59000 187.131
47.60000 185.993
47.61000 184.890
47.62000 185.117
47.63000 188.591
47.64000 192.213
47.65000 192.720
47.66000 188.080
47.67000 183.364
47.68000 180.905
47.69000 181.907
47.70000 182.606
47.71000 186.124
47.72000 191.628
47.73000 196.912
47.74000 195.332
47.75000 190.503
47.76000 185.922
47.77000 184.890
47.78000 184.988
47.79000 185.072
47.80000 185.042
47.81000 184.988
47.82000 184.284
47.83000 180.360
47.84000 175.998
47.85000 172.596
47.86000 179.939
47.87000 186.463
47.88000 191.241
47.89000 192.132
47.90000 192.881
47.91000 190.516
47.92000 183.481
47.93000 176.401
47.94000 173.571
47.95000 174.890
47.96000 176.206
47.97000 177.298
47.98000 178.247
47.99000 179.231
48.00000 181.087
48.01000 183.318
48.02000 185.414
48.03000 186.501
48.04000 187.225
48.05000 188.131
48.06000 190.319
48.07000 192.753
48.08000 194.384
48.09000 192.417
48.10000 190.018
48.11000 188.192
48.12000 181.373
48.13000 175.744
48.14000 173.575
48.15000 178.420
48.16000 183.468
48.17000 185.462
48.18000 183.306
48.19000 181.128
48.20000 180.624
48.21000 181.586
48.22000 182.538
48.23000 182.869
48.24000 182.839
48.25000 182.887
48.26000 184.528
48.27000 186.794
48.28000 188.901
48.29000 182.802
48.30000 175.335
48.31000 169.323
48.32000 172.397
48.33000 177.046
48.34000 180.524
48.35000 179.260
48.36000 177.493
48.37000 176.182
48.38000 180.379
48.39000 183.882
48.40000 184.402
48.41000 179.417
48.42000 174.312
48.43000 173.012
48.44000 176.386
48.45000 179.766
48.46000 180.846
48.47000 180.107
48.48000 179.448
48.49000 182.138
48.50000 186.596
48.51000 190.750
48.52000 189.780
48.53000 186.975
48.54000 184.398
48.55000 180.671
48.56000 177.097
48.57000 174.294
48.58000 175.812
48.59000 178.000
48.60000 179.055
48.61000 175.943
48.62000 172.446
48.63000 169.922
48.64000 174.482
48.65000 178.234
48.66000 178.608
48.67000 173.315
48.68000 167.933
48.69000 167.222
48.70000 171.684
48.71000 176.132
48.72000 178.919
48.73000 180.501
48.74000 182.058
48.75000 182.786
48.76000 183.116
48.77000 183.100
48.78000 178.151
48.79000 171.593
48.80000 165.644
48.81000 168.327
48.82000 172.352
48.83000 176.230
48.84000 179.366
48.85000 182.400
48.86000 182.617
48.87000 173.435
48.88000 163.500
48.89000 156.535
48.90000 163.451
48.91000 169.083
48.92000 173.419
48.93000 175.782
48.94000 178.123
48.95000 179.813
48.96000 180.855
48.97000 181.890
48.98000 182.796
48.99000 183.605
49.00000 184.350
49.01000 183.428
49.02000 181.777
49.03000 179.902
49.04000 175.296
49.05000 169.880
49.06000 165.033
49.07000 169.036
49.08000 174.043
49.09000 178.144
49.10000 178.125
49.11000 177.599
49.12000 176.941
49.13000 175.879
49.14000 174.791
49.15000 174.051
49.16000 175.495
49.17000 176.622
49.18000 178.773
49.19000 182.338
49.20000 185.909
49.21000 186.513
49.22000 184.467
49.23000 182.443
49.24000 179.064
49.25000 174.978
49.26000 171.144
49.27000 172.590
49.28000 176.144
49.29000 179.426
49.30000 179.821
49.31000 179.439
49.32000 179.102
49.33000 175.749
49.34000 172.398
49.35000 169.443
49.36000 168.121
49.37000 166.976
49.38000 165.979
49.39000 165.392
49.40000 164.829
49.41000 164.460
49.42000 169.956
49.43000 174.101
49.44000 175.631
49.45000 173.897
49.46000 172.152
49.47000 170.209
49.48000 168.108
49.49000 166.037
49.50000 170.895
49.51000 179.219
49.52000 187.007
49.53000 185.497
49.54000 180.606
49.55000 175.790
49.56000 171.673
49.57000 167.726
49.58000 164.299
49.59000 163.508
49.60000 163.189
49.61000 163.421
49.62000 165.709
49.63000 168.192
49.64000 171.389
49.65000 176.381
49.66000 181.461
49.67000 184.681
49.68000 178.201
49.69000 173.381
49.70000 171.998
49.71000 174.485
49.72000 176.957
49.73000 176.237
49.74000 173.196
49.75000 170.214
49.76000 167.985
49.77000 166.192
49.78000 164.742
49.79000 168.316
49.80000 173.554
49.81000 177.624
49.82000 172.124
49.83000 164.509
49.84000 158.006
49.85000 160.985
49.86000 164.622
49.87000 168.497
49.88000 173.181
49.89000 177.932
49.90000 179.866
49.91000 175.342
49.92000 170.562
49.93000 167.646
49.94000 168.538
49.95000 169.206
49.96000 169.409
49.97000 169.140
49.98000 168.888
49.99000 170.238
50.00000 172.644
50.01000 174.990
50.02000 176.991
50.03000 178.753
50.04000 180.153
50.05000 176.998
50.06000 172.472
50.07000 168.523
50.08000 168.768
50.09000 169.850
50.10000 170.758
50.11000 173.553
50.12000 176.075
50.13000 177.719
50.14000 176.657
50.15000 175.404
50.16000 173.867
50.17000 171.737
50.18000 169.588
50.19000 168.329
50.20000 172.274
50.21000 175.078
50.22000 179.681
50.23000 185.917
50.24000 192.038
50.25000 190.718
50.26000 184.944
50.27000 179.354
50.28000 176.074
50.29000 173.858
50.30000 171.975
50.31000 173.714
50.32000 176.443
50.33000 178.647
50.34000 177.453
50.35000 175.648
50.36000 174.163
50.37000 184.421
50.38000 193.922
50.39000 200.188
50.40000 197.379
50.41000 194.027
50.42000 193.691
50.43000 199.093
50.44000 204.633
50.45000 207.737
50.46000 197.587
50.47000 190.532
50.48000 188.133
50.49000 189.544
50.50000 191.061
50.51000 197.484
50.52000 206.577
50.53000 215.313
50.54000 218.579
50.55000 219.745
50.56000 220.848
50.57000 221.353
50.58000 221.709
50.59000 221.751
50.60000 219.976
50.61000 217.908
50.62000 216.241
50.63000 218.245
50.64000 220.161
50.65000 222.657
50.66000 226.636
50.67000 230.690
50.68000 230.749
50.69000 223.896
50.70000 216.921
50.71000 213.195
50.72000 206.861
50.73000 202.571
50.74000 203.665
50.75000 208.741
50.76000 213.664
50.77000 213.245
50.78000 210.179
50.79000 207.258
50.80000 209.344
50.81000 212.837
50.82000 215.578
50.83000 212.044
50.84000 207.099
50.85000 203.185
50.86000 204.643
50.87000 206.873
50.88000 208.632
50.89000 204.238
50.90000 200.299
50.91000 198.154
50.92000 200.189
50.93000 202.394
50.94000 203.132
50.95000 201.564
50.96000 199.968
50.97000 199.159
50.98000 200.660
50.99000 201.663
51.00000 202.339
51.01000 202.795
51.02000 203.022
51.03000 196.932
51.04000 187.990
51.05000 179.551
51.06000 180.213
51.07000 183.372
51.08000 185.911
51.09000 183.865
51.10000 180.888
51.11000 177.427
51.12000 171.690
51.13000 165.661
51.14000 161.017
51.15000 168.991
51.16000 176.028
51.17000 180.828
51.18000 180.883
51.19000 180.783
51.20000 179.457
51.21000 176.383
51.22000 173.295
51.23000 173.375
51.24000 176.379
51.25000 179.365
51.26000 181.153
51.27000 182.212
51.28000 183.114
51.29000 180.524
51.30000 176.498
51.31000 172.736
51.32000 172.621
51.33000 173.437
51.34000 174.064
51.35000 173.450
51.36000 172.609
51.37000 172.645
51.38000 176.407
51.39000 180.589
51.40000 183.732
51.41000 178.160
51.42000 173.384
51.43000 169.097
51.44000 165.754
51.45000 162.434
51.46000 161.607
51.47000 163.996
51.48000 166.396
51.49000 168.475
51.50000 170.282
51.51000 172.082
51.52000 173.537
51.53000 174.800
51.54000 175.718
51.55000 170.275
51.56000 162.448
51.57000 155.216
51.58000 154.627
51.59000 155.602
51.60000 157.269
51.61000 163.024
51.62000 169.448
51.63000 174.263
51.64000 172.883
51.65000 170.889
51.66000 169.430
51.67000 164.589
51.68000 160.720
51.69000 157.975
51.70000 157.208
51.71000 156.477
51.72000 156.111
51.73000 156.169
51.74000 156.228
51.75000 157.248
51.76000 158.978
51.77000 160.731
51.78000 163.371
51.79000 166.456
51.80000 169.097
51.81000 164.861
51.82000 158.278
51.83000 152.269
51.84000 159.208
51.85000 167.988
51.86000 174.906
51.87000 171.949
51.88000 167.545
51.89000 163.892
51.90000 162.860
51.91000 162.054
51.92000 161.481
51.93000 157.417
51.94000 154.209
51.95000 152.886
51.96000 154.571
51.97000 156.295
51.98000 158.662
51.99000 161.702
52.00000 164.727
52.01000 162.857
52.02000 157.720
52.03000 152.835
52.04000 155.139
52.05000 160.737
52.06000 166.014
52.07000 167.059
52.08000 166.790
52.09000 166.547
52.10000 162.475
52.11000 158.209
52.12000 155.199
52.13000 158.189
52.14000 161.960
52.15000 163.873
52.16000 159.883
52.17000 155.455
52.18000 152.399
52.19000 158.348
52.20000 163.047
52.21000 166.031
52.22000 166.529
52.23000 167.006
52.24000 166.732
52.25000 165.753
52.26000 164.781
52.27000 164.617
52.28000 164.946
52.29000 165.037
52.30000 159.651
52.31000 151.978
52.32000 145.082
52.33000 147.039
52.34000 151.494
52.35000 155.453
52.36000 152.718
52.37000 149.268
52.38000 148.060
52.39000 156.534
52.40000 166.124
52.41000 171.836
52.42000 166.336
52.43000 160.128
52.44000 155.981
52.45000 157.800
52.46000 159.265
52.47000 160.492
52.48000 161.407
52.49000 162.316
52.50000 160.144
52.51000 155.365
52.52000 150.646
52.53000 152.234
52.54000 157.232
52.55000 162.033
52.56000 163.121
52.57000 162.796
52.58000 162.765
52.59000 165.659
52.60000 169.302
52.61000 172.490
52.62000 163.526
52.63000 154.104
52.64000 145.917
52.65000 142.560
52.66000 139.691
52.67000 139.272
52.68000 145.304
52.69000 151.679
52.70000 155.793
52.71000 154.881
52.72000 154.143
52.73000 155.030
52.74000 157.841
52.75000 160.646
52.76000 161.243
52.77000 160.154
52.78000 159.084
52.79000 161.448
52.80000 165.429
52.81000 168.846
52.82000 163.302
52.83000 154.654
52.84000 146.393
52.85000 141.502
52.86000 137.394
52.87000 133.857
52.88000 140.201
52.89000 146.824
52.90000 152.214
52.91000 153.226
52.92000 153.853
52.93000 153.670
52.94000 151.543
52.95000 149.331
52.96000 147.955
52.97000 148.917
52.98000 149.634
52.99000 149.613
53.00000 148.806
53.01000 148.019
53.02000 149.643
53.03000 152.934
53.04000 156.151
53.05000 156.628
53.06000 155.863
53.07000 155.122
53.08000 154.702
53.09000 154.385
53.10000 154.172
53.11000 154.766
53.12000 155.530
53.13000 156.176
53.14000 157.214
53.15000 158.127
53.16000 158.027
53.17000 154.664
53.18000 151.052
53.19000 149.919
53.20000 154.203
53.21000 158.678
53.22000 161.352
53.23000 158.878
53.24000 157.090
53.25000 158.424
53.26000 162.744
53.27000 166.973
53.28000 164.252
53.29000 157.170
53.30000 150.291
53.31000 150.036
53.32000 152.459
53.33000 154.811
53.34000 156.324
53.35000 157.598
53.36000 158.336
53.37000 155.407
53.38000 151.785
53.39000 148.777
53.40000 157.017
53.41000 164.925
53.42000 167.825
53.43000 156.022
53.44000 143.265
53.45000 136.074
53.46000 139.965
53.47000 144.160
53.48000 146.562
53.49000 151.880
53.50000 155.602
53.51000 157.548
53.52000 157.967
53.53000 158.353
53.54000 156.961
53.55000 154.556
53.56000 152.236
53.57000 150.662
53.58000 149.451
53.59000 148.340
53.60000 148.237
53.61000 148.395
53.62000 148.591
53.63000 149.015
53.64000 149.477
53.65000 149.853
53.66000 152.239
53.67000 154.357
53.68000 156.584
53.69000 159.102
53.70000 161.636
53.71000 162.576
53.72000 160.629
53.73000 158.622
53.74000 157.525
53.75000 158.402
53.76000 159.006
53.77000 159.101
53.78000 158.801
53.79000 158.493
53.80000 157.857
53.81000 157.050
53.82000 156.278
53.83000 154.912
53.84000 153.445
53.85000 152.313
53.86000 154.157
53.87000 156.703
53.88000 158.735
53.89000 157.949
53.90000 156.736
53.91000 155.768
53.92000 151.859
53.93000 148.491
53.94000 146.834
53.95000 149.345
53.96000 152.044
53.97000 152.675
53.98000 149.901
53.99000 147.077
54.00000 145.607
54.01000 150.658
54.02000 154.055
54.03000 155.002
54.04000 154.228
54.05000 153.478
54.06000 153.492
54.07000 153.866
54.08000 154.221
54.09000 153.018
54.10000 151.448
54.11000 149.835
54.12000 147.880
54.13000 145.852
54.14000 144.809
54.15000 148.634
54.16000 153.118
54.17000 156.613
54.18000 159.918
54.19000 162.539
54.20000 163.672
54.21000 161.502
54.22000 159.211
54.23000 157.958
54.24000 158.257
54.25000 158.570
54.26000 157.286
54.27000 154.447
54.28000 151.619
54.29000 149.671
54.30000 148.284
54.31000 146.932
54.32000 146.457
54.33000 146.358
54.34000 146.265
54.35000 145.950
54.36000 145.604
54.37000 145.511
54.38000 147.194
54.39000 149.217
54.40000 151.509
54.41000 154.998
54.42000 158.630
54.43000 161.394
54.44000 160.759
54.45000 160.082
54.46000 159.958
54.47000 160.955
54.48000 161.984
54.49000 161.099
54.50000 157.619
54.51000 154.127
54.52000 149.367
54.53000 143.508
54.54000 137.791
54.55000 140.193
54.56000 147.296
54.57000 154.131
54.58000 155.585
54.59000 154.928
54.60000 154.319
54.61000 152.309
54.62000 150.163
54.63000 147.676
54.64000 143.068
54.65000 138.094
54.66000 134.988
54.67000 139.423
54.68000 144.654
54.69000 148.532
54.70000 155.217
54.71000 160.531
54.72000 162.850
54.73000 159.659
54.74000 156.348
54.75000 153.558
54.76000 151.404
54.77000 149.255
54.78000 146.716
54.79000 143.883
54.80000 141.175
54.81000 143.677
54.82000 148.923
54.83000 153.845
54.84000 153.345
54.85000 150.908
54.86000 148.670
54.87000 149.134
54.88000 150.125
54.89000 151.230
54.90000 152.974
54.91000 154.816
54.92000 155.368
54.93000 151.196
54.94000 146.589
54.95000 143.266
54.96000 151.088
54.97000 157.482
54.98000 161.134
54.99000 160.200
55.00000 159.194
55.01000 157.695
55.02000 155.651
55.03000 153.615
55.04000 151.248
55.05000 148.670
55.06000 146.212
55.07000 147.631
55.08000 150.908
55.09000 153.938
55.10000 153.454
55.11000 151.828
55.12000 150.354
55.13000 149.313
55.14000 148.477
55.15000 148.091
55.16000 149.965
55.17000 152.151
55.18000 155.146
55.19000 160.834
55.20000 166.738
55.21000 170.873
55.22000 172.423
55.23000 173.522
55.24000 173.054
55.25000 170.208
55.26000 167.336
55.27000 163.756
55.28000 159.472
55.29000 155.218
55.30000 155.435
55.31000 158.498
55.32000 161.412
55.33000 160.551
55.34000 158.040
55.35000 156.219
55.36000 162.826
55.37000 171.925
55.38000 180.066
55.39000 180.061
55.40000 178.667
55.41000 176.905
55.42000 173.469
55.43000 169.830
55.44000 169.096
55.45000 177.160
55.46000 185.825
55.47000 191.706
55.48000 188.037
55.49000 185.087
55.50000 186.067
55.51000 192.459
55.52000 198.883
55.53000 203.011
55.54000 205.096
55.55000 207.160
55.56000 211.334
55.57000 216.630
55.58000 222.026
55.59000 229.527
55.60000 237.865
55.61000 245.883
55.62000 250.512
55.63000 254.231
55.64000 257.510
55.65000 261.264
55.66000 264.572
55.67000 269.599
55.68000 281.683
55.69000 294.527
55.70000 304.067
55.71000 304.503
55.72000 304.412
55.73000 304.353
55.74000 326.282
55.75000 342.785
55.76000 352.971
55.77000 355.292
55.78000 357.593
55.79000 361.167
55.80000 365.761
55.81000 370.287
55.82000 381.328
55.83000 395.423
55.84000 409.094
55.85000 415.428
55.86000 419.103
55.87000 422.616
55.88000 424.629
55.89000 426.275
55.90000 427.705
55.91000 422.227
55.92000 416.633
55.93000 414.001
55.94000 422.389
55.95000 431.815
55.96000 435.424
55.97000 424.427
55.98000 412.729
55.99000 405.320
56.00000 410.056
56.01000 413.636
56.02000 415.565
56.03000 415.638
56.04000 415.658
56.05000 407.242
56.06000 392.707
56.07000 378.459
56.08000 370.287
56.09000 365.270
56.10000 360.044
56.11000 351.793
56.12000 342.544
56.13000 333.713
56.14000 328.304
56.15000 323.649
56.16000 319.676
56.17000 309.348
56.18000 299.900
56.19000 291.230
56.20000 285.188
56.21000 279.361
56.22000 273.530
56.23000 267.689
56.24000 261.848
56.25000 258.288
56.26000 253.537
56.27000 250.132
56.28000 243.830
56.29000 234.606
56.30000 225.442
56.31000 221.932
56.32000 222.139
56.33000 222.341
56.34000 219.060
56.35000 214.457
56.36000 209.784
56.37000 204.228
56.38000 198.408
56.39000 193.629
56.40000 196.391
56.41000 200.654
56.42000 204.227
56.43000 194.321
56.44000 184.682
56.45000 178.712
56.46000 184.016
56.47000 190.111
56.48000 192.536
56.49000 187.316
56.50000 181.858
56.51000 178.666
56.52000 173.434
56.53000 169.743
56.54000 166.427
56.55000 163.453
56.56000 160.541
56.57000 161.610
56.58000 165.056
56.59000 168.390
56.60000 170.260
56.61000 171.467
56.62000 172.245
56.63000 168.376
56.64000 163.240
56.65000 158.881
56.66000 159.540
56.67000 161.098
56.68000 162.380
56.69000 156.507
56.70000 151.035
56.71000 147.172
56.72000 147.815
56.73000 148.726
56.74000 149.202
56.75000 148.855
56.76000 148.488
56.77000 148.283
56.78000 149.985
56.79000 151.170
56.80000 152.647
56.81000 154.365
56.82000 156.058
56.83000 156.662
56.84000 156.674
56.85000 156.686
56.86000 154.017
56.87000 150.596
56.88000 147.140
56.89000 143.357
56.90000 139.494
56.91000 136.715
56.92000 140.203
56.93000 144.696
56.94000 148.316
56.95000 149.492
56.96000 150.255
56.97000 150.597
56.98000 149.865
56.99000 149.081
57.00000 147.209
57.01000 143.461
57.02000 139.681
57.03000 137.664
57.04000 136.014
57.05000 134.885
57.06000 132.923
57.07000 130.346
57.08000 127.873
57.09000 128.985
57.10000 131.868
57.11000 134.614
57.12000 136.269
57.13000 137.463
57.14000 138.952
57.15000 142.890
57.16000 147.377
57.17000 150.989
57.18000 150.051
57.19000 148.462
57.20000 147.209
57.21000 144.863
57.22000 142.910
57.23000 142.595
57.24000 146.085
57.25000 149.729
57.26000 150.743
57.27000 147.631
57.28000 144.470
57.29000 142.869
57.30000 137.521
57.31000 133.983
57.32000 134.801
57.33000 138.529
57.34000 142.183
57.35000 143.846
57.36000 144.613
57.37000 145.337
57.38000 145.513
57.39000 145.522
57.40000 145.225
57.41000 142.670
57.42000 139.660
57.43000 136.802
57.44000 134.656
57.45000 132.601
57.46000 131.019
57.47000 137.181
57.48000 142.501
57.49000 145.065
57.50000 141.802
57.51000 138.351
57.52000 137.451
57.53000 140.178
57.54000 142.932
57.55000 143.870
57.56000 143.136
57.57000 142.381
57.58000 140.183
57.59000 137.110
57.60000 134.080
57.61000 132.000
57.62000 130.310
57.63000 128.731
57.64000 132.705
57.65000 137.704
57.66000 141.866
57.67000 140.527
57.68000 138.186
57.69000 136.816
57.70000 139.558
57.71000 142.761
57.72000 145.167
57.73000 140.253
57.74000 136.063
57.75000 132.580
57.76000 130.455
57.77000 128.365
57.78000 127.036
57.79000 126.686
57.80000 126.341
57.81000 127.209
57.82000 129.078
57.83000 130.949
57.84000 132.892
57.85000 134.876
57.86000 136.806
57.87000 137.764
57.88000 138.359
57.89000 138.908
57.90000 139.663
57.91000 140.387
57.92000 141.157
57.93000 142.196
57.94000 143.280
57.95000 143.467
57.96000 140.212
57.97000 136.619
57.98000 133.991
57.99000 143.874
58.00000 151.991
58.01000 153.959
58.02000 145.149
58.03000 136.141
58.04000 132.849
58.05000 136.196
58.06000 139.542
58.07000 139.387
58.08000 136.628
58.09000 133.968
58.10000 134.846
58.11000 137.499
58.12000 139.877
58.13000 138.005
58.14000 134.688
58.15000 131.660
58.16000 132.267
58.17000 133.538
58.18000 134.600
58.19000 134.559
58.20000 134.357
58.21000 134.328
58.22000 134.903
58.23000 135.529
58.24000 135.974
58.25000 135.527
58.26000 135.159
58.27000 135.048
58.28000 135.347
58.29000 135.651
58.30000 136.156
58.31000 136.872
58.32000 137.583
58.33000 137.484
58.34000 136.842
58.35000 136.294
58.36000 138.406
58.37000 141.735
58.38000 144.514
58.39000 140.077
58.40000 133.406
58.41000 127.398
58.42000 130.052
58.43000 133.942
58.44000 137.519
58.45000 139.604
58.46000 141.495
58.47000 142.344
58.48000 139.887
58.49000 137.186
58.50000 135.323
58.51000 137.607
58.52000 139.426
58.53000 138.737
58.54000 134.423
58.55000 130.081
58.56000 129.291
58.57000 131.829
58.58000 134.345
58.59000 140.514
58.60000 148.776
58.61000 156.581
58.62000 153.947
58.63000 146.966
58.64000 140.453
58.65000 139.244
58.66000 139.528
58.67000 139.780
58.68000 140.632
58.69000 141.468
58.70000 142.163
58.71000 142.258
58.72000 142.283
58.73000 142.882
58.74000 145.132
58.75000 147.487
58.76000 149.058
58.77000 144.143
58.78000 140.376
58.79000 137.066
58.80000 134.351
58.81000 131.644
58.82000 132.232
58.83000 135.598
58.84000 138.921
58.85000 139.607
58.86000 138.837
58.87000 137.961
58.88000 135.087
58.89000 131.455
58.90000 128.334
58.91000 130.259
58.92000 133.471
58.93000 136.282
58.94000 133.624
58.95000 130.568
58.96000 128.557
58.97000 130.621
58.98000 133.095
58.99000 135.267
59.00000 136.645
59.01000 137.980
59.02000 138.842
59.03000 141.161
59.04000 142.876
59.05000 142.379
59.06000 139.271
59.07000 136.172
59.08000 136.268
59.09000 138.796
59.10000 141.281
59.11000 137.584
59.12000 130.967
59.13000 124.800
59.14000 125.737
59.15000 129.128
59.16000 132.255
59.17000 133.092
59.18000 133.399
59.19000 133.663
59.20000 135.445
59.21000 137.144
59.22000 138.637
59.23000 139.397
59.24000 140.094
59.25000 139.555
59.26000 136.062
59.27000 132.441
59.28000 130.192
59.29000 130.924
59.30000 131.480
59.31000 132.632
59.32000 134.419
59.33000 136.193
59.34000 136.489
59.35000 135.765
59.36000 135.057
59.37000 133.407
59.38000 131.407
59.39000 129.564
59.40000 129.819
59.41000 130.735
59.42000 131.756
59.43000 133.583
59.44000 135.578
59.45000 137.266
59.46000 129.665
59.47000 122.277
59.48000 117.932
59.49000 123.377
59.50000 129.563
59.51000 134.735
59.52000 137.699
59.53000 140.587
59.54000 142.310
59.55000 136.012
59.56000 131.496
59.57000 130.092
59.58000 131.654
59.59000 133.177
59.60000 131.770
59.61000 128.529
59.62000 125.381
59.63000 128.351
59.64000 133.625
59.65000 138.172
59.66000 134.286
59.67000 127.990
59.68000 123.088
59.69000 127.690
59.70000 134.083
59.71000 139.390
59.72000 139.196
59.73000 138.503
59.74000 137.975
59.75000 137.930
59.76000 137.916
59.77000 136.976
59.78000 134.197
59.79000 131.368
59.80000 129.750
59.81000 129.092
59.82000 128.638
59.83000 130.207
59.84000 133.512
59.85000 136.744
59.86000 136.136
59.87000 133.346
59.88000 130.655
59.89000 132.691
59.90000 136.315
59.91000 139.626
59.92000 139.764
59.93000 139.078
59.94000 138.659
59.95000 139.858
59.96000 141.331
59.97000 142.530
59.98000 136.525
59.99000 131.015
60.00000 127.423
60.01000 128.945
60.02000 130.744
60.03000 132.374
60.04000 133.697
60.05000 135.015
60.06000 135.734
60.07000 135.350
60.08000 135.079
60.09000 133.195
60.10000 130.065
60.11000 127.021
60.12000 127.411
60.13000 129.576
60.14000 131.646
60.15000 131.394
60.16000 130.402
60.17000 129.506
60.18000 129.462
60.19000 129.618
60.20000 130.423
60.21000 134.772
60.22000 139.658
60.23000 143.551
60.24000 137.624
60.25000 132.132
60.26000 128.850
60.27000 130.934
60.28000 133.258
60.29000 134.198
60.30000 132.861
60.31000 131.492
60.32000 130.781
60.33000 130.259
60.34000 129.924
60.35000 131.895
60.36000 135.482
60.37000 138.966
60.38000 139.330
60.39000 138.223
60.40000 137.175
60.41000 138.348
60.42000 140.083
60.43000 141.036
60.44000 135.879
60.45000 129.422
60.46000 124.465
60.47000 126.893
60.48000 130.317
60.49000 132.984
60.50000 132.135
60.51000 131.241
60.52000 130.178
60.53000 128.736
60.54000 127.281
60.55000 127.047
60.56000 128.633
60.57000 130.237
60.58000 131.211
60.59000 131.573
60.60000 131.947
60.61000 133.334
60.62000 135.365
60.63000 137.186
60.64000 133.902
60.65000 128.426
60.66000 123.287
60.67000 124.911
60.68000 128.182
60.69000 131.328
60.70000 133.610
60.71000 135.726
60.72000 137.182
60.73000 135.699
60.74000 133.866
60.75000 132.473
60.76000 133.339
60.77000 134.138
60.78000 134.672
60.79000 134.674
60.80000 134.661
60.81000 132.781
60.82000 128.380
60.83000 123.967
60.84000 123.040
60.85000 125.149
60.86000 127.243
60.87000 128.555
60.88000 129.416
60.89000 130.194
60.90000 129.337
60.91000 127.839
60.92000 126.449
60.93000 127.515
60.94000 129.060
60.95000 130.874
60.96000 134.357
60.97000 138.129
60.98000 141.472
60.99000 143.091
61.00000 144.529
61.01000 145.594
61.02000 136.839
61.03000 129.616
61.04000 126.294
61.05000 130.125
61.06000 134.111
61.07000 135.845
61.08000 134.827
61.09000 133.805
61.10000 131.055
61.11000 126.965
61.12000 123.024
61.13000 125.228
61.14000 130.660
61.15000 135.824
61.16000 136.520
61.17000 135.626
61.18000 134.805
61.19000 135.964
61.20000 137.419
61.21000 138.778
61.22000 139.609
61.23000 140.358
61.24000 139.781
61.25000 134.368
61.26000 128.509
61.27000 124.288
61.28000 126.702
61.29000 128.787
61.30000 130.875
61.31000 132.968
61.32000 135.062
61.33000 136.495
61.34000 137.201
61.35000 137.904
61.36000 137.050
61.37000 135.106
61.38000 133.324
61.39000 136.697
61.40000 142.533
61.41000 147.745
61.42000 144.104
61.43000 137.594
61.44000 131.693
61.45000 136.024
61.46000 141.793
61.47000 147.346
61.48000 151.812
61.49000 156.129
61.50000 160.434
61.51000 164.698
61.52000 168.960
61.53000 171.942
61.54000 183.864
61.55000 193.130
61.56000 201.077
61.57000 207.023
61.58000 212.948
61.59000 225.251
61.60000 243.850
61.61000 262.320
61.62000 268.199
61.63000 265.987
61.64000 263.891
61.65000 264.734
61.66000 266.856
61.67000 268.768
61.68000 268.121
61.69000 266.718
61.70000 265.464
61.71000 266.611
61.72000 268.019
61.73000 269.313
61.74000 270.091
61.75000 270.807
61.76000 268.451
61.77000 256.827
61.78000 244.571
61.79000 236.261
61.80000 222.621
61.81000 212.332
61.82000 201.907
61.83000 191.296
61.84000 180.687
61.85000 172.189
61.86000 165.566
61.87000 159.011
61.88000 155.559
61.89000 153.961
61.90000 152.097
61.91000 144.755
61.92000 135.238
61.93000 126.761
61.94000 129.241
61.95000 134.656
61.96000 139.427
61.97000 141.219
61.98000 142.314
61.99000 142.833
62.00000 140.998
62.01000 138.910
62.02000 136.846
62.03000 134.846
62.04000 132.849
62.05000 131.540
62.06000 138.088
62.07000 143.034
62.08000 145.814
62.09000 145.904
62.10000 145.975
62.11000 142.071
62.12000 134.989
62.13000 128.012
62.14000 127.407
62.15000 130.117
62.16000 132.671
62.17000 132.552
62.18000 131.468
62.19000 130.921
62.20000 135.333
62.21000 140.948
62.22000 145.820
62.23000 142.833
62.24000 139.237
62.25000 136.135
62.26000 134.863
62.27000 133.764
62.28000 133.149
62.29000 133.747
62.30000 134.402
62.31000 134.817
62.32000 134.356
62.33000 134.011
62.34000 136.108
62.35000 140.936
62.36000 145.737
62.37000 145.952
62.38000 142.850
62.39000 139.810
62.40000 139.011
62.41000 139.288
62.42000 139.505
62.43000 138.842
62.44000 137.890
62.45000 137.228
62.46000 138.919
62.47000 141.127
62.48000 143.011
62.49000 138.322
62.50000 133.600
62.51000 131.735
62.52000 139.494
62.53000 148.038
62.54000 152.770
62.55000 148.810
62.56000 144.512
62.57000 141.895
62.58000 142.120
62.59000 142.303
62.60000 142.670
62.61000 143.223
62.62000 143.774
62.63000 144.193
62.64000 144.527
62.65000 144.852
62.66000 143.209
62.67000 140.812
62.68000 138.714
62.69000 140.343
62.70000 143.087
62.71000 145.389
62.72000 144.495
62.73000 142.968
62.74000 141.689
62.75000 142.560
62.76000 143.507
62.77000 144.055
62.78000 143.381
62.79000 142.621
62.80000 142.891
62.81000 145.301
62.82000 147.776
62.83000 149.222
62.84000 138.841
62.85000 131.486
62.86000 128.736
62.87000 130.142
62.88000 131.585
62.89000 135.368
62.90000 140.545
62.91000 145.554
62.92000 143.565
62.93000 139.023
62.94000 135.350
62.95000 141.059
62.96000 149.319
62.97000 155.953
62.98000 152.120
62.99000 146.420
63.00000 141.736
63.01000 146.828
63.02000 151.892
63.03000 155.150
63.04000 153.368
63.05000 151.288
63.06000 147.874
63.07000 141.939
63.08000 135.943
63.09000 132.593
63.10000 142.539
63.11000 149.443
63.12000 151.369
63.13000 149.248
63.14000 147.185
63.15000 147.718
63.16000 149.657
63.17000 151.519
63.18000 150.928
63.19000 149.533
63.20000 148.180
63.21000 147.221
63.22000 146.359
63.23000 146.263
63.24000 150.581
63.25000 155.606
63.26000 159.651
63.27000 155.966
63.28000 152.373
63.29000 149.710
63.30000 149.408
63.31000 149.223
63.32000 149.248
63.33000 149.636
63.34000 150.030
63.35000 150.240
63.36000 149.250
63.37000 148.584
63.38000 149.630
63.39000 151.934
63.40000 154.164
63.41000 153.855
63.42000 152.294
63.43000 150.808
63.44000 148.170
63.45000 145.371
63.46000 143.356
63.47000 147.855
63.48000 153.807
63.49000 158.283
63.50000 155.113
63.51000 150.852
63.52000 147.496
63.53000 151.382
63.54000 154.980
63.55000 156.736
63.56000 154.227
63.57000 151.546
63.58000 147.679
63.59000 141.956
63.60000 136.212
63.61000 133.307
63.62000 137.940
63.63000 141.007
63.64000 140.683
63.65000 138.100
63.66000 135.680
63.67000 137.706
63.68000 141.728
63.69000 145.522
63.70000 145.748
63.71000 144.960
63.72000 144.505
63.73000 146.493
63.74000 148.974
63.75000 151.302
63.76000 152.920
63.77000 154.448
63.78000 155.623
63.79000 153.004
63.80000 150.716
63.81000 149.364
63.82000 149.985
63.83000 150.670
63.84000 150.961
63.85000 150.693
63.86000 150.421
63.87000 151.867
63.88000 154.888
63.89000 157.839
63.90000 156.141
63.91000 151.632
63.92000 147.417
63.93000 149.674
63.94000 154.578
63.95000 159.157
63.96000 158.169
63.97000 155.878
63.98000 154.274
63.99000 157.160
64.00000 160.860
64.01000 163.143
64.02000 159.437
64.03000 155.061
64.04000 151.778
64.05000 147.508
64.06000 144.126
64.07000 144.523
64.08000 152.179
64.09000 160.014
64.10000 162.653
64.11000 158.627
64.12000 154.582
64.13000 155.792
64.14000 161.329
64.15000 166.772
64.16000 167.762
64.17000 166.303
64.18000 164.823
64.19000 162.970
64.20000 160.979
64.21000 159.140
64.22000 162.328
64.23000 166.316
64.24000 169.617
64.25000 168.890
64.26000 167.507
64.27000 165.736
64.28000 162.478
64.29000 159.074
64.30000 156.587
64.31000 162.617
64.32000 167.600
64.33000 169.678
64.34000 166.683
64.35000 163.595
64.36000 161.597
64.37000 160.861
64.38000 160.128
64.39000 159.198
64.40000 158.127
64.41000 157.114
64.42000 158.150
64.43000 160.212
64.44000 162.313
64.45000 165.005
64.46000 167.897
64.47000 170.536
64.48000 167.688
64.49000 164.059
64.50000 160.723
64.51000 158.935
64.52000 157.372
64.53000 157.021
64.54000 160.882
64.55000 165.103
64.56000 168.100
64.57000 165.547
64.58000 163.427
64.59000 163.753
64.60000 167.962
64.61000 172.219
64.62000 171.124
64.63000 164.457
64.64000 157.826
64.65000 161.132
64.66000 171.035
64.67000 180.615
64.68000 181.074
64.69000 177.377
64.70000 173.921
64.71000 173.619
64.72000 174.290
64.73000 174.895
64.74000 175.873
64.75000 176.799
64.76000 177.487
64.77000 177.050
64.78000 176.466
64.79000 176.021
64.80000 176.010
64.81000 176.031
64.82000 176.045
64.83000 172.529
64.84000 169.800
64.85000 171.475
64.86000 179.493
64.87000 187.559
64.88000 189.146
64.89000 184.682
64.90000 180.257
64.91000 181.873
64.92000 187.098
64.93000 192.150
64.94000 193.279
64.95000 192.780
64.96000 192.493
64.97000 194.603
64.98000 197.386
64.99000 199.857
65.00000 201.312
65.01000 202.411
65.02000 202.710
65.03000 199.578
65.04000 196.053
65.05000 193.486
65.06000 193.673
65.07000 194.032
65.08000 194.272
65.09000 195.033
65.10000 195.607
65.11000 199.068
65.12000 206.291
65.13000 213.525
65.14000 217.474
65.15000 218.662
65.16000 219.836
65.17000 222.849
65.18000 226.784
65.19000 230.754
65.20000 235.362
65.21000 240.213
65.22000 244.611
65.23000 244.565
65.24000 243.387
65.25000 242.358
65.26000 240.275
65.27000 238.342
65.28000 237.726
65.29000 242.229
65.30000 247.246
65.31000 252.464
65.32000 258.208
65.33000 263.979
65.34000 267.695
65.35000 264.602
65.36000 262.248
65.37000 261.062
65.38000 261.250
65.39000 261.446
65.40000 262.904
65.41000 265.320
65.42000 267.694
65.43000 275.539
65.44000 285.805
65.45000 295.567
65.46000 297.394
65.47000 296.488
65.48000 296.120
65.49000 300.393
65.50000 305.737
65.51000 310.333
65.52000 313.027
65.53000 315.069
65.54000 316.500
65.55000 315.771
65.56000 314.855
65.57000 316.433
65.58000 323.966
65.59000 331.756
65.60000 336.589
65.61000 352.338
65.62000 363.775
65.63000 370.855
65.64000 373.320
65.65000 375.924
65.66000 395.253
65.67000 426.078
65.68000 456.199
65.69000 485.373
65.70000 512.898
65.71000 541.324
65.72000 581.811
65.73000 626.080
65.74000 673.572
65.75000 745.698
65.76000 822.958
65.77000 888.265
65.78000 952.219
65.79000 1005.565
65.80000 1050.790
65.81000 1069.964
65.82000 1087.175
65.83000 1102.552
65.84000 1113.941
65.85000 1125.192
65.86000 1131.900
65.87000 1138.188
65.88000 1142.643
65.89000 1147.774
65.90000 1153.548
65.91000 1158.939
65.92000 1135.393
65.93000 1093.799
65.94000 1053.415
65.95000 995.134
65.96000 932.661
65.97000 869.829
65.98000 802.863
65.99000 734.719
66.00000 667.793
66.01000 609.142
66.02000 552.046
66.03000 504.676
66.04000 463.520
66.05000 430.107
66.06000 401.838
66.07000 388.581
66.08000 376.289
66.09000 365.247
66.10000 356.679
66.11000 348.179
66.12000 343.324
66.13000 327.340
66.14000 316.157
66.15000 310.802
66.16000 310.430
66.17000 310.092
66.18000 311.553
66.19000 314.034
66.20000 316.424
66.21000 322.716
66.22000 330.037
66.23000 337.311
66.24000 344.106
66.25000 350.776
66.26000 357.046
66.27000 360.880
66.28000 364.303
66.29000 367.087
66.30000 382.667
66.31000 396.456
66.32000 409.922
66.33000 422.527
66.34000 435.086
66.35000 445.206
66.36000 450.931
66.37000 456.567
66.38000 459.641
66.39000 465.222
66.40000 469.063
66.41000 474.167
66.42000 480.245
66.43000 485.983
66.44000 478.403
66.45000 463.953
66.46000 450.137
66.47000 450.048
66.48000 454.432
66.49000 456.699
66.50000 440.288
66.51000 419.499
66.52000 401.500
66.53000 398.707
66.54000 398.209
66.55000 397.812
66.56000 376.206
66.57000 357.258
66.58000 342.899
66.59000 339.656
66.60000 336.908
66.61000 335.312
66.62000 335.602
66.63000 335.919
66.64000 336.083
66.65000 331.801
66.66000 328.889
66.67000 323.370
66.68000 316.031
66.69000 308.951
66.70000 309.721
66.71000 314.178
66.72000 318.402
66.73000 323.921
66.74000 329.385
66.75000 333.920
66.76000 331.232
66.77000 327.012
66.78000 323.836
66.79000 325.781
66.80000 328.414
66.81000 330.463
66.82000 332.823
66.83000 334.721
66.84000 337.703
66.85000 343.078
66.86000 348.540
66.87000 352.712
66.88000 354.967
66.89000 357.203
66.90000 354.527
66.91000 347.100
66.92000 339.738
66.93000 337.575
66.94000 338.707
66.95000 339.894
66.96000 342.428
66.97000 345.538
66.98000 348.457
66.99000 350.883
67.00000 352.965
67.01000 355.407
67.02000 360.347
67.03000 365.765
67.04000 370.406
67.05000 371.604
67.06000 372.393
67.07000 372.992
67.08000 364.849
67.09000 357.994
67.10000 357.479
67.11000 369.707
67.12000 382.295
67.13000 387.923
67.14000 384.177
67.15000 380.383
67.16000 379.390
67.17000 380.829
67.18000 382.256
67.19000 383.014
67.20000 383.387
67.21000 383.801
67.22000 385.004
67.23000 386.516
67.24000 387.919
67.25000 388.949
67.26000 389.789
67.27000 390.747
67.28000 392.432
67.29000 394.241
67.30000 395.329
67.31000 393.527
67.32000 391.421
67.33000 389.862
67.34000 391.661
67.35000 393.202
67.36000 396.498
67.37000 403.005
67.38000 409.580
67.39000 413.207
67.40000 413.244
67.41000 413.273
67.42000 415.213
67.43000 418.634
67.44000 422.001
67.45000 423.176
67.46000 423.202
67.47000 423.251
67.48000 423.668
67.49000 424.217
67.50000 424.720
67.51000 426.253
67.52000 427.837
67.53000 430.264
67.54000 437.365
67.55000 445.183
67.56000 452.020
67.57000 455.281
67.58000 458.215
67.59000 460.327
67.60000 464.031
67.61000 466.923
67.62000 468.098
67.63000 466.417
67.64000 464.693
67.65000 461.384
67.66000 456.338
67.67000 451.312
67.68000 459.963
67.69000 478.138
67.70000 495.869
67.71000 499.584
67.72000 496.617
67.73000 493.224
67.74000 483.831
67.75000 472.499
67.76000 462.230
67.77000 471.193
67.78000 482.748
67.79000 493.887
67.80000 502.951
67.81000 511.731
67.82000 517.245
67.83000 511.956
67.84000 505.813
67.85000 501.517
67.86000 513.403
67.87000 522.841
67.88000 528.597
67.89000 528.795
67.90000 528.936
67.91000 532.736
67.92000 540.135
67.93000 547.483
67.94000 551.608
67.95000 553.626
67.96000 555.460
67.97000 552.657
67.98000 547.840
67.99000 543.545
68.00000 545.580
68.01000 549.476
68.02000 552.958
68.03000 556.510
68.04000 559.619
68.05000 563.351
68.06000 569.896
68.07000 576.782
68.08000 581.596
68.09000 580.172
68.10000 578.327
68.11000 577.076
68.12000 586.050
68.13000 592.963
68.14000 598.602
68.15000 602.497
68.16000 606.376
68.17000 604.115
68.18000 596.426
68.19000 588.817
68.20000 593.203
68.21000 604.343
68.22000 615.358
68.23000 623.815
68.24000 631.261
68.25000 638.164
68.26000 639.375
68.27000 639.066
68.28000 638.794
68.29000 640.783
68.30000 642.836
68.31000 645.472
68.32000 650.483
68.33000 655.748
68.34000 663.867
68.35000 679.807
68.36000 696.195
68.37000 706.930
68.38000 707.199
68.39000 707.224
68.40000 712.986
68.41000 725.847
68.42000 738.713
68.43000 746.535
68.44000 750.335
68.45000 754.079
68.46000 768.417
68.47000 787.790
68.48000 806.300
68.49000 810.076
68.50000 808.540
68.51000 808.443
68.52000 821.571
68.53000 837.901
68.54000 852.062
68.55000 879.061
68.56000 903.761
68.57000 931.323
68.58000 969.469
68.59000 1008.606
68.60000 1045.819
68.61000 1078.231
68.62000 1110.416
68.63000 1130.753
68.64000 1177.355
68.65000 1211.433
68.66000 1265.997
68.67000 1343.410
68.68000 1420.692
68.69000 1474.940
68.70000 1512.580
68.71000 1549.463
68.72000 1608.554
68.73000 1675.736
68.74000 1742.630
68.75000 1805.341
68.76000 1866.679
68.77000 1928.272
68.78000 1991.921
68.79000 2056.021
68.80000 2110.673
68.81000 2190.818
68.82000 2261.243
68.83000 2344.958
68.84000 2473.320
68.85000 2605.301
68.86000 2756.858
68.87000 2952.936
68.88000 3150.736
68.89000 3270.997
68.90000 3961.581
68.91000 4459.102
68.92000 5404.211
68.93000 6797.624
68.94000 8202.631
68.95000 10684.130
68.96000 13869.255
68.97000 16971.650
68.98000 21362.920
68.99000 26091.371
69.00000 30824.729
69.01000 35618.895
69.02000 40431.211
69.03000 45070.973
69.04000 48470.418
69.05000 51624.746
69.06000 54265.941
69.07000 55834.598
69.08000 57028.148
69.09000 57985.922
69.10000 58223.246
69.11000 58410.508
69.12000 58721.059
69.13000 59287.012
69.14000 59860.789
69.15000 60195.496
69.16000 61272.766
69.17000 62033.227
69.18000 62127.711
69.19000 61623.242
69.20000 61095.117
69.21000 59092.695
69.22000 56215.125
69.23000 53431.371
69.24000 50185.988
69.25000 46945.672
69.26000 43755.125
69.27000 41098.895
69.28000 38587.559
69.29000 36181.176
69.30000 34447.523
69.31000 32833.477
69.32000 31507.859
69.33000 30638.184
69.34000 29964.902
69.35000 29271.002
69.36000 28519.746
69.37000 27765.117
69.38000 26699.275
69.39000 25046.477
69.40000 23379.895
69.41000 22450.086
69.42000 18808.189
69.43000 16282.228
69.44000 13955.695
69.45000 11790.813
69.46000 9636.898
69.47000 7976.948
69.48000 6583.654
69.49000 5246.068
69.50000 4340.826
69.51000 3642.184
69.52000 2976.677
69.53000 2622.163
69.54000 2344.134
69.55000 2085.002
69.56000 1934.367
69.57000 1801.024
69.58000 1693.746
69.59000 1598.516
69.60000 1522.208
69.61000 1452.774
69.62000 1400.758
69.63000 1349.595
69.64000 1302.727
69.65000 1263.227
69.66000 1223.853
69.67000 1202.916
69.68000 1165.273
69.69000 1139.609
69.70000 1108.763
69.71000 1074.119
69.72000 1039.492
69.73000 1005.462
69.74000 971.726
69.75000 939.614
69.76000 925.949
69.77000 918.989
69.78000 910.718
69.79000 891.614
69.80000 870.097
69.81000 849.255
69.82000 831.893
69.83000 815.026
69.84000 801.752
69.85000 799.159
69.86000 797.792
69.87000 793.427
69.88000 782.143
69.89000 770.582
69.90000 758.253
69.91000 744.725
69.92000 731.183
69.93000 724.347
69.94000 706.136
69.95000 694.061
69.96000 692.509
69.97000 697.944
69.98000 702.988
69.99000 697.481
70.00000 687.252
