20.00000 536.091
20.01000 543.284
20.02000 551.505
20.03000 557.285
20.04000 553.527
20.05000 548.807
20.06000 545.338
20.07000 545.726
20.08000 546.184
20.09000 548.906
20.10000 555.663
20.11000 562.499
20.12000 564.249
20.13000 559.982
20.14000 555.714
20.15000 547.708
20.16000 536.917
20.17000 526.540
20.18000 531.863
20.19000 545.199
20.20000 557.722
20.21000 557.337
20.22000 552.483
20.23000 548.044
20.24000 552.718
20.25000 558.752
20.26000 562.412
20.27000 553.293
20.28000 542.270
20.29000 535.364
20.30000 543.062
20.31000 552.044
20.32000 558.462
20.33000 561.815
20.34000 564.273
20.35000 562.022
20.36000 552.143
20.37000 542.158
20.38000 541.467
20.39000 550.674
20.40000 559.838
20.41000 561.462
20.42000 557.916
20.43000 554.424
20.44000 552.514
20.45000 551.339
20.46000 550.704
20.47000 557.370
20.48000 566.335
20.49000 574.430
20.50000 563.623
20.51000 550.644
20.52000 538.924
20.53000 533.307
20.54000 528.500
20.55000 525.051
20.56000 525.983
20.57000 527.248
20.58000 528.125
20.59000 539.846
20.60000 548.958
20.61000 555.036
20.62000 556.653
20.63000 558.230
20.64000 552.630
20.65000 540.173
20.66000 527.815
20.67000 530.137
20.68000 541.460
20.69000 552.522
20.70000 557.419
20.71000 559.703
20.72000 561.478
20.73000 557.315
20.74000 551.451
20.75000 546.230
20.76000 543.406
20.77000 541.345
20.78000 539.310
20.79000 537.391
20.80000 535.485
20.81000 534.481
20.82000 536.126
20.83000 537.942
20.84000 539.162
20.85000 538.969
20.86000 538.797
20.87000 540.975
20.88000 546.284
20.89000 551.594
20.90000 546.336
20.91000 531.996
20.92000 517.825
20.93000 520.829
20.94000 533.303
20.95000 545.144
20.96000 544.650
20.97000 539.397
20.98000 534.936
20.99000 538.489
21.00000 544.126
21.01000 549.070
21.02000 543.051
21.03000 536.284
21.04000 530.676
21.05000 529.666
21.06000 529.130
21.07000 528.311
21.08000 526.734
21.09000 525.117
21.10000 524.067
21.11000 527.871
21.12000 530.729
21.13000 531.720
21.14000 530.464
21.15000 529.216
21.16000 531.128
21.17000 535.491
21.18000 539.782
21.19000 542.932
21.20000 545.407
21.21000 547.723
21.22000 547.426
21.23000 546.211
21.24000 544.618
21.25000 539.674
21.26000 533.940
21.27000 528.991
21.28000 526.955
21.29000 525.601
21.30000 525.763
21.31000 531.381
21.32000 537.490
21.33000 541.882
21.34000 542.097
21.35000 542.123
21.36000 542.139
21.37000 550.731
21.38000 557.022
21.39000 557.167
21.40000 550.652
21.41000 544.139
21.42000 538.415
21.43000 533.245
21.44000 528.186
21.45000 525.038
21.46000 522.881
21.47000 520.749
21.48000 518.958
21.49000 517.276
21.50000 516.184
21.51000 519.712
21.52000 524.224
21.53000 528.053
21.54000 533.256
21.55000 537.775
21.56000 541.397
21.57000 542.084
21.58000 542.543
21.59000 541.159
21.60000 535.692
21.61000 530.075
21.62000 526.698
21.63000 538.774
21.64000 547.467
21.65000 550.850
21.66000 549.071
21.67000 547.324
21.68000 548.284
21.69000 550.967
21.70000 553.576
21.71000 553.343
21.72000 551.961
21.73000 550.704
21.74000 550.946
21.75000 551.625
21.76000 552.159
21.77000 551.689
21.78000 551.024
21.79000 550.471
21.80000 545.891
21.81000 541.696
21.82000 539.772
21.83000 544.609
21.84000 549.896
21.85000 558.671
21.86000 574.491
21.87000 590.512
21.88000 599.748
21.89000 590.451
21.90000 583.873
21.91000 580.597
21.92000 580.207
21.93000 579.730
21.94000 574.326
21.95000 566.071
21.96000 558.101
21.97000 568.064
21.98000 584.065
21.99000 598.741
22.00000 599.706
22.01000 597.051
22.02000 594.011
22.03000 588.580
22.04000 582.737
22.05000 577.964
22.06000 588.991
22.07000 599.380
22.08000 607.980
22.09000 611.728
22.10000 615.204
22.11000 617.313
22.12000 616.906
22.13000 616.446
22.14000 616.192
22.15000 610.903
22.16000 607.263
22.17000 607.235
22.18000 610.055
22.19000 612.883
22.20000 616.070
22.21000 619.447
22.22000 622.682
22.23000 613.752
22.24000 601.375
22.25000 590.942
22.26000 598.119
22.27000 609.512
22.28000 616.597
22.29000 599.663
22.30000 579.017
22.31000 562.504
22.32000 575.945
22.33000 589.041
22.34000 599.729
22.35000 604.467
22.36000 608.928
22.37000 607.629
22.38000 596.701
22.39000 585.622
22.40000 579.812
22.41000 584.879
22.42000 588.283
22.43000 586.731
22.44000 581.646
22.45000 576.758
22.46000 578.189
22.47000 582.647
22.48000 586.880
22.49000 581.861
22.50000 574.453
22.51000 567.093
22.52000 560.112
22.53000 553.212
22.54000 547.856
22.55000 550.244
22.56000 553.699
22.57000 556.401
22.58000 550.910
22.59000 546.005
22.60000 544.094
22.61000 548.922
22.62000 554.004
22.63000 553.513
22.64000 544.563
22.65000 535.526
22.66000 527.774
22.67000 521.294
22.68000 514.927
22.69000 518.484
22.70000 528.459
22.71000 538.153
22.72000 540.690
22.73000 540.103
22.74000 539.551
22.75000 538.031
22.76000 536.380
22.77000 534.074
22.78000 527.107
22.79000 519.231
22.80000 512.876
22.81000 513.412
22.82000 514.791
22.83000 515.844
22.84000 508.494
22.85000 502.249
22.86000 499.468
22.87000 503.789
22.88000 508.321
22.89000 511.577
22.90000 513.078
22.91000 514.567
22.92000 515.755
22.93000 516.674
22.94000 517.547
22.95000 515.654
22.96000 512.137
22.97000 508.612
22.98000 504.922
22.99000 501.165
23.00000 497.669
23.01000 497.503
23.02000 498.162
23.03000 499.301
23.04000 503.488
23.05000 508.210
23.06000 511.819
23.07000 510.863
23.08000 509.416
23.09000 508.339
23.10000 505.417
23.11000 503.060
23.12000 501.725
23.13000 502.297
23.14000 502.913
23.15000 503.432
23.16000 503.828
23.17000 504.224
23.18000 501.414
23.19000 496.060
23.20000 490.787
23.21000 489.057
23.22000 489.220
23.23000 489.572
23.24000 493.182
23.25000 497.974
23.26000 502.382
23.27000 504.214
23.28000 505.291
23.29000 506.924
23.30000 511.715
23.31000 517.003
23.32000 521.233
23.33000 521.533
23.34000 521.464
23.35000 521.413
23.36000 516.161
23.37000 511.935
23.38000 505.993
23.39000 497.136
23.40000 488.232
23.41000 487.387
23.42000 495.578
23.43000 503.748
23.44000 508.522
23.45000 510.817
23.46000 513.017
23.47000 512.070
23.48000 509.593
23.49000 507.303
23.50000 507.738
23.51000 509.073
23.52000 510.286
23.53000 506.794
23.54000 502.792
23.55000 499.063
23.56000 496.732
23.57000 494.597
23.58000 492.802
23.59000 492.153
23.60000 491.598
23.61000 491.208
23.62000 495.705
23.63000 499.259
23.64000 499.575
23.65000 494.900
23.66000 490.169
23.67000 486.322
23.68000 483.365
23.69000 480.426
23.70000 481.893
23.71000 486.190
23.72000 490.357
23.73000 491.088
23.74000 490.296
23.75000 489.198
23.76000 484.270
23.77000 478.193
23.78000 472.746
23.79000 472.887
23.80000 473.980
23.81000 475.951
23.82000 481.966
23.83000 488.484
23.84000 493.924
23.85000 496.053
23.86000 497.950
23.87000 499.244
23.88000 491.566
23.89000 485.618
23.90000 483.594
23.91000 487.056
23.92000 490.554
23.93000 492.395
23.94000 492.739
23.95000 493.079
23.96000 490.634
23.97000 486.613
23.98000 482.735
23.99000 481.896
24.00000 482.283
24.01000 482.867
24.02000 485.572
24.03000 488.854
24.04000 491.755
24.05000 492.651
24.06000 493.114
24.07000 494.114
24.08000 497.349
24.09000 500.829
24.10000 503.576
24.11000 504.274
24.12000 504.849
24.13000 505.230
24.14000 495.476
24.15000 488.107
24.16000 486.231
24.17000 491.301
24.18000 496.381
24.19000 496.622
24.20000 492.920
24.21000 489.269
24.22000 481.882
24.23000 472.734
24.24000 464.227
24.25000 467.091
24.26000 474.135
24.27000 480.656
24.28000 482.240
24.29000 482.603
24.30000 482.919
24.31000 488.809
24.32000 494.598
24.33000 498.143
24.34000 493.212
24.35000 487.466
24.36000 483.117
24.37000 482.327
24.38000 481.712
24.39000 481.321
24.40000 479.110
24.41000 477.479
24.42000 475.967
24.43000 474.589
24.44000 473.261
24.45000 480.594
24.46000 494.307
24.47000 507.760
24.48000 502.217
24.49000 487.836
24.50000 473.910
24.51000 466.798
24.52000 461.968
24.53000 458.391
24.54000 465.245
24.55000 474.433
24.56000 482.296
24.57000 479.077
24.58000 475.024
24.59000 472.920
24.60000 477.497
24.61000 482.633
24.62000 485.684
24.63000 483.899
24.64000 481.918
24.65000 480.703
24.66000 472.195
24.67000 466.038
24.68000 468.493
24.69000 479.775
24.70000 490.943
24.71000 490.431
24.72000 482.125
24.73000 474.023
24.74000 469.120
24.75000 465.810
24.76000 462.887
24.77000 464.906
24.78000 468.430
24.79000 471.274
24.80000 469.111
24.81000 465.937
24.82000 463.268
24.83000 467.081
24.84000 470.946
24.85000 473.912
24.86000 474.077
24.87000 474.041
24.88000 473.022
24.89000 469.925
24.90000 466.761
24.91000 464.899
24.92000 464.567
24.93000 464.342
24.94000 467.499
24.95000 473.767
24.96000 479.913
24.97000 477.823
24.98000 470.742
24.99000 463.882
25.00000 467.039
25.01000 473.911
25.02000 480.084
25.03000 478.522
25.04000 474.818
25.05000 471.727
25.06000 472.661
25.07000 474.328
25.08000 475.702
25.09000 470.904
25.10000 466.383
25.11000 464.055
25.12000 467.953
25.13000 472.229
25.14000 473.264
25.15000 468.060
25.16000 462.700
25.17000 459.680
25.18000 455.704
25.19000 452.951
25.20000 454.981
25.21000 460.973
25.22000 466.872
25.23000 468.328
25.24000 467.335
25.25000 466.380
25.26000 467.329
25.27000 468.884
25.28000 470.154
25.29000 468.666
25.30000 466.486
25.31000 464.665
25.32000 464.948
25.33000 465.574
25.34000 466.080
25.35000 465.740
25.36000 465.395
25.37000 463.434
25.38000 457.294
25.39000 450.942
25.40000 450.345
25.41000 459.824
25.42000 469.489
25.43000 474.683
25.44000 470.253
25.45000 467.212
25.46000 462.964
25.47000 457.812
25.48000 452.953
25.49000 458.661
25.50000 469.665
25.51000 480.159
25.52000 473.711
25.53000 462.385
25.54000 452.839
25.55000 458.400
25.56000 467.397
25.57000 475.342
25.58000 477.741
25.59000 479.332
25.60000 480.589
25.61000 465.874
25.62000 452.957
25.63000 448.121
25.64000 462.315
25.65000 477.306
25.66000 484.140
25.67000 477.999
25.68000 471.691
25.69000 468.471
25.70000 473.567
25.71000 476.942
25.72000 475.076
25.73000 469.657
25.74000 464.298
25.75000 460.628
25.76000 457.731
25.77000 454.993
25.78000 453.233
25.79000 451.896
25.80000 451.445
25.81000 457.653
25.82000 465.230
25.83000 470.195
25.84000 462.729
25.85000 453.653
25.86000 446.640
25.87000 446.667
25.88000 447.100
25.89000 446.309
25.90000 442.889
25.91000 439.382
25.92000 437.698
25.93000 438.648
25.94000 439.619
25.95000 442.676
25.96000 447.685
25.97000 452.661
25.98000 455.344
25.99000 456.616
26.00000 457.854
26.01000 458.323
26.02000 458.473
26.03000 458.613
26.04000 453.968
26.05000 448.525
26.06000 443.596
26.07000 442.098
26.08000 441.235
26.09000 442.079
26.10000 450.261
26.11000 459.284
26.12000 466.086
26.13000 460.930
26.14000 456.306
26.15000 452.234
26.16000 449.238
26.17000 446.271
26.18000 447.322
26.19000 453.624
26.20000 459.943
26.21000 458.322
26.22000 450.035
26.23000 441.850
26.24000 438.805
26.25000 438.634
26.26000 438.640
26.27000 441.963
26.28000 446.543
26.29000 450.781
26.30000 454.607
26.31000 457.951
26.32000 459.922
26.33000 453.689
26.34000 446.093
26.35000 439.963
26.36000 439.549
26.37000 439.709
26.38000 439.827
26.39000 441.308
26.40000 442.507
26.41000 442.810
26.42000 441.518
26.43000 440.195
26.44000 441.947
26.45000 447.325
26.46000 452.696
26.47000 454.561
26.48000 453.764
26.49000 452.792
26.50000 445.212
26.51000 434.269
26.52000 424.381
26.53000 431.140
26.54000 443.646
26.55000 455.079
26.56000 459.247
26.57000 461.458
26.58000 461.920
26.59000 452.987
26.60000 442.658
26.61000 434.301
26.62000 432.921
26.63000 432.151
26.64000 431.602
26.65000 433.251
26.66000 434.581
26.67000 436.472
26.68000 439.270
26.69000 442.080
26.70000 444.415
26.71000 446.245
26.72000 448.066
26.73000 448.330
26.74000 447.530
26.75000 446.565
26.76000 440.737
26.77000 432.654
26.78000 425.358
26.79000 428.638
26.80000 435.239
26.81000 441.196
26.82000 440.741
26.83000 439.164
26.84000 437.580
26.85000 435.959
26.86000 434.333
26.87000 434.003
26.88000 437.837
26.89000 441.985
26.90000 444.859
26.91000 443.144
26.92000 441.734
26.93000 442.323
26.94000 445.842
26.95000 449.388
26.96000 452.514
26.97000 455.240
26.98000 457.944
26.99000 457.345
27.00000 454.730
27.01000 452.096
27.02000 449.031
27.03000 445.784
27.04000 442.546
27.05000 439.414
27.06000 436.312
27.07000 433.551
27.08000 436.925
27.09000 440.858
27.10000 444.229
27.11000 445.148
27.12000 445.779
27.13000 444.636
27.14000 438.305
27.15000 431.638
27.16000 427.167
27.17000 437.637
27.18000 445.712
27.19000 447.824
27.20000 442.018
27.21000 436.178
27.22000 433.471
27.23000 433.446
27.24000 433.422
27.25000 434.671
27.26000 436.593
27.27000 438.282
27.28000 435.444
27.29000 430.864
27.30000 426.530
27.31000 424.668
27.32000 423.447
27.33000 422.377
27.34000 420.177
27.35000 418.125
27.36000 416.709
27.37000 417.812
27.38000 419.174
27.39000 420.445
27.40000 421.474
27.41000 422.491
27.42000 423.149
27.43000 418.812
27.44000 415.562
27.45000 416.055
27.46000 421.038
27.47000 426.030
27.48000 431.235
27.49000 436.605
27.50000 441.887
27.51000 444.670
27.52000 446.114
27.53000 447.296
27.54000 444.224
27.55000 439.663
27.56000 435.354
27.57000 433.280
27.58000 431.730
27.59000 430.393
27.60000 429.772
27.61000 429.337
27.62000 428.497
27.63000 426.203
27.64000 423.778
27.65000 421.721
27.66000 420.558
27.67000 419.435
27.68000 418.733
27.69000 417.825
27.70000 417.168
27.71000 418.096
27.72000 420.734
27.73000 423.344
27.74000 422.172
27.75000 418.352
27.76000 414.616
27.77000 416.187
27.78000 420.089
27.79000 423.490
27.80000 419.993
27.81000 414.296
27.82000 409.307
27.83000 409.843
27.84000 411.552
27.85000 413.001
27.86000 411.521
27.87000 409.949
27.88000 408.572
27.89000 407.832
27.90000 407.141
27.91000 408.329
27.92000 413.672
27.93000 419.166
27.94000 422.465
27.95000 428.243
27.96000 432.366
27.97000 427.263
27.98000 413.218
27.99000 399.343
28.00000 399.225
28.01000 407.839
28.02000 416.213
28.03000 421.688
28.04000 425.710
28.05000 429.596
28.06000 431.866
28.07000 433.666
28.08000 434.722
28.09000 430.603
28.10000 425.494
28.11000 421.241
28.12000 419.269
28.13000 417.861
28.14000 418.166
28.15000 423.557
28.16000 429.284
28.17000 430.911
28.18000 424.280
28.19000 417.414
28.20000 413.461
28.21000 417.257
28.22000 419.939
28.23000 419.792
28.24000 417.180
28.25000 414.623
28.26000 415.096
28.27000 417.319
28.28000 419.464
28.29000 425.457
28.30000 432.515
28.31000 438.493
28.32000 433.341
28.33000 425.257
28.34000 417.627
28.35000 412.806
28.36000 408.469
28.37000 404.929
28.38000 404.307
28.39000 404.049
28.40000 404.670
28.41000 407.670
28.42000 410.802
28.43000 411.466
28.44000 407.604
28.45000 403.645
28.46000 401.468
28.47000 410.427
28.48000 416.615
28.49000 422.456
28.50000 428.025
28.51000 433.445
28.52000 432.747
28.53000 428.840
28.54000 425.098
28.55000 421.171
28.56000 417.448
28.57000 413.446
28.58000 406.926
28.59000 399.805
28.60000 394.764
28.61000 401.288
28.62000 409.592
28.63000 416.230
28.64000 421.642
28.65000 425.925
28.66000 426.086
28.67000 416.095
28.68000 405.635
28.69000 403.831
28.70000 416.453
28.71000 429.298
28.72000 436.024
28.73000 415.697
28.74000 401.991
28.75000 398.016
28.76000 400.960
28.77000 403.920
28.78000 407.412
28.79000 411.159
28.80000 414.716
28.81000 416.090
28.82000 416.705
28.83000 417.013
28.84000 414.877
28.85000 412.213
28.86000 409.762
28.87000 408.378
28.88000 407.141
28.89000 406.174
28.90000 405.719
28.91000 405.389
28.92000 403.703
28.93000 398.973
28.94000 394.129
28.95000 390.437
28.96000 388.490
28.97000 386.560
28.98000 388.985
28.99000 395.705
29.00000 402.394
29.01000 406.351
29.02000 408.546
29.03000 410.484
29.04000 405.935
29.05000 398.562
29.06000 391.631
29.07000 402.922
29.08000 418.134
29.09000 430.077
29.10000 418.911
29.11000 403.245
29.12000 391.226
29.13000 395.674
29.14000 402.125
29.15000 407.049
29.16000 411.137
29.17000 414.314
29.18000 417.497
29.19000 420.691
29.20000 423.885
29.21000 423.003
29.22000 416.531
29.23000 410.027
29.24000 402.871
29.25000 395.145
29.26000 387.581
29.27000 389.625
29.28000 397.294
29.29000 404.774
29.30000 408.349
29.31000 410.377
29.32000 412.262
29.33000 409.380
29.34000 405.623
29.35000 402.092
29.36000 399.984
29.37000 398.125
29.38000 396.720
29.39000 397.172
29.40000 397.822
29.41000 398.306
29.42000 399.071
29.43000 399.678
29.44000 399.036
29.45000 396.069
29.46000 393.049
29.47000 395.202
29.48000 403.772
29.49000 412.346
29.50000 416.355
29.51000 416.718
29.52000 416.975
29.53000 412.705
29.54000 406.022
29.55000 399.790
29.56000 401.276
29.57000 405.548
29.58000 409.478
29.59000 404.738
29.60000 398.624
29.61000 393.355
29.62000 392.858
29.63000 393.110
29.64000 394.622
29.65000 400.801
29.66000 407.419
29.67000 412.208
29.68000 401.661
29.69000 393.002
29.70000 389.312
29.71000 394.032
29.72000 398.889
29.73000 399.232
29.74000 394.527
29.75000 389.836
29.76000 393.682
29.77000 403.607
29.78000 413.176
29.79000 410.985
29.80000 403.091
29.81000 395.692
29.82000 395.475
29.83000 397.620
29.84000 399.567
29.85000 403.841
29.86000 408.067
29.87000 411.042
29.88000 407.652
29.89000 403.372
29.90000 401.119
29.91000 405.691
29.92000 410.819
29.93000 414.423
29.94000 404.950
29.95000 397.389
29.96000 392.320
29.97000 391.080
29.98000 389.883
29.99000 393.713
30.00000 402.590
30.01000 411.410
30.02000 412.885
30.03000 409.599
30.04000 406.543
30.05000 409.491
30.06000 415.092
30.07000 419.925
30.08000 415.218
30.09000 407.657
30.10000 400.882
30.11000 402.171
30.12000 404.693
30.13000 407.394
30.14000 410.924
30.15000 414.557
30.16000 416.698
30.17000 414.271
30.18000 411.525
30.19000 409.654
30.20000 405.521
30.21000 402.380
30.22000 400.370
30.23000 399.936
30.24000 399.515
30.25000 403.510
30.26000 411.485
30.27000 419.382
30.28000 420.725
30.29000 418.224
30.30000 415.855
30.31000 416.294
30.32000 417.863
30.33000 418.984
30.34000 415.266
30.35000 410.233
30.36000 405.788
30.37000 401.335
30.38000 397.488
30.39000 394.562
30.40000 395.458
30.41000 396.773
30.42000 397.827
30.43000 398.156
30.44000 398.441
30.45000 398.630
30.46000 392.219
30.47000 387.380
30.48000 387.411
30.49000 393.581
30.50000 399.755
30.51000 400.202
30.52000 395.996
30.53000 391.850
30.54000 393.808
30.55000 398.917
30.56000 403.824
30.57000 405.140
30.58000 405.141
30.59000 404.979
30.60000 403.286
30.61000 401.217
30.62000 399.417
30.63000 397.866
30.64000 396.577
30.65000 396.389
30.66000 400.351
30.67000 404.709
30.68000 407.617
30.69000 406.842
30.70000 405.886
30.71000 405.278
30.72000 413.476
30.73000 419.543
30.74000 424.154
30.75000 427.112
30.76000 430.012
30.77000 423.090
30.78000 408.957
30.79000 395.094
30.80000 400.308
30.81000 414.381
30.82000 427.451
30.83000 425.587
30.84000 418.736
30.85000 412.279
30.86000 409.076
30.87000 406.600
30.88000 404.482
30.89000 410.045
30.90000 415.659
30.91000 421.978
30.92000 430.706
30.93000 439.635
30.94000 448.964
30.95000 459.219
30.96000 469.512
30.97000 475.815
30.98000 472.866
30.99000 470.676
31.00000 471.325
31.01000 474.877
31.02000 478.450
31.03000 484.203
31.04000 491.406
31.05000 498.430
31.06000 510.633
31.07000 524.506
31.08000 538.150
31.09000 548.874
31.10000 558.712
31.11000 570.578
31.12000 597.341
31.13000 627.104
31.14000 652.110
31.15000 681.647
31.16000 706.732
31.17000 729.791
31.18000 746.550
31.19000 762.859
31.20000 784.839
31.21000 818.768
31.22000 853.080
31.23000 873.252
31.24000 910.033
31.25000 936.061
31.26000 974.913
31.27000 1025.523
31.28000 1075.900
31.29000 1110.751
31.30000 1136.225
31.31000 1160.900
31.32000 1187.659
31.33000 1213.783
31.34000 1238.994
31.35000 1254.157
31.36000 1266.546
31.37000 1278.897
31.38000 1290.992
31.39000 1303.041
31.40000 1312.972
31.41000 1304.155
31.42000 1295.173
31.43000 1281.942
31.44000 1256.689
31.45000 1230.707
31.46000 1205.828
31.47000 1183.066
31.48000 1160.357
31.49000 1147.580
31.50000 1132.836
31.51000 1122.552
31.52000 1092.793
31.53000 1046.949
31.54000 1001.278
31.55000 963.849
31.56000 930.945
31.57000 899.312
31.58000 865.244
31.59000 832.476
31.60000 800.309
31.61000 773.923
31.62000 748.984
31.63000 725.768
31.64000 712.639
31.65000 701.151
31.66000 691.873
31.67000 655.426
31.68000 623.630
31.69000 597.556
31.70000 586.226
31.71000 575.645
31.72000 565.456
31.73000 555.950
31.74000 546.457
31.75000 541.363
31.76000 526.262
31.77000 515.957
31.78000 508.360
31.79000 502.783
31.80000 497.076
31.81000 486.665
31.82000 473.902
31.83000 461.734
31.84000 454.250
31.85000 448.781
31.86000 444.207
31.87000 447.207
31.88000 451.924
31.89000 454.793
31.90000 447.942
31.91000 439.679
31.92000 433.149
31.93000 435.151
31.94000 437.342
31.95000 438.982
31.96000 439.329
31.97000 439.622
31.98000 435.519
31.99000 424.444
32.00000 413.281
32.01000 407.591
32.02000 416.972
32.03000 423.165
32.04000 418.201
32.05000 405.694
32.06000 393.561
32.07000 391.918
32.08000 395.051
32.09000 398.010
32.10000 400.534
32.11000 402.727
32.12000 404.543
32.13000 403.534
32.14000 401.947
32.15000 399.480
32.16000 392.839
32.17000 385.659
32.18000 380.116
32.19000 386.423
32.20000 392.112
32.21000 394.900
32.22000 391.478
32.23000 387.851
32.24000 382.560
32.25000 374.878
32.26000 367.178
32.27000 366.085
32.28000 371.152
32.29000 376.285
32.30000 386.022
32.31000 398.582
32.32000 410.420
32.33000 405.886
32.34000 394.562
32.35000 383.971
32.36000 383.620
32.37000 385.907
32.38000 387.933
32.39000 388.220
32.40000 388.185
32.41000 388.310
32.42000 389.118
32.43000 390.004
32.44000 390.672
32.45000 390.339
32.46000 390.030
32.47000 384.349
32.48000 368.203
32.49000 351.788
32.50000 343.090
32.51000 344.447
32.52000 345.844
32.53000 351.719
32.54000 361.328
32.55000 370.798
32.56000 373.321
32.57000 371.971
32.58000 370.700
32.59000 370.906
32.60000 371.671
32.61000 372.379
32.62000 369.581
32.63000 366.268
32.64000 363.148
32.65000 361.182
32.66000 359.407
32.67000 358.290
32.68000 359.731
32.69000 361.429
32.70000 362.674
32.71000 360.978
32.72000 359.548
32.73000 360.300
32.74000 364.917
32.75000 369.608
32.76000 370.750
32.77000 367.719
32.78000 364.689
32.79000 362.281
32.80000 360.359
32.81000 358.562
32.82000 361.473
32.83000 366.772
32.84000 371.721
32.85000 371.150
32.86000 368.681
32.87000 366.424
32.88000 363.841
32.89000 361.479
32.90000 359.673
32.91000 360.843
32.92000 362.454
32.93000 365.750
32.94000 374.988
32.95000 384.745
32.96000 391.703
32.97000 378.200
32.98000 367.233
32.99000 357.975
33.00000 351.468
33.01000 344.999
33.02000 345.015
33.03000 351.892
33.04000 358.737
33.05000 358.436
33.06000 353.287
33.07000 348.302
33.08000 348.070
33.09000 350.034
33.10000 351.990
33.11000 353.829
33.12000 355.631
33.13000 357.257
33.14000 350.128
33.15000 342.266
33.16000 334.880
33.17000 329.791
33.18000 325.005
33.19000 321.479
33.20000 321.993
33.21000 322.811
33.22000 323.377
33.23000 342.184
33.24000 356.806
33.25000 361.643
33.26000 352.176
33.27000 342.586
33.28000 338.721
33.29000 340.290
33.30000 341.846
33.31000 343.214
33.32000 344.442
33.33000 345.561
33.34000 344.124
33.35000 341.611
33.36000 339.726
33.37000 345.086
33.38000 352.509
33.39000 359.113
33.40000 350.616
33.41000 340.780
33.42000 333.353
33.43000 336.426
33.44000 340.722
33.45000 342.858
33.46000 338.690
33.47000 334.118
33.48000 331.054
33.49000 332.712
33.50000 334.036
33.51000 333.279
33.52000 329.767
33.53000 326.243
33.54000 323.574
33.55000 321.636
33.56000 319.721
33.57000 319.492
33.58000 320.199
33.59000 320.933
33.60000 322.185
33.61000 323.635
33.62000 324.899
33.63000 324.295
33.64000 323.209
33.65000 322.256
33.66000 326.333
33.67000 330.559
33.68000 333.653
33.69000 332.276
33.70000 330.441
33.71000 328.067
33.72000 324.261
33.73000 320.378
33.74000 317.864
33.75000 319.723
33.76000 321.147
33.77000 325.819
33.78000 334.372
33.79000 342.900
33.80000 343.235
33.81000 337.255
33.82000 331.375
33.83000 332.701
33.84000 337.575
33.85000 341.933
33.86000 337.963
33.87000 331.083
33.88000 324.910
33.89000 324.963
33.90000 326.474
33.91000 327.777
33.92000 335.566
33.93000 343.001
33.94000 346.378
33.95000 335.220
33.96000 322.765
33.97000 314.932
33.98000 318.285
33.99000 322.135
34.00000 324.538
34.01000 334.745
34.02000 342.187
34.03000 342.269
34.04000 334.428
34.05000 326.649
34.06000 327.192
34.07000 333.541
34.08000 339.750
34.09000 336.804
34.10000 329.857
34.11000 323.492
34.12000 325.099
34.13000 329.241
34.14000 332.864
34.15000 332.444
34.16000 331.169
34.17000 330.087
34.18000 336.771
34.19000 343.246
34.20000 346.257
34.21000 337.994
34.22000 328.862
34.23000 321.636
34.24000 318.615
34.25000 315.745
34.26000 314.024
34.27000 327.675
34.28000 337.474
34.29000 340.014
34.30000 335.540
34.31000 331.069
34.32000 326.757
34.33000 322.546
34.34000 318.454
34.35000 317.291
34.36000 317.376
34.37000 317.587
34.38000 319.292
34.39000 321.428
34.40000 323.173
34.41000 322.209
34.42000 320.729
34.43000 319.497
34.44000 324.079
34.45000 328.445
34.46000 332.463
34.47000 335.451
34.48000 338.370
34.49000 337.624
34.50000 329.519
34.51000 321.206
34.52000 316.426
34.53000 311.974
34.54000 308.866
34.55000 309.462
34.56000 313.275
34.57000 316.994
34.58000 315.541
34.59000 311.112
34.60000 306.838
34.61000 307.437
34.62000 309.786
34.63000 312.147
34.64000 314.625
34.65000 317.134
34.66000 319.609
34.67000 321.876
34.68000 324.108
34.69000 325.928
34.70000 322.895
34.71000 319.999
34.72000 317.042
34.73000 313.921
34.74000 310.792
34.75000 310.357
34.76000 314.848
34.77000 319.443
34.78000 321.967
34.79000 321.045
34.80000 320.408
34.81000 320.631
34.82000 321.528
34.83000 322.441
34.84000 323.999
34.85000 325.894
34.86000 327.708
34.87000 331.714
34.88000 336.173
34.89000 339.586
34.90000 333.592
34.91000 325.360
34.92000 318.096
34.93000 316.201
34.94000 315.129
34.95000 314.273
34.96000 310.239
34.97000 306.745
34.98000 305.077
34.99000 307.892
35.00000 310.914
35.01000 314.106
35.02000 317.581
35.03000 321.060
35.04000 322.880
35.05000 318.119
35.06000 314.895
35.07000 311.752
35.08000 308.665
35.09000 305.785
35.10000 309.430
35.11000 316.183
35.12000 322.591
35.13000 319.404
35.14000 313.604
35.15000 308.224
35.16000 306.176
35.17000 304.845
35.18000 303.680
35.19000 303.346
35.20000 303.126
35.21000 302.954
35.22000 311.322
35.23000 318.536
35.24000 322.729
35.25000 320.163
35.26000 317.345
35.27000 313.405
35.28000 307.771
35.29000 302.121
35.30000 300.927
35.31000 304.113
35.32000 307.284
35.33000 309.112
35.34000 310.078
35.35000 310.833
35.36000 306.297
35.37000 299.465
35.38000 293.044
35.39000 296.296
35.40000 301.858
35.41000 307.141
35.42000 310.462
35.43000 313.402
35.44000 315.619
35.45000 314.578
35.46000 313.142
35.47000 312.047
35.48000 302.948
35.49000 295.356
35.50000 293.375
35.51000 302.836
35.52000 312.633
35.53000 318.693
35.54000 319.642
35.55000 320.560
35.56000 317.864
35.57000 311.983
35.58000 306.182
35.59000 305.075
35.60000 306.709
35.61000 308.189
35.62000 306.509
35.63000 303.580
35.64000 300.856
35.65000 306.678
35.66000 313.993
35.67000 320.409
35.68000 321.174
35.69000 320.953
35.70000 319.678
35.71000 314.109
35.72000 308.082
35.73000 303.603
35.74000 300.948
35.75000 298.964
35.76000 298.708
35.77000 301.657
35.78000 304.677
35.79000 303.954
35.80000 298.604
35.81000 293.251
35.82000 289.483
35.83000 286.990
35.84000 284.562
35.85000 284.932
35.86000 286.787
35.87000 288.817
35.88000 293.826
35.89000 299.908
35.90000 305.500
35.91000 303.898
35.92000 300.913
35.93000 299.055
35.94000 303.553
35.95000 309.044
35.96000 313.516
35.97000 314.219
35.98000 314.571
35.99000 314.826
36.00000 300.475
36.01000 288.931
36.02000 283.779
36.03000 289.413
36.04000 295.221
36.05000 297.179
36.06000 294.846
36.07000 292.518
36.08000 293.734
36.09000 297.468
36.10000 300.965
36.11000 296.663
36.12000 288.589
36.13000 281.518
36.14000 288.924
36.15000 301.076
36.16000 312.109
36.17000 316.274
36.18000 318.625
36.19000 319.675
36.20000 314.121
36.21000 307.647
36.22000 302.152
36.23000 299.944
36.24000 298.002
36.25000 296.638
36.26000 298.660
36.27000 300.290
36.28000 304.192
36.29000 311.579
36.30000 319.003
36.31000 317.986
36.32000 308.523
36.33000 299.122
36.34000 294.991
36.35000 294.311
36.36000 293.762
36.37000 296.605
36.38000 300.943
36.39000 304.564
36.40000 299.311
36.41000 291.412
36.42000 284.337
36.43000 284.184
36.44000 285.243
36.45000 285.988
36.46000 285.294
36.47000 284.422
36.48000 285.089
36.49000 290.453
36.50000 296.143
36.51000 300.017
36.52000 292.772
36.53000 287.106
36.54000 286.816
36.55000 293.998
36.56000 301.224
36.57000 302.218
36.58000 297.614
36.59000 293.057
36.60000 290.064
36.61000 288.044
36.62000 286.135
36.63000 286.583
36.64000 287.978
36.65000 289.503
36.66000 292.429
36.67000 295.734
36.68000 298.652
36.69000 296.695
36.70000 294.259
36.71000 292.974
36.72000 296.453
36.73000 300.452
36.74000 302.919
36.75000 301.127
36.76000 299.084
36.77000 297.739
36.78000 300.896
36.79000 303.299
36.80000 303.267
36.81000 300.175
36.82000 297.081
36.83000 296.754
36.84000 298.668
36.85000 300.554
36.86000 302.285
36.87000 303.885
36.88000 305.312
36.89000 303.689
36.90000 300.951
36.91000 298.171
36.92000 294.987
36.93000 291.703
36.94000 288.850
36.95000 288.701
36.96000 288.942
36.97000 289.261
36.98000 289.873
36.99000 290.512
37.00000 292.608
37.01000 298.392
37.02000 304.356
37.03000 308.147
37.04000 300.273
37.05000 294.410
37.06000 291.373
37.07000 291.540
37.08000 291.724
37.09000 294.445
37.10000 299.023
37.11000 303.513
37.12000 303.153
37.13000 300.512
37.14000 297.950
37.15000 296.547
37.16000 295.530
37.17000 294.450
37.18000 292.841
37.19000 291.115
37.20000 289.639
37.21000 281.871
37.22000 274.569
37.23000 270.537
37.24000 277.651
37.25000 285.689
37.26000 290.085
37.27000 286.079
37.28000 281.739
37.29000 279.084
37.30000 275.390
37.31000 272.738
37.32000 276.527
37.33000 286.874
37.34000 297.156
37.35000 300.926
37.36000 300.376
37.37000 299.840
37.38000 295.574
37.39000 289.910
37.40000 284.591
37.41000 283.653
37.42000 284.042
37.43000 284.448
37.44000 284.976
37.45000 285.528
37.46000 285.992
37.47000 286.755
37.48000 287.423
37.49000 287.587
37.50000 286.192
37.51000 284.687
37.52000 283.598
37.53000 283.386
37.54000 283.201
37.55000 283.092
37.56000 290.927
37.57000 296.488
37.58000 297.694
37.59000 294.919
37.60000 292.172
37.61000 291.227
37.62000 291.367
37.63000 291.502
37.64000 287.447
37.65000 281.995
37.66000 277.349
37.67000 281.532
37.68000 288.145
37.69000 294.479
37.70000 298.993
37.71000 303.178
37.72000 306.626
37.73000 296.891
37.74000 287.675
37.75000 279.873
37.76000 276.064
37.77000 272.496
37.78000 273.902
37.79000 284.824
37.80000 295.979
37.81000 302.246
37.82000 293.874
37.83000 288.032
37.84000 283.961
37.85000 281.346
37.86000 278.781
37.87000 278.547
37.88000 279.590
37.89000 280.593
37.90000 278.684
37.91000 275.883
37.92000 273.556
37.93000 275.775
37.94000 279.128
37.95000 282.749
37.96000 287.937
37.97000 293.379
37.98000 297.772
37.99000 299.168
38.00000 300.065
38.01000 298.097
38.02000 288.767
38.03000 279.066
38.04000 275.849
38.05000 283.919
38.06000 292.193
38.07000 296.626
38.08000 290.827
38.09000 286.874
38.10000 285.402
38.11000 285.775
38.12000 286.140
38.13000 286.206
38.14000 286.123
38.15000 286.044
38.16000 286.868
38.17000 287.915
38.18000 288.700
38.19000 287.281
38.20000 285.365
38.21000 284.139
38.22000 286.533
38.23000 289.451
38.24000 291.756
38.25000 291.772
38.26000 291.630
38.27000 292.556
38.28000 295.986
38.29000 299.520
38.30000 301.306
38.31000 300.330
38.32000 299.318
38.33000 298.804
38.34000 306.632
38.35000 311.863
38.36000 315.008
38.37000 316.748
38.38000 318.543
38.39000 321.874
38.40000 325.902
38.41000 329.707
38.42000 331.131
38.43000 331.767
38.44000 333.763
38.45000 345.901
38.46000 360.109
38.47000 373.652
38.48000 384.047
38.49000 394.037
38.50000 401.744
38.51000 429.838
38.52000 453.283
38.53000 473.466
38.54000 486.695
38.55000 499.694
38.56000 514.388
38.57000 531.513
38.58000 548.654
38.59000 576.378
38.60000 613.923
38.61000 651.279
38.62000 675.350
38.63000 691.294
38.64000 707.065
38.65000 718.928
38.66000 729.173
38.67000 738.751
38.68000 762.419
38.69000 787.481
38.70000 809.235
38.71000 809.021
38.72000 804.770
38.73000 802.863
38.74000 810.983
38.75000 820.243
38.76000 827.212
38.77000 812.587
38.78000 800.096
38.79000 786.250
38.80000 769.776
38.81000 753.234
38.82000 737.302
38.83000 722.161
38.84000 707.039
38.85000 689.741
38.86000 670.673
38.87000 651.570
38.88000 630.672
38.89000 608.776
38.90000 587.090
38.91000 569.305
38.92000 552.991
38.93000 537.907
38.94000 510.293
38.95000 482.643
38.96000 456.382
38.97000 438.375
38.98000 421.730
38.99000 406.679
39.00000 397.802
39.01000 389.541
39.02000 383.487
39.03000 367.894
39.04000 355.469
39.05000 342.965
39.06000 330.319
39.07000 317.671
39.08000 308.433
39.09000 303.194
39.10000 297.975
39.11000 296.491
39.12000 297.821
39.13000 299.109
39.14000 298.829
39.15000 297.755
39.16000 296.310
39.17000 289.083
39.18000 279.871
39.19000 271.456
39.20000 270.472
39.21000 271.114
39.22000 271.934
39.23000 273.701
39.24000 275.609
39.25000 276.995
39.26000 276.551
39.27000 275.948
39.28000 275.518
39.29000 269.399
39.30000 264.551
39.31000 264.188
39.32000 271.030
39.33000 277.968
39.34000 280.415
39.35000 278.126
39.36000 275.848
39.37000 277.475
39.38000 281.725
39.39000 285.740
39.40000 282.928
39.41000 276.971
39.42000 271.091
39.43000 266.251
39.44000 261.735
39.45000 257.662
39.46000 257.213
39.47000 257.479
39.48000 258.653
39.49000 264.190
39.50000 270.299
39.51000 274.914
39.52000 274.752
39.53000 274.233
39.54000 273.874
39.55000 267.970
39.56000 263.387
39.57000 259.397
39.58000 256.273
39.59000 253.157
39.60000 253.441
39.61000 256.942
39.62000 260.414
39.63000 262.410
39.64000 263.470
39.65000 264.566
39.66000 266.520
39.67000 268.834
39.68000 270.742
39.69000 267.992
39.70000 263.920
39.71000 260.298
39.72000 271.194
39.73000 283.008
39.74000 292.063
39.75000 289.135
39.76000 284.817
39.77000 280.803
39.78000 277.674
39.79000 274.601
39.80000 272.544
39.81000 266.875
39.82000 262.600
39.83000 258.675
39.84000 255.213
39.85000 251.761
39.86000 253.735
39.87000 260.328
39.88000 266.840
39.89000 267.114
39.90000 263.948
39.91000 260.872
39.92000 259.525
39.93000 258.839
39.94000 258.423
39.95000 260.701
39.96000 263.673
39.97000 266.277
39.98000 260.236
39.99000 253.809
40.00000 249.690
40.01000 254.653
40.02000 260.541
40.03000 263.514
40.04000 258.765
40.05000 253.601
40.06000 250.262
40.07000 259.081
40.08000 265.710
40.09000 265.904
40.10000 258.428
40.11000 250.960
40.12000 248.940
40.13000 251.107
40.14000 253.237
40.15000 256.906
40.16000 261.221
40.17000 265.353
40.18000 266.570
40.19000 266.772
40.20000 266.306
40.21000 259.991
40.22000 252.309
40.23000 245.688
40.24000 242.537
40.25000 240.308
40.26000 239.574
40.27000 244.179
40.28000 249.259
40.29000 253.131
40.30000 254.088
40.31000 254.916
40.32000 255.433
40.33000 250.960
40.34000 247.686
40.35000 245.813
40.36000 245.443
40.37000 245.072
40.38000 244.373
40.39000 243.447
40.40000 242.541
40.41000 244.066
40.42000 246.619
40.43000 249.123
40.44000 250.956
40.45000 252.577
40.46000 253.967
40.47000 253.566
40.48000 252.788
40.49000 252.128
40.50000 250.448
40.51000 248.926
40.52000 247.765
40.53000 247.776
40.54000 247.877
40.55000 247.725
40.56000 247.017
40.57000 246.289
40.58000 245.853
40.59000 239.594
40.60000 235.112
40.61000 237.436
40.62000 246.311
40.63000 255.137
40.64000 260.079
40.65000 262.569
40.66000 264.990
40.67000 259.085
40.68000 250.103
40.69000 241.690
40.70000 239.975
40.71000 240.190
40.72000 240.960
40.73000 245.555
40.74000 250.877
40.75000 255.302
40.76000 251.288
40.77000 247.138
40.78000 244.175
40.79000 244.717
40.80000 245.487
40.81000 245.243
40.82000 242.968
40.83000 240.635
40.84000 239.296
40.85000 242.633
40.86000 244.980
40.87000 244.992
40.88000 242.982
40.89000 241.021
40.90000 241.740
40.91000 243.994
40.92000 246.170
40.93000 245.249
40.94000 243.251
40.95000 241.831
40.96000 246.313
40.97000 252.340
40.98000 256.848
40.99000 252.009
41.00000 245.572
41.01000 240.324
41.02000 243.400
41.03000 246.624
41.04000 248.760
41.05000 247.967
41.06000 247.012
41.07000 246.616
41.08000 247.236
41.09000 247.878
41.10000 248.230
41.11000 240.979
41.12000 235.986
41.13000 233.225
41.14000 232.207
41.15000 231.169
41.16000 229.340
41.17000 227.098
41.18000 224.952
41.19000 227.510
41.20000 231.443
41.21000 235.104
41.22000 236.321
41.23000 236.959
41.24000 237.128
41.25000 234.711
41.26000 231.899
41.27000 229.654
41.28000 227.912
41.29000 226.543
41.30000 226.535
41.31000 229.862
41.32000 233.342
41.33000 236.208
41.34000 238.055
41.35000 239.887
41.36000 240.843
41.37000 242.913
41.38000 244.269
41.39000 239.497
41.40000 230.394
41.41000 221.585
41.42000 221.945
41.43000 226.660
41.44000 231.134
41.45000 228.916
41.46000 224.883
41.47000 221.652
41.48000 224.760
41.49000 229.227
41.50000 233.379
41.51000 235.970
41.52000 238.347
41.53000 240.203
41.54000 237.266
41.55000 234.623
41.56000 233.380
41.57000 235.260
41.58000 237.256
41.59000 238.767
41.60000 239.549
41.61000 240.324
41.62000 240.214
41.63000 239.236
41.64000 238.296
41.65000 240.522
41.66000 244.778
41.67000 248.858
41.68000 248.538
41.69000 246.315
41.70000 244.226
41.71000 240.193
41.72000 235.994
41.73000 232.292
41.74000 232.085
41.75000 232.555
41.76000 232.913
41.77000 232.765
41.78000 232.555
41.79000 232.396
41.80000 240.970
41.81000 248.184
41.82000 250.668
41.83000 243.537
41.84000 236.125
41.85000 232.255
41.86000 233.213
41.87000 234.199
41.88000 234.390
41.89000 233.883
41.90000 233.379
41.91000 233.025
41.92000 232.759
41.93000 232.563
41.94000 233.796
41.95000 235.594
41.96000 237.264
41.97000 237.825
41.98000 238.064
41.99000 238.056
42.00000 236.494
42.01000 234.662
42.02000 233.502
42.03000 235.077
42.04000 236.942
42.05000 238.327
42.06000 235.277
42.07000 232.711
42.08000 231.030
42.09000 230.988
42.10000 230.983
42.11000 231.626
42.12000 233.070
42.13000 234.513
42.14000 233.551
42.15000 230.690
42.16000 227.851
42.17000 225.891
42.18000 224.397
42.19000 222.987
42.20000 223.005
42.21000 223.536
42.22000 224.024
42.23000 229.647
42.24000 235.771
42.25000 240.527
42.26000 237.589
42.27000 233.452
42.28000 229.238
42.29000 224.735
42.30000 220.205
42.31000 216.933
42.32000 222.935
42.33000 227.875
42.34000 231.870
42.35000 234.275
42.36000 236.654
42.37000 236.069
42.38000 232.191
42.39000 228.326
42.40000 225.982
42.41000 224.743
42.42000 223.474
42.43000 221.248
42.44000 218.560
42.45000 216.243
42.46000 219.256
42.47000 224.011
42.48000 228.327
42.49000 226.417
42.50000 223.531
42.51000 221.505
42.52000 223.820
42.53000 226.738
42.54000 229.203
42.55000 230.152
42.56000 230.980
42.57000 231.561
42.58000 226.951
42.59000 223.311
42.60000 223.527
42.61000 229.634
42.62000 235.805
42.63000 236.815
42.64000 232.678
42.65000 228.568
42.66000 227.754
42.67000 229.065
42.68000 230.352
42.69000 231.020
42.70000 231.414
42.71000 232.066
42.72000 235.883
42.73000 240.642
42.74000 244.903
42.75000 239.223
42.76000 232.558
42.77000 226.812
42.78000 225.257
42.79000 224.220
42.80000 222.795
42.81000 220.191
42.82000 217.507
42.83000 215.681
42.84000 219.326
42.85000 222.171
42.86000 224.678
42.87000 226.717
42.88000 228.752
42.89000 229.028
42.90000 227.729
42.91000 226.444
42.92000 225.310
42.93000 224.287
42.94000 223.278
42.95000 222.543
42.96000 221.918
42.97000 221.345
42.98000 221.333
42.99000 221.473
43.00000 221.596
43.01000 221.409
43.02000 221.201
43.03000 220.988
43.04000 220.752
43.05000 220.513
43.06000 221.260
43.07000 224.738
43.08000 228.376
43.09000 230.769
43.10000 228.341
43.11000 226.471
43.12000 225.090
43.13000 224.321
43.14000 223.559
43.15000 224.622
43.16000 227.159
43.17000 229.659
43.18000 231.717
43.19000 233.484
43.20000 234.938
43.21000 230.940
43.22000 224.953
43.23000 219.042
43.24000 213.838
43.25000 208.806
43.26000 204.434
43.27000 206.530
43.28000 209.192
43.29000 211.676
43.30000 213.496
43.31000 215.253
43.32000 216.710
43.33000 217.411
43.34000 218.075
43.35000 218.497
43.36000 221.834
43.37000 224.292
43.38000 226.035
43.39000 226.970
43.40000 227.907
43.41000 229.131
43.42000 230.566
43.43000 231.973
43.44000 229.001
43.45000 224.076
43.46000 219.413
43.47000 218.608
43.48000 219.084
43.49000 219.460
43.50000 219.012
43.51000 218.381
43.52000 217.842
43.53000 217.320
43.54000 216.882
43.55000 217.563
43.56000 222.044
43.57000 226.838
43.58000 229.110
43.59000 225.577
43.60000 221.814
43.61000 219.515
43.62000 217.902
43.63000 216.753
43.64000 215.484
43.65000 214.094
43.66000 212.723
43.67000 213.348
43.68000 215.292
43.69000 217.187
43.70000 217.602
43.71000 217.368
43.72000 216.933
43.73000 213.966
43.74000 210.234
43.75000 207.365
43.76000 210.786
43.77000 215.467
43.78000 219.395
43.79000 217.418
43.80000 215.155
43.81000 214.999
43.82000 221.358
43.83000 228.179
43.84000 231.093
43.85000 225.824
43.86000 220.297
43.87000 217.056
43.88000 209.778
43.89000 204.633
43.90000 203.824
43.91000 206.965
43.92000 210.102
43.93000 212.998
43.94000 215.749
43.95000 218.412
43.96000 216.526
43.97000 212.995
43.98000 209.723
43.99000 209.278
44.00000 209.610
44.01000 209.854
44.02000 209.538
44.03000 209.120
44.04000 208.776
44.05000 214.300
44.06000 219.379
44.07000 222.727
44.08000 221.205
44.09000 219.391
44.10000 218.137
44.11000 217.949
44.12000 217.787
44.13000 217.696
44.14000 215.103
44.15000 213.305
44.16000 213.675
44.17000 215.825
44.18000 217.995
44.19000 221.097
44.20000 224.708
44.21000 228.178
44.22000 226.889
44.23000 224.033
44.24000 221.536
44.25000 222.458
44.26000 224.230
44.27000 225.135
44.28000 220.995
44.29000 216.039
44.30000 212.042
44.31000 219.960
44.32000 227.334
44.33000 231.225
44.34000 226.192
44.35000 220.711
44.36000 215.960
44.37000 212.477
44.38000 209.016
44.39000 207.165
44.40000 209.905
44.41000 211.790
44.42000 215.865
44.43000 221.565
44.44000 227.155
44.45000 228.887
44.46000 228.700
44.47000 228.522
44.48000 227.810
44.49000 226.984
44.50000 226.307
44.51000 226.887
44.52000 227.749
44.53000 228.296
44.54000 227.195
44.55000 225.857
44.56000 224.800
44.57000 224.291
44.58000 223.919
44.59000 223.844
44.60000 224.463
44.61000 225.109
44.62000 226.451
44.63000 228.888
44.64000 231.338
44.65000 232.584
44.66000 234.921
44.67000 236.455
44.68000 234.471
44.69000 230.123
44.70000 225.920
44.71000 225.704
44.72000 227.294
44.73000 228.794
44.74000 229.772
44.75000 230.522
44.76000 231.292
44.77000 232.212
44.78000 233.163
44.79000 234.082
44.80000 234.858
44.81000 235.614
44.82000 236.198
44.83000 235.327
44.84000 234.553
44.85000 233.212
44.86000 230.668
44.87000 228.083
44.88000 230.440
44.89000 239.865
44.90000 249.342
44.91000 251.830
44.92000 247.843
44.93000 243.917
44.94000 244.154
44.95000 246.932
44.96000 249.890
44.97000 256.882
44.98000 265.538
44.99000 273.627
45.00000 270.997
45.01000 265.900
45.02000 261.269
45.03000 259.728
45.04000 258.753
45.05000 258.440
45.06000 260.950
45.07000 263.780
45.08000 265.908
45.09000 265.613
45.10000 265.265
45.11000 264.594
45.12000 263.299
45.13000 261.989
45.14000 261.798
45.15000 263.057
45.16000 264.320
45.17000 261.334
45.18000 254.820
45.19000 248.420
45.20000 247.571
45.21000 249.801
45.22000 252.097
45.23000 255.605
45.24000 259.569
45.25000 263.232
45.26000 259.572
45.27000 254.624
45.28000 250.797
45.29000 253.605
45.30000 257.504
45.31000 259.375
45.32000 253.410
45.33000 246.666
45.34000 241.728
45.35000 244.576
45.36000 247.085
45.37000 249.904
45.38000 253.269
45.39000 256.645
45.40000 259.016
45.41000 260.216
45.42000 261.410
45.43000 261.509
45.44000 260.789
45.45000 260.094
45.46000 260.347
45.47000 261.078
45.48000 261.625
45.49000 259.312
45.50000 256.019
45.51000 253.013
45.52000 249.159
45.53000 245.565
45.54000 242.760
45.55000 244.151
45.56000 246.158
45.57000 248.200
45.58000 250.362
45.59000 252.533
45.60000 254.080
45.61000 256.345
45.62000 258.095
45.63000 256.820
45.64000 250.703
45.65000 244.522
45.66000 242.923
45.67000 246.140
45.68000 249.341
45.69000 249.469
45.70000 247.523
45.71000 245.587
45.72000 243.922
45.73000 242.382
45.74000 241.015
45.75000 241.937
45.76000 243.572
45.77000 245.046
45.78000 237.953
45.79000 230.171
45.80000 224.681
45.81000 230.172
45.82000 237.100
45.83000 241.727
45.84000 239.025
45.85000 235.777
45.86000 233.533
45.87000 229.804
45.88000 226.963
45.89000 225.882
45.90000 227.362
45.91000 228.862
45.92000 228.816
45.93000 227.311
45.94000 225.819
45.95000 221.585
45.96000 215.762
45.97000 210.253
45.98000 212.026
45.99000 216.848
46.00000 221.741
46.01000 227.442
46.02000 233.371
46.03000 238.641
46.04000 233.061
46.05000 226.464
46.06000 221.067
46.07000 220.864
46.08000 221.261
46.09000 222.104
46.10000 224.235
46.11000 226.449
46.12000 227.930
46.13000 220.154
46.14000 214.206
46.15000 210.754
46.16000 210.583
46.17000 210.424
46.18000 208.083
46.19000 203.892
46.20000 199.752
46.21000 200.221
46.22000 203.208
46.23000 206.083
46.24000 206.843
46.25000 206.797
46.26000 206.851
46.27000 207.913
46.28000 209.233
46.29000 210.389
46.30000 210.872
46.31000 211.190
46.32000 211.945
46.33000 214.417
46.34000 217.064
46.35000 218.494
46.36000 216.707
46.37000 214.748
46.38000 213.483
46.39000 209.650
46.40000 206.810
46.41000 204.487
46.42000 202.778
46.43000 201.084
46.44000 202.890
46.45000 207.375
46.46000 211.785
46.47000 209.931
46.48000 205.034
46.49000 200.302
46.50000 198.188
46.51000 196.984
46.52000 195.737
46.53000 194.119
46.54000 192.414
46.55000 190.946
46.56000 191.602
46.57000 192.428
46.58000 193.245
46.59000 194.034
46.60000 194.820
46.61000 195.974
46.62000 198.014
46.63000 200.093
46.64000 201.387
46.65000 196.377
46.66000 192.703
46.67000 189.914
46.68000 188.071
46.69000 186.246
46.70000 186.585
46.71000 188.426
46.72000 190.225
46.73000 193.912
46.74000 198.291
46.75000 202.198
46.76000 199.703
46.77000 195.183
46.78000 191.542
46.79000 194.687
46.80000 199.260
46.81000 203.131
46.82000 202.284
46.83000 201.047
46.84000 200.179
46.85000 200.503
46.86000 200.919
46.87000 200.446
46.88000 198.026
46.89000 195.536
46.90000 194.047
46.91000 194.376
46.92000 194.622
46.93000 194.974
46.94000 195.429
46.95000 195.866
46.96000 194.908
46.97000 193.073
46.98000 191.291
46.99000 187.694
47.00000 183.544
47.01000 179.872
47.02000 181.789
47.03000 185.313
47.04000 188.726
47.05000 191.378
47.06000 193.887
47.07000 195.971
47.08000 201.272
47.09000 205.972
47.10000 207.526
47.11000 199.815
47.12000 191.500
47.13000 187.572
47.14000 192.404
47.15000 197.478
47.16000 200.388
47.17000 192.276
47.18000 186.574
47.19000 185.757
47.20000 189.155
47.21000 192.518
47.22000 194.006
47.23000 194.422
47.24000 194.823
47.25000 192.243
47.26000 188.728
47.27000 185.432
47.28000 184.356
47.29000 183.860
47.30000 183.824
47.31000 186.609
47.32000 189.876
47.33000 192.537
47.34000 190.482
47.35000 188.402
47.36000 188.125
47.37000 192.681
47.38000 197.501
47.39000 198.857
47.40000 193.916
47.41000 188.844
47.42000 186.066
47.43000 183.473
47.44000 181.702
47.45000 183.262
47.46000 187.415
47.47000 191.446
47.48000 190.607
47.49000 187.235
47.50000 184.008
47.51000 185.783
47.52000 189.080
47.53000 192.083
47.54000 192.460
47.55000 192.215
47.56000 190.902
47.57000 183.709
47.58000 175.619
47.59000 169.166
47.60000 177.637
47.61000 185.566
47.62000 189.277
47.63000 182.688
47.64000 175.632
47.65000 172.796
47.66000 176.934
47.67000 181.176
47.68000 183.387
47.69000 186.172
47.70000 188.062
47.71000 190.745
47.72000 193.987
47.73000 197.028
47.74000 193.832
47.75000 187.682
47.76000 181.848
47.77000 178.759
47.78000 176.723
47.79000 175.397
47.80000 179.665
47.81000 185.129
47.82000 189.859
47.83000 190.945
47.84000 191.537
47.85000 191.999
47.86000 189.791
47.87000 187.865
47.88000 185.548
47.89000 182.363
47.90000 179.146
47.91000 177.275
47.92000 177.423
47.93000 177.591
47.94000 176.084
47.95000 172.943
47.96000 169.866
47.97000 172.193
47.98000 177.973
47.99000 183.645
48.00000 186.662
48.01000 188.533
48.02000 190.290
48.03000 188.288
48.04000 185.460
48.05000 182.704
48.06000 180.444
48.07000 178.281
48.08000 176.784
48.09000 178.268
48.10000 180.111
48.11000 181.514
48.12000 179.875
48.13000 178.425
48.14000 177.059
48.15000 175.863
48.16000 174.671
48.17000 172.350
48.18000 168.494
48.19000 164.632
48.20000 167.389
48.21000 175.945
48.22000 184.434
48.23000 189.119
48.24000 191.596
48.25000 194.033
48.26000 195.658
48.27000 196.965
48.28000 198.179
48.29000 190.855
48.30000 182.202
48.31000 175.226
48.32000 178.716
48.33000 184.020
48.34000 186.802
48.35000 179.364
48.36000 170.843
48.37000 164.521
48.38000 170.267
48.39000 175.260
48.40000 179.095
48.41000 180.792
48.42000 182.442
48.43000 181.535
48.44000 177.487
48.45000 173.438
48.46000 174.916
48.47000 180.742
48.48000 186.333
48.49000 182.035
48.50000 172.514
48.51000 163.684
48.52000 166.513
48.53000 173.518
48.54000 179.953
48.55000 184.044
48.56000 187.193
48.57000 189.019
48.58000 183.436
48.59000 176.703
48.60000 170.959
48.61000 168.849
48.62000 167.075
48.63000 165.795
48.64000 172.007
48.65000 177.039
48.66000 178.488
48.67000 173.923
48.68000 169.264
48.69000 168.419
48.70000 171.798
48.71000 175.166
48.72000 176.056
48.73000 175.180
48.74000 174.378
48.75000 175.952
48.76000 178.669
48.77000 181.209
48.78000 181.230
48.79000 180.430
48.80000 179.704
48.81000 176.676
48.82000 173.561
48.83000 171.346
48.84000 173.659
48.85000 176.598
48.86000 178.842
48.87000 178.764
48.88000 178.500
48.89000 178.315
48.90000 184.224
48.91000 188.870
48.92000 190.711
48.93000 188.277
48.94000 185.798
48.95000 183.434
48.96000 181.183
48.97000 178.948
48.98000 179.286
48.99000 181.265
49.00000 183.033
49.01000 179.398
49.02000 173.396
49.03000 168.010
49.04000 170.179
49.05000 174.588
49.06000 178.534
49.07000 180.301
49.08000 181.470
49.09000 182.558
49.10000 183.282
49.11000 183.961
49.12000 183.260
49.13000 178.371
49.14000 173.194
49.15000 169.676
49.16000 174.924
49.17000 179.038
49.18000 179.968
49.19000 176.501
49.20000 173.009
49.21000 172.499
49.22000 174.651
49.23000 176.782
49.24000 178.020
49.25000 178.716
49.26000 179.306
49.27000 177.654
49.28000 175.107
49.29000 172.610
49.30000 170.645
49.31000 168.823
49.32000 167.216
49.33000 164.007
49.34000 160.996
49.35000 160.304
49.36000 169.155
49.37000 179.040
49.38000 185.651
49.39000 183.218
49.40000 180.259
49.41000 178.315
49.42000 181.009
49.43000 183.071
49.44000 181.789
49.45000 176.330
49.46000 170.875
49.47000 170.843
49.48000 175.176
49.49000 179.447
49.50000 181.710
49.51000 182.863
49.52000 184.046
49.53000 185.735
49.54000 187.610
49.55000 188.882
49.56000 184.552
49.57000 178.853
49.58000 173.905
49.59000 179.530
49.60000 185.750
49.61000 189.687
49.62000 185.107
49.63000 179.721
49.64000 174.524
49.65000 169.803
49.66000 165.105
49.67000 162.126
49.68000 166.095
49.69000 169.059
49.70000 171.207
49.71000 172.435
49.72000 173.658
49.73000 174.271
49.74000 174.439
49.75000 174.605
49.76000 171.304
49.77000 166.498
49.78000 162.011
49.79000 162.200
49.80000 163.938
49.81000 165.732
49.82000 167.988
49.83000 170.347
49.84000 172.361
49.85000 177.596
49.86000 182.389
49.87000 184.619
49.88000 178.162
49.89000 170.992
49.90000 165.466
49.91000 163.711
49.92000 162.104
49.93000 161.124
49.94000 169.565
49.95000 175.677
49.96000 176.763
49.97000 172.764
49.98000 168.813
49.99000 169.451
50.00000 173.116
50.01000 176.687
50.02000 175.105
50.03000 171.408
50.04000 168.075
50.05000 169.318
50.06000 171.939
50.07000 173.907
50.08000 171.132
50.09000 167.411
50.10000 164.290
50.11000 167.020
50.12000 169.902
50.13000 172.293
50.14000 173.172
50.15000 173.945
50.16000 173.012
50.17000 168.516
50.18000 163.909
50.19000 161.211
50.20000 164.243
50.21000 166.406
50.22000 169.888
50.23000 174.568
50.24000 179.199
50.25000 180.702
50.26000 180.332
50.27000 179.974
50.28000 179.389
50.29000 178.750
50.30000 178.197
50.31000 178.584
50.32000 179.229
50.33000 179.850
50.34000 180.315
50.35000 180.753
50.36000 181.112
50.37000 177.488
50.38000 174.147
50.39000 172.707
50.40000 176.599
50.41000 180.810
50.42000 183.201
50.43000 182.129
50.44000 180.973
50.45000 180.325
50.46000 181.358
50.47000 182.079
50.48000 182.838
50.49000 183.630
50.50000 184.405
50.51000 184.427
50.52000 184.039
50.53000 183.666
50.54000 179.528
50.55000 174.352
50.56000 170.003
50.57000 173.496
50.58000 178.934
50.59000 184.330
50.60000 189.479
50.61000 194.588
50.62000 198.706
50.63000 200.747
50.64000 202.240
50.65000 202.145
50.66000 197.993
50.67000 193.638
50.68000 190.980
50.69000 191.259
50.70000 191.590
50.71000 191.767
50.72000 188.827
50.73000 186.828
50.74000 186.238
50.75000 186.690
50.76000 187.130
50.77000 187.188
50.78000 187.057
50.79000 186.931
50.80000 189.080
50.81000 191.780
50.82000 194.641
50.83000 198.847
50.84000 203.355
50.85000 206.272
50.86000 200.893
50.87000 194.322
50.88000 189.140
50.89000 186.522
50.90000 184.596
50.91000 183.318
50.92000 183.550
50.93000 183.844
50.94000 183.493
50.95000 182.128
50.96000 180.752
50.97000 180.054
50.98000 185.554
50.99000 189.224
51.00000 191.437
51.01000 192.673
51.02000 193.800
51.03000 191.954
51.04000 188.766
51.05000 185.757
51.06000 184.341
51.07000 183.489
51.08000 182.538
51.09000 180.849
51.10000 179.011
51.11000 177.406
51.12000 176.897
51.13000 176.529
51.14000 176.245
51.15000 175.825
51.16000 175.484
51.17000 175.521
51.18000 176.359
51.19000 177.223
51.20000 176.922
51.21000 174.958
51.22000 172.982
51.23000 172.560
51.24000 173.571
51.25000 174.544
51.26000 172.951
51.27000 169.797
51.28000 166.849
51.29000 168.487
51.30000 172.011
51.31000 175.304
51.32000 174.929
51.33000 173.663
51.34000 172.856
51.35000 175.073
51.36000 177.843
51.37000 179.289
51.38000 175.113
51.39000 170.302
51.40000 166.687
51.41000 164.776
51.42000 163.363
51.43000 162.718
51.44000 163.553
51.45000 164.425
51.46000 164.658
51.47000 164.067
51.48000 163.474
51.49000 162.092
51.50000 160.061
51.51000 158.178
51.52000 163.484
51.53000 172.766
51.54000 181.500
51.55000 180.159
51.56000 175.043
51.57000 170.317
51.58000 168.374
51.59000 167.260
51.60000 166.053
51.61000 164.296
51.62000 162.448
51.63000 160.622
51.64000 158.878
51.65000 157.142
51.66000 155.871
51.67000 155.013
51.68000 154.368
51.69000 155.625
51.70000 160.226
51.71000 164.889
51.72000 166.044
51.73000 163.112
51.74000 160.182
51.75000 161.828
51.76000 166.876
51.77000 171.814
51.78000 172.719
51.79000 171.594
51.80000 170.470
51.81000 169.344
51.82000 168.218
51.83000 167.190
51.84000 164.747
51.85000 162.292
51.86000 160.130
51.87000 159.513
51.88000 159.123
51.89000 159.218
51.90000 161.008
51.91000 162.943
51.92000 164.320
51.93000 161.920
51.94000 159.972
51.95000 157.518
51.96000 154.258
51.97000 150.987
51.98000 149.472
51.99000 149.795
52.00000 150.117
52.01000 152.056
52.02000 155.059
52.03000 158.008
52.04000 159.443
52.05000 160.182
52.06000 161.045
52.07000 163.537
52.08000 166.534
52.09000 169.234
52.10000 166.028
52.11000 162.146
52.12000 158.568
52.13000 156.443
52.14000 154.508
52.15000 152.982
52.16000 152.759
52.17000 152.633
52.18000 152.546
52.19000 149.598
52.20000 147.311
52.21000 148.530
52.22000 154.831
52.23000 161.171
52.24000 161.494
52.25000 156.161
52.26000 150.872
52.27000 152.029
52.28000 157.072
52.29000 161.935
52.30000 162.668
52.31000 161.677
52.32000 160.790
52.33000 161.102
52.34000 161.751
52.35000 162.329
52.36000 160.885
52.37000 159.308
52.38000 157.724
52.39000 156.113
52.40000 154.498
52.41000 153.689
52.42000 155.209
52.43000 156.876
52.44000 157.989
52.45000 158.263
52.46000 158.449
52.47000 159.001
52.48000 160.034
52.49000 161.069
52.50000 162.088
52.51000 163.094
52.52000 164.087
52.53000 160.694
52.54000 154.989
52.55000 149.487
52.56000 147.818
52.57000 147.607
52.58000 147.640
52.59000 150.081
52.60000 153.139
52.61000 155.815
52.62000 158.131
52.63000 160.065
52.64000 161.664
52.65000 161.955
52.66000 162.114
52.67000 161.150
52.68000 157.230
52.69000 153.154
52.70000 150.524
52.71000 154.431
52.72000 157.380
52.73000 159.588
52.74000 160.918
52.75000 162.236
52.76000 161.388
52.77000 158.885
52.78000 156.425
52.79000 157.038
52.80000 159.148
52.81000 160.951
52.82000 157.894
52.83000 153.152
52.84000 149.152
52.85000 151.615
52.86000 155.578
52.87000 158.990
52.88000 157.336
52.89000 155.294
52.90000 154.120
52.91000 156.027
52.92000 158.205
52.93000 160.282
52.94000 162.119
52.95000 163.944
52.96000 165.080
52.97000 161.990
52.98000 159.722
52.99000 157.389
53.00000 154.984
53.01000 152.575
53.02000 149.560
53.03000 146.127
53.04000 142.772
53.05000 145.541
53.06000 150.925
53.07000 155.926
53.08000 155.744
53.09000 153.929
53.10000 152.558
53.11000 154.596
53.12000 157.349
53.13000 159.679
53.14000 152.878
53.15000 146.170
53.16000 142.339
53.17000 147.788
53.18000 153.943
53.19000 157.759
53.20000 156.462
53.21000 154.985
53.22000 154.102
53.23000 152.660
53.24000 151.633
53.25000 152.339
53.26000 154.703
53.27000 157.041
53.28000 157.462
53.29000 156.678
53.30000 155.918
53.31000 155.272
53.32000 154.704
53.33000 154.233
53.34000 154.889
53.35000 155.868
53.36000 156.449
53.37000 154.309
53.38000 151.654
53.39000 149.448
53.40000 155.044
53.41000 160.430
53.42000 163.940
53.43000 161.945
53.44000 159.592
53.45000 157.240
53.46000 154.889
53.47000 152.539
53.48000 151.192
53.49000 153.951
53.50000 155.891
53.51000 157.524
53.52000 158.893
53.53000 160.176
53.54000 156.804
53.55000 150.780
53.56000 144.970
53.57000 147.290
53.58000 152.425
53.59000 157.165
53.60000 157.895
53.61000 157.581
53.62000 156.984
53.63000 154.655
53.64000 152.031
53.65000 149.895
53.66000 150.468
53.67000 151.166
53.68000 152.218
53.69000 154.217
53.70000 156.268
53.71000 157.182
53.72000 156.037
53.73000 154.850
53.74000 154.200
53.75000 145.280
53.76000 139.167
53.77000 140.819
53.78000 148.499
53.79000 156.035
53.80000 157.854
53.81000 156.706
53.82000 155.608
53.83000 151.671
53.84000 147.075
53.85000 143.064
53.86000 144.253
53.87000 146.668
53.88000 149.419
53.89000 154.016
53.90000 158.894
53.91000 162.783
53.92000 157.309
53.93000 152.211
53.94000 149.439
53.95000 152.333
53.96000 155.482
53.97000 157.352
53.98000 157.115
53.99000 156.847
54.00000 156.708
54.01000 152.802
54.02000 150.175
54.03000 149.346
54.04000 149.780
54.05000 150.112
54.06000 147.290
54.07000 142.979
54.08000 138.890
54.09000 142.560
54.10000 148.230
54.11000 153.470
54.12000 155.324
54.13000 156.456
54.14000 157.198
54.15000 156.014
54.16000 154.570
54.17000 153.444
54.18000 152.690
54.19000 152.113
54.20000 151.471
54.21000 150.687
54.22000 149.897
54.23000 148.667
54.24000 146.777
54.25000 144.881
54.26000 145.613
54.27000 148.904
54.28000 152.152
54.29000 151.819
54.30000 149.206
54.31000 146.714
54.32000 147.220
54.33000 149.016
54.34000 150.703
54.35000 151.180
54.36000 151.293
54.37000 150.770
54.38000 145.809
54.39000 139.995
54.40000 136.147
54.41000 141.069
54.42000 147.042
54.43000 151.586
54.44000 150.055
54.45000 148.533
54.46000 148.837
54.47000 152.832
54.48000 156.933
54.49000 158.193
54.50000 155.605
54.51000 152.997
54.52000 153.369
54.53000 156.341
54.54000 159.215
54.55000 156.486
54.56000 150.513
54.57000 145.047
54.58000 149.792
54.59000 158.540
54.60000 166.667
54.61000 161.080
54.62000 152.769
54.63000 146.267
54.64000 151.031
54.65000 157.742
54.66000 162.165
54.67000 157.356
54.68000 151.572
54.69000 147.283
54.70000 151.862
54.71000 155.804
54.72000 158.389
54.73000 158.475
54.74000 158.507
54.75000 156.875
54.76000 153.205
54.77000 149.538
54.78000 147.953
54.79000 148.012
54.80000 148.071
54.81000 148.141
54.82000 148.218
54.83000 148.273
54.84000 147.978
54.85000 147.558
54.86000 147.173
54.87000 147.060
54.88000 147.017
54.89000 147.249
54.90000 149.012
54.91000 151.013
54.92000 151.538
54.93000 146.659
54.94000 141.282
54.95000 137.404
54.96000 145.068
54.97000 151.354
54.98000 155.008
54.99000 154.257
55.00000 153.438
55.01000 151.050
55.02000 146.930
55.03000 142.825
55.04000 145.904
55.05000 154.032
55.06000 161.997
55.07000 164.720
55.08000 164.929
55.09000 164.982
55.10000 162.822
55.11000 159.943
55.12000 157.332
55.13000 157.192
55.14000 157.542
55.15000 157.734
55.16000 157.130
55.17000 156.416
55.18000 155.943
55.19000 156.270
55.20000 156.662
55.21000 156.936
55.22000 162.412
55.23000 166.702
55.24000 168.218
55.25000 165.518
55.26000 162.775
55.27000 158.488
55.28000 152.671
55.29000 146.895
55.30000 151.129
55.31000 161.678
55.32000 171.968
55.33000 175.664
55.34000 176.480
55.35000 177.140
55.36000 175.895
55.37000 174.086
55.38000 172.469
55.39000 169.093
55.40000 165.849
55.41000 164.278
55.42000 170.294
55.43000 177.238
55.44000 181.722
55.45000 178.763
55.46000 175.295
55.47000 172.941
55.48000 165.049
55.49000 159.038
55.50000 159.022
55.51000 167.261
55.52000 175.549
55.53000 181.361
55.54000 184.970
55.55000 188.541
55.56000 189.846
55.57000 189.819
55.58000 189.944
55.59000 193.199
55.60000 197.701
55.61000 202.105
55.62000 205.462
55.63000 208.539
55.64000 211.252
55.65000 220.424
55.66000 229.311
55.67000 237.119
55.68000 240.506
55.69000 243.415
55.70000 247.786
55.71000 256.185
55.72000 264.817
55.73000 270.484
55.74000 293.551
55.75000 310.814
55.76000 324.266
55.77000 332.973
55.78000 341.656
55.79000 347.135
55.80000 350.042
55.81000 352.906
55.82000 359.981
55.83000 369.033
55.84000 378.130
55.85000 388.021
55.86000 398.198
55.87000 408.273
55.88000 417.390
55.89000 426.274
55.90000 433.985
55.91000 435.774
55.92000 436.503
55.93000 439.455
55.94000 450.675
55.95000 462.674
55.96000 470.522
55.97000 467.946
55.98000 464.870
55.99000 462.921
56.00000 460.514
56.01000 458.762
56.02000 455.796
56.03000 451.466
56.04000 447.136
56.05000 443.115
56.06000 439.317
56.07000 435.594
56.08000 425.569
56.09000 412.967
56.10000 400.825
56.11000 395.403
56.12000 392.200
56.13000 388.691
56.14000 382.683
56.15000 376.124
56.16000 370.526
56.17000 349.381
56.18000 329.737
56.19000 315.905
56.20000 321.714
56.21000 329.128
56.22000 330.548
56.23000 318.259
56.24000 305.433
56.25000 297.616
56.26000 295.171
56.27000 293.467
56.28000 284.053
56.29000 266.867
56.30000 249.788
56.31000 242.905
56.32000 242.727
56.33000 242.553
56.34000 240.559
56.35000 237.887
56.36000 234.943
56.37000 228.607
56.38000 221.251
56.39000 214.475
56.40000 211.888
56.41000 210.133
56.42000 208.663
56.43000 210.664
56.44000 212.688
56.45000 212.514
56.46000 205.580
56.47000 198.172
56.48000 190.780
56.49000 183.420
56.50000 176.061
56.51000 171.757
56.52000 172.874
56.53000 173.685
56.54000 172.905
56.55000 170.686
56.56000 168.453
56.57000 165.405
56.58000 161.868
56.59000 158.446
56.60000 161.125
56.61000 165.987
56.62000 170.523
56.63000 171.529
56.64000 171.573
56.65000 171.363
56.66000 169.519
56.67000 167.382
56.68000 165.625
56.69000 165.458
56.70000 165.463
56.71000 164.357
56.72000 160.137
56.73000 155.733
56.74000 152.994
56.75000 153.414
56.76000 153.909
56.77000 154.187
56.78000 146.567
56.79000 141.278
56.80000 139.046
56.81000 139.308
56.82000 139.631
56.83000 142.783
56.84000 147.471
56.85000 151.974
56.86000 151.087
56.87000 148.400
56.88000 146.265
56.89000 149.347
56.90000 153.720
56.91000 156.745
56.92000 151.983
56.93000 145.971
56.94000 141.128
56.95000 144.628
56.96000 148.122
56.97000 149.296
56.98000 144.558
56.99000 139.527
57.00000 137.331
57.01000 140.025
57.02000 142.804
57.03000 144.287
57.04000 143.859
57.05000 143.559
57.06000 141.793
57.07000 138.947
57.08000 136.192
57.09000 136.586
57.10000 138.536
57.11000 140.394
57.12000 140.485
57.13000 140.022
57.14000 139.917
57.15000 142.796
57.16000 146.344
57.17000 149.123
57.18000 147.915
57.19000 146.135
57.20000 144.733
57.21000 145.779
57.22000 146.783
57.23000 146.958
57.24000 145.210
57.25000 143.384
57.26000 140.594
57.27000 136.293
57.28000 131.973
57.29000 129.786
57.30000 134.678
57.31000 137.923
57.32000 137.978
57.33000 135.903
57.34000 133.972
57.35000 135.993
57.36000 139.792
57.37000 143.378
57.38000 141.351
57.39000 137.925
57.40000 134.932
57.41000 135.137
57.42000 135.990
57.43000 136.776
57.44000 137.254
57.45000 137.692
57.46000 138.029
57.47000 136.151
57.48000 134.538
57.49000 135.711
57.50000 142.778
57.51000 150.036
57.52000 152.169
57.53000 147.015
57.54000 141.808
57.55000 139.414
57.56000 139.609
57.57000 139.812
57.58000 140.610
57.59000 141.768
57.60000 142.690
57.61000 138.395
57.62000 131.960
57.63000 125.951
57.64000 129.056
57.65000 134.164
57.66000 138.620
57.67000 138.803
57.68000 138.208
57.69000 137.718
57.70000 137.676
57.71000 137.683
57.72000 137.689
57.73000 138.944
57.74000 139.985
57.75000 140.004
57.76000 138.057
57.77000 136.060
57.78000 136.499
57.79000 140.071
57.80000 143.651
57.81000 142.173
57.82000 136.518
57.83000 131.018
57.84000 132.947
57.85000 138.972
57.86000 144.709
57.87000 145.169
57.88000 143.656
57.89000 142.259
57.90000 144.815
57.91000 147.999
57.92000 150.106
57.93000 145.880
57.94000 140.621
57.95000 136.329
57.96000 135.755
57.97000 135.547
57.98000 135.395
57.99000 133.798
58.00000 132.509
58.01000 132.664
58.02000 135.350
58.03000 138.083
58.04000 140.575
58.05000 142.787
58.06000 144.993
58.07000 143.840
58.08000 140.196
58.09000 136.598
58.10000 134.647
58.11000 133.524
58.12000 132.748
58.13000 137.334
58.14000 143.743
58.15000 149.592
58.16000 147.310
58.17000 143.644
58.18000 140.350
58.19000 139.029
58.20000 137.995
58.21000 136.536
58.22000 133.598
58.23000 130.534
58.24000 128.356
58.25000 133.230
58.26000 137.165
58.27000 140.690
58.28000 143.560
58.29000 146.423
58.30000 144.542
58.31000 137.707
58.32000 130.909
58.33000 130.062
58.34000 133.213
58.35000 136.281
58.36000 136.975
58.37000 136.585
58.38000 136.467
58.39000 139.922
58.40000 144.483
58.41000 148.590
58.42000 143.538
58.43000 137.455
58.44000 132.874
58.45000 135.448
58.46000 138.951
58.47000 141.817
58.48000 142.664
58.49000 143.361
58.50000 143.842
58.51000 145.209
58.52000 146.259
58.53000 144.999
58.54000 140.403
58.55000 135.781
58.56000 132.171
58.57000 129.508
58.58000 126.868
58.59000 129.407
58.60000 135.028
58.61000 140.460
58.62000 141.581
58.63000 140.906
58.64000 139.876
58.65000 134.813
58.66000 128.614
58.67000 123.110
58.68000 123.752
58.69000 125.296
58.70000 127.504
58.71000 132.571
58.72000 137.966
58.73000 141.011
58.74000 137.284
58.75000 133.131
58.76000 130.360
58.77000 135.496
58.78000 139.454
58.79000 142.095
58.80000 143.012
58.81000 143.919
58.82000 142.532
58.83000 139.213
58.84000 135.936
58.85000 134.740
58.86000 134.710
58.87000 134.647
58.88000 133.963
58.89000 133.044
58.90000 132.351
58.91000 133.892
58.92000 136.002
58.93000 137.848
58.94000 133.595
58.95000 129.082
58.96000 125.862
58.97000 127.690
58.98000 130.027
58.99000 132.017
59.00000 133.098
59.01000 134.132
59.02000 134.798
59.03000 136.455
59.04000 137.680
59.05000 136.707
59.06000 133.139
59.07000 129.577
59.08000 128.161
59.09000 128.378
59.10000 128.592
59.11000 127.057
59.12000 124.713
59.13000 122.723
59.14000 126.346
59.15000 131.909
59.16000 136.972
59.17000 137.714
59.18000 137.456
59.19000 137.234
59.20000 133.255
59.21000 129.413
59.22000 126.677
59.23000 127.857
59.24000 129.381
59.25000 130.998
59.26000 132.838
59.27000 134.687
59.28000 135.835
59.29000 132.963
59.30000 130.855
59.31000 129.122
59.32000 127.785
59.33000 126.448
59.34000 125.079
59.35000 123.688
59.36000 122.328
59.37000 121.532
59.38000 121.019
59.39000 120.698
59.40000 122.968
59.41000 126.052
59.42000 129.015
59.43000 131.048
59.44000 132.887
59.45000 134.443
59.46000 134.351
59.47000 134.093
59.48000 134.255
59.49000 135.770
59.50000 137.388
59.51000 138.505
59.52000 138.534
59.53000 138.524
59.54000 138.518
59.55000 132.948
59.56000 128.964
59.57000 127.235
59.58000 127.656
59.59000 128.105
59.60000 130.768
59.61000 134.815
59.62000 138.744
59.63000 137.711
59.64000 134.738
59.65000 132.203
59.66000 134.732
59.67000 138.710
59.68000 141.441
59.69000 135.675
59.70000 128.307
59.71000 122.191
59.72000 123.997
59.73000 126.256
59.74000 128.732
59.75000 131.839
59.76000 134.988
59.77000 136.881
59.78000 136.280
59.79000 135.612
59.80000 135.229
59.81000 136.334
59.82000 137.108
59.83000 136.690
59.84000 135.249
59.85000 133.849
59.86000 134.622
59.87000 136.631
59.88000 138.568
59.89000 139.182
59.90000 139.279
59.91000 139.222
59.92000 137.605
59.93000 135.584
59.94000 133.462
59.95000 130.728
59.96000 127.891
59.97000 125.583
59.98000 130.427
59.99000 134.983
60.00000 138.238
60.01000 138.019
60.02000 137.612
60.03000 134.899
60.04000 128.016
60.05000 121.049
60.06000 117.244
60.07000 125.889
60.08000 131.840
60.09000 136.162
60.10000 139.223
60.11000 142.206
60.12000 142.055
60.13000 140.283
60.14000 138.588
60.15000 135.155
60.16000 131.392
60.17000 128.129
60.18000 129.297
60.19000 131.506
60.20000 133.672
60.21000 135.606
60.22000 137.505
60.23000 139.018
60.24000 139.857
60.25000 140.485
60.26000 140.532
60.27000 139.169
60.28000 137.742
60.29000 135.420
60.30000 131.626
60.31000 127.811
60.32000 125.828
60.33000 120.627
60.34000 117.169
60.35000 120.880
60.36000 129.615
60.37000 138.096
60.38000 138.810
60.39000 135.866
60.40000 133.076
60.41000 134.189
60.42000 136.362
60.43000 137.744
60.44000 132.939
60.45000 126.818
60.46000 122.218
60.47000 125.106
60.48000 129.003
60.49000 132.038
60.50000 127.741
60.51000 123.865
60.52000 122.712
60.53000 127.582
60.54000 132.670
60.55000 135.572
60.56000 135.215
60.57000 134.826
60.58000 131.718
60.59000 125.971
60.60000 120.293
60.61000 120.225
60.62000 123.721
60.63000 127.189
60.64000 129.974
60.65000 132.468
60.66000 134.808
60.67000 132.634
60.68000 129.457
60.69000 126.751
60.70000 127.321
60.71000 128.519
60.72000 129.134
60.73000 127.154
60.74000 124.865
60.75000 123.125
60.76000 125.997
60.77000 128.496
60.78000 129.286
60.79000 126.630
60.80000 123.877
60.81000 123.785
60.82000 127.287
60.83000 130.808
60.84000 132.520
60.85000 132.656
60.86000 132.805
60.87000 133.716
60.88000 135.065
60.89000 136.371
60.90000 136.796
60.91000 136.878
60.92000 136.954
60.93000 133.721
60.94000 130.019
60.95000 127.043
60.96000 128.564
60.97000 130.861
60.98000 132.758
60.99000 133.047
61.00000 133.167
61.01000 133.257
61.02000 135.345
61.03000 137.052
61.04000 136.775
61.05000 132.856
61.06000 128.859
61.07000 126.637
61.08000 126.581
61.09000 126.531
61.10000 127.638
61.11000 129.645
61.12000 131.604
61.13000 131.573
61.14000 130.498
61.15000 129.533
61.16000 130.418
61.17000 131.960
61.18000 133.376
61.19000 135.826
61.20000 138.230
61.21000 139.980
61.22000 138.093
61.23000 135.644
61.24000 133.138
61.25000 130.426
61.26000 127.694
61.27000 125.725
61.28000 130.054
61.29000 133.594
61.30000 136.028
61.31000 136.619
61.32000 137.182
61.33000 136.721
61.34000 135.135
61.35000 133.554
61.36000 133.289
61.37000 133.954
61.38000 134.562
61.39000 133.322
61.40000 131.199
61.41000 129.251
61.42000 129.775
61.43000 131.100
61.44000 132.302
61.45000 136.120
61.46000 139.986
61.47000 143.650
61.48000 146.297
61.49000 148.806
61.50000 152.393
61.51000 159.562
61.52000 167.015
61.53000 172.231
61.54000 176.378
61.55000 179.483
61.56000 186.146
61.57000 198.198
61.58000 210.306
61.59000 218.864
61.60000 223.918
61.61000 228.938
61.62000 235.675
61.63000 243.399
61.64000 250.957
61.65000 254.328
61.66000 255.875
61.67000 257.566
61.68000 261.015
61.69000 264.982
61.70000 268.529
61.71000 263.924
61.72000 258.524
61.73000 253.838
61.74000 252.381
61.75000 251.318
61.76000 248.641
61.77000 241.095
61.78000 233.217
61.79000 227.874
61.80000 217.611
61.81000 209.848
61.82000 200.482
61.83000 188.916
61.84000 177.341
61.85000 170.594
61.86000 168.129
61.87000 165.690
61.88000 158.963
61.89000 149.929
61.90000 141.190
61.91000 138.538
61.92000 138.303
61.93000 138.226
61.94000 139.810
61.95000 141.838
61.96000 143.626
61.97000 145.829
61.98000 147.791
61.99000 149.452
62.00000 149.881
62.01000 150.177
62.02000 148.765
62.03000 142.662
62.04000 136.289
62.05000 132.110
62.06000 136.855
62.07000 140.493
62.08000 143.160
62.09000 144.620
62.10000 146.074
62.11000 146.297
62.12000 145.536
62.13000 144.785
62.14000 144.496
62.15000 144.455
62.16000 144.247
62.17000 141.179
62.18000 137.078
62.19000 133.410
62.20000 133.750
62.21000 135.061
62.22000 136.200
62.23000 135.793
62.24000 135.240
62.25000 134.882
62.26000 135.244
62.27000 135.674
62.28000 136.237
62.29000 137.132
62.30000 138.043
62.31000 138.619
62.32000 136.218
62.33000 134.442
62.34000 136.225
62.35000 141.990
62.36000 147.722
62.37000 147.752
62.38000 143.656
62.39000 139.643
62.40000 140.897
62.41000 144.565
62.42000 147.820
62.43000 145.090
62.44000 140.389
62.45000 136.324
62.46000 137.433
62.47000 139.679
62.48000 141.594
62.49000 139.618
62.50000 137.496
62.51000 136.636
62.52000 140.029
62.53000 143.769
62.54000 145.942
62.55000 144.542
62.56000 143.003
62.57000 142.067
62.58000 140.478
62.59000 139.338
62.60000 140.880
62.61000 145.116
62.62000 149.311
62.63000 149.749
62.64000 147.722
62.65000 145.747
62.66000 145.387
62.67000 145.725
62.68000 145.958
62.69000 144.880
62.70000 143.409
62.71000 142.006
62.72000 141.091
62.73000 140.274
62.74000 139.590
62.75000 143.102
62.76000 146.456
62.77000 148.586
62.78000 146.962
62.79000 145.077
62.80000 143.285
62.81000 141.688
62.82000 140.096
62.83000 139.167
62.84000 141.937
62.85000 143.901
62.86000 142.914
62.87000 139.264
62.88000 135.665
62.89000 135.235
62.90000 136.693
62.91000 138.103
62.92000 140.269
62.93000 142.604
62.94000 144.765
62.95000 145.055
62.96000 144.836
62.97000 144.219
62.98000 141.034
62.99000 137.392
63.00000 134.399
63.01000 135.995
63.02000 137.721
63.03000 140.051
63.04000 144.068
63.05000 148.186
63.06000 148.775
63.07000 142.692
63.08000 136.451
63.09000 132.964
63.10000 142.888
63.11000 149.781
63.12000 153.174
63.13000 153.720
63.14000 154.210
63.15000 152.136
63.16000 148.674
63.17000 145.349
63.18000 143.399
63.19000 142.046
63.20000 141.018
63.21000 143.054
63.22000 145.846
63.23000 148.439
63.24000 149.879
63.25000 151.134
63.26000 152.145
63.27000 148.669
63.28000 145.498
63.29000 142.901
63.30000 141.761
63.31000 140.693
63.32000 141.219
63.33000 144.486
63.34000 147.801
63.35000 149.566
63.36000 141.760
63.37000 136.465
63.38000 135.953
63.39000 138.956
63.40000 141.901
63.41000 142.843
63.42000 142.798
63.43000 142.755
63.44000 141.629
63.45000 140.251
63.46000 138.939
63.47000 138.170
63.48000 137.522
63.49000 136.927
63.50000 136.609
63.51000 136.330
63.52000 136.110
63.53000 137.629
63.54000 138.962
63.55000 139.811
63.56000 139.538
63.57000 139.221
63.58000 139.668
63.59000 141.313
63.60000 142.972
63.61000 143.811
63.62000 148.996
63.63000 152.433
63.64000 152.530
63.65000 150.404
63.66000 148.482
63.67000 152.081
63.68000 158.160
63.69000 163.894
63.70000 158.589
63.71000 150.651
63.72000 143.719
63.73000 144.178
63.74000 146.127
63.75000 148.294
63.76000 151.481
63.77000 154.797
63.78000 157.347
63.79000 154.246
63.80000 151.471
63.81000 149.215
63.82000 148.054
63.83000 146.927
63.84000 146.822
63.85000 148.164
63.86000 149.516
63.87000 149.830
63.88000 149.193
63.89000 148.584
63.90000 149.830
63.91000 152.199
63.92000 154.482
63.93000 154.883
63.94000 154.516
63.95000 154.172
63.96000 154.244
63.97000 154.413
63.98000 153.933
63.99000 149.205
64.00000 143.705
64.01000 140.567
64.02000 147.408
64.03000 155.366
64.04000 161.336
64.05000 156.388
64.06000 152.003
64.07000 148.961
64.08000 148.496
64.09000 148.096
64.10000 150.676
64.11000 157.079
64.12000 163.488
64.13000 165.699
64.14000 164.441
64.15000 163.139
64.16000 159.644
64.17000 154.945
64.18000 150.402
64.19000 148.712
64.20000 148.085
64.21000 147.505
64.22000 151.609
64.23000 156.342
64.24000 160.567
64.25000 161.812
64.26000 162.572
64.27000 163.383
64.28000 164.384
64.29000 165.405
64.30000 166.150
64.31000 159.894
64.32000 154.795
64.33000 154.650
64.34000 163.160
64.35000 171.828
64.36000 174.615
64.37000 170.594
64.38000 166.576
64.39000 165.690
64.40000 167.133
64.41000 168.561
64.42000 169.431
64.43000 170.022
64.44000 170.578
64.45000 170.593
64.46000 170.424
64.47000 170.270
64.48000 170.971
64.49000 171.764
64.50000 172.391
64.51000 172.144
64.52000 171.770
64.53000 170.453
64.54000 165.856
64.55000 160.980
64.56000 157.518
64.57000 158.710
64.58000 159.764
64.59000 161.550
64.60000 164.498
64.61000 167.459
64.62000 172.109
64.63000 178.515
64.64000 184.887
64.65000 184.651
64.66000 180.004
64.67000 175.527
64.68000 175.840
64.69000 178.335
64.70000 180.429
64.71000 177.283
64.72000 172.518
64.73000 168.229
64.74000 168.314
64.75000 169.174
64.76000 170.418
64.77000 173.483
64.78000 176.785
64.79000 179.305
64.80000 179.355
64.81000 179.225
64.82000 179.135
64.83000 179.423
64.84000 179.650
64.85000 180.234
64.86000 181.335
64.87000 182.439
64.88000 181.741
64.89000 179.362
64.90000 177.004
64.91000 179.405
64.92000 184.629
64.93000 189.722
64.94000 191.830
64.95000 192.699
64.96000 193.348
64.97000 191.519
64.98000 188.996
64.99000 186.756
65.00000 186.085
65.01000 185.754
65.02000 185.523
65.03000 185.715
65.04000 185.956
65.05000 184.722
65.06000 179.247
65.07000 173.506
65.08000 169.678
65.09000 183.889
65.10000 194.758
65.11000 199.336
65.12000 195.711
65.13000 192.057
65.14000 191.235
65.15000 192.794
65.16000 194.333
65.17000 197.728
65.18000 202.044
65.19000 206.267
65.20000 208.767
65.21000 210.614
65.22000 212.174
65.23000 210.897
65.24000 208.899
65.25000 207.151
65.26000 207.754
65.27000 208.604
65.28000 210.374
65.29000 215.719
65.30000 221.422
65.31000 225.400
65.32000 224.863
65.33000 224.088
65.34000 223.589
65.35000 226.766
65.36000 229.137
65.37000 231.327
65.38000 233.303
65.39000 235.275
65.40000 236.408
65.41000 236.903
65.42000 237.389
65.43000 241.116
65.44000 246.308
65.45000 251.230
65.46000 251.911
65.47000 251.130
65.48000 250.834
65.49000 254.720
65.50000 259.571
65.51000 263.743
65.52000 264.574
65.53000 264.858
65.54000 266.744
65.55000 274.282
65.56000 282.314
65.57000 288.665
65.58000 291.005
65.59000 293.172
65.60000 294.516
65.61000 302.851
65.62000 308.915
65.63000 315.223
65.64000 321.789
65.65000 328.421
65.66000 342.913
65.67000 362.807
65.68000 382.247
65.69000 404.730
65.70000 427.615
65.71000 452.224
65.72000 499.942
65.73000 554.904
65.74000 610.606
65.75000 671.970
65.76000 734.514
65.77000 787.381
65.78000 842.100
65.79000 888.074
65.80000 927.483
65.81000 945.830
65.82000 962.590
65.83000 980.336
65.84000 1000.221
65.85000 1020.182
65.86000 1032.081
65.87000 1033.850
65.88000 1035.041
65.89000 1029.441
65.90000 1017.388
65.91000 1005.366
65.92000 995.695
65.93000 987.492
65.94000 979.527
65.95000 946.559
65.96000 905.268
65.97000 862.422
65.98000 801.617
65.99000 735.694
66.00000 670.073
66.01000 606.501
66.02000 543.315
66.03000 490.892
66.04000 450.977
66.05000 419.198
66.06000 391.802
66.07000 377.202
66.08000 363.424
66.09000 349.248
66.10000 334.286
66.11000 319.301
66.12000 310.744
66.13000 316.730
66.14000 320.941
66.15000 315.012
66.16000 300.415
66.17000 286.100
66.18000 286.670
66.19000 295.676
66.20000 304.357
66.21000 307.637
66.22000 308.771
66.23000 310.742
66.24000 321.119
66.25000 333.672
66.26000 345.886
66.27000 356.049
66.28000 365.867
66.29000 373.851
66.30000 378.445
66.31000 381.912
66.32000 388.395
66.33000 402.894
66.34000 417.826
66.35000 426.425
66.36000 423.617
66.37000 420.576
66.38000 418.919
66.39000 428.581
66.40000 435.226
66.41000 440.788
66.42000 445.514
66.43000 450.119
66.44000 449.963
66.45000 447.352
66.46000 444.856
66.47000 444.298
66.48000 444.410
66.49000 443.143
66.50000 429.723
66.51000 413.453
66.52000 398.547
66.53000 391.073
66.54000 384.720
66.55000 379.662
66.56000 370.099
66.57000 362.063
66.58000 352.853
66.59000 340.796
66.60000 328.612
66.61000 320.842
66.62000 320.302
66.63000 319.867
66.64000 319.641
66.65000 321.081
66.66000 322.053
66.67000 322.944
66.68000 323.780
66.69000 324.613
66.70000 325.392
66.71000 326.146
66.72000 326.860
66.73000 324.669
66.74000 321.797
66.75000 318.963
66.76000 316.416
66.77000 313.930
66.78000 312.438
66.79000 315.825
66.80000 319.869
66.81000 323.016
66.82000 320.009
66.83000 317.237
66.84000 317.014
66.85000 322.417
66.86000 328.021
66.87000 327.438
66.88000 317.656
66.89000 307.787
66.90000 309.889
66.91000 323.564
66.92000 337.147
66.93000 343.266
66.94000 344.656
66.95000 345.923
66.96000 344.199
66.97000 341.196
66.98000 338.377
66.99000 341.837
67.00000 346.647
67.01000 350.371
67.02000 346.580
67.03000 341.353
67.04000 337.801
67.05000 341.676
67.06000 346.435
67.07000 350.049
67.08000 357.434
67.09000 363.434
67.10000 367.307
67.11000 366.903
67.12000 366.379
67.13000 367.090
67.14000 369.464
67.15000 371.845
67.16000 371.193
67.17000 367.912
67.18000 364.681
67.19000 364.258
67.20000 365.452
67.21000 366.831
67.22000 371.910
67.23000 378.432
67.24000 384.486
67.25000 380.429
67.26000 374.375
67.27000 369.715
67.28000 373.670
67.29000 379.105
67.30000 383.245
67.31000 382.187
67.32000 380.584
67.33000 379.398
67.34000 386.213
67.35000 391.846
67.36000 398.740
67.37000 407.939
67.38000 417.188
67.39000 418.513
67.40000 410.195
67.41000 401.871
67.42000 397.888
67.43000 397.311
67.44000 396.815
67.45000 399.596
67.46000 404.092
67.47000 408.824
67.48000 417.473
67.49000 427.512
67.50000 436.724
67.51000 434.893
67.52000 430.915
67.53000 427.524
67.54000 427.390
67.55000 427.757
67.56000 429.487
67.57000 436.182
67.58000 443.331
67.59000 448.479
67.60000 448.984
67.61000 449.207
67.62000 446.462
67.63000 438.780
67.64000 431.022
67.65000 435.295
67.66000 452.758
67.67000 470.156
67.68000 468.743
67.69000 454.127
67.70000 439.987
67.71000 440.858
67.72000 448.887
67.73000 456.770
67.74000 462.608
67.75000 467.786
67.76000 472.478
67.77000 471.792
67.78000 470.166
67.79000 470.086
67.80000 477.722
67.81000 486.416
67.82000 492.646
67.83000 490.728
67.84000 488.165
67.85000 486.374
67.86000 499.015
67.87000 508.976
67.88000 510.640
67.89000 499.775
67.90000 488.783
67.91000 486.201
67.92000 491.893
67.93000 497.546
67.94000 503.349
67.95000 509.155
67.96000 514.921
67.97000 519.668
67.98000 523.973
67.99000 528.036
68.00000 529.174
68.01000 529.453
68.02000 529.703
68.03000 530.827
68.04000 531.955
68.05000 532.946
68.06000 533.320
68.07000 533.619
68.08000 535.836
68.09000 543.824
68.10000 552.202
68.11000 557.879
68.12000 556.195
68.13000 554.779
68.14000 557.125
68.15000 564.621
68.16000 572.146
68.17000 577.669
68.18000 581.421
68.19000 585.134
68.20000 592.238
68.21000 601.120
68.22000 609.457
68.23000 606.621
68.24000 599.363
68.25000 594.049
68.26000 609.155
68.27000 629.712
68.28000 647.820
68.29000 646.645
68.30000 642.731
68.31000 640.988
68.32000 648.104
68.33000 656.166
68.34000 662.529
68.35000 664.236
68.36000 665.676
68.37000 666.619
68.38000 676.682
68.39000 684.229
68.40000 695.060
68.41000 709.955
68.42000 724.840
68.43000 732.965
68.44000 735.701
68.45000 738.396
68.46000 747.810
68.47000 760.408
68.48000 772.638
68.49000 778.592
68.50000 782.284
68.51000 787.431
68.52000 805.953
68.53000 827.712
68.54000 846.579
68.55000 857.382
68.56000 865.505
68.57000 877.023
68.58000 901.097
68.59000 926.345
68.60000 951.700
68.61000 977.324
68.62000 1002.961
68.63000 1019.161
68.64000 1098.740
68.65000 1157.149
68.66000 1207.472
68.67000 1248.777
68.68000 1290.120
68.69000 1338.236
68.70000 1391.238
68.71000 1443.174
68.72000 1499.324
68.73000 1555.299
68.74000 1611.195
68.75000 1665.947
68.76000 1720.323
68.77000 1774.857
68.78000 1830.659
68.79000 1886.740
68.80000 1934.553
68.81000 2000.537
68.82000 2058.186
68.83000 2121.681
68.84000 2204.815
68.85000 2289.540
68.86000 2399.199
68.87000 2565.558
68.88000 2734.109
68.89000 2836.587
68.90000 3331.295
68.91000 3687.572
68.92000 4396.590
68.93000 5458.914
68.94000 6530.516
68.95000 8463.751
68.96000 10960.172
68.97000 13391.752
68.98000 17215.949
68.99000 21447.369
69.00000 25692.945
69.01000 30113.973
69.02000 34587.371
69.03000 38927.879
69.04000 42313.168
69.05000 45509.684
69.06000 48186.199
69.07000 49990.598
69.08000 51400.754
69.09000 52540.133
69.10000 52852.133
69.11000 53106.637
69.12000 53383.621
69.13000 53707.176
69.14000 54032.156
69.15000 54221.727
69.16000 55343.508
69.17000 56136.297
69.18000 56486.438
69.19000 56438.473
69.20000 56369.926
69.21000 55018.348
69.22000 52905.172
69.23000 50860.887
69.24000 47773.488
69.25000 44461.758
69.26000 41204.879
69.27000 38536.957
69.28000 36028.738
69.29000 33640.445
69.30000 32020.854
69.31000 30537.934
69.32000 29320.010
69.33000 28409.004
69.34000 27688.416
69.35000 26995.924
69.36000 26381.588
69.37000 25771.850
69.38000 24929.797
69.39000 23649.588
69.40000 22359.090
69.41000 21639.104
69.42000 18438.873
69.43000 16218.550
69.44000 13995.206
69.45000 11769.414
69.46000 9556.186
69.47000 7908.678
69.48000 6566.565
69.49000 5278.114
69.50000 4372.023
69.51000 3655.479
69.52000 2973.689
69.53000 2618.088
69.54000 2342.709
69.55000 2083.957
69.56000 1920.664
69.57000 1772.584
69.58000 1653.451
69.59000 1576.391
69.60000 1517.149
69.61000 1457.058
69.62000 1394.814
69.63000 1332.465
69.64000 1271.780
69.65000 1213.949
69.66000 1156.167
69.67000 1125.442
69.68000 1091.506
69.69000 1068.429
69.70000 1049.385
69.71000 1033.299
69.72000 1017.130
69.73000 998.166
69.74000 977.829
69.75000 958.471
69.76000 941.597
69.77000 926.742
69.78000 910.928
69.79000 887.185
69.80000 861.677
69.81000 837.587
69.82000 820.823
69.83000 805.100
69.84000 792.726
69.85000 774.608
69.86000 759.712
69.87000 744.496
69.88000 728.539
69.89000 712.553
69.90000 702.742
69.91000 702.555
69.92000 702.482
69.93000 702.444
69.94000 695.991
69.95000 691.655
69.96000 685.397
69.97000 677.863
69.98000 670.326
69.99000 662.744
70.00000 655.141
