20.00000 589.228
20.01000 572.794
20.02000 554.013
20.03000 540.062
20.04000 544.983
20.05000 551.810
20.06000 556.827
20.07000 550.644
20.08000 545.405
20.09000 541.509
20.10000 540.006
20.11000 538.551
20.12000 541.857
20.13000 550.799
20.14000 559.728
20.15000 564.841
20.16000 567.029
20.17000 568.998
20.18000 562.649
20.19000 552.054
20.20000 542.479
20.21000 549.081
20.22000 561.283
20.23000 572.443
20.24000 568.663
20.25000 562.224
20.26000 557.182
20.27000 559.664
20.28000 563.266
20.29000 563.921
20.30000 554.123
20.31000 543.405
20.32000 535.748
20.33000 542.813
20.34000 548.695
20.35000 553.901
20.36000 558.014
20.37000 562.111
20.38000 561.473
20.39000 555.790
20.40000 550.134
20.41000 548.427
20.42000 549.436
20.43000 550.409
20.44000 550.310
20.45000 549.713
20.46000 549.677
20.47000 557.218
20.48000 567.147
20.49000 576.112
20.50000 572.847
20.51000 567.725
20.52000 563.199
20.53000 561.561
20.54000 560.305
20.55000 558.061
20.56000 552.626
20.57000 546.950
20.58000 543.014
20.59000 551.908
20.60000 558.943
20.61000 559.752
20.62000 551.405
20.63000 542.978
20.64000 544.149
20.65000 554.492
20.66000 564.753
20.67000 565.418
20.68000 560.161
20.69000 554.801
20.70000 546.995
20.71000 538.153
20.72000 530.656
20.73000 538.800
20.74000 551.423
20.75000 562.663
20.76000 563.401
20.77000 562.320
20.78000 558.166
20.79000 540.539
20.80000 521.330
20.81000 511.410
20.82000 528.735
20.83000 547.825
20.84000 560.643
20.85000 545.866
20.86000 534.330
20.87000 528.483
20.88000 530.214
20.89000 531.985
20.90000 535.682
20.91000 541.034
20.92000 546.323
20.93000 549.047
20.94000 550.278
20.95000 551.629
20.96000 555.303
20.97000 559.873
20.98000 563.655
20.99000 559.469
21.00000 553.210
21.01000 547.721
21.02000 546.546
21.03000 546.167
21.04000 544.686
21.05000 538.834
21.06000 532.531
21.07000 529.934
21.08000 537.236
21.09000 545.077
21.10000 550.164
21.11000 550.222
21.12000 550.189
21.13000 551.144
21.14000 553.288
21.15000 555.418
21.16000 553.280
21.17000 547.830
21.18000 542.469
21.19000 538.680
21.20000 535.802
21.21000 533.532
21.22000 541.179
21.23000 552.311
21.24000 561.341
21.25000 551.724
21.26000 537.712
21.27000 525.617
21.28000 536.798
21.29000 549.285
21.30000 557.601
21.31000 550.889
21.32000 542.824
21.33000 535.456
21.34000 529.785
21.35000 524.191
21.36000 520.692
21.37000 528.863
21.38000 534.884
21.39000 537.616
21.40000 536.783
21.41000 535.932
21.42000 532.784
21.43000 528.025
21.44000 523.369
21.45000 523.169
21.46000 524.996
21.47000 527.033
21.48000 531.996
21.49000 537.894
21.50000 543.043
21.51000 542.314
21.52000 540.333
21.53000 538.652
21.54000 532.271
21.55000 526.387
21.56000 522.829
21.57000 526.886
21.58000 531.535
21.59000 537.718
21.60000 547.302
21.61000 557.009
21.62000 562.847
21.63000 549.189
21.64000 539.345
21.65000 533.304
21.66000 530.962
21.67000 528.589
21.68000 523.579
21.69000 516.892
21.70000 510.390
21.71000 522.025
21.72000 540.505
21.73000 557.829
21.74000 561.387
21.75000 560.940
21.76000 560.277
21.77000 558.104
21.78000 555.640
21.79000 553.588
21.80000 551.710
21.81000 550.171
21.82000 550.981
21.83000 558.786
21.84000 567.055
21.85000 572.453
21.86000 572.052
21.87000 571.484
21.88000 571.157
21.89000 569.122
21.90000 567.693
21.91000 567.698
21.92000 568.956
21.93000 570.292
21.94000 575.976
21.95000 584.177
21.96000 592.094
21.97000 599.599
21.98000 606.517
21.99000 612.257
22.00000 605.800
22.01000 596.122
22.02000 589.098
22.03000 598.582
22.04000 610.915
22.05000 620.989
22.06000 628.428
22.07000 634.289
22.08000 635.512
22.09000 624.156
22.10000 612.095
22.11000 604.635
22.12000 605.635
22.13000 606.818
22.14000 607.470
22.15000 610.465
22.16000 612.510
22.17000 608.096
22.18000 598.590
22.19000 589.441
22.20000 595.149
22.21000 608.674
22.22000 621.629
22.23000 622.840
22.24000 620.062
22.25000 617.775
22.26000 619.931
22.27000 623.152
22.28000 625.071
22.29000 619.733
22.30000 613.272
22.31000 608.105
22.32000 604.035
22.33000 600.828
22.34000 596.487
22.35000 589.348
22.36000 582.079
22.37000 578.713
22.38000 581.872
22.39000 585.134
22.40000 586.844
22.41000 589.175
22.42000 590.722
22.43000 587.433
22.44000 580.696
22.45000 574.027
22.46000 569.512
22.47000 566.030
22.48000 562.723
22.49000 565.147
22.50000 569.104
22.51000 572.358
22.52000 570.001
22.53000 566.430
22.54000 562.674
22.55000 557.993
22.56000 553.184
22.57000 549.423
22.58000 546.636
22.59000 544.474
22.60000 544.041
22.61000 547.502
22.62000 551.109
22.63000 549.461
22.64000 539.835
22.65000 530.125
22.66000 521.068
22.67000 512.654
22.68000 504.338
22.69000 504.579
22.70000 510.354
22.71000 516.072
22.72000 520.343
22.73000 523.982
22.74000 527.405
22.75000 520.328
22.76000 511.030
22.77000 503.077
22.78000 504.668
22.79000 508.124
22.80000 510.665
22.81000 509.066
22.82000 506.962
22.83000 505.356
22.84000 500.993
22.85000 497.406
22.86000 498.500
22.87000 509.192
22.88000 520.171
22.89000 523.149
22.90000 515.121
22.91000 507.029
22.92000 509.578
22.93000 521.572
22.94000 533.289
22.95000 528.390
22.96000 513.731
22.97000 499.534
22.98000 494.887
22.99000 494.039
23.00000 493.249
23.01000 495.321
23.02000 497.887
23.03000 500.857
23.04000 506.378
23.05000 512.347
23.06000 516.168
23.07000 511.182
23.08000 505.247
23.09000 500.829
23.10000 497.511
23.11000 494.978
23.12000 495.672
23.13000 502.389
23.14000 509.243
23.15000 511.343
23.16000 507.530
23.17000 503.706
23.18000 501.715
23.19000 501.194
23.20000 500.644
23.21000 498.807
23.22000 496.283
23.23000 493.986
23.24000 495.623
23.25000 498.684
23.26000 501.501
23.27000 501.591
23.28000 501.078
23.29000 501.729
23.30000 508.980
23.31000 517.270
23.32000 521.698
23.33000 511.769
23.34000 500.488
23.35000 492.317
23.36000 493.377
23.37000 494.532
23.38000 494.284
23.39000 491.658
23.40000 488.991
23.41000 491.424
23.42000 499.574
23.43000 507.700
23.44000 506.574
23.45000 498.811
23.46000 491.133
23.47000 486.278
23.48000 482.796
23.49000 479.579
23.50000 480.218
23.51000 482.129
23.52000 483.866
23.53000 497.437
23.54000 511.732
23.55000 521.414
23.56000 507.558
23.57000 490.397
23.58000 480.536
23.59000 495.320
23.60000 512.116
23.61000 523.935
23.62000 508.624
23.63000 496.216
23.64000 489.622
23.65000 491.991
23.66000 494.460
23.67000 493.621
23.68000 489.451
23.69000 485.308
23.70000 487.403
23.71000 493.505
23.72000 499.296
23.73000 496.867
23.74000 490.796
23.75000 485.685
23.76000 492.564
23.77000 503.039
23.78000 512.431
23.79000 505.814
23.80000 497.254
23.81000 490.285
23.82000 490.647
23.83000 491.923
23.84000 493.814
23.85000 497.598
23.86000 501.515
23.87000 504.186
23.88000 497.882
23.89000 492.960
23.90000 490.698
23.91000 492.154
23.92000 493.634
23.93000 493.970
23.94000 493.271
23.95000 492.579
23.96000 493.052
23.97000 494.195
23.98000 495.209
23.99000 493.439
24.00000 490.547
24.01000 488.150
24.02000 491.115
24.03000 495.541
24.04000 499.452
24.05000 496.147
24.06000 492.178
24.07000 489.405
24.08000 491.614
24.09000 494.370
24.10000 493.733
24.11000 483.613
24.12000 472.930
24.13000 465.880
24.14000 479.296
24.15000 489.548
24.16000 495.569
24.17000 496.242
24.18000 496.892
24.19000 495.365
24.20000 492.064
24.21000 488.809
24.22000 483.366
24.23000 476.925
24.24000 470.820
24.25000 470.703
24.26000 472.787
24.27000 474.953
24.28000 477.897
24.29000 481.033
24.30000 483.762
24.31000 486.746
24.32000 489.329
24.33000 491.457
24.34000 491.870
24.35000 492.119
24.36000 489.904
24.37000 481.418
24.38000 472.622
24.39000 467.019
24.40000 471.571
24.41000 475.009
24.42000 481.920
24.43000 492.792
24.44000 503.609
24.45000 503.986
24.46000 496.674
24.47000 489.501
24.48000 485.158
24.49000 482.319
24.50000 479.599
24.51000 478.655
24.52000 478.305
24.53000 478.270
24.54000 480.852
24.55000 484.018
24.56000 486.728
24.57000 480.557
24.58000 474.280
24.59000 469.282
24.60000 468.672
24.61000 468.429
24.62000 469.758
24.63000 474.735
24.64000 479.861
24.65000 483.003
24.66000 480.622
24.67000 478.869
24.68000 483.113
24.69000 493.504
24.70000 503.749
24.71000 498.967
24.72000 484.157
24.73000 469.713
24.74000 467.221
24.75000 469.977
24.76000 472.381
24.77000 470.290
24.78000 466.829
24.79000 463.526
24.80000 461.382
24.81000 459.472
24.82000 457.866
24.83000 460.281
24.84000 462.719
24.85000 463.884
24.86000 461.080
24.87000 457.991
24.88000 456.959
24.89000 460.274
24.90000 463.729
24.91000 465.763
24.92000 462.474
24.93000 460.127
24.94000 460.273
24.95000 462.713
24.96000 465.202
24.97000 471.039
24.98000 478.904
24.99000 486.524
25.00000 483.458
25.01000 476.413
25.02000 469.755
25.03000 467.384
25.04000 466.199
25.05000 465.454
25.06000 467.596
25.07000 470.264
25.08000 472.464
25.09000 470.270
25.10000 468.057
25.11000 466.147
25.12000 465.096
25.13000 464.097
25.14000 465.524
25.15000 471.621
25.16000 477.835
25.17000 481.336
25.18000 474.971
25.19000 470.534
25.20000 470.644
25.21000 474.520
25.22000 478.300
25.23000 477.488
25.24000 474.146
25.25000 470.933
25.26000 469.017
25.27000 467.674
25.28000 466.710
25.29000 469.393
25.30000 472.991
25.31000 475.660
25.32000 472.866
25.33000 469.180
25.34000 466.201
25.35000 467.363
25.36000 468.640
25.37000 467.698
25.38000 461.022
25.39000 454.054
25.40000 450.515
25.41000 452.981
25.42000 455.557
25.43000 456.942
25.44000 448.136
25.45000 442.155
25.46000 444.947
25.47000 454.304
25.48000 463.310
25.49000 459.622
25.50000 449.570
25.51000 439.984
25.52000 443.393
25.53000 450.655
25.54000 458.236
25.55000 468.528
25.56000 479.437
25.57000 486.816
25.58000 475.568
25.59000 461.604
25.60000 450.562
25.61000 450.038
25.62000 450.340
25.63000 452.181
25.64000 457.647
25.65000 463.265
25.66000 465.788
25.67000 463.387
25.68000 460.922
25.69000 459.664
25.70000 458.547
25.71000 457.810
25.72000 458.542
25.73000 460.270
25.74000 461.910
25.75000 461.084
25.76000 459.133
25.77000 457.289
25.78000 455.589
25.79000 454.068
25.80000 451.835
25.81000 444.250
25.82000 435.565
25.83000 429.083
25.84000 433.082
25.85000 438.438
25.86000 442.578
25.87000 458.009
25.88000 470.908
25.89000 476.463
25.90000 466.261
25.91000 455.531
25.92000 450.654
25.93000 454.225
25.94000 457.864
25.95000 460.750
25.96000 462.931
25.97000 465.079
25.98000 464.830
25.99000 463.107
26.00000 461.152
26.01000 453.920
26.02000 444.493
26.03000 435.674
26.04000 439.452
26.05000 446.102
26.06000 451.855
26.07000 451.611
26.08000 450.257
26.09000 450.593
26.10000 458.195
26.11000 466.630
26.12000 472.988
26.13000 467.745
26.14000 463.069
26.15000 460.154
26.16000 460.676
26.17000 461.288
26.18000 459.127
26.19000 453.343
26.20000 447.549
26.21000 443.034
26.22000 439.606
26.23000 436.287
26.24000 438.512
26.25000 443.837
26.26000 448.833
26.27000 447.643
26.28000 444.109
26.29000 440.839
26.30000 442.750
26.31000 445.656
26.32000 447.768
26.33000 445.136
26.34000 441.716
26.35000 440.020
26.36000 445.041
26.37000 450.739
26.38000 454.921
26.39000 455.886
26.40000 456.501
26.41000 455.111
26.42000 450.155
26.43000 445.131
26.44000 445.438
26.45000 452.035
26.46000 458.626
26.47000 459.230
26.48000 455.307
26.49000 451.351
26.50000 446.149
26.51000 440.313
26.52000 434.964
26.53000 437.293
26.54000 442.273
26.55000 446.825
26.56000 441.378
26.57000 434.483
26.58000 429.125
26.59000 432.014
26.60000 436.127
26.61000 439.779
26.62000 441.800
26.63000 443.678
26.64000 445.019
26.65000 453.440
26.66000 460.098
26.67000 462.682
26.68000 458.683
26.69000 454.595
26.70000 452.450
26.71000 452.369
26.72000 452.289
26.73000 448.914
26.74000 443.336
26.75000 437.974
26.76000 438.991
26.77000 442.964
26.78000 446.193
26.79000 439.422
26.80000 429.509
26.81000 420.562
26.82000 428.728
26.83000 439.042
26.84000 446.204
26.85000 438.112
26.86000 428.004
26.87000 421.926
26.88000 428.798
26.89000 436.649
26.90000 442.087
26.91000 444.903
26.92000 446.953
26.93000 448.416
26.94000 449.015
26.95000 449.607
26.96000 449.537
26.97000 448.838
26.98000 448.145
26.99000 447.891
27.00000 447.910
27.01000 447.699
27.02000 442.058
27.03000 434.124
27.04000 426.932
27.05000 428.334
27.06000 432.191
27.07000 435.623
27.08000 435.050
27.09000 433.898
27.10000 431.492
27.11000 423.604
27.12000 415.076
27.13000 411.359
27.14000 421.719
27.15000 432.985
27.16000 440.542
27.17000 437.031
27.18000 434.202
27.19000 430.424
27.20000 425.385
27.21000 420.350
27.22000 421.995
27.23000 429.363
27.24000 436.643
27.25000 434.915
27.26000 428.240
27.27000 422.034
27.28000 424.912
27.29000 431.284
27.30000 437.217
27.31000 438.724
27.32000 439.084
27.33000 439.399
27.34000 437.518
27.35000 435.584
27.36000 434.077
27.37000 434.258
27.38000 434.612
27.39000 435.672
27.40000 438.613
27.41000 441.655
27.42000 443.627
27.43000 436.554
27.44000 431.242
27.45000 425.593
27.46000 419.539
27.47000 413.500
27.48000 411.199
27.49000 411.789
27.50000 412.369
27.51000 417.227
27.52000 424.068
27.53000 430.991
27.54000 439.268
27.55000 448.020
27.56000 455.310
27.57000 449.680
27.58000 441.015
27.59000 433.540
27.60000 426.664
27.61000 420.907
27.62000 417.094
27.63000 420.260
27.64000 424.052
27.65000 424.829
27.66000 418.294
27.67000 411.432
27.68000 407.145
27.69000 416.043
27.70000 422.601
27.71000 423.479
27.72000 418.222
27.73000 413.020
27.74000 415.276
27.75000 422.751
27.76000 430.064
27.77000 432.789
27.78000 433.332
27.79000 433.585
27.80000 429.842
27.81000 424.823
27.82000 419.813
27.83000 414.865
27.84000 409.930
27.85000 405.745
27.86000 411.626
27.87000 417.692
27.88000 423.534
27.89000 428.645
27.90000 433.698
27.91000 433.325
27.92000 420.952
27.93000 408.145
27.94000 400.453
27.95000 415.351
27.96000 426.092
27.97000 428.074
27.98000 421.568
27.99000 415.131
28.00000 414.316
28.01000 417.071
28.02000 419.749
28.03000 416.223
28.04000 410.342
28.05000 405.820
28.06000 417.405
28.07000 433.661
28.08000 447.019
28.09000 440.271
28.10000 429.673
28.11000 420.850
28.12000 416.446
28.13000 413.235
28.14000 410.075
28.15000 407.064
28.16000 404.063
28.17000 403.134
28.18000 406.377
28.19000 409.739
28.20000 411.675
28.21000 412.515
28.22000 413.098
28.23000 412.467
28.24000 410.780
28.25000 409.095
28.26000 407.531
28.27000 406.038
28.28000 404.597
28.29000 413.760
28.30000 426.290
28.31000 436.853
28.32000 427.162
28.33000 412.138
28.34000 399.266
28.35000 399.729
28.36000 402.487
28.37000 404.738
28.38000 411.588
28.39000 417.588
28.40000 421.093
28.41000 417.853
28.42000 414.237
28.43000 413.370
28.44000 417.546
28.45000 421.829
28.46000 424.185
28.47000 414.335
28.48000 407.550
28.49000 405.813
28.50000 408.044
28.51000 410.272
28.52000 412.337
28.53000 414.318
28.54000 416.215
28.55000 417.575
28.56000 418.664
28.57000 419.333
28.58000 416.213
28.59000 412.189
28.60000 408.170
28.61000 404.182
28.62000 400.199
28.63000 397.015
28.64000 405.324
28.65000 412.889
28.66000 418.960
28.67000 421.348
28.68000 423.566
28.69000 424.705
28.70000 424.044
28.71000 423.356
28.72000 422.996
28.73000 411.615
28.74000 403.954
28.75000 403.463
28.76000 408.069
28.77000 412.607
28.78000 415.016
28.79000 416.409
28.80000 417.730
28.81000 412.480
28.82000 405.672
28.83000 399.667
28.84000 400.063
28.85000 401.841
28.86000 402.904
28.87000 400.383
28.88000 397.371
28.89000 395.016
28.90000 396.874
28.91000 398.623
28.92000 399.778
28.93000 399.600
28.94000 399.371
28.95000 400.346
28.96000 403.143
28.97000 405.958
28.98000 409.447
28.99000 413.599
29.00000 417.705
29.01000 417.760
29.02000 415.203
29.03000 412.675
29.04000 410.854
29.05000 409.343
29.06000 407.921
29.07000 409.886
29.08000 412.590
29.09000 415.041
29.10000 415.696
29.11000 416.001
29.12000 415.238
29.13000 409.651
29.14000 403.476
29.15000 398.765
29.16000 396.250
29.17000 394.387
29.18000 394.392
29.19000 398.218
29.20000 402.157
29.21000 403.376
29.22000 400.865
29.23000 398.333
29.24000 396.562
29.25000 395.468
29.26000 394.389
29.27000 394.192
29.28000 394.512
29.29000 394.759
29.30000 393.493
29.31000 391.627
29.32000 389.891
29.33000 398.229
29.34000 408.196
29.35000 416.384
29.36000 413.352
29.37000 408.355
29.38000 403.837
29.39000 401.280
29.40000 398.934
29.41000 397.189
29.42000 397.416
29.43000 397.680
29.44000 398.293
29.45000 399.553
29.46000 400.828
29.47000 404.500
29.48000 411.146
29.49000 417.789
29.50000 417.112
29.51000 410.617
29.52000 404.315
29.53000 406.362
29.54000 412.858
29.55000 418.678
29.56000 412.921
29.57000 402.983
29.58000 393.844
29.59000 391.333
29.60000 390.525
29.61000 390.011
29.62000 391.155
29.63000 392.558
29.64000 392.737
29.65000 388.374
29.66000 383.586
29.67000 380.121
29.68000 385.078
29.69000 389.192
29.70000 394.166
29.71000 400.594
29.72000 407.047
29.73000 411.279
29.74000 413.031
29.75000 414.775
29.76000 412.619
29.77000 407.691
29.78000 402.906
29.79000 402.858
29.80000 405.107
29.81000 406.879
29.82000 401.725
29.83000 394.295
29.84000 387.545
29.85000 392.318
29.86000 398.768
29.87000 404.842
29.88000 409.003
29.89000 412.896
29.90000 415.859
29.91000 415.687
29.92000 415.260
29.93000 414.960
29.94000 408.287
29.95000 403.044
29.96000 401.538
29.97000 405.777
29.98000 410.080
29.99000 408.663
30.00000 401.504
30.01000 394.391
30.02000 395.354
30.03000 401.513
30.04000 407.691
30.05000 414.345
30.06000 421.210
30.07000 427.262
30.08000 423.218
30.09000 416.154
30.10000 409.823
30.11000 404.706
30.12000 400.447
30.13000 397.479
30.14000 400.437
30.15000 404.131
30.16000 404.601
30.17000 395.205
30.18000 385.121
30.19000 378.249
30.20000 386.314
30.21000 392.685
30.22000 398.740
30.23000 404.355
30.24000 409.965
30.25000 411.940
30.26000 410.637
30.27000 409.347
30.28000 406.681
30.29000 403.272
30.30000 399.802
30.31000 395.050
30.32000 389.784
30.33000 385.052
30.34000 386.086
30.35000 388.686
30.36000 390.983
30.37000 386.454
30.38000 381.493
30.39000 377.708
30.40000 378.801
30.41000 380.428
30.42000 383.533
30.43000 390.758
30.44000 398.226
30.45000 403.149
30.46000 404.199
30.47000 404.906
30.48000 406.261
30.49000 408.433
30.50000 410.595
30.51000 407.654
30.52000 400.569
30.53000 393.585
30.54000 390.736
30.55000 390.143
30.56000 389.773
30.57000 393.352
30.58000 398.380
30.59000 403.269
30.60000 406.842
30.61000 410.092
30.62000 412.918
30.63000 403.651
30.64000 394.095
30.65000 387.493
30.66000 392.010
30.67000 397.592
30.68000 401.806
30.69000 402.543
30.70000 403.109
30.71000 403.469
30.72000 415.204
30.73000 423.873
30.74000 427.373
30.75000 424.999
30.76000 422.605
30.77000 417.928
30.78000 411.575
30.79000 405.343
30.80000 407.718
30.81000 414.089
30.82000 420.244
30.83000 423.188
30.84000 425.059
30.85000 426.182
30.86000 421.108
30.87000 414.650
30.88000 409.128
30.89000 416.236
30.90000 423.748
30.91000 432.105
30.92000 443.353
30.93000 454.841
30.94000 461.802
30.95000 458.288
30.96000 454.354
30.97000 451.945
30.98000 464.287
30.99000 473.248
31.00000 480.835
31.01000 487.018
31.02000 493.245
31.03000 503.900
31.04000 517.501
31.05000 530.764
31.06000 546.716
31.07000 563.101
31.08000 579.097
31.09000 590.127
31.10000 599.649
31.11000 611.275
31.12000 638.354
31.13000 668.545
31.14000 693.911
31.15000 735.760
31.16000 772.364
31.17000 806.422
31.18000 832.566
31.19000 858.144
31.20000 890.234
31.21000 936.047
31.22000 982.299
31.23000 1009.490
31.24000 1046.743
31.25000 1073.067
31.26000 1106.154
31.27000 1145.441
31.28000 1184.841
31.29000 1231.752
31.30000 1283.198
31.31000 1333.033
31.32000 1350.602
31.33000 1354.752
31.34000 1359.742
31.35000 1373.989
31.36000 1390.790
31.37000 1407.145
31.38000 1420.582
31.39000 1433.489
31.40000 1444.128
31.41000 1443.238
31.42000 1441.445
31.43000 1435.149
31.44000 1416.114
31.45000 1396.305
31.46000 1374.272
31.47000 1347.974
31.48000 1321.570
31.49000 1306.715
31.50000 1231.586
31.51000 1179.302
31.52000 1136.260
31.53000 1100.853
31.54000 1065.446
31.55000 1030.099
31.56000 994.786
31.57000 960.835
31.58000 936.938
31.59000 918.055
31.60000 897.925
31.61000 865.807
31.62000 830.688
31.63000 795.186
31.64000 757.446
31.65000 719.343
31.66000 688.569
31.67000 667.009
31.68000 650.217
31.69000 633.168
31.70000 615.459
31.71000 597.716
31.72000 580.328
31.73000 563.559
31.74000 546.802
31.75000 537.810
31.76000 519.645
31.77000 507.257
31.78000 499.129
31.79000 494.180
31.80000 489.241
31.81000 484.691
31.82000 480.334
31.83000 476.181
31.84000 469.704
31.85000 462.967
31.86000 456.989
31.87000 457.433
31.88000 459.332
31.89000 460.116
31.90000 455.029
31.91000 449.088
31.92000 444.393
31.93000 439.633
31.94000 435.807
31.95000 430.604
31.96000 422.168
31.97000 413.598
31.98000 407.310
31.99000 404.643
32.00000 402.021
32.01000 400.684
32.02000 402.548
32.03000 403.823
32.04000 407.830
32.05000 413.683
32.06000 419.194
32.07000 415.089
32.08000 406.607
32.09000 398.595
32.10000 396.262
32.11000 395.730
32.12000 395.032
32.13000 393.101
32.14000 390.917
32.15000 388.623
32.16000 385.808
32.17000 382.926
32.18000 380.701
32.19000 389.861
32.20000 397.785
32.21000 402.152
32.22000 398.913
32.23000 395.420
32.24000 393.840
32.25000 395.013
32.26000 396.209
32.27000 393.909
32.28000 388.350
32.29000 382.912
32.30000 385.928
32.31000 394.132
32.32000 401.796
32.33000 397.233
32.34000 387.599
32.35000 378.590
32.36000 376.525
32.37000 376.418
32.38000 376.056
32.39000 373.987
32.40000 371.604
32.41000 369.042
32.42000 365.714
32.43000 362.298
32.44000 359.725
32.45000 357.289
32.46000 355.389
32.47000 355.349
32.48000 358.934
32.49000 362.612
32.50000 366.132
32.51000 369.445
32.52000 372.753
32.53000 372.120
32.54000 368.189
32.55000 364.393
32.56000 367.371
32.57000 374.126
32.58000 380.537
32.59000 380.493
32.60000 378.011
32.61000 375.715
32.62000 367.755
32.63000 359.310
32.64000 353.111
32.65000 360.304
32.66000 369.713
32.67000 375.218
32.68000 365.555
32.69000 354.373
32.70000 346.171
32.71000 353.746
32.72000 360.237
32.73000 365.734
32.74000 369.471
32.75000 373.175
32.76000 373.579
32.77000 370.104
32.78000 366.632
32.79000 364.885
32.80000 364.449
32.81000 363.971
32.82000 361.918
32.83000 359.066
32.84000 356.247
32.85000 353.961
32.86000 351.859
32.87000 349.937
32.88000 358.853
32.89000 368.991
32.90000 377.828
32.91000 379.700
32.92000 380.541
32.93000 379.898
32.94000 374.020
32.95000 367.687
32.96000 363.170
32.97000 364.628
32.98000 365.936
32.99000 365.486
33.00000 362.205
33.01000 358.886
33.02000 354.705
33.03000 349.613
33.04000 344.546
33.05000 343.135
33.06000 344.220
33.07000 345.295
33.08000 346.059
33.09000 346.679
33.10000 347.365
33.11000 348.936
33.12000 350.784
33.13000 352.451
33.14000 352.449
33.15000 352.143
33.16000 351.851
33.17000 351.629
33.18000 351.417
33.19000 348.744
33.20000 338.186
33.21000 327.035
33.22000 319.318
33.23000 325.147
33.24000 329.884
33.25000 334.238
33.26000 338.034
33.27000 341.823
33.28000 337.710
33.29000 326.096
33.30000 314.576
33.31000 316.367
33.32000 326.273
33.33000 336.100
33.34000 344.065
33.35000 351.246
33.36000 357.266
33.37000 349.896
33.38000 338.714
33.39000 328.766
33.40000 329.544
33.41000 331.968
33.42000 333.399
33.43000 330.503
33.44000 327.104
33.45000 326.366
33.46000 333.395
33.47000 340.920
33.48000 345.964
33.49000 348.602
33.50000 350.512
33.51000 351.768
33.52000 352.159
33.53000 352.541
33.54000 349.048
33.55000 342.247
33.56000 335.528
33.57000 333.631
33.58000 334.444
33.59000 335.289
33.60000 336.738
33.61000 338.418
33.62000 339.603
33.63000 335.812
33.64000 330.734
33.65000 326.284
33.66000 328.178
33.67000 330.720
33.68000 332.133
33.69000 329.085
33.70000 325.581
33.71000 324.767
33.72000 331.098
33.73000 337.813
33.74000 342.161
33.75000 351.064
33.76000 357.645
33.77000 353.747
33.78000 337.317
33.79000 320.921
33.80000 318.374
33.81000 326.504
33.82000 334.500
33.83000 336.115
33.84000 334.497
33.85000 332.758
33.86000 329.068
33.87000 324.695
33.88000 321.017
33.89000 323.447
33.90000 327.308
33.91000 330.637
33.92000 328.647
33.93000 326.280
33.94000 324.355
33.95000 324.015
33.96000 323.817
33.97000 324.622
33.98000 327.857
33.99000 331.200
34.00000 333.287
34.01000 326.259
34.02000 321.097
34.03000 320.529
34.04000 324.906
34.05000 329.262
34.06000 330.723
34.07000 330.162
34.08000 329.614
34.09000 325.466
34.10000 319.867
34.11000 314.813
34.12000 317.240
34.13000 322.045
34.14000 326.277
34.15000 326.050
34.16000 324.878
34.17000 323.885
34.18000 319.677
34.19000 315.790
34.20000 313.519
34.21000 316.512
34.22000 319.911
34.23000 323.639
34.24000 328.091
34.25000 332.568
34.26000 335.255
34.27000 330.557
34.28000 327.170
34.29000 320.602
34.30000 310.963
34.31000 301.443
34.32000 301.550
34.33000 307.750
34.34000 313.776
34.35000 320.498
34.36000 327.169
34.37000 333.149
34.38000 330.975
34.39000 326.442
34.40000 322.422
34.41000 321.947
34.42000 322.149
34.43000 322.317
34.44000 321.604
34.45000 320.927
34.46000 319.428
34.47000 315.492
34.48000 311.396
34.49000 310.449
34.50000 315.827
34.51000 321.383
34.52000 324.578
34.53000 326.473
34.54000 327.792
34.55000 326.531
34.56000 323.030
34.57000 319.548
34.58000 317.108
34.59000 315.267
34.60000 313.490
34.61000 312.005
34.62000 310.715
34.63000 310.471
34.64000 320.963
34.65000 334.274
34.66000 344.441
34.67000 335.184
34.68000 322.595
34.69000 312.326
34.70000 312.268
34.71000 313.094
34.72000 313.225
34.73000 311.482
34.74000 309.636
34.75000 311.155
34.76000 318.827
34.77000 326.629
34.78000 330.915
34.79000 321.283
34.80000 314.650
34.81000 313.152
34.82000 315.679
34.83000 318.199
34.84000 320.423
34.85000 322.493
34.86000 324.475
34.87000 324.539
34.88000 323.965
34.89000 323.304
34.90000 321.870
34.91000 320.252
34.92000 318.306
34.93000 314.547
34.94000 310.509
34.95000 307.284
34.96000 312.199
34.97000 316.770
34.98000 319.081
34.99000 315.840
35.00000 312.343
35.01000 311.950
35.02000 316.714
35.03000 321.557
35.04000 324.088
35.05000 319.143
35.06000 315.794
35.07000 312.543
35.08000 309.361
35.09000 306.238
35.10000 304.978
35.11000 304.607
35.12000 304.254
35.13000 309.247
35.14000 315.447
35.15000 320.339
35.16000 314.861
35.17000 307.150
35.18000 300.525
35.19000 299.315
35.20000 298.845
35.21000 298.478
35.22000 299.884
35.23000 301.118
35.24000 301.593
35.25000 300.371
35.26000 299.086
35.27000 300.236
35.28000 305.060
35.29000 309.921
35.30000 312.284
35.31000 312.191
35.32000 312.050
35.33000 307.826
35.34000 300.976
35.35000 294.460
35.36000 296.304
35.37000 301.777
35.38000 306.920
35.39000 305.594
35.40000 302.650
35.41000 299.801
35.42000 297.628
35.43000 295.586
35.44000 294.425
35.45000 297.230
35.46000 300.516
35.47000 303.022
35.48000 303.284
35.49000 303.370
35.50000 304.945
35.51000 309.555
35.52000 314.253
35.53000 316.467
35.54000 315.282
35.55000 314.079
35.56000 308.495
35.57000 299.056
35.58000 289.870
35.59000 295.496
35.60000 309.772
35.61000 323.450
35.62000 324.879
35.63000 321.465
35.64000 318.290
35.65000 313.251
35.66000 308.251
35.67000 304.664
35.68000 309.957
35.69000 316.799
35.70000 321.275
35.71000 316.109
35.72000 309.914
35.73000 305.309
35.74000 304.818
35.75000 304.619
35.76000 303.049
35.77000 298.935
35.78000 294.765
35.79000 292.140
35.80000 291.425
35.81000 290.716
35.82000 289.574
35.83000 288.093
35.84000 286.680
35.85000 288.228
35.86000 291.347
35.87000 294.317
35.88000 294.726
35.89000 294.214
35.90000 293.742
35.91000 295.538
35.92000 297.631
35.93000 298.641
35.94000 293.542
35.95000 287.487
35.96000 284.207
35.97000 291.176
35.98000 299.102
35.99000 304.833
36.00000 300.522
36.01000 296.848
36.02000 293.553
36.03000 290.896
36.04000 288.250
36.05000 287.808
36.06000 289.820
36.07000 291.827
36.08000 295.730
36.09000 300.951
36.10000 305.940
36.11000 303.325
36.12000 297.031
36.13000 290.883
36.14000 286.837
36.15000 283.480
36.16000 280.433
36.17000 285.326
36.18000 291.181
36.19000 295.440
36.20000 291.607
36.21000 286.645
36.22000 282.475
36.23000 280.962
36.24000 279.665
36.25000 278.753
36.26000 285.364
36.27000 290.589
36.28000 293.660
36.29000 293.428
36.30000 293.160
36.31000 291.592
36.32000 288.724
36.33000 285.874
36.34000 286.203
36.35000 288.571
36.36000 290.834
36.37000 290.359
36.38000 288.680
36.39000 287.327
36.40000 290.026
36.41000 293.934
36.42000 297.434
36.43000 296.116
36.44000 294.135
36.45000 292.125
36.46000 289.977
36.47000 287.811
36.48000 284.529
36.49000 277.837
36.50000 270.908
36.51000 266.190
36.52000 281.231
36.53000 292.919
36.54000 296.981
36.55000 290.447
36.56000 283.848
36.57000 281.412
36.58000 282.715
36.59000 284.006
36.60000 284.731
36.61000 285.112
36.62000 285.700
36.63000 290.648
36.64000 297.347
36.65000 303.552
36.66000 304.464
36.67000 303.941
36.68000 303.480
36.69000 301.333
36.70000 299.221
36.71000 297.076
36.72000 294.794
36.73000 292.497
36.74000 290.158
36.75000 287.703
36.76000 285.241
36.77000 283.620
36.78000 293.069
36.79000 300.220
36.80000 301.298
36.81000 294.743
36.82000 288.174
36.83000 284.934
36.84000 284.392
36.85000 283.858
36.86000 285.749
36.87000 288.856
36.88000 291.543
36.89000 286.857
36.90000 279.475
36.91000 273.501
36.92000 280.718
36.93000 291.175
36.94000 300.265
36.95000 301.433
36.96000 301.353
36.97000 300.807
36.98000 298.511
36.99000 296.048
37.00000 295.417
37.01000 299.425
37.02000 303.661
37.03000 306.352
37.04000 298.472
37.05000 292.619
37.06000 290.728
37.07000 293.328
37.08000 295.926
37.09000 297.364
37.10000 297.954
37.11000 298.532
37.12000 297.539
37.13000 295.838
37.14000 294.154
37.15000 292.704
37.16000 291.332
37.17000 290.217
37.18000 291.231
37.19000 292.718
37.20000 293.989
37.21000 286.595
37.22000 279.325
37.23000 275.530
37.24000 283.576
37.25000 292.603
37.26000 298.583
37.27000 297.533
37.28000 296.202
37.29000 295.388
37.30000 296.319
37.31000 297.000
37.32000 294.193
37.33000 287.834
37.34000 281.538
37.35000 281.469
37.36000 285.531
37.37000 289.492
37.38000 295.578
37.39000 302.296
37.40000 308.185
37.41000 303.550
37.42000 295.728
37.43000 288.122
37.44000 282.104
37.45000 276.405
37.46000 271.620
37.47000 279.896
37.48000 288.161
37.49000 294.710
37.50000 295.938
37.51000 296.787
37.52000 295.407
37.53000 289.342
37.54000 283.128
37.55000 279.480
37.56000 292.930
37.57000 302.491
37.58000 301.665
37.59000 291.346
37.60000 281.191
37.61000 281.900
37.62000 289.152
37.63000 296.176
37.64000 292.211
37.65000 284.227
37.66000 277.098
37.67000 279.358
37.68000 284.200
37.69000 288.405
37.70000 288.452
37.71000 287.748
37.72000 287.168
37.73000 287.046
37.74000 286.989
37.75000 285.776
37.76000 281.304
37.77000 276.635
37.78000 273.912
37.79000 274.910
37.80000 275.999
37.81000 276.611
37.82000 278.493
37.83000 279.807
37.84000 282.805
37.85000 287.191
37.86000 291.393
37.87000 286.928
37.88000 277.717
37.89000 268.864
37.90000 276.432
37.91000 289.230
37.92000 300.596
37.93000 298.253
37.94000 292.489
37.95000 287.123
37.96000 284.079
37.97000 281.411
37.98000 279.258
37.99000 277.890
38.00000 276.841
38.01000 277.390
38.02000 282.048
38.03000 286.913
38.04000 288.205
38.05000 283.278
38.06000 278.238
38.07000 275.538
38.08000 289.114
38.09000 298.344
38.10000 298.307
38.11000 291.378
38.12000 284.747
38.13000 288.718
38.14000 297.975
38.15000 306.798
38.16000 305.245
38.17000 300.553
38.18000 297.035
38.19000 303.402
38.20000 312.003
38.21000 318.201
38.22000 311.798
38.23000 303.570
38.24000 297.073
38.25000 298.983
38.26000 301.088
38.27000 300.933
38.28000 295.487
38.29000 289.823
38.30000 290.313
38.31000 300.536
38.32000 310.880
38.33000 316.145
38.34000 311.836
38.35000 309.008
38.36000 312.754
38.37000 320.932
38.38000 329.081
38.39000 336.424
38.40000 343.402
38.41000 349.991
38.42000 363.337
38.43000 377.490
38.44000 390.999
38.45000 399.714
38.46000 407.451
38.47000 416.606
38.48000 432.472
38.49000 449.201
38.50000 462.108
38.51000 475.015
38.52000 485.245
38.53000 496.089
38.54000 508.244
38.55000 520.443
38.56000 539.240
38.57000 567.504
38.58000 595.837
38.59000 619.602
38.60000 639.110
38.61000 658.570
38.62000 674.626
38.63000 688.598
38.64000 703.083
38.65000 729.101
38.66000 759.890
38.67000 788.674
38.68000 790.976
38.69000 786.346
38.70000 784.564
38.71000 801.698
38.72000 822.309
38.73000 840.031
38.74000 845.403
38.75000 849.371
38.76000 852.357
38.77000 835.859
38.78000 822.004
38.79000 804.452
38.80000 779.720
38.81000 754.804
38.82000 736.537
38.83000 726.905
38.84000 717.318
38.85000 702.991
38.86000 684.746
38.87000 666.343
38.88000 640.103
38.89000 609.505
38.90000 578.997
38.91000 550.168
38.92000 521.971
38.93000 495.900
38.94000 481.375
38.95000 470.962
38.96000 459.814
38.97000 444.301
38.98000 428.067
38.99000 412.504
39.00000 399.543
39.01000 386.841
39.02000 377.531
39.03000 370.594
39.04000 365.333
39.05000 358.403
39.06000 348.526
39.07000 338.592
39.08000 330.055
39.09000 323.154
39.10000 316.275
39.11000 308.979
39.12000 301.421
39.13000 293.989
39.14000 291.294
39.15000 290.995
39.16000 290.765
39.17000 291.632
39.18000 292.874
39.19000 294.009
39.20000 290.154
39.21000 285.713
39.22000 281.276
39.23000 276.864
39.24000 272.456
39.25000 269.184
39.26000 269.907
39.27000 270.977
39.28000 271.739
39.29000 275.615
39.30000 278.670
39.31000 277.619
39.32000 269.971
39.33000 262.236
39.34000 261.382
39.35000 267.785
39.36000 274.158
39.37000 272.777
39.38000 266.168
39.39000 259.878
39.40000 262.816
39.41000 270.007
39.42000 276.859
39.43000 279.210
39.44000 280.155
39.45000 281.007
39.46000 279.504
39.47000 277.756
39.48000 275.940
39.49000 273.800
39.50000 271.619
39.51000 270.430
39.52000 272.417
39.53000 274.641
39.54000 276.178
39.55000 274.141
39.56000 272.517
39.57000 271.099
39.58000 269.983
39.59000 268.870
39.60000 267.311
39.61000 265.332
39.62000 263.369
39.63000 265.913
39.64000 271.161
39.65000 276.205
39.66000 276.517
39.67000 274.842
39.68000 273.127
39.69000 270.948
39.70000 268.637
39.71000 266.581
39.72000 263.908
39.73000 261.488
39.74000 259.234
39.75000 257.705
39.76000 256.260
39.77000 255.606
39.78000 257.249
39.79000 259.038
39.80000 260.236
39.81000 264.950
39.82000 268.516
39.83000 266.912
39.84000 258.485
39.85000 250.039
39.86000 250.028
39.87000 257.196
39.88000 264.277
39.89000 268.531
39.90000 271.121
39.91000 273.218
39.92000 265.863
39.93000 254.893
39.94000 245.430
39.95000 251.030
39.96000 260.511
39.97000 268.817
39.98000 265.863
39.99000 261.706
40.00000 259.264
40.01000 263.565
40.02000 268.553
40.03000 271.718
40.04000 270.052
40.05000 268.127
40.06000 266.883
40.07000 270.148
40.08000 272.603
40.09000 271.206
40.10000 265.220
40.11000 259.242
40.12000 257.298
40.13000 258.454
40.14000 259.590
40.15000 259.581
40.16000 259.003
40.17000 258.462
40.18000 258.506
40.19000 258.754
40.20000 258.446
40.21000 253.260
40.22000 246.935
40.23000 241.484
40.24000 243.619
40.25000 246.395
40.26000 248.419
40.27000 247.759
40.28000 246.860
40.29000 247.585
40.30000 252.227
40.31000 257.043
40.32000 260.045
40.33000 257.758
40.34000 256.056
40.35000 254.706
40.36000 253.735
40.37000 252.772
40.38000 252.909
40.39000 253.810
40.40000 254.691
40.41000 256.993
40.42000 259.837
40.43000 262.247
40.44000 258.721
40.45000 253.313
40.46000 248.704
40.47000 250.292
40.48000 253.189
40.49000 255.643
40.50000 253.266
40.51000 250.734
40.52000 249.274
40.53000 251.290
40.54000 253.573
40.55000 254.119
40.56000 250.848
40.57000 247.442
40.58000 245.400
40.59000 238.294
40.60000 233.216
40.61000 234.679
40.62000 242.440
40.63000 250.156
40.64000 254.344
40.65000 256.304
40.66000 258.209
40.67000 254.125
40.68000 247.818
40.69000 242.075
40.70000 242.945
40.71000 245.721
40.72000 248.657
40.73000 252.685
40.74000 256.922
40.75000 260.446
40.76000 247.691
40.77000 235.539
40.78000 228.799
40.79000 238.041
40.80000 248.329
40.81000 254.642
40.82000 252.993
40.83000 251.121
40.84000 250.047
40.85000 255.062
40.86000 258.585
40.87000 257.412
40.88000 252.175
40.89000 246.994
40.90000 244.860
40.91000 244.475
40.92000 244.104
40.93000 242.092
40.94000 239.598
40.95000 237.483
40.96000 239.243
40.97000 242.017
40.98000 244.540
40.99000 245.521
41.00000 246.239
41.01000 246.824
41.02000 249.505
41.03000 251.874
41.04000 252.699
41.05000 249.367
41.06000 245.806
41.07000 245.446
41.08000 250.920
41.09000 256.517
41.10000 259.587
41.11000 243.471
41.12000 232.390
41.13000 230.799
41.14000 236.622
41.15000 242.359
41.16000 244.621
41.17000 245.071
41.18000 245.501
41.19000 243.175
41.20000 240.100
41.21000 237.369
41.22000 237.731
41.23000 238.827
41.24000 239.508
41.25000 237.902
41.26000 235.945
41.27000 234.384
41.28000 237.968
41.29000 241.241
41.30000 242.770
41.31000 240.031
41.32000 237.096
41.33000 237.241
41.34000 242.488
41.35000 247.812
41.36000 250.591
41.37000 237.207
41.38000 228.220
41.39000 229.134
41.40000 237.047
41.41000 244.686
41.42000 243.786
41.43000 238.829
41.44000 234.126
41.45000 233.930
41.46000 235.089
41.47000 236.184
41.48000 236.781
41.49000 237.272
41.50000 237.731
41.51000 238.036
41.52000 238.319
41.53000 238.540
41.54000 237.119
41.55000 235.882
41.56000 234.518
41.57000 232.871
41.58000 231.213
41.59000 230.711
41.60000 231.949
41.61000 233.204
41.62000 233.573
41.63000 233.072
41.64000 232.616
41.65000 236.014
41.66000 241.883
41.67000 247.409
41.68000 244.415
41.69000 237.733
41.70000 231.455
41.71000 237.978
41.72000 247.352
41.73000 254.831
41.74000 249.009
41.75000 240.613
41.76000 232.877
41.77000 228.106
41.78000 223.694
41.79000 220.332
41.80000 225.139
41.81000 229.356
41.82000 232.501
41.83000 233.466
41.84000 234.367
41.85000 233.997
41.86000 231.896
41.87000 229.785
41.88000 228.311
41.89000 227.399
41.90000 226.489
41.91000 225.713
41.92000 225.014
41.93000 224.298
41.94000 223.253
41.95000 222.077
41.96000 220.984
41.97000 225.093
41.98000 230.050
41.99000 234.163
42.00000 232.977
42.01000 230.870
42.02000 229.225
42.03000 229.457
42.04000 229.888
42.05000 230.208
42.06000 234.472
42.07000 237.960
42.08000 238.528
42.09000 233.692
42.10000 228.736
42.11000 227.366
42.12000 230.413
42.13000 233.467
42.14000 234.412
42.15000 233.687
42.16000 232.912
42.17000 230.054
42.18000 226.091
42.19000 222.555
42.20000 226.261
42.21000 232.568
42.22000 238.363
42.23000 233.468
42.24000 226.796
42.25000 220.490
42.26000 216.242
42.27000 212.316
42.28000 210.321
42.29000 215.444
42.30000 221.228
42.31000 225.408
42.32000 227.705
42.33000 229.399
42.34000 229.370
42.35000 226.443
42.36000 223.470
42.37000 223.475
42.38000 226.789
42.39000 230.091
42.40000 233.002
42.41000 235.607
42.42000 238.228
42.43000 241.370
42.44000 244.764
42.45000 247.397
42.46000 239.086
42.47000 227.197
42.48000 216.407
42.49000 219.687
42.50000 225.292
42.51000 230.574
42.52000 234.227
42.53000 237.654
42.54000 237.958
42.55000 227.815
42.56000 216.830
42.57000 209.122
42.58000 220.603
42.59000 229.850
42.60000 233.629
42.61000 229.051
42.62000 224.384
42.63000 223.324
42.64000 225.863
42.65000 228.385
42.66000 229.156
42.67000 228.792
42.68000 228.403
42.69000 227.349
42.70000 226.004
42.71000 224.812
42.72000 225.505
42.73000 226.758
42.74000 227.881
42.75000 226.792
42.76000 225.462
42.77000 224.324
42.78000 224.058
42.79000 223.899
42.80000 223.298
42.81000 221.349
42.82000 219.307
42.83000 217.918
42.84000 223.852
42.85000 228.449
42.86000 230.525
42.87000 229.109
42.88000 227.673
42.89000 228.490
42.90000 231.324
42.91000 234.129
42.92000 233.285
42.93000 230.348
42.94000 227.545
42.95000 227.545
42.96000 228.668
42.97000 229.418
42.98000 226.188
42.99000 221.882
43.00000 218.083
43.01000 216.807
43.02000 216.092
43.03000 215.642
43.04000 216.284
43.05000 217.046
43.06000 218.168
43.07000 220.290
43.08000 222.471
43.09000 223.906
43.10000 221.383
43.11000 219.458
43.12000 219.378
43.13000 221.612
43.14000 223.847
43.15000 224.335
43.16000 223.412
43.17000 222.502
43.18000 220.949
43.19000 219.106
43.20000 217.402
43.21000 218.120
43.22000 219.720
43.23000 221.038
43.24000 219.719
43.25000 217.754
43.26000 216.047
43.27000 214.814
43.28000 213.826
43.29000 212.732
43.30000 211.241
43.31000 209.711
43.32000 208.517
43.33000 208.170
43.34000 207.865
43.35000 207.671
43.36000 214.095
43.37000 218.839
43.38000 224.711
43.39000 231.857
43.40000 238.946
43.41000 236.264
43.42000 226.450
43.43000 216.827
43.44000 214.260
43.45000 215.113
43.46000 215.920
43.47000 216.041
43.48000 215.935
43.49000 216.099
43.50000 218.494
43.51000 221.383
43.52000 223.852
43.53000 227.640
43.54000 230.989
43.55000 231.528
43.56000 222.517
43.57000 212.718
43.58000 209.796
43.59000 222.694
43.60000 236.220
43.61000 244.483
43.62000 232.104
43.63000 223.079
43.64000 219.664
43.65000 221.942
43.66000 224.197
43.67000 224.223
43.68000 222.775
43.69000 221.364
43.70000 221.455
43.71000 222.182
43.72000 222.645
43.73000 219.790
43.74000 215.933
43.75000 213.332
43.76000 219.888
43.77000 228.276
43.78000 235.316
43.79000 234.722
43.80000 233.429
43.81000 232.489
43.82000 232.640
43.83000 232.869
43.84000 232.327
43.85000 230.169
43.86000 227.960
43.87000 226.665
43.88000 225.663
43.89000 224.959
43.90000 226.170
43.91000 229.126
43.92000 232.009
43.93000 230.192
43.94000 225.553
43.95000 221.061
43.96000 218.046
43.97000 215.761
43.98000 213.867
43.99000 216.229
44.00000 219.760
44.01000 222.542
44.02000 220.463
44.03000 217.509
44.04000 215.076
44.05000 218.715
44.06000 222.262
44.07000 222.774
44.08000 214.750
44.09000 206.212
44.10000 201.908
44.11000 205.682
44.12000 209.653
44.13000 211.881
44.14000 219.166
44.15000 224.213
44.16000 222.117
44.17000 214.159
44.18000 206.364
44.19000 206.204
44.20000 210.213
44.21000 214.065
44.22000 214.439
44.23000 213.584
44.24000 213.140
44.25000 216.619
44.26000 221.074
44.27000 224.307
44.28000 220.429
44.29000 215.402
44.30000 211.348
44.31000 211.589
44.32000 212.124
44.33000 212.509
44.34000 212.510
44.35000 212.491
44.36000 213.079
44.37000 214.720
44.38000 216.379
44.39000 217.267
44.40000 211.390
44.41000 207.407
44.42000 209.272
44.43000 215.475
44.44000 221.584
44.45000 224.419
44.46000 225.627
44.47000 226.777
44.48000 224.902
44.49000 222.218
44.50000 220.026
44.51000 221.969
44.52000 224.844
44.53000 227.400
44.54000 228.288
44.55000 228.935
44.56000 229.447
44.57000 222.307
44.58000 216.060
44.59000 212.764
44.60000 216.359
44.61000 220.236
44.62000 224.674
44.63000 229.994
44.64000 235.325
44.65000 238.035
44.66000 232.778
44.67000 229.289
44.68000 229.390
44.69000 231.902
44.70000 234.328
44.71000 234.320
44.72000 233.210
44.73000 232.163
44.74000 231.937
44.75000 231.962
44.76000 231.905
44.77000 231.243
44.78000 230.458
44.79000 229.888
44.80000 230.334
44.81000 230.910
44.82000 231.354
44.83000 235.128
44.84000 238.310
44.85000 242.429
44.86000 248.541
44.87000 254.718
44.88000 256.318
44.89000 251.369
44.90000 246.372
44.91000 243.875
44.92000 243.696
44.93000 243.554
44.94000 245.963
44.95000 249.927
44.96000 253.799
44.97000 255.582
44.98000 256.503
44.99000 257.365
45.00000 259.186
45.01000 261.082
45.02000 262.254
45.03000 258.634
45.04000 254.134
45.05000 250.738
45.06000 252.041
45.07000 253.876
45.08000 255.256
45.09000 265.208
45.10000 273.405
45.11000 278.026
45.12000 275.721
45.13000 273.240
45.14000 271.902
45.15000 272.043
45.16000 272.190
45.17000 270.675
45.18000 267.781
45.19000 264.918
45.20000 263.623
45.21000 263.197
45.22000 262.719
45.23000 261.276
45.24000 259.471
45.25000 257.803
45.26000 262.123
45.27000 267.360
45.28000 271.130
45.29000 266.210
45.30000 259.861
45.31000 255.077
45.32000 256.343
45.33000 258.209
45.34000 259.575
45.35000 258.330
45.36000 257.264
45.37000 259.046
45.38000 265.848
45.39000 272.744
45.40000 273.970
45.41000 268.570
45.42000 263.174
45.43000 256.900
45.44000 250.009
45.45000 243.303
45.46000 243.375
45.47000 246.867
45.48000 249.870
45.49000 245.273
45.50000 238.077
45.51000 231.505
45.52000 241.564
45.53000 253.874
45.54000 264.158
45.55000 263.670
45.56000 261.598
45.57000 258.581
45.58000 252.252
45.59000 245.636
45.60000 240.927
45.61000 242.634
45.62000 244.143
45.63000 246.179
45.64000 249.059
45.65000 251.949
45.66000 251.274
45.67000 246.852
45.68000 242.451
45.69000 241.291
45.70000 242.330
45.71000 243.280
45.72000 241.651
45.73000 238.837
45.74000 236.127
45.75000 234.795
45.76000 233.891
45.77000 233.077
45.78000 231.497
45.79000 229.971
45.80000 229.430
45.81000 233.608
45.82000 238.402
45.83000 242.077
45.84000 242.182
45.85000 242.022
45.86000 241.911
45.87000 239.409
45.88000 237.466
45.89000 236.876
45.90000 238.251
45.91000 239.643
45.92000 239.285
45.93000 237.278
45.94000 235.287
45.95000 232.797
45.96000 230.048
45.97000 227.310
45.98000 224.832
45.99000 222.461
46.00000 220.331
46.01000 220.943
46.02000 222.332
46.03000 223.566
46.04000 220.274
46.05000 216.685
46.06000 213.363
46.07000 211.193
46.08000 209.155
46.09000 208.718
46.10000 212.923
46.11000 217.423
46.12000 220.432
46.13000 212.774
46.14000 206.887
46.15000 202.955
46.16000 201.596
46.17000 200.252
46.18000 201.719
46.19000 205.571
46.20000 209.376
46.21000 209.796
46.22000 208.348
46.23000 206.851
46.24000 204.410
46.25000 201.610
46.26000 198.991
46.27000 198.173
46.28000 197.817
46.29000 197.506
46.30000 206.507
46.31000 215.562
46.32000 220.936
46.33000 211.866
46.34000 201.330
46.35000 194.658
46.36000 198.191
46.37000 202.267
46.38000 204.900
46.39000 204.262
46.40000 203.748
46.41000 202.931
46.42000 201.754
46.43000 200.584
46.44000 200.930
46.45000 202.439
46.46000 203.923
46.47000 202.120
46.48000 198.748
46.49000 195.582
46.50000 195.692
46.51000 196.941
46.52000 197.798
46.53000 195.232
46.54000 191.868
46.55000 188.971
46.56000 190.412
46.57000 192.183
46.58000 193.489
46.59000 193.137
46.60000 192.638
46.61000 193.065
46.62000 195.722
46.63000 198.476
46.64000 200.191
46.65000 198.702
46.66000 197.596
46.67000 196.182
46.68000 194.437
46.69000 192.712
46.70000 193.617
46.71000 196.345
46.72000 199.012
46.73000 198.080
46.74000 195.577
46.75000 193.156
46.76000 191.850
46.77000 190.896
46.78000 190.528
46.79000 194.686
46.80000 199.796
46.81000 204.123
46.82000 199.896
46.83000 195.402
46.84000 192.456
46.85000 194.519
46.86000 196.964
46.87000 198.086
46.88000 196.307
46.89000 194.424
46.90000 193.298
46.91000 181.932
46.92000 173.799
46.93000 172.522
46.94000 177.823
46.95000 183.121
46.96000 188.229
46.97000 193.218
46.98000 198.064
46.99000 194.752
47.00000 188.312
47.01000 182.418
47.02000 182.913
47.03000 185.244
47.04000 187.572
47.05000 189.877
47.06000 192.177
47.07000 194.089
47.08000 193.196
47.09000 192.183
47.10000 189.270
47.11000 180.762
47.12000 171.889
47.13000 169.005
47.14000 178.077
47.15000 187.481
47.16000 192.873
47.17000 192.232
47.18000 191.764
47.19000 191.803
47.20000 192.279
47.21000 192.767
47.22000 193.859
47.23000 195.296
47.24000 196.682
47.25000 194.458
47.26000 191.049
47.27000 187.911
47.28000 187.517
47.29000 187.840
47.30000 188.389
47.31000 190.324
47.32000 192.496
47.33000 194.265
47.34000 195.416
47.35000 196.303
47.36000 196.599
47.37000 195.307
47.38000 193.928
47.39000 192.692
47.40000 191.715
47.41000 190.744
47.42000 190.212
47.43000 191.766
47.44000 192.832
47.45000 192.373
47.46000 190.727
47.47000 189.069
47.48000 186.942
47.49000 184.572
47.50000 182.304
47.51000 183.192
47.52000 185.056
47.53000 186.693
47.54000 186.310
47.55000 185.448
47.56000 184.229
47.57000 181.038
47.58000 177.546
47.59000 174.761
47.60000 176.709
47.61000 178.627
47.62000 180.584
47.63000 182.635
47.64000 184.690
47.65000 186.348
47.66000 187.350
47.67000 188.343
47.68000 188.860
47.69000 185.618
47.70000 183.451
47.71000 184.736
47.72000 188.454
47.73000 191.982
47.74000 189.614
47.75000 184.454
47.76000 179.560
47.77000 179.852
47.78000 181.657
47.79000 183.408
47.80000 184.745
47.81000 185.993
47.82000 186.251
47.83000 181.608
47.84000 176.298
47.85000 172.157
47.86000 173.407
47.87000 174.740
47.88000 177.443
47.89000 183.193
47.90000 189.056
47.91000 190.739
47.92000 186.153
47.93000 181.506
47.94000 181.876
47.95000 187.144
47.96000 192.330
47.97000 190.633
47.98000 184.536
47.99000 178.652
48.00000 178.036
48.01000 179.693
48.02000 181.249
48.03000 182.126
48.04000 182.745
48.05000 183.303
48.06000 183.430
48.07000 183.475
48.08000 183.404
48.09000 182.818
48.10000 182.170
48.11000 181.677
48.12000 183.922
48.13000 185.834
48.14000 186.391
48.15000 184.202
48.16000 181.933
48.17000 181.335
48.18000 183.008
48.19000 184.693
48.20000 183.376
48.21000 179.431
48.22000 175.588
48.23000 177.629
48.24000 183.087
48.25000 188.188
48.26000 186.072
48.27000 181.119
48.28000 176.516
48.29000 175.704
48.30000 175.878
48.31000 176.628
48.32000 180.967
48.33000 185.928
48.34000 189.274
48.35000 186.077
48.36000 182.187
48.37000 179.300
48.38000 177.822
48.39000 176.735
48.40000 176.552
48.41000 178.035
48.42000 179.556
48.43000 181.601
48.44000 184.291
48.45000 186.978
48.46000 187.117
48.47000 185.249
48.48000 183.298
48.49000 177.917
48.50000 170.724
48.51000 163.985
48.52000 164.902
48.53000 168.561
48.54000 171.922
48.55000 172.957
48.56000 173.381
48.57000 174.137
48.58000 176.746
48.59000 179.643
48.60000 181.500
48.61000 179.539
48.62000 177.223
48.63000 175.552
48.64000 179.995
48.65000 183.621
48.66000 185.852
48.67000 185.742
48.68000 185.594
48.69000 185.268
48.70000 184.742
48.71000 184.219
48.72000 182.341
48.73000 179.520
48.74000 176.778
48.75000 176.558
48.76000 177.551
48.77000 178.629
48.78000 180.915
48.79000 183.594
48.80000 186.025
48.81000 186.363
48.82000 186.259
48.83000 185.535
48.84000 181.689
48.85000 177.412
48.86000 175.286
48.87000 180.344
48.88000 185.979
48.89000 189.928
48.90000 179.787
48.91000 171.708
48.92000 169.532
48.93000 176.352
48.94000 183.267
48.95000 187.272
48.96000 188.387
48.97000 189.494
48.98000 187.138
48.99000 182.602
49.00000 178.239
49.01000 178.299
49.02000 180.296
49.03000 182.111
49.04000 181.693
49.05000 180.611
49.06000 179.644
49.07000 175.158
49.08000 170.643
49.09000 167.862
49.10000 172.971
49.11000 179.048
49.12000 182.877
49.13000 179.882
49.14000 176.419
49.15000 174.066
49.16000 173.377
49.17000 172.900
49.18000 172.464
49.19000 172.084
49.20000 171.704
49.21000 171.290
49.22000 170.846
49.23000 170.406
49.24000 171.881
49.25000 174.427
49.26000 176.876
49.27000 177.289
49.28000 176.889
49.29000 176.288
49.30000 173.553
49.31000 170.243
49.32000 167.324
49.33000 170.461
49.34000 174.088
49.35000 177.244
49.36000 178.463
49.37000 179.472
49.38000 180.221
49.39000 180.255
49.40000 180.247
49.41000 180.241
49.42000 175.486
49.43000 171.905
49.44000 171.168
49.45000 173.984
49.46000 176.799
49.47000 175.797
49.48000 171.723
49.49000 167.708
49.50000 166.398
49.51000 166.534
49.52000 166.725
49.53000 167.872
49.54000 169.365
49.55000 170.928
49.56000 173.132
49.57000 175.493
49.58000 177.542
49.59000 175.529
49.60000 173.265
49.61000 171.506
49.62000 171.633
49.63000 171.939
49.64000 172.759
49.65000 174.875
49.66000 177.053
49.67000 178.434
49.68000 181.318
49.69000 183.429
49.70000 182.602
49.71000 178.466
49.72000 174.337
49.73000 171.917
49.74000 170.740
49.75000 169.586
49.76000 169.001
49.77000 168.707
49.78000 168.512
49.79000 169.783
49.80000 171.540
49.81000 173.039
49.82000 172.425
49.83000 171.343
49.84000 170.419
49.85000 172.904
49.86000 175.402
49.87000 177.158
49.88000 176.400
49.89000 175.435
49.90000 175.683
49.91000 178.714
49.92000 181.854
49.93000 183.770
49.94000 174.657
49.95000 168.052
49.96000 167.075
49.97000 171.793
49.98000 176.475
49.99000 177.647
50.00000 176.506
50.01000 175.394
50.02000 170.711
50.03000 164.727
50.04000 159.607
50.05000 165.341
50.06000 174.343
50.07000 181.744
50.08000 177.510
50.09000 170.955
50.10000 165.457
50.11000 165.481
50.12000 166.077
50.13000 166.968
50.14000 168.769
50.15000 170.634
50.16000 170.636
50.17000 166.746
50.18000 162.733
50.19000 160.383
50.20000 166.464
50.21000 170.786
50.22000 171.818
50.23000 169.864
50.24000 167.965
50.25000 169.614
50.26000 173.388
50.27000 177.041
50.28000 177.201
50.29000 176.015
50.30000 174.960
50.31000 175.329
50.32000 176.089
50.33000 176.884
50.34000 177.913
50.35000 178.984
50.36000 179.864
50.37000 176.047
50.38000 172.482
50.39000 170.093
50.40000 171.003
50.41000 172.109
50.42000 173.001
50.43000 173.482
50.44000 173.954
50.45000 174.219
50.46000 176.391
50.47000 177.903
50.48000 179.948
50.49000 182.429
50.50000 184.845
50.51000 184.269
50.52000 182.063
50.53000 179.944
50.54000 181.720
50.55000 184.727
50.56000 187.693
50.57000 190.268
50.58000 192.746
50.59000 194.796
50.60000 194.363
50.61000 193.531
50.62000 192.860
50.63000 198.520
50.64000 203.615
50.65000 205.772
50.66000 200.425
50.67000 194.704
50.68000 189.801
50.69000 186.314
50.70000 182.851
50.71000 181.002
50.72000 187.567
50.73000 192.025
50.74000 192.016
50.75000 188.705
50.76000 185.569
50.77000 188.535
50.78000 194.526
50.79000 200.233
50.80000 199.838
50.81000 197.572
50.82000 195.493
50.83000 194.968
50.84000 194.792
50.85000 194.669
50.86000 194.825
50.87000 195.022
50.88000 195.176
50.89000 192.751
50.90000 190.633
50.91000 189.432
50.92000 190.371
50.93000 191.397
50.94000 189.502
50.95000 183.016
50.96000 176.473
50.97000 173.154
50.98000 178.785
50.99000 182.533
51.00000 183.787
51.01000 183.370
51.02000 183.059
51.03000 185.671
51.04000 189.603
51.05000 193.315
51.06000 192.132
51.07000 189.675
51.08000 187.314
51.09000 185.657
51.10000 184.143
51.11000 182.762
51.12000 182.005
51.13000 181.327
51.14000 180.805
51.15000 181.633
51.16000 182.366
51.17000 183.655
51.18000 186.125
51.19000 188.633
51.20000 186.662
51.21000 178.305
51.22000 169.902
51.23000 164.143
51.24000 160.829
51.25000 157.555
51.26000 157.011
51.27000 158.126
51.28000 159.213
51.29000 159.640
51.30000 159.797
51.31000 159.944
51.32000 156.445
51.33000 152.352
51.34000 149.747
51.35000 156.951
51.36000 165.948
51.37000 172.852
51.38000 170.866
51.39000 167.876
51.40000 165.629
51.41000 160.191
51.42000 155.786
51.43000 152.587
51.44000 151.718
51.45000 150.908
51.46000 152.766
51.47000 158.069
51.48000 163.380
51.49000 165.218
51.50000 164.172
51.51000 163.079
51.52000 159.743
51.53000 155.165
51.54000 150.984
51.55000 154.091
51.56000 159.927
51.57000 165.320
51.58000 165.554
51.59000 164.598
51.60000 163.319
51.61000 160.140
51.62000 156.648
51.63000 153.960
51.64000 154.363
51.65000 155.072
51.66000 155.591
51.67000 149.970
51.68000 145.388
51.69000 145.413
51.70000 153.533
51.71000 161.804
51.72000 165.066
51.73000 162.495
51.74000 159.923
51.75000 160.397
51.76000 163.142
51.77000 165.797
51.78000 165.183
51.79000 162.923
51.80000 160.761
51.81000 160.114
51.82000 159.983
51.83000 159.863
51.84000 164.194
51.85000 168.939
51.86000 171.631
51.87000 163.441
51.88000 153.656
51.89000 145.981
51.90000 145.675
51.91000 146.004
51.92000 146.238
51.93000 147.594
51.94000 148.662
51.95000 150.802
51.96000 154.652
51.97000 158.525
51.98000 159.037
51.99000 156.026
52.00000 153.032
52.01000 152.700
52.02000 154.162
52.03000 155.685
52.04000 158.949
52.05000 163.011
52.06000 166.731
52.07000 165.941
52.08000 163.750
52.09000 161.776
52.10000 156.831
52.11000 151.956
52.12000 148.507
52.13000 151.875
52.14000 156.130
52.15000 158.295
52.16000 153.816
52.17000 148.844
52.18000 145.413
52.19000 160.188
52.20000 171.751
52.21000 175.273
52.22000 167.143
52.23000 158.918
52.24000 159.056
52.25000 167.054
52.26000 174.984
52.27000 173.073
52.28000 165.232
52.29000 157.608
52.30000 154.985
52.31000 154.449
52.32000 154.043
52.33000 155.105
52.34000 156.581
52.35000 157.893
52.36000 157.542
52.37000 156.969
52.38000 156.987
52.39000 159.554
52.40000 162.414
52.41000 165.695
52.42000 170.190
52.43000 174.762
52.44000 177.817
52.45000 169.659
52.46000 163.396
52.47000 160.294
52.48000 161.340
52.49000 162.399
52.50000 160.016
52.51000 154.721
52.52000 149.492
52.53000 150.315
52.54000 154.429
52.55000 158.261
52.56000 156.754
52.57000 153.216
52.58000 150.324
52.59000 153.845
52.60000 159.007
52.61000 163.525
52.62000 162.484
52.63000 160.797
52.64000 159.428
52.65000 159.304
52.66000 159.305
52.67000 159.463
52.68000 160.034
52.69000 160.627
52.70000 161.009
52.71000 155.002
52.72000 150.522
52.73000 148.115
52.74000 148.166
52.75000 148.214
52.76000 146.760
52.77000 144.158
52.78000 141.601
52.79000 145.230
52.80000 151.793
52.81000 158.220
52.82000 162.484
52.83000 165.999
52.84000 168.847
52.85000 165.885
52.86000 161.575
52.87000 157.864
52.88000 158.255
52.89000 159.106
52.90000 158.695
52.91000 153.808
52.92000 148.527
52.93000 145.382
52.94000 147.359
52.95000 149.560
52.96000 150.929
52.97000 154.057
52.98000 156.326
52.99000 158.992
53.00000 162.079
53.01000 165.146
53.02000 165.607
53.03000 164.266
53.04000 162.955
53.05000 163.079
53.06000 163.838
53.07000 164.284
53.08000 160.487
53.09000 155.353
53.10000 150.618
53.11000 148.962
53.12000 147.952
53.13000 147.097
53.14000 147.607
53.15000 148.186
53.16000 148.523
53.17000 148.076
53.18000 147.570
53.19000 148.481
53.20000 152.491
53.21000 156.609
53.22000 159.070
53.23000 160.561
53.24000 161.612
53.25000 160.625
53.26000 157.689
53.27000 154.784
53.28000 154.215
53.29000 155.112
53.30000 155.984
53.31000 152.821
53.32000 148.193
53.33000 144.145
53.34000 146.839
53.35000 151.466
53.36000 155.175
53.37000 152.606
53.38000 148.851
53.39000 145.731
53.40000 149.267
53.41000 152.838
53.42000 156.265
53.43000 159.268
53.44000 162.244
53.45000 164.604
53.46000 165.737
53.47000 166.837
53.48000 167.466
53.49000 160.449
53.50000 155.528
53.51000 156.259
53.52000 161.853
53.53000 167.294
53.54000 164.480
53.55000 156.959
53.56000 149.706
53.57000 148.688
53.58000 149.994
53.59000 151.528
53.60000 155.364
53.61000 159.798
53.62000 163.126
53.63000 159.687
53.64000 155.098
53.65000 151.361
53.66000 153.885
53.67000 156.475
53.68000 158.913
53.69000 160.944
53.70000 162.953
53.71000 164.002
53.72000 163.309
53.73000 162.580
53.74000 162.182
53.75000 155.715
53.76000 151.266
53.77000 147.735
53.78000 144.917
53.79000 142.245
53.80000 145.383
53.81000 151.535
53.82000 157.420
53.83000 161.897
53.84000 165.606
53.85000 168.722
53.86000 166.572
53.87000 163.182
53.88000 159.820
53.89000 156.618
53.90000 153.441
53.91000 150.908
53.92000 149.096
53.93000 147.687
53.94000 147.580
53.95000 150.647
53.96000 153.857
53.97000 155.842
53.98000 155.812
53.99000 155.751
54.00000 155.720
54.01000 154.699
54.02000 154.006
54.03000 153.008
54.04000 151.794
54.05000 150.581
54.06000 149.393
54.07000 148.216
54.08000 147.100
54.09000 147.308
54.10000 147.891
54.11000 148.483
54.12000 149.140
54.13000 149.812
54.14000 150.365
54.15000 150.332
54.16000 150.220
54.17000 150.133
54.18000 146.016
54.19000 142.486
54.20000 140.417
54.21000 141.590
54.22000 142.882
54.23000 143.177
54.24000 141.979
54.25000 140.767
54.26000 141.119
54.27000 142.992
54.28000 144.873
54.29000 147.500
54.30000 150.602
54.31000 153.662
54.32000 155.685
54.33000 157.262
54.34000 158.743
54.35000 158.175
54.36000 157.114
54.37000 156.012
54.38000 154.622
54.39000 153.176
54.40000 151.806
54.41000 150.769
54.42000 149.773
54.43000 149.015
54.44000 147.956
54.45000 147.107
54.46000 146.830
54.47000 147.711
54.48000 148.626
54.49000 148.626
54.50000 147.387
54.51000 146.142
54.52000 146.275
54.53000 147.613
54.54000 148.927
54.55000 148.838
54.56000 147.937
54.57000 147.227
54.58000 150.357
54.59000 154.994
54.60000 159.301
54.61000 159.477
54.62000 158.651
54.63000 157.646
54.64000 155.526
54.65000 153.214
54.66000 151.411
54.67000 151.664
54.68000 152.134
54.69000 152.483
54.70000 153.912
54.71000 155.069
54.72000 155.574
54.73000 154.878
54.74000 154.156
54.75000 154.279
54.76000 155.436
54.77000 156.594
54.78000 155.533
54.79000 152.736
54.80000 150.002
54.81000 149.899
54.82000 151.182
54.83000 152.322
54.84000 151.070
54.85000 148.964
54.86000 147.029
54.87000 148.807
54.88000 151.186
54.89000 153.142
54.90000 152.731
54.91000 151.955
54.92000 150.882
54.93000 148.726
54.94000 146.470
54.95000 144.843
54.96000 144.192
54.97000 143.728
54.98000 144.091
54.99000 145.837
55.00000 147.605
55.01000 150.447
55.02000 154.474
55.03000 158.487
55.04000 162.499
55.05000 166.475
55.06000 170.152
55.07000 164.294
55.08000 153.863
55.09000 144.033
55.10000 142.759
55.11000 144.267
55.12000 145.633
55.13000 145.814
55.14000 145.746
55.15000 145.914
55.16000 147.266
55.17000 148.781
55.18000 150.817
55.19000 154.588
55.20000 158.496
55.21000 161.234
55.22000 163.288
55.23000 164.822
55.24000 162.650
55.25000 154.850
55.26000 146.991
55.27000 145.464
55.28000 150.209
55.29000 154.921
55.30000 158.317
55.31000 160.822
55.32000 163.358
55.33000 166.720
55.34000 170.442
55.35000 173.735
55.36000 171.782
55.37000 168.279
55.38000 165.145
55.39000 168.168
55.40000 171.855
55.41000 174.921
55.42000 175.174
55.43000 175.083
55.44000 176.327
55.45000 181.614
55.46000 187.176
55.47000 190.952
55.48000 191.722
55.49000 192.229
55.50000 191.456
55.51000 188.918
55.52000 186.375
55.53000 189.314
55.54000 197.131
55.55000 204.867
55.56000 207.784
55.57000 207.866
55.58000 208.129
55.59000 212.157
55.60000 217.684
55.61000 223.122
55.62000 227.629
55.63000 231.885
55.64000 235.638
55.65000 243.368
55.66000 250.636
55.67000 258.199
55.68000 266.973
55.69000 275.878
55.70000 284.527
55.71000 292.474
55.72000 300.379
55.73000 305.569
55.74000 324.968
55.75000 339.478
55.76000 348.924
55.77000 352.065
55.78000 355.212
55.79000 366.634
55.80000 384.695
55.81000 402.491
55.82000 409.806
55.83000 411.466
55.84000 413.057
55.85000 413.454
55.86000 413.417
55.87000 414.161
55.88000 422.134
55.89000 431.867
55.90000 440.315
55.91000 450.735
55.92000 459.877
55.93000 467.050
55.94000 466.896
55.95000 466.051
55.96000 465.817
55.97000 467.117
55.98000 468.492
55.99000 469.362
56.00000 466.273
56.01000 463.984
56.02000 456.400
56.03000 442.871
56.04000 429.412
56.05000 428.128
56.06000 435.675
56.07000 443.074
56.08000 438.089
56.09000 427.489
56.10000 417.466
56.11000 415.882
56.12000 417.083
56.13000 416.469
56.14000 401.037
56.15000 382.339
56.16000 366.381
56.17000 358.911
56.18000 353.627
56.19000 347.671
56.20000 339.449
56.21000 331.041
56.22000 321.070
56.23000 307.526
56.24000 293.841
56.25000 285.501
56.26000 292.362
56.27000 297.387
56.28000 293.177
56.29000 279.655
56.30000 266.186
56.31000 257.815
56.32000 252.797
56.33000 247.908
56.34000 239.636
56.35000 230.315
56.36000 221.537
56.37000 219.541
56.38000 219.581
56.39000 218.570
56.40000 209.949
56.41000 199.815
56.42000 191.320
56.43000 190.552
56.44000 190.715
56.45000 190.172
56.46000 187.459
56.47000 184.594
56.48000 182.688
56.49000 182.784
56.50000 182.941
56.51000 183.033
56.52000 184.886
56.53000 186.195
56.54000 181.515
56.55000 171.414
56.56000 161.396
56.57000 156.721
56.58000 155.235
56.59000 153.796
56.60000 154.472
56.61000 155.919
56.62000 157.267
56.63000 157.546
56.64000 157.533
56.65000 157.738
56.66000 159.346
56.67000 161.206
56.68000 162.735
56.69000 163.858
56.70000 164.744
56.71000 164.208
56.72000 159.693
56.73000 154.941
56.74000 151.664
56.75000 151.184
56.76000 150.771
56.77000 150.540
56.78000 147.308
56.79000 145.068
56.80000 145.229
56.81000 147.349
56.82000 149.384
56.83000 147.480
56.84000 143.439
56.85000 139.558
56.86000 142.586
56.87000 147.799
56.88000 152.543
56.89000 152.852
56.90000 152.063
56.91000 151.133
56.92000 149.387
56.93000 147.511
56.94000 146.000
56.95000 149.658
56.96000 153.032
56.97000 155.046
56.98000 153.592
56.99000 151.966
57.00000 149.150
57.01000 144.281
57.02000 139.375
57.03000 136.759
57.04000 141.820
57.05000 145.261
57.06000 146.296
57.07000 145.557
57.08000 144.864
57.09000 145.799
57.10000 147.539
57.11000 149.196
57.12000 147.303
57.13000 144.447
57.14000 141.778
57.15000 140.672
57.16000 139.916
57.17000 139.503
57.18000 140.872
57.19000 142.496
57.20000 143.776
57.21000 144.375
57.22000 144.810
57.23000 143.914
57.24000 139.930
57.25000 135.820
57.26000 134.136
57.27000 136.254
57.28000 138.417
57.29000 139.513
57.30000 145.850
57.31000 150.045
57.32000 149.419
57.33000 145.570
57.34000 141.821
57.35000 140.786
57.36000 140.972
57.37000 141.148
57.38000 140.826
57.39000 140.391
57.40000 140.135
57.41000 141.194
57.42000 142.518
57.43000 142.742
57.44000 137.811
57.45000 132.224
57.46000 127.923
57.47000 130.321
57.48000 132.601
57.49000 135.718
57.50000 140.607
57.51000 145.552
57.52000 146.679
57.53000 142.377
57.54000 138.034
57.55000 138.018
57.56000 141.983
57.57000 145.896
57.58000 146.272
57.59000 144.504
57.60000 142.808
57.61000 142.710
57.62000 143.267
57.63000 143.788
57.64000 144.294
57.65000 144.749
57.66000 144.686
57.67000 141.221
57.68000 137.137
57.69000 133.888
57.70000 134.174
57.71000 134.857
57.72000 135.369
57.73000 141.419
57.74000 146.411
57.75000 147.983
57.76000 142.967
57.77000 137.786
57.78000 135.298
57.79000 136.273
57.80000 137.261
57.81000 138.576
57.82000 140.156
57.83000 141.650
57.84000 139.022
57.85000 134.121
57.86000 129.354
57.87000 127.048
57.88000 125.660
57.89000 124.379
57.90000 122.499
57.91000 120.677
57.92000 119.772
57.93000 124.254
57.94000 129.616
57.95000 134.353
57.96000 136.687
57.97000 138.784
57.98000 140.317
57.99000 145.034
58.00000 148.798
58.01000 150.432
58.02000 148.337
58.03000 146.172
58.04000 143.735
58.05000 140.981
58.06000 138.235
58.07000 137.441
58.08000 138.103
58.09000 138.813
58.10000 141.232
58.11000 144.510
58.12000 147.493
58.13000 145.937
58.14000 142.837
58.15000 140.008
58.16000 137.872
58.17000 136.118
58.18000 135.025
58.19000 137.428
58.20000 140.342
58.21000 143.419
58.22000 147.061
58.23000 150.751
58.24000 153.373
58.25000 146.288
58.26000 140.584
58.27000 137.947
58.28000 140.190
58.29000 142.497
58.30000 141.487
58.31000 137.014
58.32000 132.564
58.33000 132.494
58.34000 135.361
58.35000 138.063
58.36000 136.098
58.37000 132.001
58.38000 128.221
58.39000 128.593
58.40000 130.252
58.41000 131.746
58.42000 129.644
58.43000 127.152
58.44000 125.613
58.45000 128.612
58.46000 132.199
58.47000 135.085
58.48000 135.746
58.49000 136.244
58.50000 136.587
58.51000 138.171
58.52000 139.393
58.53000 140.363
58.54000 140.969
58.55000 141.571
58.56000 139.239
58.57000 134.160
58.58000 129.123
58.59000 131.047
58.60000 137.142
58.61000 142.899
58.62000 140.953
58.63000 135.799
58.64000 130.984
58.65000 129.999
58.66000 130.091
58.67000 130.174
58.68000 135.545
58.69000 141.052
58.70000 144.751
58.71000 140.667
58.72000 135.689
58.73000 132.789
58.74000 135.877
58.75000 139.341
58.76000 141.653
58.77000 136.952
58.78000 133.334
58.79000 131.654
58.80000 132.507
58.81000 133.373
58.82000 135.431
58.83000 138.494
58.84000 141.519
58.85000 136.811
58.86000 128.007
58.87000 119.640
58.88000 119.485
58.89000 122.446
58.90000 125.246
58.91000 126.450
58.92000 127.247
58.93000 127.944
58.94000 127.289
58.95000 126.534
58.96000 125.624
58.97000 124.110
58.98000 122.536
58.99000 122.038
59.00000 124.366
59.01000 126.843
59.02000 128.440
59.03000 132.024
59.04000 134.669
59.05000 136.339
59.06000 136.859
59.07000 137.377
59.08000 138.146
59.09000 139.104
59.10000 140.047
59.11000 137.599
59.12000 133.565
59.13000 129.770
59.14000 129.755
59.15000 131.047
59.16000 132.577
59.17000 136.186
59.18000 140.275
59.19000 143.794
59.20000 138.683
59.21000 133.267
59.22000 129.574
59.23000 131.974
59.24000 134.909
59.25000 137.236
59.26000 138.109
59.27000 138.918
59.28000 139.421
59.29000 141.328
59.30000 142.714
59.31000 141.550
59.32000 137.674
59.33000 133.812
59.34000 131.646
59.35000 130.651
59.36000 129.677
59.37000 131.793
59.38000 135.194
59.39000 138.300
59.40000 137.427
59.41000 135.305
59.42000 133.421
59.43000 133.367
59.44000 133.697
59.45000 133.975
59.46000 132.618
59.47000 131.300
59.48000 131.195
59.49000 134.989
59.50000 139.077
59.51000 139.089
59.52000 130.213
59.53000 121.027
59.54000 115.545
59.55000 120.328
59.56000 123.784
59.57000 126.633
59.58000 128.902
59.59000 131.138
59.60000 130.879
59.61000 129.058
59.62000 127.290
59.63000 130.353
59.64000 135.200
59.65000 139.619
59.66000 139.077
59.67000 137.118
59.68000 135.484
59.69000 136.079
59.70000 137.094
59.71000 137.936
59.72000 136.634
59.73000 135.350
59.74000 135.217
59.75000 138.454
59.76000 141.908
59.77000 144.013
59.78000 143.439
59.79000 142.791
59.80000 142.421
59.81000 131.645
59.82000 124.091
59.83000 120.300
59.84000 119.735
59.85000 119.237
59.86000 122.328
59.87000 127.459
59.88000 132.406
59.89000 132.940
59.90000 131.845
59.91000 131.292
59.92000 136.204
59.93000 142.533
59.94000 147.550
59.95000 144.569
59.96000 140.234
59.97000 136.706
59.98000 138.147
59.99000 139.740
60.00000 139.102
60.01000 132.516
60.02000 125.606
60.03000 121.360
60.04000 121.929
60.05000 122.595
60.06000 122.959
60.07000 129.152
60.08000 133.399
60.09000 133.776
60.10000 131.157
60.11000 128.598
60.12000 128.389
60.13000 129.397
60.14000 130.360
60.15000 130.003
60.16000 129.238
60.17000 128.514
60.18000 128.146
60.19000 127.861
60.20000 127.893
60.21000 129.657
60.22000 131.682
60.23000 133.296
60.24000 134.931
60.25000 136.251
60.26000 137.900
60.27000 140.350
60.28000 142.835
60.29000 141.343
60.30000 133.318
60.31000 125.198
60.32000 120.979
60.33000 129.271
60.34000 134.849
60.35000 137.081
60.36000 136.970
60.37000 136.778
60.38000 134.133
60.39000 130.332
60.40000 126.730
60.41000 126.020
60.42000 126.218
60.43000 126.645
60.44000 128.870
60.45000 131.478
60.46000 133.177
60.47000 130.408
60.48000 127.036
60.49000 124.410
60.50000 125.161
60.51000 125.967
60.52000 126.187
60.53000 125.112
60.54000 123.990
60.55000 124.472
60.56000 127.345
60.57000 130.241
60.58000 131.174
60.59000 130.205
60.60000 129.236
60.61000 128.370
60.62000 127.568
60.63000 126.810
60.64000 127.088
60.65000 127.811
60.66000 128.490
60.67000 129.619
60.68000 130.767
60.69000 131.783
60.70000 131.877
60.71000 131.794
60.72000 132.151
60.73000 134.460
60.74000 137.002
60.75000 138.935
60.76000 132.808
60.77000 127.570
60.78000 123.747
60.79000 122.776
60.80000 121.886
60.81000 124.801
60.82000 132.857
60.83000 140.936
60.84000 143.716
60.85000 141.877
60.86000 140.040
60.87000 138.250
60.88000 136.488
60.89000 134.823
60.90000 135.124
60.91000 136.192
60.92000 137.184
60.93000 140.691
60.94000 144.450
60.95000 146.891
60.96000 141.148
60.97000 133.996
60.98000 128.270
60.99000 128.285
61.00000 128.905
61.01000 129.364
61.02000 133.970
61.03000 137.726
61.04000 140.019
61.05000 139.626
61.06000 139.175
61.07000 138.970
61.08000 139.066
61.09000 139.161
61.10000 139.666
61.11000 140.488
61.12000 141.214
61.13000 137.955
61.14000 132.603
61.15000 127.677
61.16000 129.869
61.17000 134.596
61.18000 138.935
61.19000 141.166
61.20000 142.707
61.21000 143.639
61.22000 141.183
61.23000 138.204
61.24000 136.234
61.25000 137.945
61.26000 139.993
61.27000 141.469
61.28000 143.670
61.29000 145.382
61.30000 145.198
61.31000 141.853
61.32000 138.458
61.33000 137.328
61.34000 138.689
61.35000 140.045
61.36000 138.940
61.37000 136.110
61.38000 133.355
61.39000 132.959
61.40000 133.690
61.41000 134.538
61.42000 137.020
61.43000 140.032
61.44000 142.762
61.45000 141.685
61.46000 140.010
61.47000 139.288
61.48000 143.335
61.49000 148.037
61.50000 153.533
61.51000 161.661
61.52000 169.998
61.53000 175.832
61.54000 183.553
61.55000 189.445
61.56000 195.889
61.57000 203.172
61.58000 210.464
61.59000 219.062
61.60000 228.949
61.61000 238.769
61.62000 242.500
61.63000 242.306
61.64000 242.391
61.65000 249.555
61.66000 259.803
61.67000 269.274
61.68000 269.321
61.69000 266.589
61.70000 264.145
61.71000 262.345
61.72000 260.885
61.73000 259.795
61.74000 260.374
61.75000 261.156
61.76000 259.057
61.77000 248.263
61.78000 236.877
61.79000 229.156
61.80000 214.697
61.81000 203.766
61.82000 193.677
61.83000 184.745
61.84000 175.822
61.85000 169.384
61.86000 165.150
61.87000 160.961
61.88000 156.965
61.89000 153.168
61.90000 149.437
61.91000 147.062
61.92000 145.226
61.93000 143.465
61.94000 142.510
61.95000 141.771
61.96000 141.119
61.97000 140.481
61.98000 139.933
61.99000 140.135
62.00000 143.406
62.01000 147.007
62.02000 148.739
62.03000 145.336
62.04000 141.638
62.05000 139.213
62.06000 142.964
62.07000 145.825
62.08000 147.039
62.09000 146.209
62.10000 145.364
62.11000 141.488
62.12000 135.187
62.13000 128.980
62.14000 127.700
62.15000 129.007
62.16000 130.490
62.17000 134.996
62.18000 140.595
62.19000 145.609
62.20000 145.232
62.21000 143.547
62.22000 142.084
62.23000 140.436
62.24000 139.008
62.25000 137.581
62.26000 136.158
62.27000 134.736
62.28000 133.855
62.29000 134.331
62.30000 134.871
62.31000 135.213
62.32000 133.516
62.33000 132.261
62.34000 133.142
62.35000 136.411
62.36000 139.649
62.37000 137.694
62.38000 131.983
62.39000 126.385
62.40000 127.485
62.41000 131.672
62.42000 135.830
62.43000 139.583
62.44000 143.203
62.45000 146.449
62.46000 146.662
62.47000 146.209
62.48000 145.822
62.49000 143.625
62.50000 141.563
62.51000 139.577
62.52000 137.850
62.53000 136.144
62.54000 136.463
62.55000 141.400
62.56000 146.516
62.57000 149.630
62.58000 143.147
62.59000 138.440
62.60000 135.246
62.61000 133.573
62.62000 131.932
62.63000 133.302
62.64000 136.647
62.65000 139.905
62.66000 141.952
62.67000 143.394
62.68000 144.684
62.69000 144.081
62.70000 142.910
62.71000 142.078
62.72000 143.689
62.73000 145.785
62.74000 147.541
62.75000 146.014
62.76000 144.405
62.77000 142.819
62.78000 141.305
62.79000 139.796
62.80000 140.074
62.81000 144.063
62.82000 148.167
62.83000 150.564
62.84000 138.244
62.85000 129.513
62.86000 129.520
62.87000 137.409
62.88000 145.212
62.89000 147.628
62.90000 146.837
62.91000 146.071
62.92000 144.448
62.93000 142.590
62.94000 140.836
62.95000 140.210
62.96000 139.890
62.97000 139.699
62.98000 140.329
62.99000 141.107
63.00000 141.746
63.01000 143.720
63.02000 145.461
63.03000 146.678
63.04000 146.432
63.05000 146.098
63.06000 146.232
63.07000 147.249
63.08000 148.287
63.09000 148.867
63.10000 141.904
63.11000 137.078
63.12000 137.028
63.13000 140.861
63.14000 144.622
63.15000 145.121
63.16000 143.855
63.17000 142.639
63.18000 142.810
63.19000 143.448
63.20000 143.762
63.21000 141.034
63.22000 137.555
63.23000 135.246
63.24000 139.681
63.25000 145.194
63.26000 149.633
63.27000 146.370
63.28000 143.122
63.29000 142.251
63.30000 147.418
63.31000 152.883
63.32000 156.921
63.33000 158.503
63.34000 160.043
63.35000 160.863
63.36000 146.517
63.37000 136.790
63.38000 136.241
63.39000 142.439
63.40000 148.501
63.41000 149.929
63.42000 149.071
63.43000 148.254
63.44000 148.411
63.45000 148.856
63.46000 149.007
63.47000 146.715
63.48000 143.877
63.49000 142.037
63.50000 145.366
63.51000 149.432
63.52000 152.635
63.53000 148.625
63.54000 144.929
63.55000 141.945
63.56000 140.609
63.57000 139.339
63.58000 140.593
63.59000 145.791
63.60000 151.035
63.61000 153.687
63.62000 153.535
63.63000 153.431
63.64000 153.082
63.65000 152.570
63.66000 152.034
63.67000 150.844
63.68000 149.361
63.69000 147.962
63.70000 148.039
63.71000 148.521
63.72000 149.165
63.73000 150.994
63.74000 153.063
63.75000 154.222
63.76000 151.136
63.77000 147.513
63.78000 144.725
63.79000 145.725
63.80000 146.731
63.81000 147.175
63.82000 146.432
63.83000 145.651
63.84000 145.493
63.85000 146.221
63.86000 146.955
63.87000 148.420
63.88000 150.553
63.89000 152.680
63.90000 154.353
63.91000 155.751
63.92000 157.097
63.93000 157.292
63.94000 157.017
63.95000 156.761
63.96000 155.237
63.97000 153.538
63.98000 152.161
63.99000 152.890
64.00000 154.001
64.01000 154.572
64.02000 152.866
64.03000 150.905
64.04000 149.433
64.05000 150.209
64.06000 150.921
64.07000 152.029
64.08000 153.897
64.09000 155.783
64.10000 157.456
64.11000 158.856
64.12000 160.253
64.13000 159.786
64.14000 157.785
64.15000 155.783
64.16000 153.724
64.17000 151.633
64.18000 149.605
64.19000 148.732
64.20000 148.288
64.21000 147.878
64.22000 151.033
64.23000 154.662
64.24000 157.716
64.25000 157.396
64.26000 156.526
64.27000 155.461
64.28000 153.651
64.29000 151.767
64.30000 150.391
64.31000 163.661
64.32000 174.467
64.33000 178.097
64.34000 169.188
64.35000 160.049
64.36000 157.903
64.37000 163.852
64.38000 169.794
64.39000 171.147
64.40000 169.089
64.41000 167.040
64.42000 165.318
64.43000 163.759
64.44000 162.361
64.45000 163.412
64.46000 165.294
64.47000 167.011
64.48000 167.875
64.49000 168.470
64.50000 168.862
64.51000 168.185
64.52000 167.352
64.53000 166.781
64.54000 167.124
64.55000 167.545
64.56000 167.843
64.57000 170.846
64.58000 173.217
64.59000 173.113
64.60000 169.079
64.61000 164.996
64.62000 161.711
64.63000 159.256
64.64000 156.815
64.65000 160.234
64.66000 167.525
64.67000 174.496
64.68000 172.439
64.69000 166.267
64.70000 160.616
64.71000 161.769
64.72000 165.021
64.73000 167.949
64.74000 167.726
64.75000 166.964
64.76000 166.171
64.77000 165.225
64.78000 164.261
64.79000 164.740
64.80000 169.784
64.81000 175.163
64.82000 178.867
64.83000 177.672
64.84000 176.651
64.85000 175.016
64.86000 172.494
64.87000 169.966
64.88000 171.147
64.89000 175.792
64.90000 180.397
64.91000 184.897
64.92000 189.249
64.93000 193.490
64.94000 195.202
64.95000 195.865
64.96000 196.214
64.97000 193.011
64.98000 188.812
64.99000 185.085
65.00000 184.858
65.01000 185.221
65.02000 186.626
65.03000 192.498
65.04000 198.881
65.05000 202.133
65.06000 196.384
65.07000 190.073
65.08000 185.865
65.09000 189.640
65.10000 192.588
65.11000 195.056
65.12000 196.897
65.13000 198.737
65.14000 201.094
65.15000 203.887
65.16000 206.645
65.17000 209.411
65.18000 212.109
65.19000 214.666
65.20000 214.577
65.21000 213.487
65.22000 212.721
65.23000 215.149
65.24000 218.390
65.25000 221.224
65.26000 220.448
65.27000 219.271
65.28000 219.020
65.29000 222.366
65.30000 226.073
65.31000 229.945
65.32000 234.248
65.33000 238.574
65.34000 241.359
65.35000 240.494
65.36000 239.811
65.37000 240.173
65.38000 241.766
65.39000 243.375
65.40000 247.924
65.41000 254.704
65.42000 261.366
65.43000 265.252
65.44000 267.644
65.45000 270.031
65.46000 272.345
65.47000 274.634
65.48000 276.670
65.49000 276.510
65.50000 275.844
65.51000 275.271
65.52000 277.758
65.53000 280.247
65.54000 282.419
65.55000 283.472
65.56000 284.427
65.57000 286.142
65.58000 289.674
65.59000 293.284
65.60000 295.524
65.61000 304.932
65.62000 311.771
65.63000 322.606
65.64000 337.674
65.65000 352.718
65.66000 364.737
65.67000 374.676
65.68000 384.389
65.69000 409.643
65.70000 440.721
65.71000 472.808
65.72000 518.421
65.73000 568.274
65.74000 619.104
65.75000 677.399
65.76000 737.250
65.77000 787.842
65.78000 841.292
65.79000 886.317
65.80000 928.091
65.81000 959.439
65.82000 990.000
65.83000 1014.049
65.84000 1023.940
65.85000 1033.341
65.86000 1038.945
65.87000 1045.582
65.88000 1050.292
65.89000 1054.636
65.90000 1058.634
65.91000 1062.395
65.92000 1048.293
65.93000 1023.051
65.94000 998.543
65.95000 953.947
65.96000 903.585
65.97000 852.297
65.98000 790.319
65.99000 725.295
66.00000 661.032
66.01000 601.944
66.02000 543.829
66.03000 495.613
66.04000 452.470
66.05000 417.306
66.06000 388.505
66.07000 378.279
66.08000 369.246
66.09000 357.926
66.10000 342.078
66.11000 326.108
66.12000 316.988
66.13000 310.602
66.14000 306.157
66.15000 303.715
66.16000 302.984
66.17000 302.242
66.18000 300.940
66.19000 299.319
66.20000 297.757
66.21000 304.745
66.22000 314.400
66.23000 323.275
66.24000 324.321
66.25000 323.341
66.26000 322.970
66.27000 326.292
66.28000 330.238
66.29000 333.447
66.30000 347.014
66.31000 358.956
66.32000 371.775
66.33000 386.926
66.34000 402.203
66.35000 412.933
66.36000 415.473
66.37000 417.846
66.38000 419.140
66.39000 424.113
66.40000 427.531
66.41000 430.817
66.42000 434.002
66.43000 437.198
66.44000 440.790
66.45000 444.586
66.46000 448.216
66.47000 444.046
66.48000 437.625
66.49000 430.979
66.50000 422.339
66.51000 413.232
66.52000 404.114
66.53000 394.937
66.54000 385.751
66.55000 378.438
66.56000 378.778
66.57000 379.603
66.58000 376.036
66.59000 361.832
66.60000 347.154
66.61000 336.615
66.62000 332.854
66.63000 329.190
66.64000 327.289
66.65000 323.317
66.66000 320.664
66.67000 321.731
66.68000 325.396
66.69000 328.833
66.70000 325.378
66.71000 318.686
66.72000 312.343
66.73000 312.075
66.74000 313.609
66.75000 316.069
66.76000 325.739
66.77000 336.938
66.78000 345.108
66.79000 338.407
66.80000 329.708
66.81000 322.938
66.82000 326.579
66.83000 330.117
66.84000 330.662
66.85000 324.601
66.86000 318.302
66.87000 314.630
66.88000 314.864
66.89000 315.135
66.90000 319.727
66.91000 328.497
66.92000 337.211
66.93000 341.398
66.94000 342.719
66.95000 344.105
66.96000 347.090
66.97000 350.758
66.98000 354.200
66.99000 352.181
67.00000 348.901
67.01000 346.380
67.02000 349.110
67.03000 352.844
67.04000 357.713
67.05000 367.618
67.06000 378.122
67.07000 386.100
67.08000 370.218
67.09000 356.496
67.10000 346.803
67.11000 345.207
67.12000 343.839
67.13000 344.307
67.14000 347.247
67.15000 350.198
67.16000 357.238
67.17000 367.814
67.18000 378.256
67.19000 381.305
67.20000 380.098
67.21000 379.012
67.22000 380.354
67.23000 382.641
67.24000 384.765
67.25000 383.443
67.26000 381.435
67.27000 380.878
67.28000 389.291
67.29000 399.244
67.30000 406.601
67.31000 403.539
67.32000 399.387
67.33000 396.314
67.34000 392.646
67.35000 389.775
67.36000 388.407
67.37000 389.790
67.38000 391.232
67.39000 395.925
67.40000 404.576
67.41000 413.219
67.42000 417.363
67.43000 417.974
67.44000 418.499
67.45000 415.442
67.46000 410.511
67.47000 406.312
67.48000 414.292
67.49000 426.597
67.50000 437.889
67.51000 437.455
67.52000 434.578
67.53000 431.806
67.54000 429.609
67.55000 427.502
67.56000 426.097
67.57000 427.255
67.58000 428.646
67.59000 429.648
67.60000 429.406
67.61000 429.176
67.62000 434.010
67.63000 447.266
67.64000 460.651
67.65000 467.338
67.66000 466.679
67.67000 466.019
67.68000 463.729
67.69000 460.316
67.70000 457.001
67.71000 456.805
67.72000 458.096
67.73000 459.535
67.74000 463.049
67.75000 467.234
67.76000 471.026
67.77000 469.348
67.78000 466.830
67.79000 464.740
67.80000 464.785
67.81000 465.123
67.82000 468.203
67.83000 480.352
67.84000 493.219
67.85000 502.215
67.86000 502.699
67.87000 502.824
67.88000 502.399
67.89000 501.141
67.90000 499.875
67.91000 501.397
67.92000 505.663
67.93000 509.899
67.94000 515.718
67.95000 522.448
67.96000 528.837
67.97000 526.639
67.98000 520.711
67.99000 515.780
68.00000 522.896
68.01000 533.552
68.02000 543.079
68.03000 551.058
68.04000 557.750
68.05000 562.557
68.06000 558.868
68.07000 554.147
68.08000 549.256
68.09000 543.853
68.10000 538.414
68.11000 534.730
68.12000 545.766
68.13000 554.315
68.14000 562.772
68.15000 571.103
68.16000 579.426
68.17000 580.749
68.18000 575.881
68.19000 571.065
68.20000 578.200
68.21000 592.002
68.22000 605.514
68.23000 613.060
68.24000 618.245
68.25000 623.005
68.26000 623.296
68.27000 622.394
68.28000 621.599
68.29000 624.274
68.30000 627.101
68.31000 630.743
68.32000 637.710
68.33000 645.032
68.34000 651.093
68.35000 653.699
68.36000 656.107
68.37000 657.685
68.38000 674.637
68.39000 687.352
68.40000 695.067
68.41000 696.597
68.42000 698.120
68.43000 702.984
68.44000 710.513
68.45000 717.929
68.46000 723.799
68.47000 728.697
68.48000 734.266
68.49000 751.324
68.50000 772.523
68.51000 792.762
68.52000 804.176
68.53000 813.455
68.54000 821.500
68.55000 836.676
68.56000 850.548
68.57000 867.083
68.58000 893.464
68.59000 920.766
68.60000 947.958
68.61000 974.876
68.62000 1001.781
68.63000 1018.783
68.64000 1090.657
68.65000 1143.383
68.66000 1195.728
68.67000 1247.646
68.68000 1299.581
68.69000 1354.070
68.70000 1410.403
68.71000 1465.604
68.72000 1507.906
68.73000 1542.593
68.74000 1578.276
68.75000 1628.344
68.76000 1683.132
68.77000 1737.997
68.78000 1793.479
68.79000 1849.096
68.80000 1896.515
68.81000 1974.573
68.82000 2043.846
68.83000 2118.383
68.84000 2210.601
68.85000 2304.253
68.86000 2418.245
68.87000 2578.494
68.88000 2740.531
68.89000 2839.049
68.90000 3379.408
68.91000 3768.668
68.92000 4507.808
68.93000 5597.390
68.94000 6696.176
68.95000 8649.635
68.96000 11161.732
68.97000 13608.581
68.98000 17463.086
68.99000 21729.717
69.00000 26012.646
69.01000 30497.533
69.02000 35042.703
69.03000 39445.871
69.04000 42828.336
69.05000 46009.086
69.06000 48672.402
69.07000 50363.098
69.08000 51668.387
69.09000 52739.949
69.10000 53097.352
69.11000 53405.121
69.12000 53757.977
69.13000 54204.227
69.14000 54653.340
69.15000 54915.320
69.16000 55836.770
69.17000 56487.484
69.18000 56760.668
69.19000 56694.316
69.20000 56607.074
69.21000 55217.777
69.22000 53055.586
69.23000 50963.887
69.24000 47776.465
69.25000 44350.305
69.26000 40997.660
69.27000 38434.340
69.28000 36085.059
69.29000 33832.758
69.30000 32202.092
69.31000 30681.947
69.32000 29433.451
69.33000 28508.561
69.34000 27778.068
69.35000 27078.154
69.36000 26463.299
69.37000 25853.447
69.38000 25004.094
69.39000 23703.027
69.40000 22391.354
69.41000 21659.555
69.42000 18419.035
69.43000 16170.856
69.44000 13953.608
69.45000 11761.433
69.46000 9581.365
69.47000 7946.571
69.48000 6606.134
69.49000 5319.291
69.50000 4407.537
69.51000 3683.208
69.52000 2991.640
69.53000 2607.550
69.54000 2299.078
69.55000 2013.723
69.56000 1861.085
69.57000 1729.599
69.58000 1623.815
69.59000 1548.510
69.60000 1489.793
69.61000 1432.266
69.62000 1377.755
69.63000 1323.392
69.64000 1273.176
69.65000 1230.077
69.66000 1187.099
69.67000 1164.246
69.68000 1107.734
69.69000 1069.289
69.70000 1038.149
69.71000 1012.360
69.72000 986.720
69.73000 966.145
69.74000 948.059
69.75000 930.843
69.76000 909.968
69.77000 889.515
69.78000 870.069
69.79000 858.947
69.80000 849.678
69.81000 839.215
69.82000 822.589
69.83000 805.086
69.84000 791.311
69.85000 780.814
69.86000 772.624
69.87000 765.846
69.88000 762.331
69.89000 758.946
69.90000 746.498
69.91000 719.927
69.92000 693.190
69.93000 679.693
69.94000 680.968
69.95000 681.816
69.96000 682.162
69.97000 682.174
69.98000 681.807
69.99000 671.224
70.00000 656.067
