20.00000 484.593
20.01000 486.148
20.02000 487.926
20.03000 487.344
20.04000 477.459
20.05000 466.624
20.06000 458.623
20.07000 470.181
20.08000 479.969
20.09000 487.390
20.10000 490.484
20.11000 493.485
20.12000 496.962
20.13000 501.021
20.14000 505.075
20.15000 497.160
20.16000 479.760
20.17000 462.786
20.18000 464.699
20.19000 476.760
20.20000 488.289
20.21000 490.414
20.22000 489.085
20.23000 487.859
20.24000 482.299
20.25000 476.349
20.26000 471.402
20.27000 472.348
20.28000 474.257
20.29000 475.199
20.30000 472.401
20.31000 469.229
20.32000 466.898
20.33000 468.437
20.34000 469.784
20.35000 470.976
20.36000 471.886
20.37000 472.790
20.38000 475.704
20.39000 481.039
20.40000 486.368
20.41000 484.985
20.42000 478.372
20.43000 471.898
20.44000 471.256
20.45000 473.694
20.46000 476.122
20.47000 478.403
20.48000 480.629
20.49000 482.679
20.50000 482.057
20.51000 480.916
20.52000 479.575
20.53000 477.081
20.54000 474.403
20.55000 473.139
20.56000 477.248
20.57000 481.880
20.58000 485.267
20.59000 475.661
20.60000 467.740
20.61000 463.117
20.62000 464.323
20.63000 465.639
20.64000 466.691
20.65000 467.430
20.66000 468.167
20.67000 465.449
20.68000 460.103
20.69000 454.900
20.70000 455.382
20.71000 458.814
20.72000 462.036
20.73000 461.755
20.74000 460.232
20.75000 458.832
20.76000 470.238
20.77000 483.163
20.78000 492.458
20.79000 481.238
20.80000 466.801
20.81000 456.459
20.82000 461.412
20.83000 467.816
20.84000 472.475
20.85000 470.719
20.86000 469.124
20.87000 468.428
20.88000 469.292
20.89000 470.184
20.90000 471.663
20.91000 473.823
20.92000 475.979
20.93000 476.133
20.94000 474.783
20.95000 473.395
20.96000 470.551
20.97000 466.964
20.98000 464.194
20.99000 474.581
21.00000 489.557
21.01000 503.283
21.02000 497.190
21.03000 487.600
21.04000 478.070
21.05000 468.877
21.06000 459.736
21.07000 453.003
21.08000 455.109
21.09000 458.032
21.10000 460.147
21.11000 470.882
21.12000 479.436
21.13000 483.867
21.14000 481.264
21.15000 478.542
21.16000 470.864
21.17000 457.543
21.18000 444.257
21.19000 443.723
21.20000 452.579
21.21000 461.452
21.22000 470.941
21.23000 480.738
21.24000 489.732
21.25000 486.205
21.26000 478.384
21.27000 471.233
21.28000 473.284
21.29000 477.001
21.30000 480.062
21.31000 479.556
21.32000 478.513
21.33000 476.237
21.34000 469.517
21.35000 462.396
21.36000 457.270
21.37000 455.687
21.38000 454.599
21.39000 457.378
21.40000 466.637
21.41000 475.998
21.42000 484.098
21.43000 490.791
21.44000 497.459
21.45000 496.654
21.46000 490.461
21.47000 484.328
21.48000 480.262
21.49000 477.216
21.50000 474.500
21.51000 476.778
21.52000 480.738
21.53000 484.352
21.54000 482.619
21.55000 480.003
21.56000 477.453
21.57000 475.252
21.58000 473.103
21.59000 471.930
21.60000 474.219
21.61000 476.811
21.62000 478.668
21.63000 474.482
21.64000 471.079
21.65000 469.865
21.66000 472.252
21.67000 474.693
21.68000 476.770
21.69000 478.449
21.70000 480.122
21.71000 481.149
21.72000 481.709
21.73000 482.406
21.74000 487.593
21.75000 494.955
21.76000 501.280
21.77000 492.387
21.78000 478.452
21.79000 465.767
21.80000 470.352
21.81000 477.821
21.82000 484.959
21.83000 490.369
21.84000 495.530
21.85000 499.391
21.86000 498.727
21.87000 497.677
21.88000 496.928
21.89000 503.574
21.90000 508.879
21.91000 510.759
21.92000 507.095
21.93000 503.355
21.94000 504.039
21.95000 509.474
21.96000 514.886
21.97000 514.831
21.98000 510.977
21.99000 507.301
22.00000 509.224
22.01000 513.812
22.02000 518.181
22.03000 519.434
22.04000 519.672
22.05000 519.888
22.06000 514.942
22.07000 509.575
22.08000 506.835
22.09000 517.569
22.10000 530.204
22.11000 536.912
22.12000 523.350
22.13000 508.100
22.14000 497.298
22.15000 495.129
22.16000 493.751
22.17000 495.149
22.18000 500.962
22.19000 506.831
22.20000 510.006
22.21000 510.344
22.22000 510.680
22.23000 509.298
22.24000 506.760
22.25000 504.269
22.26000 503.178
22.27000 502.741
22.28000 502.042
22.29000 497.712
22.30000 492.220
22.31000 487.245
22.32000 488.893
22.33000 491.602
22.34000 493.155
22.35000 488.901
22.36000 483.844
22.37000 480.938
22.38000 485.261
22.39000 490.170
22.40000 493.629
22.41000 496.329
22.42000 498.353
22.43000 496.607
22.44000 488.973
22.45000 481.269
22.46000 474.926
22.47000 469.987
22.48000 465.075
22.49000 459.818
22.50000 454.395
22.51000 449.327
22.52000 454.495
22.53000 464.373
22.54000 473.234
22.55000 468.417
22.56000 459.299
22.57000 451.058
22.58000 453.396
22.59000 457.416
22.60000 460.330
22.61000 457.785
22.62000 454.502
22.63000 451.992
22.64000 452.032
22.65000 452.273
22.66000 452.442
22.67000 443.370
22.68000 436.243
22.69000 434.123
22.70000 439.683
22.71000 445.327
22.72000 450.922
22.73000 456.469
22.74000 461.983
22.75000 461.748
22.76000 457.743
22.77000 453.750
22.78000 450.099
22.79000 446.601
22.80000 443.298
22.81000 442.542
22.82000 442.574
22.83000 442.602
22.84000 446.240
22.85000 450.090
22.86000 452.280
22.87000 446.436
22.88000 439.528
22.89000 436.503
22.90000 446.071
22.91000 456.606
22.92000 463.945
22.93000 452.851
22.94000 443.974
22.95000 438.834
22.96000 439.329
22.97000 439.880
22.98000 440.067
22.99000 439.894
23.00000 439.723
23.01000 441.520
23.02000 444.560
23.03000 447.441
23.04000 446.113
23.05000 442.915
23.06000 440.106
23.07000 442.251
23.08000 445.901
23.09000 449.183
23.10000 446.342
23.11000 442.764
23.12000 439.973
23.13000 440.918
23.14000 442.347
23.15000 442.612
23.16000 439.162
23.17000 435.434
23.18000 432.852
23.19000 436.710
23.20000 439.783
23.21000 443.489
23.22000 448.133
23.23000 452.785
23.24000 457.379
23.25000 461.915
23.26000 466.419
23.27000 464.992
23.28000 459.839
23.29000 454.928
23.30000 456.155
23.31000 460.064
23.32000 463.110
23.33000 455.462
23.34000 444.623
23.35000 434.901
23.36000 438.862
23.37000 444.710
23.38000 450.088
23.39000 453.272
23.40000 456.178
23.41000 456.676
23.42000 449.626
23.43000 442.029
23.44000 436.796
23.45000 440.900
23.46000 444.214
23.47000 446.599
23.48000 447.631
23.49000 448.653
23.50000 451.801
23.51000 456.975
23.52000 462.110
23.53000 459.622
23.54000 452.451
23.55000 445.808
23.56000 452.084
23.57000 463.911
23.58000 474.561
23.59000 471.019
23.60000 463.316
23.61000 456.425
23.62000 461.680
23.63000 468.336
23.64000 475.285
23.65000 483.569
23.66000 492.019
23.67000 497.372
23.68000 493.190
23.69000 488.337
23.70000 485.013
23.71000 478.747
23.72000 473.984
23.73000 477.775
23.74000 493.777
23.75000 509.870
23.76000 518.571
23.77000 520.367
23.78000 522.149
23.79000 523.581
23.80000 524.775
23.81000 525.924
23.82000 526.002
23.83000 525.628
23.84000 525.763
23.85000 531.872
23.86000 539.700
23.87000 546.686
23.88000 547.854
23.89000 547.899
23.90000 548.836
23.91000 553.782
23.92000 559.214
23.93000 561.964
23.94000 556.602
23.95000 550.686
23.96000 546.657
23.97000 543.207
23.98000 540.643
23.99000 542.220
24.00000 549.605
24.01000 557.027
24.02000 562.070
24.03000 564.932
24.04000 567.768
24.05000 566.232
24.06000 562.117
24.07000 558.304
24.08000 561.376
24.09000 567.305
24.10000 571.560
24.11000 556.680
24.12000 536.384
24.13000 518.320
24.14000 511.671
24.15000 507.761
24.16000 504.627
24.17000 504.914
24.18000 505.605
24.19000 503.713
24.20000 494.135
24.21000 484.046
24.22000 477.218
24.23000 476.762
24.24000 476.562
24.25000 476.342
24.26000 476.096
24.27000 475.849
24.28000 472.535
24.29000 466.469
24.30000 460.461
24.31000 455.755
24.32000 451.909
24.33000 448.175
24.34000 446.864
24.35000 446.543
24.36000 445.867
24.37000 441.251
24.38000 435.540
24.39000 430.470
24.40000 438.325
24.41000 447.200
24.42000 452.806
24.43000 444.260
24.44000 434.080
24.45000 427.087
24.46000 429.416
24.47000 432.346
24.48000 434.316
24.49000 435.065
24.50000 435.597
24.51000 432.931
24.52000 425.944
24.53000 418.936
24.54000 414.749
24.55000 413.047
24.56000 411.362
24.57000 416.637
24.58000 425.795
24.59000 434.339
24.60000 429.913
24.61000 420.283
24.62000 411.662
24.63000 413.995
24.64000 419.321
24.65000 424.035
24.66000 423.580
24.67000 422.377
24.68000 420.250
24.69000 414.192
24.70000 407.690
24.71000 402.185
24.72000 399.546
24.73000 397.085
24.74000 395.440
24.75000 404.660
24.76000 411.709
24.77000 416.730
24.78000 419.061
24.79000 421.379
24.80000 423.529
24.81000 425.534
24.82000 427.518
24.83000 421.104
24.84000 410.104
24.85000 399.959
24.86000 407.210
24.87000 421.322
24.88000 433.800
24.89000 428.995
24.90000 419.553
24.91000 411.217
24.92000 408.995
24.93000 408.014
24.94000 407.398
24.95000 408.308
24.96000 409.386
24.97000 411.440
24.98000 416.251
24.99000 421.228
25.00000 424.536
25.01000 417.488
25.02000 412.084
25.03000 410.107
25.04000 412.594
25.05000 415.098
25.06000 415.575
25.07000 414.335
25.08000 413.109
25.09000 410.173
25.10000 406.363
25.11000 402.825
25.12000 404.639
25.13000 408.529
25.14000 412.173
25.15000 413.285
25.16000 413.730
25.17000 414.121
25.18000 422.208
25.19000 430.325
25.20000 434.255
25.21000 421.025
25.22000 405.946
25.23000 395.933
25.24000 399.987
25.25000 404.865
25.26000 408.086
25.27000 408.661
25.28000 409.038
25.29000 404.555
25.30000 393.854
25.31000 383.161
25.32000 386.742
25.33000 402.199
25.34000 417.459
25.35000 418.737
25.36000 412.387
25.37000 406.259
25.38000 404.360
25.39000 404.074
25.40000 403.825
25.41000 403.959
25.42000 404.193
25.43000 404.397
25.44000 402.639
25.45000 400.841
25.46000 401.154
25.47000 409.971
25.48000 419.680
25.49000 424.331
25.50000 415.175
25.51000 405.235
25.52000 398.713
25.53000 395.778
25.54000 393.679
25.55000 393.340
25.56000 395.210
25.57000 397.074
25.58000 394.168
25.59000 387.366
25.60000 380.656
25.61000 388.741
25.62000 404.488
25.63000 419.098
25.64000 412.795
25.65000 398.658
25.66000 386.077
25.67000 388.776
25.68000 395.361
25.69000 401.125
25.70000 397.137
25.71000 392.319
25.72000 389.601
25.73000 395.182
25.74000 401.615
25.75000 406.654
25.76000 407.953
25.77000 409.047
25.78000 409.760
25.79000 416.144
25.80000 420.916
25.81000 420.366
25.82000 413.257
25.83000 406.137
25.84000 400.959
25.85000 397.336
25.86000 393.765
25.87000 394.114
25.88000 396.502
25.89000 398.721
25.90000 397.903
25.91000 395.968
25.92000 394.962
25.93000 402.862
25.94000 412.986
25.95000 421.822
25.96000 415.472
25.97000 407.911
25.98000 401.509
25.99000 399.608
26.00000 398.158
26.01000 397.687
26.02000 399.798
26.03000 402.046
26.04000 403.503
26.05000 409.398
26.06000 413.778
26.07000 414.733
26.08000 411.549
26.09000 408.358
26.10000 405.471
26.11000 402.823
26.12000 400.216
26.13000 399.264
26.14000 399.190
26.15000 398.797
26.16000 392.901
26.17000 385.012
26.18000 378.560
26.19000 385.536
26.20000 395.806
26.21000 404.745
26.22000 403.351
26.23000 400.746
26.24000 397.283
26.25000 390.546
26.26000 383.488
26.27000 380.839
26.28000 389.616
26.29000 398.979
26.30000 405.004
26.31000 409.387
26.32000 412.563
26.33000 410.411
26.34000 401.942
26.35000 393.480
26.36000 389.768
26.37000 389.721
26.38000 389.674
26.39000 390.448
26.40000 391.611
26.41000 392.498
26.42000 388.801
26.43000 383.472
26.44000 379.068
26.45000 383.103
26.46000 389.172
26.47000 394.438
26.48000 390.341
26.49000 385.596
26.50000 382.666
26.51000 386.529
26.52000 391.040
26.53000 393.370
26.54000 390.144
26.55000 386.643
26.56000 384.405
26.57000 390.234
26.58000 394.584
26.59000 392.819
26.60000 383.938
26.61000 375.100
26.62000 377.361
26.63000 388.031
26.64000 398.519
26.65000 400.049
26.66000 397.100
26.67000 394.343
26.68000 394.686
26.69000 396.112
26.70000 397.270
26.71000 396.037
26.72000 394.238
26.73000 392.682
26.74000 387.879
26.75000 383.371
26.76000 380.939
26.77000 386.142
26.78000 392.054
26.79000 394.847
26.80000 389.825
26.81000 384.428
26.82000 381.002
26.83000 383.429
26.84000 385.263
26.85000 382.104
26.86000 373.246
26.87000 364.424
26.88000 363.659
26.89000 368.886
26.90000 374.019
26.91000 378.155
26.92000 381.663
26.93000 385.169
26.94000 388.652
26.95000 392.127
26.96000 395.385
26.97000 396.761
26.98000 397.699
26.99000 398.508
27.00000 391.547
27.01000 384.648
27.02000 380.219
27.03000 384.717
27.04000 390.022
27.05000 393.455
27.06000 392.278
27.07000 390.887
27.08000 390.010
27.09000 382.830
27.10000 377.558
27.11000 377.143
27.12000 382.164
27.13000 387.159
27.14000 386.917
27.15000 382.852
27.16000 378.865
27.17000 375.582
27.18000 372.754
27.19000 370.270
27.20000 373.009
27.21000 377.514
27.22000 381.635
27.23000 382.495
27.24000 382.612
27.25000 382.712
27.26000 377.713
27.27000 372.844
27.28000 371.279
27.29000 381.444
27.30000 392.644
27.31000 398.593
27.32000 391.831
27.33000 384.504
27.34000 379.915
27.35000 375.708
27.36000 372.674
27.37000 371.573
27.38000 372.596
27.39000 373.616
27.40000 374.155
27.41000 374.349
27.42000 374.538
27.43000 370.082
27.44000 363.622
27.45000 357.989
27.46000 364.543
27.47000 375.143
27.48000 384.029
27.49000 378.656
27.50000 370.091
27.51000 362.750
27.52000 363.642
27.53000 365.400
27.54000 366.670
27.55000 366.234
27.56000 365.651
27.57000 365.381
27.58000 365.859
27.59000 366.369
27.60000 366.686
27.61000 370.116
27.62000 372.618
27.63000 375.738
27.64000 379.525
27.65000 383.281
27.66000 382.927
27.67000 379.679
27.68000 376.498
27.69000 375.485
27.70000 375.505
27.71000 375.350
27.72000 372.699
27.73000 369.232
27.74000 365.715
27.75000 361.792
27.76000 357.779
27.77000 354.351
27.78000 352.977
27.79000 352.065
27.80000 354.691
27.81000 369.447
27.82000 385.217
27.83000 392.661
27.84000 380.628
27.85000 367.790
27.86000 359.862
27.87000 359.604
27.88000 359.489
27.89000 362.046
27.90000 367.421
27.91000 372.747
27.92000 371.895
27.93000 366.771
27.94000 361.760
27.95000 360.570
27.96000 361.149
27.97000 361.754
27.98000 362.713
27.99000 363.787
28.00000 365.101
28.01000 368.325
28.02000 371.961
28.03000 375.058
28.04000 377.381
28.05000 379.244
28.06000 379.169
28.07000 372.567
28.08000 365.434
28.09000 361.718
28.10000 365.863
28.11000 370.321
28.12000 373.053
28.13000 371.264
28.14000 369.943
28.15000 368.131
28.16000 365.810
28.17000 363.498
28.18000 362.174
28.19000 361.522
28.20000 360.886
28.21000 362.390
28.22000 364.777
28.23000 367.221
28.24000 370.431
28.25000 373.883
28.26000 376.905
28.27000 376.574
28.28000 375.535
28.29000 374.652
28.30000 366.195
28.31000 358.238
28.32000 354.501
28.33000 364.733
28.34000 376.072
28.35000 380.988
28.36000 371.386
28.37000 361.230
28.38000 355.048
28.39000 361.544
28.40000 366.283
28.41000 366.158
28.42000 361.097
28.43000 356.111
28.44000 358.799
28.45000 366.607
28.46000 374.226
28.47000 378.074
28.48000 380.119
28.49000 381.839
28.50000 379.293
28.51000 375.424
28.52000 371.889
28.53000 370.884
28.54000 370.404
28.55000 369.998
28.56000 366.174
28.57000 362.593
28.58000 359.748
28.59000 359.296
28.60000 359.028
28.61000 358.102
28.62000 355.716
28.63000 353.277
28.64000 351.803
28.65000 358.936
28.66000 364.080
28.67000 367.431
28.68000 369.000
28.69000 370.536
28.70000 369.015
28.71000 365.492
28.72000 362.059
28.73000 357.950
28.74000 353.742
28.75000 350.323
28.76000 357.001
28.77000 366.752
28.78000 375.387
28.79000 375.724
28.80000 374.370
28.81000 373.227
28.82000 366.301
28.83000 359.889
28.84000 356.392
28.85000 362.212
28.86000 368.729
28.87000 372.446
28.88000 370.045
28.89000 367.430
28.90000 365.861
28.91000 358.740
28.92000 353.645
28.93000 355.363
28.94000 363.721
28.95000 371.999
28.96000 373.301
28.97000 370.113
28.98000 367.009
28.99000 367.143
29.00000 368.622
29.01000 369.841
29.02000 367.813
29.03000 364.814
29.04000 361.738
29.05000 358.104
29.06000 354.358
29.07000 351.209
29.08000 359.182
29.09000 367.002
29.10000 372.072
29.11000 368.503
29.12000 364.305
29.13000 360.592
29.14000 357.923
29.15000 355.288
29.16000 353.721
29.17000 355.435
29.18000 356.670
29.19000 359.444
29.20000 363.690
29.21000 367.881
29.22000 367.594
29.23000 364.477
29.24000 361.446
29.25000 361.595
29.26000 363.040
29.27000 364.100
29.28000 360.502
29.29000 355.535
29.30000 351.786
29.31000 356.720
29.32000 363.357
29.33000 368.917
29.34000 360.893
29.35000 352.819
29.36000 347.356
29.37000 349.953
29.38000 353.121
29.39000 355.498
29.40000 356.210
29.41000 356.867
29.42000 357.256
29.43000 358.102
29.44000 358.702
29.45000 359.282
29.46000 359.843
29.47000 360.383
29.48000 359.322
29.49000 357.268
29.50000 355.272
29.51000 359.617
29.52000 366.291
29.53000 372.350
29.54000 371.160
29.55000 367.876
29.56000 364.768
29.57000 362.887
29.58000 361.242
29.59000 359.869
29.60000 367.238
29.61000 374.233
29.62000 376.345
29.63000 363.641
29.64000 349.919
29.65000 343.251
29.66000 351.216
29.67000 359.631
29.68000 364.563
29.69000 357.928
29.70000 353.201
29.71000 356.713
29.72000 367.791
29.73000 378.757
29.74000 381.942
29.75000 380.379
29.76000 378.863
29.77000 379.553
29.78000 381.078
29.79000 382.005
29.80000 376.070
29.81000 368.189
29.82000 362.173
29.83000 368.897
29.84000 378.026
29.85000 385.619
29.86000 384.470
29.87000 382.661
29.88000 381.916
29.89000 384.349
29.90000 386.993
29.91000 387.232
29.92000 382.566
29.93000 377.755
29.94000 374.958
29.95000 389.016
29.96000 398.957
29.97000 398.560
29.98000 388.851
29.99000 379.265
30.00000 377.635
30.01000 380.777
30.02000 383.821
30.03000 384.761
30.04000 384.837
30.05000 385.021
30.06000 386.413
30.07000 388.141
30.08000 389.369
30.09000 387.245
30.10000 384.502
30.11000 382.228
30.12000 374.328
30.13000 367.264
30.14000 362.623
30.15000 365.086
30.16000 368.009
30.17000 372.521
30.18000 380.222
30.19000 388.012
30.20000 392.506
30.21000 388.437
30.22000 385.556
30.23000 383.777
30.24000 382.974
30.25000 382.179
30.26000 381.883
30.27000 381.881
30.28000 381.880
30.29000 380.490
30.30000 378.649
30.31000 376.593
30.32000 372.200
30.33000 367.166
30.34000 362.795
30.35000 362.762
30.36000 363.516
30.37000 364.140
30.38000 361.754
30.39000 359.508
30.40000 358.896
30.41000 362.993
30.42000 367.385
30.43000 370.582
30.44000 371.424
30.45000 372.203
30.46000 372.649
30.47000 375.381
30.48000 377.293
30.49000 377.030
30.50000 374.879
30.51000 372.798
30.52000 374.635
30.53000 378.742
30.54000 382.709
30.55000 382.301
30.56000 380.286
30.57000 377.685
30.58000 368.873
30.59000 358.389
30.60000 350.176
30.61000 356.537
30.62000 365.491
30.63000 372.860
30.64000 370.042
30.65000 366.798
30.66000 366.451
30.67000 374.307
30.68000 382.661
30.69000 388.771
30.70000 390.536
30.71000 392.190
30.72000 393.129
30.73000 408.045
30.74000 418.455
30.75000 417.240
30.76000 406.144
30.77000 395.213
30.78000 393.156
30.79000 396.147
30.80000 399.033
30.81000 399.187
30.82000 398.332
30.83000 397.741
30.84000 399.886
30.85000 402.754
30.86000 405.180
30.87000 404.833
30.88000 404.001
30.89000 403.319
30.90000 422.893
30.91000 440.747
30.92000 453.006
30.93000 449.693
30.94000 445.463
30.95000 445.356
30.96000 453.094
30.97000 461.023
30.98000 465.484
30.99000 482.767
31.00000 494.791
31.01000 503.312
31.02000 508.912
31.03000 514.733
31.04000 531.776
31.05000 555.090
31.06000 577.554
31.07000 592.906
31.08000 604.777
31.09000 617.047
31.10000 633.357
31.11000 650.714
31.12000 668.377
31.13000 687.914
31.14000 707.773
31.15000 723.995
31.16000 756.309
31.17000 784.148
31.18000 808.921
31.19000 825.309
31.20000 841.219
31.21000 862.336
31.22000 893.194
31.23000 924.275
31.24000 941.619
31.25000 988.370
31.26000 1020.772
31.27000 1044.526
31.28000 1061.200
31.29000 1077.733
31.30000 1087.526
31.31000 1093.614
31.32000 1099.473
31.33000 1115.566
31.34000 1134.264
31.35000 1150.870
31.36000 1146.867
31.37000 1137.608
31.38000 1129.104
31.39000 1125.150
31.40000 1121.959
31.41000 1119.362
31.42000 1118.769
31.43000 1118.453
31.44000 1106.876
31.45000 1065.014
31.46000 1021.480
31.47000 984.206
31.48000 958.442
31.49000 932.927
31.50000 918.810
31.51000 893.790
31.52000 876.479
31.53000 850.718
31.54000 818.169
31.55000 785.626
31.56000 753.340
31.57000 721.193
31.58000 690.309
31.59000 670.392
31.60000 655.538
31.61000 640.333
31.62000 621.769
31.63000 602.364
31.64000 582.861
31.65000 562.781
31.66000 542.607
31.67000 526.250
31.68000 509.558
31.69000 495.928
31.70000 482.939
31.71000 471.639
31.72000 460.429
31.73000 449.368
31.74000 438.573
31.75000 427.784
31.76000 421.866
31.77000 418.565
31.78000 416.309
31.79000 417.309
31.80000 420.876
31.81000 424.303
31.82000 421.693
31.83000 415.881
31.84000 410.305
31.85000 403.854
31.86000 397.531
31.87000 391.195
31.88000 384.733
31.89000 378.242
31.90000 371.877
31.91000 366.254
31.92000 360.749
31.93000 356.304
31.94000 354.584
31.95000 353.404
31.96000 352.781
31.97000 353.607
31.98000 354.507
31.99000 353.793
32.00000 350.210
32.01000 346.572
32.02000 344.594
32.03000 351.856
32.04000 356.818
32.05000 354.142
32.06000 345.554
32.07000 337.247
32.08000 340.287
32.09000 349.245
32.10000 357.826
32.11000 356.133
32.12000 351.136
32.13000 346.989
32.14000 350.640
32.15000 356.175
32.16000 359.864
32.17000 353.069
32.18000 344.620
32.19000 337.822
32.20000 344.046
32.21000 350.103
32.22000 354.305
32.23000 353.767
32.24000 352.993
32.25000 349.274
32.26000 340.414
32.27000 331.461
32.28000 326.636
32.29000 326.147
32.30000 325.835
32.31000 329.351
32.32000 335.774
32.33000 342.030
32.34000 341.862
32.35000 338.400
32.36000 335.089
32.37000 332.462
32.38000 330.239
32.39000 328.833
32.40000 334.741
32.41000 342.382
32.42000 347.465
32.43000 338.288
32.44000 326.908
32.45000 317.789
32.46000 327.142
32.47000 336.105
32.48000 340.352
32.49000 332.756
32.50000 324.590
32.51000 320.895
32.52000 324.865
32.53000 328.966
32.54000 331.156
32.55000 337.050
32.56000 341.053
32.57000 341.756
32.58000 339.997
32.59000 338.207
32.60000 335.251
32.61000 331.709
32.62000 328.326
32.63000 325.399
32.64000 322.825
32.65000 320.963
32.66000 325.320
32.67000 331.124
32.68000 335.694
32.69000 333.522
32.70000 330.329
32.71000 327.781
32.72000 329.938
32.73000 332.024
32.74000 334.207
32.75000 336.628
32.76000 339.059
32.77000 340.890
32.78000 341.706
32.79000 342.507
32.80000 342.930
32.81000 329.204
32.82000 319.916
32.83000 318.769
32.84000 323.582
32.85000 328.286
32.86000 329.190
32.87000 328.211
32.88000 327.278
32.89000 325.028
32.90000 322.527
32.91000 320.218
32.92000 319.547
32.93000 319.250
32.94000 319.101
32.95000 319.740
32.96000 320.496
32.97000 321.096
32.98000 320.207
32.99000 319.385
33.00000 319.053
33.01000 319.911
33.02000 320.822
33.03000 320.031
33.04000 316.425
33.05000 312.777
33.06000 310.864
33.07000 304.487
33.08000 300.186
33.09000 299.020
33.10000 300.106
33.11000 301.268
33.12000 304.939
33.13000 309.832
33.14000 314.488
33.15000 313.317
33.16000 310.437
33.17000 307.672
33.18000 305.866
33.19000 304.275
33.20000 302.916
33.21000 302.780
33.22000 302.821
33.23000 302.854
33.24000 299.742
33.25000 297.023
33.26000 295.706
33.27000 297.731
33.28000 299.900
33.29000 300.645
33.30000 299.074
33.31000 297.471
33.32000 296.638
33.33000 301.021
33.34000 303.968
33.35000 304.926
33.36000 304.481
33.37000 304.022
33.38000 303.120
33.39000 302.004
33.40000 300.945
33.41000 295.546
33.42000 289.247
33.43000 284.576
33.44000 293.184
33.45000 304.719
33.46000 313.714
33.47000 309.618
33.48000 303.662
33.49000 298.966
33.50000 299.868
33.51000 300.968
33.52000 300.412
33.53000 295.971
33.54000 291.368
33.55000 289.796
33.56000 293.067
33.57000 296.401
33.58000 298.116
33.59000 308.070
33.60000 314.690
33.61000 311.200
33.62000 300.703
33.63000 290.621
33.64000 293.238
33.65000 301.826
33.66000 309.974
33.67000 313.372
33.68000 315.097
33.69000 316.217
33.70000 312.501
33.71000 307.740
33.72000 304.595
33.73000 309.623
33.74000 315.788
33.75000 320.627
33.76000 314.645
33.77000 309.152
33.78000 304.462
33.79000 301.624
33.80000 298.859
33.81000 299.717
33.82000 306.262
33.83000 312.876
33.84000 316.245
33.85000 310.505
33.86000 306.683
33.87000 306.228
33.88000 308.066
33.89000 309.992
33.90000 314.534
33.91000 320.284
33.92000 325.729
33.93000 322.169
33.94000 316.273
33.95000 311.326
33.96000 313.781
33.97000 317.807
33.98000 322.643
33.99000 331.491
34.00000 340.886
34.01000 348.230
34.02000 334.053
34.03000 321.372
34.04000 314.111
34.05000 319.131
34.06000 324.622
34.07000 328.874
34.08000 331.215
34.09000 333.534
34.10000 334.703
34.11000 324.486
34.12000 317.718
34.13000 317.521
34.14000 321.719
34.15000 325.893
34.16000 329.402
34.17000 332.608
34.18000 335.639
34.19000 342.280
34.20000 349.410
34.21000 354.898
34.22000 347.848
34.23000 338.188
34.24000 330.497
34.25000 332.401
34.26000 335.581
34.27000 338.057
34.28000 343.134
34.29000 347.338
34.30000 350.440
34.31000 351.091
34.32000 351.651
34.33000 348.682
34.34000 340.366
34.35000 331.994
34.36000 329.571
34.37000 333.080
34.38000 336.578
34.39000 338.977
34.40000 340.654
34.41000 342.286
34.42000 342.719
34.43000 342.617
34.44000 342.520
34.45000 340.997
34.46000 339.202
34.47000 337.902
34.48000 340.295
34.49000 343.444
34.50000 345.216
34.51000 340.414
34.52000 334.755
34.53000 330.369
34.54000 325.647
34.55000 321.876
34.56000 321.106
34.57000 326.911
34.58000 332.948
34.59000 336.688
34.60000 337.011
34.61000 337.301
34.62000 334.448
34.63000 328.524
34.64000 322.615
34.65000 318.065
34.66000 314.391
34.67000 310.808
34.68000 309.546
34.69000 309.304
34.70000 309.076
34.71000 305.038
34.72000 300.298
34.73000 296.197
34.74000 296.763
34.75000 298.266
34.76000 299.384
34.77000 298.696
34.78000 297.778
34.79000 297.069
34.80000 294.163
34.81000 291.732
34.82000 289.439
34.83000 287.442
34.84000 285.455
34.85000 286.979
34.86000 293.637
34.87000 300.338
34.88000 297.662
34.89000 286.004
34.90000 274.454
34.91000 271.751
34.92000 274.654
34.93000 277.535
34.94000 279.840
34.95000 281.897
34.96000 283.831
34.97000 285.921
34.98000 287.871
34.99000 289.040
35.00000 284.625
35.01000 279.111
35.02000 274.793
35.03000 275.980
35.04000 277.852
35.05000 279.291
35.06000 276.831
35.07000 274.667
35.08000 274.780
35.09000 279.711
35.10000 284.798
35.11000 282.804
35.12000 270.647
35.13000 258.412
35.14000 257.564
35.15000 267.411
35.16000 277.187
35.17000 281.695
35.18000 282.923
35.19000 283.908
35.20000 279.113
35.21000 271.864
35.22000 265.062
35.23000 268.228
35.24000 273.746
35.25000 277.864
35.26000 272.190
35.27000 264.626
35.28000 258.563
35.29000 259.273
35.30000 260.809
35.31000 261.983
35.32000 271.120
35.33000 278.760
35.34000 283.236
35.35000 281.129
35.36000 278.817
35.37000 276.716
35.38000 274.912
35.39000 273.111
35.40000 271.196
35.41000 269.179
35.42000 267.233
35.43000 270.232
35.44000 276.257
35.45000 281.995
35.46000 281.139
35.47000 277.533
35.48000 274.154
35.49000 276.179
35.50000 279.419
35.51000 281.519
35.52000 275.813
35.53000 268.630
35.54000 262.903
35.55000 263.633
35.56000 265.132
35.57000 266.274
35.58000 270.147
35.59000 273.338
35.60000 275.039
35.61000 273.691
35.62000 272.252
35.63000 271.234
35.64000 270.799
35.65000 270.367
35.66000 271.515
35.67000 274.087
35.68000 276.616
35.69000 276.319
35.70000 274.322
35.71000 272.279
35.72000 269.227
35.73000 265.760
35.74000 262.520
35.75000 257.717
35.76000 252.960
35.77000 250.090
35.78000 259.875
35.79000 272.009
35.80000 280.993
35.81000 276.259
35.82000 269.930
35.83000 265.134
35.84000 271.368
35.85000 276.826
35.86000 278.755
35.87000 273.591
35.88000 268.227
35.89000 265.386
35.90000 265.976
35.91000 266.585
35.92000 266.698
35.93000 266.372
35.94000 266.047
35.95000 265.790
35.96000 265.572
35.97000 265.303
35.98000 263.926
35.99000 262.102
36.00000 260.400
36.01000 260.391
36.02000 260.804
36.03000 261.173
36.04000 261.253
36.05000 261.280
36.06000 261.790
36.07000 264.361
36.08000 267.166
36.09000 269.282
36.10000 269.635
36.11000 269.825
36.12000 269.079
36.13000 266.483
36.14000 263.838
36.15000 262.212
36.16000 261.948
36.17000 261.691
36.18000 261.334
36.19000 260.892
36.20000 260.509
36.21000 263.523
36.22000 268.509
36.23000 273.258
36.24000 273.154
36.25000 271.126
36.26000 269.237
36.27000 267.273
36.28000 265.479
36.29000 263.938
36.30000 264.032
36.31000 264.418
36.32000 264.462
36.33000 263.076
36.34000 261.530
36.35000 260.370
36.36000 256.628
36.37000 253.581
36.38000 251.386
36.39000 250.847
36.40000 250.351
36.41000 250.341
36.42000 250.968
36.43000 251.597
36.44000 252.826
36.45000 254.562
36.46000 256.308
36.47000 258.619
36.48000 261.251
36.49000 263.549
36.50000 259.209
36.51000 252.284
36.52000 245.848
36.53000 251.493
36.54000 259.475
36.55000 266.245
36.56000 265.363
36.57000 263.142
36.58000 261.879
36.59000 264.565
36.60000 267.679
36.61000 270.006
36.62000 260.868
36.63000 253.215
36.64000 249.502
36.65000 253.309
36.66000 257.298
36.67000 259.819
36.68000 260.452
36.69000 261.077
36.70000 264.815
36.71000 271.139
36.72000 277.337
36.73000 277.148
36.74000 273.378
36.75000 269.797
36.76000 269.819
36.77000 271.220
36.78000 272.520
36.79000 276.607
36.80000 280.942
36.81000 284.216
36.82000 280.938
36.83000 276.537
36.84000 273.086
36.85000 273.484
36.86000 274.290
36.87000 274.890
36.88000 273.848
36.89000 272.965
36.90000 274.096
36.91000 279.003
36.92000 283.997
36.93000 281.535
36.94000 269.665
36.95000 257.779
36.96000 259.959
36.97000 273.636
36.98000 287.021
36.99000 286.395
37.00000 278.051
37.01000 270.146
37.02000 270.378
37.03000 273.674
37.04000 276.724
37.05000 274.709
37.06000 271.734
37.07000 269.766
37.08000 273.892
37.09000 279.042
37.10000 282.447
37.11000 278.916
37.12000 274.667
37.13000 271.523
37.14000 270.322
37.15000 269.474
37.16000 271.969
37.17000 280.629
37.18000 289.423
37.19000 289.143
37.20000 277.622
37.21000 266.088
37.22000 260.200
37.23000 258.866
37.24000 257.542
37.25000 256.660
37.26000 256.019
37.27000 255.399
37.28000 255.183
37.29000 255.115
37.30000 255.053
37.31000 252.341
37.32000 249.312
37.33000 246.744
37.34000 246.904
37.35000 247.514
37.36000 247.776
37.37000 246.674
37.38000 245.436
37.39000 244.524
37.40000 240.929
37.41000 238.034
37.42000 237.547
37.43000 241.419
37.44000 245.381
37.45000 246.445
37.46000 243.986
37.47000 241.523
37.48000 240.653
37.49000 241.039
37.50000 241.450
37.51000 242.921
37.52000 244.956
37.53000 247.017
37.54000 249.525
37.55000 252.194
37.56000 254.654
37.57000 255.043
37.58000 254.934
37.59000 254.751
37.60000 254.139
37.61000 253.457
37.62000 254.571
37.63000 262.567
37.64000 271.240
37.65000 277.594
37.66000 262.687
37.67000 250.324
37.68000 245.246
37.69000 253.135
37.70000 261.277
37.71000 267.506
37.72000 271.455
37.73000 275.390
37.74000 272.505
37.75000 264.374
37.76000 256.478
37.77000 258.232
37.78000 265.031
37.79000 271.439
37.80000 271.263
37.81000 268.732
37.82000 266.405
37.83000 261.731
37.84000 257.048
37.85000 253.713
37.86000 258.065
37.87000 263.633
37.88000 267.728
37.89000 266.279
37.90000 264.298
37.91000 262.854
37.92000 253.761
37.93000 246.462
37.94000 245.618
37.95000 256.065
37.96000 266.719
37.97000 268.203
37.98000 258.957
37.99000 249.717
38.00000 251.287
38.01000 261.029
38.02000 270.583
38.03000 272.909
38.04000 271.519
38.05000 270.240
38.06000 270.754
38.07000 271.900
38.08000 272.951
38.09000 273.000
38.10000 272.832
38.11000 271.834
38.12000 266.202
38.13000 259.851
38.14000 255.944
38.15000 261.076
38.16000 267.052
38.17000 271.387
38.18000 271.026
38.19000 270.574
38.20000 272.370
38.21000 278.031
38.22000 283.758
38.23000 282.280
38.24000 272.532
38.25000 262.802
38.26000 263.903
38.27000 273.038
38.28000 282.082
38.29000 287.800
38.30000 291.837
38.31000 295.945
38.32000 301.170
38.33000 306.781
38.34000 311.917
38.35000 320.689
38.36000 329.248
38.37000 337.200
38.38000 341.835
38.39000 345.966
38.40000 352.853
38.41000 369.756
38.42000 387.571
38.43000 400.425
38.44000 425.155
38.45000 444.538
38.46000 467.477
38.47000 496.426
38.48000 525.473
38.49000 544.976
38.50000 553.735
38.51000 562.455
38.52000 582.385
38.53000 610.316
38.54000 638.212
38.55000 664.848
38.56000 690.859
38.57000 716.843
38.58000 742.406
38.59000 767.827
38.60000 791.044
38.61000 822.382
38.62000 851.855
38.63000 878.391
38.64000 889.137
38.65000 897.537
38.66000 906.244
38.67000 916.045
38.68000 925.943
38.69000 933.047
38.70000 928.912
38.71000 925.364
38.72000 921.260
38.73000 916.233
38.74000 911.193
38.75000 898.603
38.76000 877.674
38.77000 856.818
38.78000 841.703
38.79000 830.825
38.80000 819.440
38.81000 791.028
38.82000 754.306
38.83000 718.018
38.84000 688.175
38.85000 660.484
38.86000 635.252
38.87000 608.417
38.88000 584.323
38.89000 559.792
38.90000 532.953
38.91000 505.777
38.92000 483.241
38.93000 476.977
38.94000 472.122
38.95000 468.655
38.96000 423.093
38.97000 386.944
38.98000 363.885
38.99000 362.175
39.00000 360.767
39.01000 352.258
39.02000 336.059
39.03000 319.924
39.04000 306.905
39.05000 296.201
39.06000 285.787
39.07000 284.711
39.08000 288.116
39.09000 290.925
39.10000 285.148
39.11000 276.553
39.12000 268.740
39.13000 259.928
39.14000 251.942
39.15000 246.614
39.16000 255.026
39.17000 265.395
39.18000 273.073
39.19000 271.478
39.20000 269.101
39.21000 267.413
39.22000 263.874
39.23000 261.123
39.24000 259.997
39.25000 261.477
39.26000 262.992
39.27000 258.880
39.28000 248.793
39.29000 238.751
39.30000 237.503
39.31000 242.314
39.32000 247.085
39.33000 250.634
39.34000 253.606
39.35000 256.221
39.36000 253.816
39.37000 249.794
39.38000 246.146
39.39000 239.905
39.40000 233.903
39.41000 229.256
39.42000 231.486
39.43000 234.675
39.44000 237.036
39.45000 236.591
39.46000 235.915
39.47000 235.438
39.48000 243.677
39.49000 250.196
39.50000 250.475
39.51000 240.932
39.52000 231.268
39.53000 226.914
39.54000 228.089
39.55000 229.258
39.56000 232.997
39.57000 238.424
39.58000 243.738
39.59000 245.700
39.60000 246.110
39.61000 246.705
39.62000 249.843
39.63000 253.785
39.64000 257.352
39.65000 252.827
39.66000 247.328
39.67000 242.879
39.68000 243.650
39.69000 245.134
39.70000 244.927
39.71000 239.096
39.72000 232.815
39.73000 228.403
39.74000 231.084
39.75000 233.321
39.76000 236.966
39.77000 242.788
39.78000 248.635
39.79000 248.511
39.80000 242.295
39.81000 236.115
39.82000 233.895
39.83000 234.324
39.84000 234.833
39.85000 237.561
39.86000 241.301
39.87000 244.897
39.88000 246.587
39.89000 247.684
39.90000 248.673
39.91000 249.361
39.92000 249.909
39.93000 249.381
39.94000 243.599
39.95000 237.114
39.96000 232.812
39.97000 235.645
39.98000 239.032
39.99000 241.398
40.00000 238.245
40.01000 235.710
40.02000 236.072
40.03000 240.837
40.04000 245.647
40.05000 242.455
40.06000 231.259
40.07000 220.132
40.08000 218.536
40.09000 223.151
40.10000 227.759
40.11000 232.207
40.12000 236.584
40.13000 240.384
40.14000 236.753
40.15000 230.850
40.16000 225.535
40.17000 226.571
40.18000 228.621
40.19000 229.576
40.20000 225.288
40.21000 220.314
40.22000 216.500
40.23000 216.413
40.24000 216.606
40.25000 216.741
40.26000 220.258
40.27000 222.999
40.28000 224.708
40.29000 224.878
40.30000 225.033
40.31000 223.877
40.32000 221.436
40.33000 219.011
40.34000 218.172
40.35000 218.358
40.36000 218.629
40.37000 221.149
40.38000 224.659
40.39000 227.935
40.40000 228.272
40.41000 227.725
40.42000 227.233
40.43000 226.943
40.44000 226.725
40.45000 225.870
40.46000 222.024
40.47000 217.796
40.48000 215.429
40.49000 218.940
40.50000 222.883
40.51000 225.606
40.52000 221.212
40.53000 217.728
40.54000 216.481
40.55000 218.513
40.56000 220.574
40.57000 219.673
40.58000 215.927
40.59000 212.207
40.60000 213.778
40.61000 218.628
40.62000 223.293
40.63000 223.341
40.64000 221.390
40.65000 219.540
40.66000 218.909
40.67000 218.638
40.68000 218.396
40.69000 214.520
40.70000 210.510
40.71000 207.944
40.72000 212.043
40.73000 216.975
40.74000 220.342
40.75000 218.853
40.76000 217.018
40.77000 215.758
40.78000 212.824
40.79000 210.584
40.80000 211.982
40.81000 218.618
40.82000 225.295
40.83000 227.193
40.84000 224.590
40.85000 222.008
40.86000 219.961
40.87000 218.278
40.88000 216.556
40.89000 213.895
40.90000 210.835
40.91000 208.294
40.92000 211.903
40.93000 217.299
40.94000 222.119
40.95000 217.594
40.96000 212.077
40.97000 207.909
40.98000 209.856
40.99000 212.549
41.00000 214.975
41.01000 216.583
41.02000 218.135
41.03000 219.194
41.04000 220.448
41.05000 221.391
41.06000 222.741
41.07000 224.664
41.08000 226.589
41.09000 224.545
41.10000 218.833
41.11000 213.171
41.12000 214.513
41.13000 220.045
41.14000 225.226
41.15000 222.327
41.16000 216.048
41.17000 210.330
41.18000 211.099
41.19000 213.719
41.20000 216.054
41.21000 217.798
41.22000 219.217
41.23000 219.334
41.24000 213.663
41.25000 207.300
41.26000 204.246
41.27000 211.110
41.28000 218.641
41.29000 223.751
41.30000 218.530
41.31000 214.406
41.32000 211.209
41.33000 209.297
41.34000 207.395
41.35000 208.571
41.36000 212.534
41.37000 216.460
41.38000 216.752
41.39000 214.892
41.40000 213.051
41.41000 211.642
41.42000 210.412
41.43000 209.216
41.44000 208.412
41.45000 207.718
41.46000 207.102
41.47000 208.864
41.48000 210.777
41.49000 212.712
41.50000 214.742
41.51000 216.784
41.52000 219.210
41.53000 222.768
41.54000 226.399
41.55000 228.849
41.56000 225.017
41.57000 222.033
41.58000 218.193
41.59000 213.187
41.60000 208.176
41.61000 205.700
41.62000 205.476
41.63000 205.255
41.64000 210.654
41.65000 219.193
41.66000 227.291
41.67000 225.921
41.68000 220.723
41.69000 215.777
41.70000 213.592
41.71000 212.166
41.72000 210.903
41.73000 211.171
41.74000 211.646
41.75000 212.225
41.76000 213.254
41.77000 214.334
41.78000 215.347
41.79000 216.163
41.80000 216.967
41.81000 217.506
41.82000 216.943
41.83000 216.503
41.84000 215.776
41.85000 214.665
41.86000 213.554
41.87000 213.716
41.88000 214.988
41.89000 216.246
41.90000 216.825
41.91000 217.005
41.92000 217.150
41.93000 216.566
41.94000 215.693
41.95000 215.375
41.96000 220.981
41.97000 228.190
41.98000 234.562
41.99000 231.676
42.00000 227.753
42.01000 224.342
42.02000 223.088
42.03000 222.074
42.04000 222.851
42.05000 228.727
42.06000 234.915
42.07000 239.039
42.08000 227.942
42.09000 219.438
42.10000 216.366
42.11000 220.431
42.12000 224.525
42.13000 226.564
42.14000 226.847
42.15000 227.127
42.16000 226.477
42.17000 225.323
42.18000 224.283
42.19000 225.495
42.20000 227.588
42.21000 229.237
42.22000 226.271
42.23000 222.077
42.24000 218.381
42.25000 227.056
42.26000 236.405
42.27000 242.422
42.28000 234.672
42.29000 225.425
42.30000 218.106
42.31000 216.181
42.32000 214.577
42.33000 213.515
42.34000 220.027
42.35000 224.972
42.36000 226.432
42.37000 223.399
42.38000 220.349
42.39000 216.935
42.40000 213.218
42.41000 209.547
42.42000 215.712
42.43000 227.107
42.44000 237.894
42.45000 236.979
42.46000 231.570
42.47000 226.676
42.48000 227.010
42.49000 228.709
42.50000 230.202
42.51000 224.923
42.52000 219.379
42.53000 215.584
42.54000 218.880
42.55000 222.929
42.56000 225.713
42.57000 225.015
42.58000 224.117
42.59000 223.526
42.60000 221.573
42.61000 220.111
42.62000 218.459
42.63000 216.568
42.64000 214.679
42.65000 214.200
42.66000 214.883
42.67000 215.556
42.68000 215.181
42.69000 214.252
42.70000 213.311
42.71000 212.136
42.72000 210.873
42.73000 209.641
42.74000 208.709
42.75000 207.855
42.76000 207.107
42.77000 206.325
42.78000 205.650
42.79000 205.808
42.80000 209.290
42.81000 213.116
42.82000 217.422
42.83000 223.024
42.84000 228.697
42.85000 232.407
42.86000 226.227
42.87000 221.528
42.88000 218.401
42.89000 217.226
42.90000 216.060
42.91000 215.933
42.92000 216.645
42.93000 217.348
42.94000 214.977
42.95000 211.053
42.96000 207.192
42.97000 204.483
42.98000 202.200
42.99000 200.220
43.00000 201.166
43.01000 202.849
43.02000 204.320
43.03000 199.879
43.04000 195.238
43.05000 192.836
43.06000 199.192
43.07000 206.434
43.08000 209.886
43.09000 203.266
43.10000 196.102
43.11000 191.449
43.12000 198.257
43.13000 203.420
43.14000 204.781
43.15000 201.508
43.16000 198.225
43.17000 195.123
43.18000 192.163
43.19000 189.248
43.20000 193.056
43.21000 200.232
43.22000 207.101
43.23000 208.620
43.24000 208.188
43.25000 208.011
43.26000 210.248
43.27000 213.082
43.28000 215.551
43.29000 212.819
43.30000 209.764
43.31000 206.639
43.32000 203.241
43.33000 199.816
43.34000 198.554
43.35000 202.940
43.36000 207.620
43.37000 210.640
43.38000 204.936
43.39000 200.642
43.40000 197.922
43.41000 197.084
43.42000 196.255
43.43000 196.884
43.44000 198.649
43.45000 200.385
43.46000 199.665
43.47000 197.721
43.48000 195.957
43.49000 197.254
43.50000 199.647
43.51000 202.017
43.52000 204.163
43.53000 206.255
43.54000 208.073
43.55000 203.907
43.56000 199.545
43.57000 196.723
43.58000 199.710
43.59000 203.257
43.60000 204.832
43.61000 201.346
43.62000 197.605
43.63000 195.207
43.64000 196.586
43.65000 197.643
43.66000 199.211
43.67000 201.378
43.68000 203.539
43.69000 204.064
43.70000 203.340
43.71000 202.628
43.72000 202.844
43.73000 203.516
43.74000 204.094
43.75000 203.142
43.76000 201.651
43.77000 200.465
43.78000 202.031
43.79000 204.252
43.80000 206.176
43.81000 204.827
43.82000 203.246
43.83000 201.725
43.84000 200.422
43.85000 199.139
43.86000 197.699
43.87000 195.859
43.88000 193.999
43.89000 192.815
43.90000 193.834
43.91000 194.603
43.92000 195.632
43.93000 196.963
43.94000 198.293
43.95000 199.538
43.96000 200.718
43.97000 201.878
43.98000 201.653
43.99000 200.758
44.00000 199.967
44.01000 200.828
44.02000 202.260
44.03000 203.317
44.04000 201.069
44.05000 198.048
44.06000 195.439
44.07000 199.293
44.08000 203.401
44.09000 206.315
44.10000 204.884
44.11000 203.054
44.12000 201.403
44.13000 200.193
44.14000 199.005
44.15000 198.252
44.16000 202.250
44.17000 205.203
44.18000 206.393
44.19000 205.589
44.20000 204.795
44.21000 206.015
44.22000 208.716
44.23000 211.367
44.24000 210.468
44.25000 207.896
44.26000 205.168
44.27000 200.025
44.28000 194.060
44.29000 189.254
44.30000 194.414
44.31000 201.865
44.32000 208.281
44.33000 210.402
44.34000 211.656
44.35000 211.491
44.36000 206.251
44.37000 200.559
44.38000 198.252
44.39000 204.202
44.40000 210.525
44.41000 214.497
44.42000 210.165
44.43000 206.940
44.44000 206.756
44.45000 209.940
44.46000 213.103
44.47000 212.606
44.48000 209.464
44.49000 206.383
44.50000 209.132
44.51000 214.525
44.52000 219.671
44.53000 221.116
44.54000 221.322
44.55000 222.111
44.56000 227.799
44.57000 234.592
44.58000 240.423
44.59000 232.382
44.60000 223.874
44.61000 216.928
44.62000 215.473
44.63000 214.495
44.64000 215.665
44.65000 221.983
44.66000 228.525
44.67000 232.607
44.68000 234.212
44.69000 235.345
44.70000 233.782
44.71000 229.291
44.72000 224.843
44.73000 226.505
44.74000 232.503
44.75000 238.379
44.76000 238.899
44.77000 236.923
44.78000 235.116
44.79000 235.764
44.80000 237.218
44.81000 239.276
44.82000 246.285
44.83000 254.391
44.84000 261.326
44.85000 252.419
44.86000 242.996
44.87000 235.906
44.88000 236.873
44.89000 238.522
44.90000 238.814
44.91000 235.911
44.92000 232.874
44.93000 230.992
44.94000 234.226
44.95000 236.601
44.96000 235.953
44.97000 232.086
44.98000 228.280
44.99000 232.243
45.00000 241.622
45.01000 250.799
45.02000 248.982
45.03000 242.250
45.04000 235.945
45.05000 235.658
45.06000 237.316
45.07000 238.670
45.08000 237.593
45.09000 235.987
45.10000 234.616
45.11000 229.838
45.12000 225.416
45.13000 223.646
45.14000 230.881
45.15000 238.858
45.16000 244.742
45.17000 245.777
45.18000 246.617
45.19000 247.133
45.20000 236.097
45.21000 228.080
45.22000 223.750
45.23000 223.269
45.24000 222.807
45.25000 224.541
45.26000 227.778
45.27000 230.942
45.28000 224.403
45.29000 213.816
45.30000 204.290
45.31000 209.273
45.32000 218.866
45.33000 227.329
45.34000 226.918
45.35000 224.614
45.36000 222.656
45.37000 220.368
45.38000 218.410
45.39000 217.533
45.40000 220.262
45.41000 223.280
45.42000 223.464
45.43000 217.190
45.44000 210.666
45.45000 206.682
45.46000 204.843
45.47000 203.545
45.48000 202.855
45.49000 202.787
45.50000 202.726
45.51000 203.450
45.52000 204.701
45.53000 205.922
45.54000 206.960
45.55000 207.873
45.56000 208.349
45.57000 203.004
45.58000 195.842
45.59000 189.691
45.60000 191.312
45.61000 194.561
45.62000 197.314
45.63000 199.138
45.64000 200.563
45.65000 201.317
45.66000 199.872
45.67000 198.257
45.68000 195.810
45.69000 191.502
45.70000 187.125
45.71000 184.472
45.72000 189.257
45.73000 192.726
45.74000 194.101
45.75000 193.375
45.76000 192.637
45.77000 190.626
45.78000 187.775
45.79000 184.994
45.80000 182.442
45.81000 180.103
45.82000 178.142
45.83000 181.077
45.84000 185.515
45.85000 188.960
45.86000 184.947
45.87000 179.401
45.88000 174.718
45.89000 180.450
45.90000 186.383
45.91000 190.616
45.92000 189.370
45.93000 187.709
45.94000 187.048
45.95000 188.589
45.96000 190.209
45.97000 191.184
45.98000 183.287
45.99000 177.610
46.00000 175.554
46.01000 177.058
46.02000 178.542
46.03000 178.257
46.04000 176.826
46.05000 175.432
46.06000 178.641
46.07000 183.638
46.08000 188.070
46.09000 185.390
46.10000 180.567
46.11000 176.144
46.12000 174.668
46.13000 173.786
46.14000 173.044
46.15000 173.199
46.16000 173.424
46.17000 173.988
46.18000 175.628
46.19000 177.346
46.20000 178.457
46.21000 178.254
46.22000 178.006
46.23000 177.858
46.24000 178.039
46.25000 178.170
46.26000 178.036
46.27000 177.646
46.28000 177.273
46.29000 178.338
46.30000 180.320
46.31000 182.248
46.32000 182.706
46.33000 182.535
46.34000 182.223
46.35000 180.192
46.36000 177.652
46.37000 175.520
46.38000 176.326
46.39000 177.714
46.40000 178.878
46.41000 180.334
46.42000 181.576
46.43000 182.027
46.44000 180.015
46.45000 177.827
46.46000 178.067
46.47000 183.470
46.48000 189.042
46.49000 192.344
46.50000 192.310
46.51000 192.266
46.52000 190.665
46.53000 187.594
46.54000 184.528
46.55000 181.863
46.56000 179.449
46.57000 177.104
46.58000 177.143
46.59000 178.148
46.60000 178.913
46.61000 176.828
46.62000 173.912
46.63000 171.781
46.64000 175.178
46.65000 179.648
46.66000 183.385
46.67000 178.594
46.68000 173.748
46.69000 171.152
46.70000 175.438
46.71000 180.203
46.72000 183.496
46.73000 183.712
46.74000 183.832
46.75000 183.902
46.76000 187.476
46.77000 190.014
46.78000 188.060
46.79000 181.947
46.80000 175.843
46.81000 170.436
46.82000 165.457
46.83000 160.625
46.84000 163.156
46.85000 168.486
46.86000 173.261
46.87000 171.587
46.88000 168.070
46.89000 165.739
46.90000 171.579
46.91000 178.976
46.92000 185.138
46.93000 181.729
46.94000 177.955
46.95000 174.501
46.96000 172.008
46.97000 169.581
46.98000 168.964
46.99000 172.066
47.00000 175.280
47.01000 177.155
47.02000 175.712
47.03000 174.682
47.04000 174.692
47.05000 175.647
47.06000 176.556
47.07000 174.329
47.08000 170.208
47.09000 166.213
47.10000 163.119
47.11000 160.540
47.12000 158.435
47.13000 161.692
47.14000 166.456
47.15000 170.446
47.16000 169.220
47.17000 167.019
47.18000 165.193
47.19000 166.747
47.20000 168.360
47.21000 169.590
47.22000 169.687
47.23000 169.711
47.24000 170.067
47.25000 171.092
47.26000 172.137
47.27000 172.741
47.28000 169.118
47.29000 166.561
47.30000 165.130
47.31000 164.702
47.32000 164.267
47.33000 163.413
47.34000 162.309
47.35000 161.241
47.36000 163.159
47.37000 166.116
47.38000 168.862
47.39000 169.285
47.40000 169.066
47.41000 169.159
47.42000 171.313
47.43000 173.843
47.44000 175.937
47.45000 176.281
47.46000 176.399
47.47000 176.023
47.48000 174.210
47.49000 172.305
47.50000 170.731
47.51000 169.814
47.52000 168.915
47.53000 168.398
47.54000 162.995
47.55000 159.201
47.56000 156.669
47.57000 155.240
47.58000 153.913
47.59000 158.566
47.60000 166.707
47.61000 174.577
47.62000 173.785
47.63000 169.781
47.64000 166.315
47.65000 168.614
47.66000 172.477
47.67000 175.626
47.68000 174.160
47.69000 171.864
47.70000 169.972
47.71000 165.188
47.72000 160.984
47.73000 158.140
47.74000 159.176
47.75000 160.451
47.76000 161.977
47.77000 163.992
47.78000 166.019
47.79000 167.174
47.80000 164.023
47.81000 161.813
47.82000 159.575
47.83000 157.314
47.84000 155.119
47.85000 156.573
47.86000 160.119
47.87000 163.543
47.88000 162.788
47.89000 160.535
47.90000 158.620
47.91000 160.238
47.92000 162.797
47.93000 164.926
47.94000 164.332
47.95000 163.258
47.96000 162.376
47.97000 164.480
47.98000 166.475
47.99000 167.356
48.00000 165.110
48.01000 162.677
48.02000 159.616
48.03000 155.351
48.04000 151.055
48.05000 148.629
48.06000 154.449
48.07000 158.515
48.08000 161.598
48.09000 163.854
48.10000 166.003
48.11000 162.604
48.12000 156.081
48.13000 149.792
48.14000 154.746
48.15000 163.475
48.16000 171.483
48.17000 172.140
48.18000 170.873
48.19000 169.490
48.20000 167.386
48.21000 165.156
48.22000 163.332
48.23000 160.956
48.24000 158.961
48.25000 158.834
48.26000 163.856
48.27000 169.176
48.28000 170.242
48.29000 163.290
48.30000 156.149
48.31000 152.150
48.32000 150.260
48.33000 148.961
48.34000 150.036
48.35000 153.069
48.36000 156.079
48.37000 157.934
48.38000 159.149
48.39000 160.319
48.40000 158.817
48.41000 156.458
48.42000 154.408
48.43000 155.442
48.44000 157.267
48.45000 158.595
48.46000 156.895
48.47000 154.683
48.48000 152.880
48.49000 155.098
48.50000 157.253
48.51000 159.559
48.52000 162.272
48.53000 165.009
48.54000 165.419
48.55000 161.518
48.56000 157.521
48.57000 155.301
48.58000 152.600
48.59000 150.742
48.60000 152.678
48.61000 157.684
48.62000 162.638
48.63000 165.149
48.64000 166.331
48.65000 167.467
48.66000 165.128
48.67000 161.724
48.68000 158.692
48.69000 159.263
48.70000 160.743
48.71000 162.022
48.72000 162.100
48.73000 161.978
48.74000 161.879
48.75000 164.139
48.76000 166.178
48.77000 167.786
48.78000 168.247
48.79000 168.646
48.80000 166.716
48.81000 160.546
48.82000 154.287
48.83000 150.841
48.84000 152.751
48.85000 154.074
48.86000 154.773
48.87000 154.978
48.88000 155.222
48.89000 157.236
48.90000 160.195
48.91000 163.036
48.92000 163.165
48.93000 162.359
48.94000 161.325
48.95000 158.124
48.96000 154.387
48.97000 151.338
48.98000 152.316
48.99000 153.948
49.00000 155.268
49.01000 159.775
49.02000 163.701
49.03000 166.436
49.04000 166.054
49.05000 165.509
49.06000 165.143
49.07000 165.097
49.08000 165.057
49.09000 165.036
49.10000 159.512
49.11000 155.724
49.12000 155.681
49.13000 158.559
49.14000 161.336
49.15000 159.948
49.16000 156.370
49.17000 152.941
49.18000 151.315
49.19000 150.403
49.20000 149.598
49.21000 149.789
49.22000 150.223
49.23000 151.281
49.24000 155.918
49.25000 161.123
49.26000 165.318
49.27000 167.528
49.28000 169.167
49.29000 169.125
49.30000 164.761
49.31000 160.177
49.32000 156.663
49.33000 155.029
49.34000 153.430
49.35000 152.565
49.36000 158.168
49.37000 161.999
49.38000 163.048
49.39000 161.967
49.40000 160.916
49.41000 161.034
49.42000 161.756
49.43000 162.447
49.44000 161.776
49.45000 160.703
49.46000 159.558
49.47000 157.759
49.48000 155.804
49.49000 154.522
49.50000 157.020
49.51000 160.108
49.52000 162.587
49.53000 159.009
49.54000 155.648
49.55000 154.308
49.56000 158.081
49.57000 162.105
49.58000 163.074
49.59000 158.765
49.60000 154.363
49.61000 152.003
49.62000 157.195
49.63000 160.729
49.64000 160.754
49.65000 158.142
49.66000 155.632
49.67000 156.937
49.68000 160.180
49.69000 163.278
49.70000 162.403
49.71000 160.306
49.72000 157.972
49.73000 153.547
49.74000 148.630
49.75000 144.790
49.76000 146.885
49.77000 149.886
49.78000 152.285
49.79000 151.192
49.80000 150.049
49.81000 149.919
49.82000 152.308
49.83000 154.817
49.84000 157.108
49.85000 159.033
49.86000 160.952
49.87000 161.971
49.88000 160.478
49.89000 159.474
49.90000 160.939
49.91000 164.225
49.92000 167.276
49.93000 161.931
49.94000 152.397
49.95000 143.302
49.96000 144.463
49.97000 148.791
49.98000 152.806
49.99000 154.115
50.00000 154.800
50.01000 155.382
50.02000 155.404
50.03000 155.342
50.04000 155.292
50.05000 153.938
50.06000 152.752
50.07000 152.772
50.08000 155.744
50.09000 158.850
50.10000 158.816
50.11000 153.544
50.12000 148.191
50.13000 145.374
50.14000 155.876
50.15000 162.959
50.16000 162.545
50.17000 156.697
50.18000 150.977
50.19000 149.589
50.20000 150.327
50.21000 151.029
50.22000 149.968
50.23000 148.438
50.24000 147.335
50.25000 149.835
50.26000 153.151
50.27000 155.666
50.28000 153.937
50.29000 151.587
50.30000 149.723
50.31000 155.846
50.32000 161.332
50.33000 165.824
50.34000 167.923
50.35000 169.918
50.36000 169.216
50.37000 164.093
50.38000 158.907
50.39000 156.202
50.40000 164.506
50.41000 170.093
50.42000 171.228
50.43000 169.194
50.44000 167.149
50.45000 164.712
50.46000 162.088
50.47000 159.592
50.48000 158.427
50.49000 157.756
50.50000 157.147
50.51000 157.052
50.52000 157.072
50.53000 157.742
50.54000 161.793
50.55000 166.330
50.56000 169.913
50.57000 167.599
50.58000 165.340
50.59000 162.934
50.60000 160.181
50.61000 157.414
50.62000 157.839
50.63000 163.405
50.64000 169.040
50.65000 171.951
50.66000 161.939
50.67000 155.223
50.68000 152.967
50.69000 153.826
50.70000 154.800
50.71000 159.324
50.72000 165.530
50.73000 171.421
50.74000 167.962
50.75000 161.974
50.76000 156.986
50.77000 160.062
50.78000 164.895
50.79000 168.689
50.80000 167.181
50.81000 164.928
50.82000 163.156
50.83000 162.657
50.84000 162.341
50.85000 162.931
50.86000 165.624
50.87000 168.403
50.88000 167.550
50.89000 160.951
50.90000 154.280
50.91000 150.868
50.92000 156.165
50.93000 159.697
50.94000 159.880
50.95000 157.766
50.96000 155.808
50.97000 158.479
50.98000 163.306
50.99000 167.881
51.00000 163.648
51.01000 157.165
51.02000 151.250
51.03000 149.801
51.04000 149.309
51.05000 148.643
51.06000 147.107
51.07000 145.452
51.08000 144.155
51.09000 150.255
51.10000 155.604
51.11000 158.228
51.12000 154.632
51.13000 150.793
51.14000 147.757
51.15000 145.969
51.16000 144.196
51.17000 143.297
51.18000 140.108
51.19000 138.017
51.20000 140.682
51.21000 146.554
51.22000 152.195
51.23000 151.248
51.24000 147.284
51.25000 143.534
51.26000 142.937
51.27000 143.297
51.28000 143.614
51.29000 143.600
51.30000 143.517
51.31000 143.607
51.32000 144.551
51.33000 145.610
51.34000 146.436
51.35000 149.195
51.36000 151.515
51.37000 152.273
51.38000 149.524
51.39000 146.644
51.40000 146.002
51.41000 148.779
51.42000 151.592
51.43000 153.003
51.44000 144.529
51.45000 138.932
51.46000 139.055
51.47000 142.964
51.48000 146.712
51.49000 146.052
51.50000 143.408
51.51000 140.911
51.52000 140.824
51.53000 141.423
51.54000 141.910
51.55000 141.541
51.56000 140.996
51.57000 141.501
51.58000 147.062
51.59000 153.289
51.60000 158.124
51.61000 157.206
51.62000 156.128
51.63000 154.022
51.64000 149.650
51.65000 145.195
51.66000 144.238
51.67000 148.527
51.68000 152.867
51.69000 154.026
51.70000 152.049
51.71000 150.080
51.72000 148.895
51.73000 148.219
51.74000 147.565
51.75000 147.502
51.76000 147.700
51.77000 147.886
51.78000 148.941
51.79000 150.146
51.80000 150.795
51.81000 147.335
51.82000 143.045
51.83000 139.391
51.84000 138.742
51.85000 138.480
51.86000 138.278
51.87000 141.611
51.88000 144.462
51.89000 146.743
51.90000 147.785
51.91000 148.784
51.92000 148.293
51.93000 145.609
51.94000 142.904
51.95000 141.744
51.96000 142.076
51.97000 142.441
51.98000 145.557
51.99000 150.430
52.00000 155.027
52.01000 152.673
52.02000 147.295
52.03000 142.233
52.04000 143.800
52.05000 147.031
52.06000 149.596
52.07000 147.352
52.08000 144.154
52.09000 141.619
52.10000 142.161
52.11000 143.089
52.12000 143.804
52.13000 140.034
52.14000 136.794
52.15000 135.444
52.16000 138.120
52.17000 140.930
52.18000 142.089
52.19000 140.861
52.20000 139.614
52.21000 139.537
52.22000 140.569
52.23000 141.583
52.24000 141.291
52.25000 140.180
52.26000 139.184
52.27000 140.995
52.28000 144.005
52.29000 146.833
52.30000 144.646
52.31000 141.316
52.32000 138.671
52.33000 140.869
52.34000 144.010
52.35000 146.225
52.36000 144.226
52.37000 141.708
52.38000 139.779
52.39000 141.974
52.40000 143.934
52.41000 145.841
52.42000 147.636
52.43000 149.427
52.44000 148.997
52.45000 145.411
52.46000 141.803
52.47000 140.050
52.48000 140.021
52.49000 139.999
52.50000 140.497
52.51000 141.314
52.52000 142.010
52.53000 139.859
52.54000 136.513
52.55000 133.375
52.56000 135.230
52.57000 138.221
52.58000 140.739
52.59000 139.987
52.60000 138.610
52.61000 137.058
52.62000 134.717
52.63000 132.281
52.64000 130.423
52.65000 135.328
52.66000 139.554
52.67000 142.261
52.68000 141.837
52.69000 141.318
52.70000 139.879
52.71000 137.157
52.72000 134.427
52.73000 134.736
52.74000 137.811
52.75000 140.836
52.76000 140.471
52.77000 138.053
52.78000 135.906
52.79000 139.822
52.80000 146.245
52.81000 152.255
52.82000 150.360
52.83000 146.615
52.84000 143.301
52.85000 142.908
52.86000 143.061
52.87000 143.224
52.88000 143.430
52.89000 143.642
52.90000 143.803
52.91000 142.243
52.92000 140.928
52.93000 140.636
52.94000 142.417
52.95000 144.257
52.96000 145.432
52.97000 145.697
52.98000 145.957
52.99000 146.099
53.00000 146.138
53.01000 146.149
53.02000 144.452
53.03000 141.739
53.04000 139.240
53.05000 141.395
53.06000 145.440
53.07000 149.217
53.08000 151.630
53.09000 153.476
53.10000 154.706
53.11000 151.852
53.12000 148.249
53.13000 145.302
53.14000 145.181
53.15000 145.385
53.16000 145.539
53.17000 145.282
53.18000 145.061
53.19000 144.609
53.20000 143.702
53.21000 142.781
53.22000 144.218
53.23000 148.825
53.24000 153.446
53.25000 154.290
53.26000 151.829
53.27000 149.433
53.28000 150.857
53.29000 154.515
53.30000 158.069
53.31000 159.432
53.32000 159.919
53.33000 160.373
53.34000 155.460
53.35000 149.693
53.36000 144.536
53.37000 143.343
53.38000 142.863
53.39000 142.603
53.40000 143.270
53.41000 144.042
53.42000 144.623
53.43000 148.231
53.44000 151.199
53.45000 154.004
53.46000 156.486
53.47000 158.961
53.48000 158.786
53.49000 155.113
53.50000 151.427
53.51000 148.857
53.52000 147.252
53.53000 145.690
53.54000 146.589
53.55000 148.902
53.56000 151.113
53.57000 151.255
53.58000 150.584
53.59000 149.961
53.60000 146.971
53.61000 143.701
53.62000 141.250
53.63000 144.011
53.64000 147.692
53.65000 150.051
53.66000 146.922
53.67000 143.191
53.68000 140.397
53.69000 144.313
53.70000 147.684
53.71000 149.428
53.72000 148.044
53.73000 146.583
53.74000 146.339
53.75000 147.672
53.76000 149.011
53.77000 149.021
53.78000 147.911
53.79000 146.839
53.80000 147.717
53.81000 149.696
53.82000 151.670
53.83000 153.549
53.84000 155.392
53.85000 157.102
53.86000 153.825
53.87000 149.692
53.88000 145.792
53.89000 143.345
53.90000 141.149
53.91000 139.197
53.92000 138.240
53.93000 137.389
53.94000 136.755
53.95000 137.546
53.96000 138.226
53.97000 140.797
53.98000 146.944
53.99000 153.175
54.00000 154.936
54.01000 151.010
54.02000 147.068
54.03000 143.534
54.04000 140.347
54.05000 137.287
54.06000 140.479
54.07000 147.140
54.08000 153.444
54.09000 153.024
54.10000 150.053
54.11000 147.302
54.12000 149.732
54.13000 153.119
54.14000 155.416
54.15000 151.052
54.16000 145.558
54.17000 141.728
54.18000 144.565
54.19000 148.098
54.20000 150.718
54.21000 143.960
54.22000 138.302
54.23000 135.505
54.24000 138.023
54.25000 140.659
54.26000 141.875
54.27000 141.317
54.28000 140.755
54.29000 138.074
54.30000 133.688
54.31000 129.413
54.32000 130.303
54.33000 134.010
54.34000 137.567
54.35000 138.399
54.36000 138.213
54.37000 138.042
54.38000 139.972
54.39000 142.181
54.40000 143.940
54.41000 143.001
54.42000 141.615
54.43000 140.803
54.44000 142.251
54.45000 143.930
54.46000 145.169
54.47000 142.050
54.48000 139.450
54.49000 139.140
54.50000 143.008
54.51000 146.965
54.52000 147.806
54.53000 144.828
54.54000 141.846
54.55000 140.157
54.56000 139.503
54.57000 138.853
54.58000 138.360
54.59000 137.952
54.60000 137.637
54.61000 138.954
54.62000 140.870
54.63000 142.637
54.64000 145.192
54.65000 147.657
54.66000 149.970
54.67000 151.393
54.68000 152.672
54.69000 153.326
54.70000 151.568
54.71000 149.570
54.72000 148.103
54.73000 148.854
54.74000 149.525
54.75000 149.716
54.76000 149.046
54.77000 148.360
54.78000 147.812
54.79000 147.429
54.80000 147.048
54.81000 147.724
54.82000 149.219
54.83000 150.651
54.84000 149.451
54.85000 146.864
54.86000 144.396
54.87000 143.950
54.88000 144.233
54.89000 144.493
54.90000 142.033
54.91000 139.241
54.92000 137.117
54.93000 138.832
54.94000 141.160
54.95000 143.768
54.96000 147.439
54.97000 151.214
54.98000 153.971
54.99000 152.830
55.00000 151.797
55.01000 151.037
55.02000 150.758
55.03000 150.488
55.04000 149.820
55.05000 148.684
55.06000 147.549
55.07000 147.105
55.08000 147.190
55.09000 147.254
55.10000 146.437
55.11000 145.164
55.12000 144.021
55.13000 145.033
55.14000 146.808
55.15000 148.438
55.16000 149.474
55.17000 150.272
55.18000 151.349
55.19000 154.001
55.20000 156.899
55.21000 159.311
55.22000 159.910
55.23000 160.338
55.24000 160.649
55.25000 166.377
55.26000 170.988
55.27000 172.935
55.28000 170.268
55.29000 167.520
55.30000 167.370
55.31000 170.228
55.32000 173.082
55.33000 174.502
55.34000 174.837
55.35000 175.252
55.36000 178.684
55.37000 183.653
55.38000 188.382
55.39000 189.266
55.40000 188.811
55.41000 188.395
55.42000 190.868
55.43000 193.675
55.44000 196.100
55.45000 196.414
55.46000 196.403
55.47000 197.516
55.48000 202.741
55.49000 208.345
55.50000 212.398
55.51000 220.131
55.52000 226.199
55.53000 227.427
55.54000 220.417
55.55000 213.269
55.56000 215.254
55.57000 227.611
55.58000 239.939
55.59000 249.849
55.60000 257.906
55.61000 266.094
55.62000 278.961
55.63000 294.169
55.64000 308.861
55.65000 315.534
55.66000 319.462
55.67000 323.054
55.68000 329.517
55.69000 335.848
55.70000 342.307
55.71000 349.450
55.72000 356.696
55.73000 363.892
55.74000 370.906
55.75000 377.903
55.76000 382.937
55.77000 390.301
55.78000 396.019
55.79000 401.236
55.80000 405.613
55.81000 409.977
55.82000 417.746
55.83000 429.308
55.84000 440.831
55.85000 445.920
55.86000 446.331
55.87000 446.940
55.88000 454.359
55.89000 465.127
55.90000 475.752
55.91000 484.210
55.92000 491.940
55.93000 498.990
55.94000 495.385
55.95000 490.044
55.96000 485.318
55.97000 483.854
55.98000 482.870
55.99000 479.619
56.00000 468.358
56.01000 456.395
56.02000 447.835
56.03000 443.500
56.04000 440.332
56.05000 434.770
56.06000 425.274
56.07000 415.720
56.08000 409.812
56.09000 407.886
56.10000 405.969
56.11000 397.617
56.12000 384.796
56.13000 372.041
56.14000 361.458
56.15000 351.924
56.16000 342.427
56.17000 333.460
56.18000 324.669
56.19000 316.668
56.20000 307.254
56.21000 298.645
56.22000 290.014
56.23000 281.273
56.24000 272.517
56.25000 264.118
56.26000 256.966
56.27000 249.919
56.28000 244.904
56.29000 235.328
56.30000 227.886
56.31000 222.460
56.32000 220.290
56.33000 218.165
56.34000 214.399
56.35000 208.876
56.36000 203.378
56.37000 196.889
56.38000 189.783
56.39000 182.879
56.40000 182.276
56.41000 184.667
56.42000 186.643
56.43000 182.717
56.44000 176.874
56.45000 171.569
56.46000 172.141
56.47000 173.781
56.48000 174.987
56.49000 173.976
56.50000 172.653
56.51000 170.245
56.52000 164.136
56.53000 157.720
56.54000 153.178
56.55000 149.574
56.56000 146.864
56.57000 147.591
56.58000 153.772
56.59000 160.022
56.60000 161.298
56.61000 157.351
56.62000 153.422
56.63000 154.334
56.64000 158.528
56.65000 162.501
56.66000 159.862
56.67000 154.134
56.68000 148.783
56.69000 148.624
56.70000 150.122
56.71000 151.480
56.72000 151.173
56.73000 150.589
56.74000 149.777
56.75000 147.822
56.76000 145.708
56.77000 143.259
56.78000 139.681
56.79000 136.011
56.80000 133.428
56.81000 136.046
56.82000 138.184
56.83000 137.868
56.84000 133.726
56.85000 129.539
56.86000 128.435
56.87000 130.504
56.88000 132.562
56.89000 136.576
56.90000 141.845
56.91000 146.914
56.92000 146.288
56.93000 143.047
56.94000 139.975
56.95000 139.167
56.96000 139.069
56.97000 138.980
56.98000 141.158
56.99000 143.494
57.00000 144.757
57.01000 140.748
57.02000 136.027
57.03000 132.574
57.04000 133.297
57.05000 134.348
57.06000 135.084
57.07000 131.707
57.08000 129.036
57.09000 127.298
57.10000 126.987
57.11000 126.691
57.12000 126.306
57.13000 125.830
57.14000 125.357
57.15000 127.535
57.16000 131.419
57.17000 135.129
57.18000 134.063
57.19000 130.840
57.20000 127.823
57.21000 127.480
57.22000 127.962
57.23000 128.396
57.24000 130.704
57.25000 133.069
57.26000 134.843
57.27000 133.762
57.28000 132.305
57.29000 130.145
57.30000 125.710
57.31000 121.101
57.32000 117.892
57.33000 118.198
57.34000 118.525
57.35000 120.757
57.36000 125.853
57.37000 130.978
57.38000 129.892
57.39000 122.665
57.40000 115.485
57.41000 116.980
57.42000 124.027
57.43000 130.953
57.44000 134.722
57.45000 137.091
57.46000 139.073
57.47000 136.159
57.48000 131.762
57.49000 127.809
57.50000 128.401
57.51000 129.727
57.52000 130.355
57.53000 127.682
57.54000 124.582
57.55000 122.966
57.56000 126.072
57.57000 129.529
57.58000 131.923
57.59000 131.006
57.60000 130.229
57.61000 129.553
57.62000 129.024
57.63000 128.497
57.64000 127.962
57.65000 127.421
57.66000 126.883
57.67000 128.276
57.68000 130.864
57.69000 133.387
57.70000 134.267
57.71000 134.429
57.72000 134.644
57.73000 135.508
57.74000 136.566
57.75000 137.514
57.76000 138.017
57.77000 138.379
57.78000 137.276
57.79000 129.358
57.80000 120.579
57.81000 114.978
57.82000 119.312
57.83000 124.363
57.84000 127.840
57.85000 127.823
57.86000 127.722
57.87000 126.870
57.88000 124.927
57.89000 122.975
57.90000 122.414
57.91000 123.173
57.92000 123.927
57.93000 124.316
57.94000 124.473
57.95000 124.735
57.96000 127.559
57.97000 131.482
57.98000 135.036
57.99000 134.159
58.00000 131.985
58.01000 130.041
58.02000 131.609
58.03000 133.575
58.04000 134.787
58.05000 132.559
58.06000 129.906
58.07000 128.153
58.08000 129.165
58.09000 130.371
58.10000 131.197
58.11000 124.698
58.12000 119.657
58.13000 118.564
58.14000 123.092
58.15000 127.661
58.16000 128.054
58.17000 124.554
58.18000 121.084
58.19000 120.975
58.20000 122.908
58.21000 124.874
58.22000 127.645
58.23000 130.755
58.24000 133.513
58.25000 132.157
58.26000 129.618
58.27000 127.354
58.28000 125.087
58.29000 123.115
58.30000 121.843
58.31000 123.710
58.32000 125.955
58.33000 127.018
58.34000 124.510
58.35000 121.759
58.36000 119.888
58.37000 116.060
58.38000 113.157
58.39000 113.446
58.40000 118.200
58.41000 122.983
58.42000 124.638
58.43000 123.434
58.44000 122.242
58.45000 121.961
58.46000 122.228
58.47000 122.380
58.48000 119.924
58.49000 116.387
58.50000 113.432
58.51000 117.106
58.52000 122.651
58.53000 127.586
58.54000 124.937
58.55000 121.401
58.56000 118.836
58.57000 120.538
58.58000 122.744
58.59000 124.279
58.60000 123.822
58.61000 123.233
58.62000 122.835
58.63000 121.093
58.64000 119.766
58.65000 119.004
58.66000 119.016
58.67000 119.034
58.68000 120.655
58.69000 123.713
58.70000 126.741
58.71000 128.246
58.72000 128.831
58.73000 129.284
58.74000 126.865
58.75000 123.276
58.76000 120.015
58.77000 120.377
58.78000 121.745
58.79000 122.959
58.80000 121.532
58.81000 119.874
58.82000 119.019
58.83000 121.632
58.84000 124.644
58.85000 126.910
58.86000 126.998
58.87000 126.946
58.88000 126.912
58.89000 127.388
58.90000 127.753
58.91000 126.627
58.92000 123.489
58.93000 120.341
58.94000 117.538
58.95000 115.039
58.96000 112.566
58.97000 112.881
58.98000 114.787
58.99000 116.678
59.00000 118.272
59.01000 119.747
59.02000 121.192
59.03000 122.305
59.04000 123.328
59.05000 124.233
59.06000 123.015
59.07000 121.630
59.08000 120.505
59.09000 120.482
59.10000 120.584
59.11000 121.072
59.12000 122.672
59.13000 124.340
59.14000 125.455
59.15000 126.354
59.16000 127.016
59.17000 125.992
59.18000 122.735
59.19000 119.472
59.20000 119.898
59.21000 123.504
59.22000 127.070
59.23000 125.406
59.24000 120.840
59.25000 116.428
59.26000 115.130
59.27000 115.059
59.28000 115.236
59.29000 118.038
59.30000 121.542
59.31000 124.635
59.32000 118.259
59.33000 111.312
59.34000 107.247
59.35000 115.187
59.36000 124.447
59.37000 129.921
59.38000 124.722
59.39000 118.880
59.40000 115.001
59.41000 119.425
59.42000 122.848
59.43000 121.908
59.44000 115.296
59.45000 108.669
59.46000 107.254
59.47000 110.248
59.48000 113.207
59.49000 114.456
59.50000 114.731
59.51000 115.046
59.52000 116.155
59.53000 117.570
59.54000 118.791
59.55000 118.018
59.56000 116.719
59.57000 115.577
59.58000 117.187
59.59000 118.985
59.60000 120.510
59.61000 120.921
59.62000 121.212
59.63000 121.860
59.64000 123.497
59.65000 125.192
59.66000 126.311
59.67000 123.451
59.68000 121.273
59.69000 118.508
59.70000 114.992
59.71000 111.482
59.72000 112.311
59.73000 116.740
59.74000 121.112
59.75000 121.804
59.76000 120.483
59.77000 119.204
59.78000 118.712
59.79000 118.521
59.80000 118.267
59.81000 117.394
59.82000 116.361
59.83000 115.455
59.84000 115.578
59.85000 115.833
59.86000 116.392
59.87000 118.164
59.88000 120.064
59.89000 121.643
59.90000 122.352
59.91000 123.011
59.92000 123.443
59.93000 122.407
59.94000 121.621
59.95000 121.110
59.96000 120.944
59.97000 120.778
59.98000 120.339
59.99000 119.676
60.00000 119.023
60.01000 120.115
60.02000 122.104
60.03000 123.940
60.04000 122.973
60.05000 120.960
60.06000 119.359
60.07000 121.797
60.08000 125.259
60.09000 128.289
60.10000 125.740
60.11000 122.758
60.12000 120.374
60.13000 120.347
60.14000 120.562
60.15000 121.321
60.16000 123.539
60.17000 125.837
60.18000 127.334
60.19000 122.311
60.20000 118.524
60.21000 116.708
60.22000 117.313
60.23000 117.923
60.24000 118.384
60.25000 118.725
60.26000 119.062
60.27000 118.994
60.28000 118.717
60.29000 118.451
60.30000 118.364
60.31000 118.343
60.32000 118.446
60.33000 119.726
60.34000 121.299
60.35000 122.672
60.36000 122.938
60.37000 123.011
60.38000 122.019
60.39000 116.900
60.40000 111.370
60.41000 108.488
60.42000 112.579
60.43000 117.039
60.44000 119.925
60.45000 116.091
60.46000 113.186
60.47000 112.889
60.48000 115.737
60.49000 118.586
60.50000 119.640
60.51000 119.286
60.52000 118.938
60.53000 120.131
60.54000 122.078
60.55000 123.898
60.56000 123.552
60.57000 122.425
60.58000 121.410
60.59000 121.451
60.60000 121.749
60.61000 122.008
60.62000 119.025
60.63000 116.035
60.64000 114.281
60.65000 117.228
60.66000 120.633
60.67000 124.072
60.68000 127.598
60.69000 131.129
60.70000 133.399
60.71000 128.438
60.72000 124.718
60.73000 122.224
60.74000 121.182
60.75000 120.150
60.76000 121.029
60.77000 123.380
60.78000 125.692
60.79000 125.455
60.80000 123.944
60.81000 122.384
60.82000 120.034
60.83000 117.402
60.84000 115.332
60.85000 118.367
60.86000 122.630
60.87000 126.328
60.88000 123.734
60.89000 120.684
60.90000 117.951
60.91000 116.404
60.92000 114.969
60.93000 114.149
60.94000 114.890
60.95000 115.707
60.96000 116.230
60.97000 120.549
60.98000 123.741
60.99000 124.131
61.00000 121.267
61.01000 118.409
61.02000 117.783
61.03000 118.845
61.04000 119.889
61.05000 123.466
61.06000 128.173
61.07000 132.541
61.08000 131.457
61.09000 128.472
61.10000 125.787
61.11000 125.779
61.12000 126.403
61.13000 126.943
61.14000 124.739
61.15000 122.508
61.16000 122.258
61.17000 129.283
61.18000 136.980
61.19000 140.754
61.20000 134.717
61.21000 128.214
61.22000 124.087
61.23000 128.553
61.24000 131.900
61.25000 133.920
61.26000 134.432
61.27000 134.925
61.28000 132.325
61.29000 127.429
61.30000 122.621
61.31000 122.545
61.32000 124.762
61.33000 126.977
61.34000 129.157
61.35000 131.324
61.36000 133.270
61.37000 133.305
61.38000 132.896
61.39000 132.543
61.40000 134.325
61.41000 136.108
61.42000 137.922
61.43000 139.850
61.44000 141.789
61.45000 142.358
61.46000 139.564
61.47000 136.615
61.48000 134.756
61.49000 140.935
61.50000 145.498
61.51000 155.369
61.52000 171.167
61.53000 186.934
61.54000 196.871
61.55000 202.560
61.56000 208.141
61.57000 222.122
61.58000 239.584
61.59000 256.342
61.60000 262.452
61.61000 264.971
61.62000 267.441
61.63000 269.491
61.64000 271.445
61.65000 273.125
61.66000 278.491
61.67000 283.491
61.68000 287.103
61.69000 285.802
61.70000 284.069
61.71000 283.886
61.72000 287.451
61.73000 291.181
61.74000 293.515
61.75000 269.788
61.76000 252.382
61.77000 239.011
61.78000 230.059
61.79000 221.086
61.80000 208.529
61.81000 193.409
61.82000 178.591
61.83000 171.654
61.84000 168.653
61.85000 165.431
61.86000 158.957
61.87000 151.407
61.88000 144.066
61.89000 138.469
61.90000 133.262
61.91000 128.801
61.92000 132.873
61.93000 137.351
61.94000 140.911
61.95000 141.274
61.96000 141.364
61.97000 140.361
61.98000 136.763
61.99000 133.054
62.00000 130.749
62.01000 127.972
62.02000 125.968
62.03000 125.984
62.04000 128.169
62.05000 130.356
62.06000 132.660
62.07000 135.048
62.08000 137.386
62.09000 136.044
62.10000 133.072
62.11000 130.302
62.12000 130.414
62.13000 131.465
62.14000 132.055
62.15000 128.908
62.16000 124.942
62.17000 121.554
62.18000 118.931
62.19000 116.812
62.20000 116.348
62.21000 121.547
62.22000 127.217
62.23000 130.641
62.24000 128.821
62.25000 126.785
62.26000 125.529
62.27000 124.313
62.28000 123.440
62.29000 124.275
62.30000 126.910
62.31000 129.534
62.32000 130.932
62.33000 131.483
62.34000 132.023
62.35000 130.934
62.36000 129.160
62.37000 127.479
62.38000 127.100
62.39000 127.139
62.40000 127.440
62.41000 129.833
62.42000 132.674
62.43000 135.093
62.44000 136.123
62.45000 136.828
62.46000 136.972
62.47000 135.232
62.48000 133.339
62.49000 132.252
62.50000 133.013
62.51000 133.846
62.52000 134.356
62.53000 136.312
62.54000 137.725
62.55000 137.132
62.56000 134.469
62.57000 131.826
62.58000 131.389
62.59000 132.445
62.60000 133.477
62.61000 133.725
62.62000 133.618
62.63000 133.355
62.64000 130.996
62.65000 127.978
62.66000 125.430
62.67000 126.530
62.68000 128.400
62.69000 129.987
62.70000 128.814
62.71000 127.519
62.72000 127.409
62.73000 131.220
62.74000 135.341
62.75000 138.218
62.76000 138.291
62.77000 138.258
62.78000 138.238
62.79000 129.531
62.80000 123.246
62.81000 119.288
62.82000 117.685
62.83000 116.130
62.84000 119.456
62.85000 126.031
62.86000 132.445
62.87000 133.932
62.88000 133.223
62.89000 132.534
62.90000 132.123
62.91000 131.797
62.92000 131.768
62.93000 133.990
62.94000 136.679
62.95000 138.953
62.96000 140.449
62.97000 141.615
62.98000 142.534
62.99000 142.656
63.00000 142.715
63.01000 141.798
63.02000 138.712
63.03000 135.548
63.04000 133.638
63.05000 131.541
63.06000 130.047
63.07000 131.805
63.08000 136.789
63.09000 141.717
63.10000 141.489
63.11000 137.890
63.12000 134.382
63.13000 132.691
63.14000 131.847
63.15000 131.207
63.16000 133.169
63.17000 135.921
63.18000 138.370
63.19000 138.569
63.20000 138.311
63.21000 138.093
63.22000 135.210
63.23000 132.515
63.24000 130.908
63.25000 132.768
63.26000 134.888
63.27000 135.986
63.28000 134.860
63.29000 133.657
63.30000 132.936
63.31000 137.063
63.32000 140.025
63.33000 140.677
63.34000 139.085
63.35000 137.489
63.36000 135.623
63.37000 133.584
63.38000 131.600
63.39000 133.107
63.40000 135.998
63.41000 138.583
63.42000 137.382
63.43000 135.051
63.44000 133.013
63.45000 133.099
63.46000 133.608
63.47000 134.037
63.48000 140.082
63.49000 145.710
63.50000 149.576
63.51000 147.921
63.52000 145.865
63.53000 144.852
63.54000 146.075
63.55000 147.374
63.56000 148.145
63.57000 149.713
63.58000 150.827
63.59000 147.522
63.60000 140.005
63.61000 132.560
63.62000 130.834
63.63000 132.717
63.64000 134.548
63.65000 135.392
63.66000 135.791
63.67000 136.239
63.68000 137.274
63.69000 138.480
63.70000 139.472
63.71000 138.937
63.72000 138.103
63.73000 137.405
63.74000 136.967
63.75000 136.629
63.76000 136.586
63.77000 137.448
63.78000 138.374
63.79000 139.814
63.80000 142.338
63.81000 144.897
63.82000 146.406
63.83000 147.004
63.84000 147.420
63.85000 146.905
63.86000 145.521
63.87000 144.138
63.88000 142.923
63.89000 141.811
63.90000 140.732
63.91000 142.893
63.92000 146.244
63.93000 149.456
63.94000 151.032
63.95000 152.138
63.96000 152.274
63.97000 145.665
63.98000 137.761
63.99000 131.165
64.00000 135.473
64.01000 140.140
64.02000 143.431
64.03000 142.556
64.04000 141.396
64.05000 141.371
64.06000 143.696
64.07000 146.094
64.08000 147.497
64.09000 145.781
64.10000 144.558
64.11000 144.964
64.12000 146.861
64.13000 148.747
64.14000 149.819
64.15000 150.396
64.16000 150.956
64.17000 150.347
64.18000 149.310
64.19000 148.180
64.20000 145.986
64.21000 143.491
64.22000 140.877
64.23000 137.451
64.24000 133.873
64.25000 130.897
64.26000 137.769
64.27000 144.420
64.28000 149.048
64.29000 147.657
64.30000 145.866
64.31000 146.354
64.32000 151.479
64.33000 156.739
64.34000 159.794
64.35000 154.893
64.36000 151.419
64.37000 149.978
64.38000 150.365
64.39000 150.797
64.40000 154.216
64.41000 159.420
64.42000 164.460
64.43000 165.468
64.44000 164.863
64.45000 164.141
64.46000 162.121
64.47000 159.739
64.48000 157.364
64.49000 155.037
64.50000 152.718
64.51000 150.798
64.52000 158.786
64.53000 166.327
64.54000 169.539
64.55000 160.090
64.56000 149.825
64.57000 145.026
64.58000 151.161
64.59000 157.602
64.60000 161.313
64.61000 162.863
64.62000 163.940
64.63000 164.841
64.64000 165.586
64.65000 166.329
64.66000 166.867
64.67000 167.286
64.68000 167.691
64.69000 165.709
64.70000 162.933
64.71000 160.749
64.72000 164.998
64.73000 171.005
64.74000 176.291
64.75000 176.867
64.76000 176.591
64.77000 176.362
64.78000 174.110
64.79000 172.066
64.80000 170.781
64.81000 171.676
64.82000 172.708
64.83000 173.973
64.84000 175.695
64.85000 177.430
64.86000 178.421
64.87000 183.714
64.88000 187.421
64.89000 189.605
64.90000 190.472
64.91000 191.279
64.92000 188.667
64.93000 184.081
64.94000 179.650
64.95000 180.517
64.96000 183.305
64.97000 185.784
64.98000 184.999
64.99000 183.337
65.00000 182.175
65.01000 184.218
65.02000 186.829
65.03000 188.978
65.04000 187.067
65.05000 185.129
65.06000 185.044
65.07000 190.195
65.08000 195.662
65.09000 200.291
65.10000 203.299
65.11000 206.266
65.12000 207.948
65.13000 211.634
65.14000 214.200
65.15000 213.722
65.16000 210.662
65.17000 207.714
65.18000 210.752
65.19000 217.187
65.20000 223.394
65.21000 223.493
65.22000 221.355
65.23000 219.577
65.24000 221.502
65.25000 224.404
65.26000 227.004
65.27000 227.709
65.28000 228.085
65.29000 228.393
65.30000 230.425
65.31000 232.243
65.32000 234.012
65.33000 235.642
65.34000 237.264
65.35000 241.378
65.36000 250.229
65.37000 259.193
65.38000 264.232
65.39000 259.485
65.40000 256.173
65.41000 256.450
65.42000 259.714
65.43000 262.961
65.44000 265.401
65.45000 267.391
65.46000 269.308
65.47000 274.210
65.48000 279.885
65.49000 285.432
65.50000 289.691
65.51000 293.617
65.52000 297.777
65.53000 303.372
65.54000 309.211
65.55000 313.979
65.56000 325.419
65.57000 335.354
65.58000 345.812
65.59000 357.696
65.60000 369.660
65.61000 385.228
65.62000 407.523
65.63000 429.970
65.64000 442.484
65.65000 468.304
65.66000 486.282
65.67000 537.922
65.68000 617.051
65.69000 696.403
65.70000 786.302
65.71000 881.984
65.72000 974.027
65.73000 1088.519
65.74000 1203.755
65.75000 1318.500
65.76000 1428.420
65.77000 1537.111
65.78000 1637.890
65.79000 1691.035
65.80000 1736.213
65.81000 1772.964
65.82000 1825.422
65.83000 1869.567
65.84000 1901.645
65.85000 1901.334
65.86000 1899.242
65.87000 1893.644
65.88000 1881.610
65.89000 1869.437
65.90000 1862.709
65.91000 1782.716
65.92000 1727.342
65.93000 1652.153
65.94000 1561.085
65.95000 1469.467
65.96000 1353.205
65.97000 1223.665
65.98000 1099.235
65.99000 978.905
66.00000 867.702
66.01000 760.269
66.02000 688.974
66.03000 626.709
66.04000 568.899
66.05000 537.384
66.06000 510.177
66.07000 488.131
66.08000 450.657
66.09000 418.874
66.10000 394.516
66.11000 389.749
66.12000 386.023
66.13000 380.638
66.14000 372.263
66.15000 363.827
66.16000 359.205
66.17000 351.267
66.18000 345.824
66.19000 346.203
66.20000 351.163
66.21000 356.185
66.22000 363.855
66.23000 372.928
66.24000 381.630
66.25000 396.104
66.26000 411.577
66.27000 427.843
66.28000 451.535
66.29000 477.049
66.30000 502.172
66.31000 525.031
66.32000 547.527
66.33000 565.686
66.34000 581.633
66.35000 594.417
66.36000 603.896
66.37000 604.803
66.38000 605.269
66.39000 606.297
66.40000 608.320
66.41000 610.362
66.42000 611.471
66.43000 607.674
66.44000 605.054
66.45000 599.817
66.46000 592.558
66.47000 585.186
66.48000 573.270
66.49000 558.990
66.50000 545.313
66.51000 523.819
66.52000 501.183
66.53000 478.389
66.54000 454.162
66.55000 429.590
66.56000 407.013
66.57000 395.751
66.58000 386.269
66.59000 378.644
66.60000 367.030
66.61000 357.304
66.62000 350.755
66.63000 352.306
66.64000 354.258
66.65000 354.936
66.66000 353.393
66.67000 351.810
66.68000 350.958
66.69000 348.638
66.70000 347.034
66.71000 341.980
66.72000 334.309
66.73000 326.843
66.74000 327.203
66.75000 331.567
66.76000 335.740
66.77000 343.249
66.78000 351.324
66.79000 358.281
66.80000 355.265
66.81000 349.890
66.82000 345.763
66.83000 348.576
66.84000 352.458
66.85000 355.567
66.86000 348.132
66.87000 341.324
66.88000 338.557
66.89000 345.920
66.90000 353.768
66.91000 360.474
66.92000 365.227
66.93000 369.946
66.94000 372.463
66.95000 375.267
66.96000 377.162
66.97000 376.146
66.98000 372.964
66.99000 369.777
67.00000 366.392
67.01000 362.908
67.02000 359.582
67.03000 359.740
67.04000 361.000
67.05000 362.077
67.06000 361.559
67.07000 360.670
67.08000 360.790
67.09000 366.403
67.10000 372.846
67.11000 377.985
67.12000 381.804
67.13000 384.789
67.14000 386.712
67.15000 386.014
67.16000 385.195
67.17000 385.684
67.18000 388.373
67.19000 391.096
67.20000 392.535
67.21000 385.971
67.22000 381.531
67.23000 380.875
67.24000 382.984
67.25000 384.970
67.26000 382.680
67.27000 378.278
67.28000 374.081
67.29000 372.449
67.30000 371.738
67.31000 370.859
67.32000 368.539
67.33000 365.891
67.34000 364.962
67.35000 373.227
67.36000 382.851
67.37000 390.497
67.38000 396.690
67.39000 401.574
67.40000 404.682
67.41000 403.489
67.42000 402.105
67.43000 401.777
67.44000 403.194
67.45000 404.637
67.46000 405.393
67.47000 419.784
67.48000 429.472
67.49000 429.833
67.50000 423.504
67.51000 417.465
67.52000 421.080
67.53000 429.384
67.54000 437.286
67.55000 427.936
67.56000 413.979
67.57000 402.241
67.58000 408.978
67.59000 419.851
67.60000 429.184
67.61000 430.445
67.62000 430.537
67.63000 430.610
67.64000 432.067
67.65000 433.332
67.66000 436.411
67.67000 443.808
67.68000 451.390
67.69000 454.459
67.70000 450.204
67.71000 445.846
67.72000 443.586
67.73000 440.346
67.74000 438.206
67.75000 442.477
67.76000 451.262
67.77000 459.822
67.78000 461.250
67.79000 459.272
67.80000 457.394
67.81000 452.393
67.82000 446.831
67.83000 441.705
67.84000 440.119
67.85000 439.311
67.86000 440.591
67.87000 452.606
67.88000 466.143
67.89000 476.810
67.90000 480.450
67.91000 482.896
67.92000 483.581
67.93000 480.143
67.94000 476.535
67.95000 477.373
67.96000 485.302
67.97000 493.321
67.98000 497.441
67.99000 502.549
68.00000 505.924
68.01000 501.781
68.02000 492.438
68.03000 483.484
68.04000 486.314
68.05000 494.677
68.06000 502.608
68.07000 505.326
68.08000 506.289
68.09000 508.206
68.10000 517.707
68.11000 528.845
68.12000 537.453
68.13000 533.302
68.14000 527.381
68.15000 522.735
68.16000 524.071
68.17000 525.528
68.18000 527.341
68.19000 529.969
68.20000 532.630
68.21000 535.463
68.22000 538.567
68.23000 541.674
68.24000 543.255
68.25000 550.245
68.26000 554.926
68.27000 558.804
68.28000 562.136
68.29000 565.507
68.30000 569.973
68.31000 574.946
68.32000 579.654
68.33000 582.764
68.34000 585.163
68.35000 588.227
68.36000 596.461
68.37000 605.789
68.38000 613.898
68.39000 615.968
68.40000 617.219
68.41000 618.196
68.42000 620.367
68.43000 622.175
68.44000 627.817
68.45000 642.131
68.46000 656.777
68.47000 666.297
68.48000 667.929
68.49000 669.473
68.50000 670.251
68.51000 684.079
68.52000 693.376
68.53000 708.455
68.54000 727.391
68.55000 746.196
68.56000 761.350
68.57000 774.847
68.58000 787.604
68.59000 813.041
68.60000 840.012
68.61000 868.592
68.62000 909.430
68.63000 952.815
68.64000 994.879
68.65000 1030.528
68.66000 1065.325
68.67000 1092.399
68.68000 1144.795
68.69000 1188.060
68.70000 1229.407
68.71000 1266.491
68.72000 1303.418
68.73000 1339.201
68.74000 1373.253
68.75000 1407.287
68.76000 1457.601
68.77000 1524.109
68.78000 1590.400
68.79000 1636.220
68.80000 1668.623
68.81000 1702.201
68.82000 1767.195
68.83000 1846.194
68.84000 1920.726
68.85000 2022.288
68.86000 2122.924
68.87000 2238.226
68.88000 2462.752
68.89000 2709.547
68.90000 3030.756
68.91000 3706.642
68.92000 4428.593
68.93000 4987.858
68.94000 7192.969
68.95000 9042.247
68.96000 11274.325
68.97000 14342.953
68.98000 17440.982
68.99000 20659.516
69.00000 24056.973
69.01000 27456.031
69.02000 30366.553
69.03000 32800.586
69.04000 35225.707
69.05000 36878.070
69.06000 38032.883
69.07000 39175.844
69.08000 40014.637
69.09000 40720.117
69.10000 41384.492
69.11000 42109.234
69.12000 42788.758
69.13000 43465.949
69.14000 44126.168
69.15000 44782.992
69.16000 45312.449
69.17000 45246.152
69.18000 45104.180
69.19000 44994.680
69.20000 42568.199
69.21000 40511.840
69.22000 38183.641
69.23000 35271.480
69.24000 32339.654
69.25000 29785.094
69.26000 27780.691
69.27000 25781.105
69.28000 24216.768
69.29000 23068.672
69.30000 21927.088
69.31000 21308.311
69.32000 21020.213
69.33000 20730.102
69.34000 20390.275
69.35000 20029.027
69.36000 19689.453
69.37000 18793.703
69.38000 17826.564
69.39000 16780.852
69.40000 15174.765
69.41000 13458.706
69.42000 11742.896
69.43000 10028.230
69.44000 8313.707
69.45000 6997.234
69.46000 5642.575
69.47000 4569.583
69.48000 3652.354
69.49000 3064.039
69.50000 2486.326
69.51000 2038.200
69.52000 1775.662
69.53000 1514.594
69.54000 1349.564
69.55000 1274.560
69.56000 1199.716
69.57000 1136.745
69.58000 1081.152
69.59000 1026.035
69.60000 982.229
69.61000 943.213
69.62000 906.607
69.63000 888.452
69.64000 876.767
69.65000 861.749
69.66000 823.463
69.67000 780.697
69.68000 742.209
69.69000 722.999
69.70000 706.130
69.71000 693.236
69.72000 679.749
69.73000 669.081
69.74000 659.393
69.75000 651.741
69.76000 644.152
69.77000 639.854
69.78000 640.185
69.79000 640.549
69.80000 628.960
69.81000 606.402
69.82000 583.923
69.83000 566.879
69.84000 553.152
69.85000 539.989
69.86000 539.713
69.87000 544.803
69.88000 549.570
69.89000 543.185
69.90000 534.501
69.91000 526.456
69.92000 522.784
69.93000 519.938
69.94000 515.794
69.95000 505.908
69.96000 495.340
69.97000 487.299
69.98000 492.620
69.99000 497.508
70.00000 498.384
