20.00000 472.661
20.01000 483.956
20.02000 496.864
20.03000 505.744
20.04000 498.741
20.05000 490.114
20.06000 483.744
20.07000 481.839
20.08000 480.552
20.09000 476.765
20.10000 468.406
20.11000 459.949
20.12000 454.489
20.13000 452.709
20.14000 450.942
20.15000 454.813
20.16000 463.150
20.17000 471.327
20.18000 472.328
20.19000 469.475
20.20000 467.187
20.21000 474.909
20.22000 486.308
20.23000 496.825
20.24000 483.710
20.25000 466.683
20.26000 452.507
20.27000 455.107
20.28000 460.446
20.29000 466.789
20.30000 477.023
20.31000 487.645
20.32000 495.449
20.33000 496.089
20.34000 496.291
20.35000 493.128
20.36000 483.918
20.37000 474.586
20.38000 468.893
20.39000 467.589
20.40000 466.296
20.41000 464.041
20.42000 461.048
20.43000 458.223
20.44000 462.462
20.45000 470.431
20.46000 477.650
20.47000 472.010
20.48000 461.726
20.49000 452.258
20.50000 453.601
20.51000 457.167
20.52000 460.193
20.53000 460.108
20.54000 459.524
20.55000 459.795
20.56000 463.313
20.57000 467.147
20.58000 469.949
20.59000 472.692
20.60000 474.805
20.61000 474.177
20.62000 468.705
20.63000 463.142
20.64000 460.876
20.65000 462.512
20.66000 464.150
20.67000 462.714
20.68000 458.933
20.69000 455.359
20.70000 460.028
20.71000 468.975
20.72000 477.251
20.73000 474.398
20.74000 467.594
20.75000 461.345
20.76000 456.081
20.77000 451.595
20.78000 449.165
20.79000 458.357
20.80000 469.372
20.81000 477.896
20.82000 477.118
20.83000 475.458
20.84000 474.250
20.85000 460.563
20.86000 449.557
20.87000 448.060
20.88000 463.073
20.89000 478.381
20.90000 482.042
20.91000 472.187
20.92000 462.341
20.93000 457.730
20.94000 457.080
20.95000 456.633
20.96000 463.871
20.97000 475.030
20.98000 485.213
20.99000 479.694
21.00000 468.699
21.01000 458.620
21.02000 456.967
21.03000 457.265
21.04000 458.190
21.05000 462.598
21.06000 467.540
21.07000 472.222
21.08000 475.948
21.09000 479.585
21.10000 482.217
21.11000 470.665
21.12000 461.279
21.13000 457.560
21.14000 463.510
21.15000 469.623
21.16000 471.974
21.17000 470.042
21.18000 468.112
21.19000 470.811
21.20000 476.896
21.21000 482.764
21.22000 480.775
21.23000 474.848
21.24000 469.114
21.25000 466.387
21.26000 464.690
21.27000 463.139
21.28000 462.832
21.29000 462.815
21.30000 463.241
21.31000 466.075
21.32000 469.271
21.33000 472.141
21.34000 473.839
21.35000 475.431
21.36000 476.577
21.37000 476.722
21.38000 476.797
21.39000 477.534
21.40000 479.382
21.41000 481.247
21.42000 475.987
21.43000 462.772
21.44000 449.597
21.45000 446.894
21.46000 451.776
21.47000 456.455
21.48000 454.120
21.49000 448.328
21.50000 443.576
21.51000 454.573
21.52000 470.878
21.53000 485.753
21.54000 477.669
21.55000 465.868
21.56000 456.060
21.57000 456.872
21.58000 459.249
21.59000 462.777
21.60000 470.385
21.61000 478.352
21.62000 484.057
21.63000 468.198
21.64000 455.355
21.65000 449.082
21.66000 453.628
21.67000 458.335
21.68000 467.412
21.69000 481.276
21.70000 495.088
21.71000 489.809
21.72000 471.056
21.73000 452.913
21.74000 454.863
21.75000 466.547
21.76000 477.288
21.77000 474.189
21.78000 466.507
21.79000 459.514
21.80000 466.735
21.81000 475.935
21.82000 483.753
21.83000 484.352
21.84000 483.911
21.85000 484.150
21.86000 486.756
21.87000 489.566
21.88000 491.567
21.89000 498.312
21.90000 503.606
21.91000 510.287
21.92000 519.213
21.93000 528.171
21.94000 527.735
21.95000 517.215
21.96000 506.737
21.97000 504.498
21.98000 508.007
21.99000 511.589
22.00000 517.448
22.01000 524.392
22.02000 531.077
22.03000 534.078
22.04000 535.880
22.05000 537.517
22.06000 539.421
22.07000 541.154
22.08000 542.638
22.09000 542.842
22.10000 542.865
22.11000 542.687
22.12000 541.820
22.13000 540.895
22.14000 540.241
22.15000 529.568
22.16000 521.143
22.17000 517.735
22.18000 522.304
22.19000 526.974
22.20000 530.067
22.21000 531.499
22.22000 532.923
22.23000 526.747
22.24000 515.460
22.25000 504.353
22.26000 498.640
22.27000 495.452
22.28000 492.613
22.29000 494.626
22.30000 498.191
22.31000 501.420
22.32000 492.850
22.33000 483.060
22.34000 475.251
22.35000 477.402
22.36000 480.929
22.37000 482.507
22.38000 477.537
22.39000 472.036
22.40000 468.160
22.41000 464.898
22.42000 462.443
22.43000 464.090
22.44000 472.142
22.45000 480.270
22.46000 480.289
22.47000 471.938
22.48000 463.632
22.49000 454.798
22.50000 445.721
22.51000 437.154
22.52000 443.285
22.53000 456.177
22.54000 467.804
22.55000 462.385
22.56000 451.607
22.57000 441.866
22.58000 447.614
22.59000 455.546
22.60000 462.512
22.61000 464.711
22.62000 466.267
22.63000 466.434
22.64000 462.016
22.65000 457.236
22.66000 453.888
22.67000 442.627
22.68000 433.883
22.69000 429.768
22.70000 432.754
22.71000 435.817
22.72000 437.446
22.73000 437.624
22.74000 437.801
22.75000 440.829
22.76000 445.687
22.77000 450.368
22.78000 450.152
22.79000 447.722
22.80000 445.319
22.81000 443.279
22.82000 441.349
22.83000 439.610
22.84000 431.324
22.85000 422.861
22.86000 417.262
22.87000 425.531
22.88000 435.635
22.89000 443.463
22.90000 443.906
22.91000 443.781
22.92000 443.694
22.93000 438.904
22.94000 435.161
22.95000 430.566
22.96000 424.688
22.97000 418.798
22.98000 420.254
22.99000 428.996
23.00000 437.681
23.01000 442.682
23.02000 445.237
23.03000 447.396
23.04000 439.029
23.05000 425.983
23.06000 414.671
23.07000 425.428
23.08000 442.887
23.09000 458.587
23.10000 457.269
23.11000 453.086
23.12000 449.287
23.13000 447.314
23.14000 445.577
23.15000 443.175
23.16000 438.653
23.17000 433.973
23.18000 430.731
23.19000 426.763
23.20000 423.758
23.21000 424.788
23.22000 431.792
23.23000 438.851
23.24000 437.468
23.25000 427.883
23.26000 418.365
23.27000 415.949
23.28000 418.056
23.29000 420.271
23.30000 425.210
23.31000 431.341
23.32000 437.551
23.33000 444.744
23.34000 452.231
23.35000 458.947
23.36000 449.278
23.37000 437.971
23.38000 428.957
23.39000 430.638
23.40000 433.672
23.41000 437.238
23.42000 442.471
23.43000 447.825
23.44000 451.513
23.45000 445.955
23.46000 441.549
23.47000 439.093
23.48000 439.470
23.49000 439.872
23.50000 441.752
23.51000 445.042
23.52000 448.307
23.53000 446.965
23.54000 442.792
23.55000 438.679
23.56000 436.046
23.57000 434.049
23.58000 432.494
23.59000 436.268
23.60000 441.606
23.61000 446.381
23.62000 440.895
23.63000 434.360
23.64000 428.881
23.65000 428.239
23.66000 428.195
23.67000 428.580
23.68000 430.284
23.69000 432.082
23.70000 433.313
23.71000 439.282
23.72000 443.866
23.73000 447.771
23.74000 450.708
23.75000 453.635
23.76000 451.750
23.77000 445.370
23.78000 439.043
23.79000 445.053
23.80000 458.456
23.81000 471.440
23.82000 474.544
23.83000 473.475
23.84000 472.331
23.85000 470.303
23.86000 468.021
23.87000 465.984
23.88000 473.574
23.89000 481.788
23.90000 488.740
23.91000 490.019
23.92000 490.612
23.93000 489.426
23.94000 482.859
23.95000 475.923
23.96000 471.202
23.97000 487.053
23.98000 499.364
23.99000 506.011
24.00000 504.715
24.01000 503.362
24.02000 498.100
24.03000 489.258
24.04000 480.495
24.05000 480.983
24.06000 486.983
24.07000 492.597
24.08000 489.439
24.09000 482.639
24.10000 475.959
24.11000 470.645
24.12000 465.718
24.13000 461.333
24.14000 469.641
24.15000 478.931
24.16000 484.874
24.17000 476.058
24.18000 465.496
24.19000 458.008
24.20000 459.660
24.21000 461.919
24.22000 463.447
24.23000 460.125
24.24000 457.543
24.25000 455.952
24.26000 455.724
24.27000 455.504
24.28000 453.750
24.29000 450.617
24.30000 447.515
24.31000 448.573
24.32000 452.044
24.33000 455.111
24.34000 449.334
24.35000 439.946
24.36000 431.177
24.37000 429.282
24.38000 429.300
24.39000 429.315
24.40000 426.516
24.41000 423.640
24.42000 421.201
24.43000 420.657
24.44000 420.332
24.45000 420.496
24.46000 422.092
24.47000 423.781
24.48000 424.916
24.49000 424.410
24.50000 424.000
24.51000 424.327
24.52000 425.652
24.53000 426.980
24.54000 427.179
24.55000 426.382
24.56000 425.593
24.57000 421.746
24.58000 416.228
24.59000 410.827
24.60000 407.903
24.61000 405.973
24.62000 404.306
24.63000 405.503
24.64000 407.483
24.65000 409.235
24.66000 406.543
24.67000 403.519
24.68000 402.312
24.69000 408.833
24.70000 416.226
24.71000 419.318
24.72000 410.053
24.73000 400.015
24.74000 393.304
24.75000 400.136
24.76000 405.466
24.77000 411.598
24.78000 418.793
24.79000 425.980
24.80000 422.973
24.81000 411.157
24.82000 399.473
24.83000 394.853
24.84000 394.326
24.85000 393.845
24.86000 394.294
24.87000 395.110
24.88000 395.827
24.89000 395.483
24.90000 394.856
24.91000 394.302
24.92000 402.779
24.93000 411.477
24.94000 418.047
24.95000 415.733
24.96000 412.440
24.97000 407.349
24.98000 397.183
24.99000 386.709
25.00000 379.749
25.01000 385.688
25.02000 390.321
25.03000 396.318
25.04000 404.095
25.05000 411.875
25.06000 417.236
25.07000 420.547
25.08000 423.818
25.09000 418.790
25.10000 409.293
25.11000 400.116
25.12000 397.242
25.13000 396.811
25.14000 396.456
25.15000 396.884
25.16000 397.520
25.17000 398.079
25.18000 400.667
25.19000 403.201
25.20000 405.462
25.21000 406.606
25.22000 407.630
25.23000 407.626
25.24000 404.766
25.25000 401.740
25.26000 399.741
25.27000 402.870
25.28000 405.268
25.29000 407.089
25.30000 408.172
25.31000 409.251
25.32000 409.551
25.33000 409.203
25.34000 408.859
25.35000 408.242
25.36000 407.492
25.37000 406.499
25.38000 400.891
25.39000 393.524
25.40000 386.657
25.41000 384.822
25.42000 384.288
25.43000 383.820
25.44000 388.957
25.45000 394.192
25.46000 398.549
25.47000 399.373
25.48000 399.826
25.49000 398.661
25.50000 393.083
25.51000 387.255
25.52000 383.430
25.53000 382.487
25.54000 381.842
25.55000 383.530
25.56000 388.149
25.57000 392.754
25.58000 388.780
25.59000 377.802
25.60000 366.972
25.61000 368.847
25.62000 377.443
25.63000 385.646
25.64000 386.641
25.65000 384.937
25.66000 383.740
25.67000 387.534
25.68000 392.597
25.69000 397.029
25.70000 397.506
25.71000 397.348
25.72000 396.081
25.73000 390.428
25.74000 384.325
25.75000 380.416
25.76000 382.394
25.77000 384.695
25.78000 386.195
25.79000 383.553
25.80000 381.548
25.81000 384.629
25.82000 393.973
25.83000 403.295
25.84000 400.133
25.85000 386.968
25.86000 373.991
25.87000 377.761
25.88000 390.181
25.89000 401.959
25.90000 402.333
25.91000 398.507
25.92000 394.845
25.93000 392.753
25.94000 391.054
25.95000 389.571
25.96000 390.044
25.97000 390.722
25.98000 391.512
25.99000 392.730
26.00000 393.992
26.01000 394.255
26.02000 391.884
26.03000 389.373
26.04000 387.747
26.05000 387.605
26.06000 387.523
26.07000 389.554
26.08000 394.139
26.09000 398.719
26.10000 400.104
26.11000 398.978
26.12000 397.868
26.13000 393.482
26.14000 387.547
26.15000 382.146
26.16000 385.949
26.17000 393.084
26.18000 399.119
26.19000 394.867
26.20000 388.092
26.21000 382.195
26.22000 388.317
26.23000 395.191
26.24000 398.117
26.25000 385.993
26.26000 372.399
26.27000 365.567
26.28000 376.267
26.29000 387.866
26.30000 395.331
26.31000 385.168
26.32000 377.505
26.33000 375.736
26.34000 380.958
26.35000 386.177
26.36000 387.434
26.37000 385.633
26.38000 383.862
26.39000 384.404
26.40000 386.094
26.41000 387.533
26.42000 384.790
26.43000 380.558
26.44000 377.188
26.45000 381.682
26.46000 388.070
26.47000 393.613
26.48000 388.482
26.49000 382.682
26.50000 377.702
26.51000 375.800
26.52000 374.191
26.53000 373.912
26.54000 377.025
26.55000 380.305
26.56000 382.402
26.57000 383.271
26.58000 383.888
26.59000 384.318
26.60000 384.532
26.61000 384.730
26.62000 381.755
26.63000 376.375
26.64000 371.087
26.65000 367.817
26.66000 365.653
26.67000 363.961
26.68000 369.880
26.69000 378.461
26.70000 386.018
26.71000 384.450
26.72000 380.723
26.73000 377.500
26.74000 378.441
26.75000 379.786
26.76000 380.553
26.77000 379.192
26.78000 377.634
26.79000 375.773
26.80000 373.153
26.81000 370.496
26.82000 368.809
26.83000 374.613
26.84000 378.919
26.85000 381.923
26.86000 383.442
26.87000 384.964
26.88000 387.359
26.89000 390.405
26.90000 393.396
26.91000 387.735
26.92000 378.073
26.93000 368.599
26.94000 362.058
26.95000 356.526
26.96000 352.306
26.97000 359.516
26.98000 369.381
26.99000 377.888
27.00000 373.638
27.01000 368.401
27.02000 365.985
27.03000 373.768
27.04000 382.474
27.05000 388.368
27.06000 387.338
27.07000 385.988
27.08000 385.136
27.09000 384.625
27.10000 384.258
27.11000 384.588
27.12000 385.699
27.13000 386.807
27.14000 387.445
27.15000 387.740
27.16000 388.030
27.17000 379.620
27.18000 367.374
27.19000 356.108
27.20000 359.737
27.21000 368.398
27.22000 376.210
27.23000 376.788
27.24000 375.716
27.25000 374.794
27.26000 367.283
27.27000 360.103
27.28000 356.179
27.29000 363.817
27.30000 372.475
27.31000 377.101
27.32000 371.967
27.33000 366.399
27.34000 362.911
27.35000 374.686
27.36000 383.353
27.37000 383.846
27.38000 375.363
27.39000 366.926
27.40000 366.121
27.41000 370.788
27.42000 375.363
27.43000 374.257
27.44000 370.539
27.45000 367.014
27.46000 366.332
27.47000 366.594
27.48000 367.401
27.49000 372.747
27.50000 379.108
27.51000 384.561
27.52000 380.893
27.53000 376.681
27.54000 373.345
27.55000 373.064
27.56000 373.046
27.57000 371.041
27.58000 364.309
27.59000 357.374
27.60000 353.061
27.61000 367.629
27.62000 378.310
27.63000 379.734
27.64000 371.193
27.65000 362.714
27.66000 363.259
27.67000 370.156
27.68000 376.910
27.69000 378.036
27.70000 376.538
27.71000 375.201
27.72000 376.180
27.73000 377.915
27.74000 379.367
27.75000 378.520
27.76000 377.169
27.77000 376.014
27.78000 373.596
27.79000 371.408
27.80000 369.547
27.81000 368.808
27.82000 368.162
27.83000 367.152
27.84000 365.290
27.85000 363.394
27.86000 362.223
27.87000 360.882
27.88000 359.917
27.89000 359.855
27.90000 360.746
27.91000 361.634
27.92000 362.209
27.93000 362.567
27.94000 362.917
27.95000 359.425
27.96000 354.345
27.97000 349.471
27.98000 347.449
27.99000 346.343
28.00000 345.298
28.01000 344.740
28.02000 344.286
28.03000 343.900
28.04000 351.285
28.05000 358.399
28.06000 363.300
28.07000 360.746
28.08000 357.586
28.09000 355.658
28.10000 356.566
28.11000 357.587
28.12000 358.212
28.13000 364.319
28.14000 368.740
28.15000 368.051
28.16000 362.073
28.17000 356.114
28.18000 352.304
28.19000 349.955
28.20000 347.659
28.21000 352.299
28.22000 359.806
28.23000 366.834
28.24000 367.389
28.25000 365.903
28.26000 364.715
28.27000 365.846
28.28000 367.468
28.29000 368.844
28.30000 358.878
28.31000 349.228
28.32000 343.882
28.33000 352.789
28.34000 362.824
28.35000 368.519
28.36000 364.402
28.37000 359.912
28.38000 357.178
28.39000 365.698
28.40000 371.873
28.41000 371.214
28.42000 363.621
28.43000 356.061
28.44000 351.919
28.45000 350.055
28.46000 348.237
28.47000 353.237
28.48000 360.973
28.49000 368.138
28.50000 367.813
28.51000 365.168
28.52000 362.874
28.53000 363.246
28.54000 364.172
28.55000 364.956
28.56000 364.614
28.57000 364.202
28.58000 363.460
28.59000 361.644
28.60000 359.745
28.61000 359.428
28.62000 362.628
28.63000 365.957
28.64000 367.968
28.65000 365.207
28.66000 363.205
28.67000 360.897
28.68000 358.282
28.69000 355.680
28.70000 354.275
28.71000 353.654
28.72000 353.050
28.73000 350.165
28.74000 346.441
28.75000 342.774
28.76000 339.824
28.77000 337.094
28.78000 335.065
28.79000 338.268
28.80000 342.537
28.81000 346.137
28.82000 363.005
28.83000 378.531
28.84000 386.606
28.85000 370.863
28.86000 353.335
28.87000 343.483
28.88000 350.397
28.89000 357.900
28.90000 362.400
28.91000 353.639
28.92000 347.328
28.93000 344.699
28.94000 345.659
28.95000 346.617
28.96000 347.442
28.97000 348.181
28.98000 348.901
28.99000 346.464
29.00000 342.824
29.01000 339.728
29.02000 343.388
29.03000 349.068
29.04000 353.568
29.05000 349.464
29.06000 343.640
29.07000 338.745
29.08000 344.182
29.09000 349.807
29.10000 352.352
29.11000 345.220
29.12000 337.384
29.13000 333.189
29.14000 336.813
29.15000 340.700
29.16000 343.014
29.17000 340.666
29.18000 338.976
29.19000 341.434
29.20000 347.855
29.21000 354.243
29.22000 357.938
29.23000 359.930
29.24000 361.868
29.25000 361.117
29.26000 359.302
29.27000 357.252
29.28000 352.354
29.29000 346.619
29.30000 342.203
29.31000 347.185
29.32000 354.011
29.33000 359.728
29.34000 354.690
29.35000 349.391
29.36000 344.947
29.37000 343.145
29.38000 341.530
29.39000 338.842
29.40000 333.892
29.41000 328.869
29.42000 325.902
29.43000 338.244
29.44000 347.044
29.45000 348.218
29.46000 342.250
29.47000 336.333
29.48000 334.214
29.49000 334.455
29.50000 334.689
29.51000 339.147
29.52000 345.080
29.53000 350.670
29.54000 352.237
29.55000 352.642
29.56000 352.265
29.57000 346.430
29.58000 339.544
29.59000 333.796
29.60000 334.740
29.61000 336.197
29.62000 337.026
29.63000 335.948
29.64000 334.739
29.65000 336.805
29.66000 345.665
29.67000 354.734
29.68000 360.049
29.69000 353.292
29.70000 348.473
29.71000 344.397
29.72000 341.003
29.73000 337.640
29.74000 336.419
29.75000 336.507
29.76000 336.591
29.77000 340.892
29.78000 346.632
29.79000 352.111
29.80000 354.603
29.81000 356.248
29.82000 357.440
29.83000 355.542
29.84000 353.060
29.85000 350.996
29.86000 358.814
29.87000 366.256
29.88000 372.180
29.89000 373.577
29.90000 374.671
29.91000 374.057
29.92000 369.958
29.93000 365.757
29.94000 363.314
29.95000 364.448
29.96000 365.260
29.97000 365.413
29.98000 364.974
29.99000 364.578
30.00000 366.949
30.01000 370.980
30.02000 374.885
30.03000 377.216
30.04000 378.814
30.05000 379.919
30.06000 375.525
30.07000 369.598
30.08000 364.460
30.09000 364.605
30.10000 365.728
30.11000 366.658
30.12000 369.366
30.13000 371.772
30.14000 372.858
30.15000 370.076
30.16000 367.044
30.17000 364.845
30.18000 364.315
30.19000 363.832
30.20000 363.553
30.21000 365.768
30.22000 367.324
30.23000 364.442
30.24000 357.639
30.25000 350.960
30.26000 351.805
30.27000 357.083
30.28000 362.190
30.29000 362.810
30.30000 361.691
30.31000 360.434
30.32000 357.668
30.33000 354.490
30.34000 352.098
30.35000 354.861
30.36000 358.559
30.37000 361.613
30.38000 350.598
30.39000 340.206
30.40000 334.353
30.41000 341.574
30.42000 349.614
30.43000 354.086
30.44000 351.527
30.45000 348.779
30.46000 347.207
30.47000 349.391
30.48000 350.930
30.49000 353.924
30.50000 358.179
30.51000 362.295
30.52000 358.495
30.53000 350.113
30.54000 342.013
30.55000 341.237
30.56000 343.236
30.57000 345.158
30.58000 346.271
30.59000 347.166
30.60000 347.602
30.61000 345.098
30.62000 342.070
30.63000 339.578
30.64000 345.840
30.65000 351.785
30.66000 356.803
30.67000 359.194
30.68000 361.427
30.69000 361.487
30.70000 357.343
30.71000 353.093
30.72000 350.680
30.73000 356.754
30.74000 361.005
30.75000 363.042
30.76000 363.195
30.77000 363.443
30.78000 368.721
30.79000 376.861
30.80000 384.714
30.81000 379.260
30.82000 369.258
30.83000 360.317
30.84000 362.371
30.85000 367.331
30.86000 371.923
30.87000 374.207
30.88000 376.087
30.89000 377.629
30.90000 370.269
30.91000 363.442
30.92000 361.419
30.93000 372.766
30.94000 384.901
30.95000 395.276
30.96000 402.302
30.97000 409.247
30.98000 413.156
30.99000 418.192
31.00000 421.684
31.01000 422.080
31.02000 419.892
31.03000 417.975
31.04000 429.724
31.05000 449.112
31.06000 467.793
31.07000 480.760
31.08000 490.893
31.09000 501.129
31.10000 512.411
31.11000 523.964
31.12000 537.163
31.13000 560.505
31.14000 585.581
31.15000 606.066
31.16000 628.563
31.17000 647.151
31.18000 667.395
31.19000 692.172
31.20000 717.207
31.21000 744.408
31.22000 775.658
31.23000 807.002
31.24000 824.493
31.25000 850.292
31.26000 868.172
31.27000 888.466
31.28000 910.734
31.29000 933.225
31.30000 966.328
31.31000 1005.261
31.32000 1042.720
31.33000 1065.863
31.34000 1082.524
31.35000 1098.085
31.36000 1102.807
31.37000 1104.764
31.38000 1105.183
31.39000 1096.323
31.40000 1085.908
31.41000 1077.431
31.42000 1085.405
31.43000 1093.300
31.44000 1091.109
31.45000 1061.789
31.46000 1030.972
31.47000 1004.206
31.48000 984.890
31.49000 965.735
31.50000 955.137
31.51000 895.963
31.52000 855.054
31.53000 819.860
31.54000 789.257
31.55000 758.812
31.56000 735.517
31.57000 716.082
31.58000 697.411
31.59000 673.899
31.60000 650.216
31.61000 627.503
31.62000 614.112
31.63000 603.056
31.64000 589.947
31.65000 564.694
31.66000 537.445
31.67000 515.354
31.68000 501.464
31.69000 490.818
31.70000 480.244
31.71000 469.859
31.72000 459.485
31.73000 452.698
31.74000 452.392
31.75000 452.219
31.76000 452.125
31.77000 427.589
31.78000 410.698
31.79000 401.497
31.80000 398.360
31.81000 395.109
31.82000 387.023
31.83000 376.372
31.84000 366.155
31.85000 365.273
31.86000 367.614
31.87000 370.031
31.88000 373.150
31.89000 376.442
31.90000 378.133
31.91000 370.542
31.92000 361.456
31.93000 354.118
31.94000 352.282
31.95000 351.228
31.96000 349.811
31.97000 347.451
31.98000 345.041
31.99000 341.502
32.00000 335.956
32.01000 330.372
32.02000 327.335
32.03000 331.207
32.04000 333.880
32.05000 338.642
32.06000 345.022
32.07000 351.180
32.08000 348.383
32.09000 340.914
32.10000 333.760
32.11000 333.613
32.12000 335.806
32.13000 337.615
32.14000 335.893
32.15000 333.318
32.16000 331.285
32.17000 332.331
32.18000 333.863
32.19000 335.096
32.20000 336.907
32.21000 338.421
32.22000 337.745
32.23000 331.474
32.24000 324.924
32.25000 320.375
32.26000 319.320
32.27000 318.327
32.28000 317.793
32.29000 315.138
32.30000 313.355
32.31000 319.044
32.32000 330.409
32.33000 341.581
32.34000 345.344
32.35000 345.310
32.36000 345.277
32.37000 343.649
32.38000 341.612
32.39000 339.078
32.40000 332.087
32.41000 324.040
32.42000 316.245
32.43000 309.859
32.44000 303.690
32.45000 298.747
32.46000 304.247
32.47000 309.486
32.48000 314.859
32.49000 320.568
32.50000 326.295
32.51000 328.659
32.52000 325.259
32.53000 321.760
32.54000 319.892
32.55000 319.888
32.56000 319.877
32.57000 317.885
32.58000 314.417
32.59000 311.032
32.60000 310.729
32.61000 311.980
32.62000 313.174
32.63000 317.994
32.64000 323.635
32.65000 328.374
32.66000 325.229
32.67000 320.248
32.68000 315.702
32.69000 313.533
32.70000 311.724
32.71000 310.280
32.72000 317.650
32.73000 324.247
32.74000 328.945
32.75000 328.952
32.76000 328.742
32.77000 326.348
32.78000 320.277
32.79000 314.147
32.80000 310.903
32.81000 313.880
32.82000 315.893
32.83000 315.729
32.84000 313.970
32.85000 312.323
32.86000 314.551
32.87000 318.699
32.88000 322.654
32.89000 320.573
32.90000 316.747
32.91000 313.102
32.92000 311.000
32.93000 309.251
32.94000 307.803
32.95000 307.963
32.96000 308.362
32.97000 308.680
32.98000 314.798
32.99000 320.141
33.00000 324.498
33.01000 326.465
33.02000 328.324
33.03000 325.526
33.04000 315.016
33.05000 304.390
33.06000 298.819
33.07000 306.516
33.08000 311.713
33.09000 313.482
33.10000 312.786
33.11000 312.038
33.12000 309.521
33.13000 306.144
33.14000 302.929
33.15000 306.006
33.16000 310.794
33.17000 314.614
33.18000 310.352
33.19000 304.276
33.20000 299.245
33.21000 299.705
33.22000 300.963
33.23000 301.959
33.24000 296.548
33.25000 291.756
33.26000 290.187
33.27000 296.308
33.28000 302.760
33.29000 304.446
33.30000 298.378
33.31000 292.202
33.32000 288.995
33.33000 299.292
33.34000 306.178
33.35000 303.312
33.36000 293.563
33.37000 284.065
33.38000 282.563
33.39000 284.887
33.40000 287.095
33.41000 282.234
33.42000 275.606
33.43000 270.757
33.44000 280.417
33.45000 293.274
33.46000 304.157
33.47000 304.857
33.48000 304.112
33.49000 303.524
33.50000 297.233
33.51000 291.805
33.52000 290.626
33.53000 299.411
33.54000 308.610
33.55000 311.015
33.56000 302.562
33.57000 293.969
33.58000 289.548
33.59000 288.809
33.60000 288.309
33.61000 287.430
33.62000 286.289
33.63000 285.295
33.64000 288.768
33.65000 294.343
33.66000 299.631
33.67000 300.886
33.68000 300.847
33.69000 300.853
33.70000 301.211
33.71000 301.645
33.72000 301.350
33.73000 297.370
33.74000 292.876
33.75000 289.349
33.76000 293.216
33.77000 296.793
33.78000 299.488
33.79000 300.153
33.80000 300.736
33.81000 299.600
33.82000 295.766
33.83000 291.898
33.84000 289.929
33.85000 295.436
33.86000 299.086
33.87000 297.753
33.88000 293.025
33.89000 288.529
33.90000 290.783
33.91000 296.158
33.92000 301.248
33.93000 303.962
33.94000 305.769
33.95000 307.726
33.96000 310.854
33.97000 314.230
33.98000 317.029
33.99000 316.960
34.00000 316.500
34.01000 316.141
34.02000 315.319
34.03000 314.633
34.04000 313.948
34.05000 313.262
34.06000 312.576
34.07000 313.680
34.08000 317.547
34.09000 321.445
34.10000 323.411
34.11000 321.837
34.12000 320.808
34.13000 322.271
34.14000 325.400
34.15000 328.428
34.16000 328.628
34.17000 327.544
34.18000 326.519
34.19000 326.037
34.20000 325.749
34.21000 325.043
34.22000 321.149
34.23000 316.590
34.24000 313.279
34.25000 316.040
34.26000 319.610
34.27000 322.389
34.28000 329.628
34.29000 335.667
34.30000 340.094
34.31000 340.929
34.32000 341.632
34.33000 343.096
34.34000 345.712
34.35000 348.341
34.36000 346.743
34.37000 340.932
34.38000 335.207
34.39000 337.734
34.40000 345.682
34.41000 353.408
34.42000 355.158
34.43000 354.239
34.44000 353.371
34.45000 350.881
34.46000 348.144
34.47000 345.216
34.48000 340.867
34.49000 336.228
34.50000 332.706
34.51000 334.521
34.52000 337.032
34.53000 338.978
34.54000 328.953
34.55000 320.273
34.56000 316.763
34.57000 324.572
34.58000 332.781
34.59000 335.846
34.60000 331.256
34.61000 326.593
34.62000 321.260
34.63000 315.271
34.64000 309.343
34.65000 308.779
34.66000 311.675
34.67000 314.229
34.68000 307.964
34.69000 297.827
34.70000 288.278
34.71000 290.457
34.72000 295.669
34.73000 301.126
34.74000 308.374
34.75000 315.981
34.76000 320.521
34.77000 310.680
34.78000 299.007
34.79000 289.999
34.80000 297.597
34.81000 304.581
34.82000 309.225
34.83000 308.831
34.84000 308.267
34.85000 305.250
34.86000 298.650
34.87000 292.020
34.88000 286.812
34.89000 282.968
34.90000 279.213
34.91000 282.751
34.92000 290.913
34.93000 298.819
34.94000 300.389
34.95000 299.224
34.96000 298.128
34.97000 290.793
34.98000 282.416
34.99000 274.991
35.00000 274.384
35.01000 275.118
35.02000 274.779
35.03000 269.506
35.04000 263.619
35.05000 259.096
35.06000 268.281
35.07000 276.313
35.08000 281.021
35.09000 278.692
35.10000 276.135
35.11000 275.790
35.12000 278.622
35.13000 281.477
35.14000 280.568
35.15000 276.123
35.16000 271.724
35.17000 270.789
35.18000 272.011
35.19000 273.128
35.20000 271.740
35.21000 269.289
35.22000 266.988
35.23000 268.496
35.24000 270.875
35.25000 273.170
35.26000 274.879
35.27000 276.474
35.28000 277.430
35.29000 275.496
35.30000 273.211
35.31000 271.462
35.32000 265.007
35.33000 259.657
35.34000 259.276
35.35000 269.227
35.36000 279.498
35.37000 285.100
35.38000 284.121
35.39000 283.095
35.40000 279.523
35.41000 273.609
35.42000 267.778
35.43000 267.760
35.44000 271.297
35.45000 274.730
35.46000 275.765
35.47000 275.800
35.48000 275.832
35.49000 273.620
35.50000 271.027
35.51000 268.236
35.52000 264.088
35.53000 259.684
35.54000 257.193
35.55000 263.187
35.56000 270.191
35.57000 275.523
35.58000 263.086
35.59000 252.362
35.60000 247.898
35.61000 256.236
35.62000 264.954
35.63000 267.101
35.64000 260.154
35.65000 253.152
35.66000 251.240
35.67000 253.925
35.68000 256.592
35.69000 258.094
35.70000 258.896
35.71000 259.541
35.72000 256.722
35.73000 252.481
35.74000 248.516
35.75000 253.144
35.76000 259.526
35.77000 265.069
35.78000 264.986
35.79000 263.859
35.80000 262.907
35.81000 262.723
35.82000 262.627
35.83000 262.555
35.84000 264.188
35.85000 265.557
35.86000 265.827
35.87000 263.888
35.88000 261.887
35.89000 258.589
35.90000 253.527
35.91000 248.458
35.92000 248.150
35.93000 252.055
35.94000 255.936
35.95000 258.288
35.96000 259.738
35.97000 261.180
35.98000 262.453
35.99000 263.657
36.00000 264.781
36.01000 259.214
36.02000 252.505
36.03000 247.159
36.04000 250.772
36.05000 256.017
36.06000 260.796
36.07000 263.590
36.08000 266.159
36.09000 268.096
36.10000 260.950
36.11000 254.905
36.12000 251.424
36.13000 253.010
36.14000 254.732
36.15000 258.823
36.16000 266.075
36.17000 273.338
36.18000 272.908
36.19000 265.804
36.20000 258.734
36.21000 253.613
36.22000 249.622
36.23000 246.169
36.24000 253.780
36.25000 265.777
36.26000 276.948
36.27000 269.754
36.28000 258.771
36.29000 249.726
36.30000 253.158
36.31000 258.817
36.32000 263.201
36.33000 262.238
36.34000 260.681
36.35000 259.511
36.36000 259.741
36.37000 259.988
36.38000 260.501
36.39000 261.532
36.40000 262.577
36.41000 262.107
36.42000 259.655
36.43000 257.195
36.44000 256.918
36.45000 258.497
36.46000 260.029
36.47000 259.080
36.48000 256.716
36.49000 254.420
36.50000 253.476
36.51000 253.059
36.52000 252.671
36.53000 252.021
36.54000 251.372
36.55000 250.670
36.56000 249.628
36.57000 248.527
36.58000 248.078
36.59000 250.317
36.60000 252.847
36.61000 254.737
36.62000 255.295
36.63000 255.668
36.64000 258.025
36.65000 264.167
36.66000 270.401
36.67000 271.471
36.68000 265.900
36.69000 260.309
36.70000 257.552
36.71000 257.166
36.72000 256.768
36.73000 255.812
36.74000 254.543
36.75000 253.256
36.76000 251.625
36.77000 249.862
36.78000 248.227
36.79000 254.507
36.80000 262.019
36.81000 268.190
36.82000 266.081
36.83000 262.551
36.84000 261.126
36.85000 268.214
36.86000 276.203
36.87000 282.144
36.88000 276.526
36.89000 271.641
36.90000 269.223
36.91000 271.432
36.92000 273.747
36.93000 274.601
36.94000 273.609
36.95000 272.613
36.96000 272.935
36.97000 274.335
36.98000 275.784
36.99000 279.617
37.00000 284.763
37.01000 289.771
37.02000 292.194
37.03000 293.645
37.04000 294.988
37.05000 292.327
37.06000 289.014
37.07000 286.625
37.08000 289.824
37.09000 293.963
37.10000 296.276
37.11000 291.332
37.12000 285.638
37.13000 281.424
37.14000 275.022
37.15000 269.960
37.16000 268.026
37.17000 271.855
37.18000 275.810
37.19000 276.455
37.20000 272.998
37.21000 269.536
37.22000 267.271
37.23000 265.976
37.24000 264.764
37.25000 267.331
37.26000 271.944
37.27000 276.227
37.28000 274.566
37.29000 270.706
37.30000 267.141
37.31000 268.922
37.32000 271.722
37.33000 273.991
37.34000 273.106
37.35000 271.702
37.36000 269.730
37.37000 265.541
37.38000 261.129
37.39000 257.880
37.40000 254.917
37.41000 252.635
37.42000 251.840
37.43000 253.739
37.44000 255.694
37.45000 256.578
37.46000 256.161
37.47000 255.742
37.48000 257.614
37.49000 261.278
37.50000 264.864
37.51000 265.063
37.52000 263.461
37.53000 261.494
37.54000 253.194
37.55000 242.590
37.56000 232.818
37.57000 239.782
37.58000 249.709
37.59000 258.760
37.60000 262.714
37.61000 265.845
37.62000 267.845
37.63000 265.506
37.64000 262.740
37.65000 260.714
37.66000 266.187
37.67000 270.714
37.68000 272.722
37.69000 270.248
37.70000 267.685
37.71000 264.667
37.72000 261.104
37.73000 257.549
37.74000 258.365
37.75000 262.551
37.76000 266.567
37.77000 263.661
37.78000 257.136
37.79000 250.974
37.80000 250.947
37.81000 253.114
37.82000 255.106
37.83000 255.234
37.84000 254.945
37.85000 253.998
37.86000 249.295
37.87000 243.997
37.88000 240.346
37.89000 242.897
37.90000 246.042
37.91000 248.335
37.92000 246.793
37.93000 245.457
37.94000 244.841
37.95000 245.485
37.96000 246.151
37.97000 247.599
37.98000 249.961
37.99000 252.319
38.00000 253.171
38.01000 252.880
38.02000 252.642
38.03000 254.494
38.04000 257.420
38.05000 260.223
38.06000 261.019
38.07000 261.110
38.08000 261.193
38.09000 258.482
38.10000 255.473
38.11000 253.754
38.12000 259.247
38.13000 265.856
38.14000 271.238
38.15000 272.078
38.16000 272.493
38.17000 272.795
38.18000 268.201
38.19000 264.489
38.20000 266.013
38.21000 276.538
38.22000 287.218
38.23000 291.731
38.24000 289.164
38.25000 286.596
38.26000 284.471
38.27000 282.689
38.28000 281.178
38.29000 289.663
38.30000 303.196
38.31000 315.987
38.32000 317.018
38.33000 313.986
38.34000 311.211
38.35000 325.066
38.36000 340.846
38.37000 355.622
38.38000 364.898
38.39000 373.340
38.40000 383.060
38.41000 397.425
38.42000 412.214
38.43000 422.883
38.44000 450.248
38.45000 471.822
38.46000 491.085
38.47000 506.441
38.48000 521.734
38.49000 540.771
38.50000 564.022
38.51000 587.201
38.52000 623.444
38.53000 668.907
38.54000 713.884
38.55000 741.723
38.56000 761.053
38.57000 781.565
38.58000 820.205
38.59000 865.002
38.60000 905.916
38.61000 948.793
38.62000 987.258
38.63000 1024.373
38.64000 1054.232
38.65000 1083.013
38.66000 1108.474
38.67000 1122.086
38.68000 1134.644
38.69000 1143.658
38.70000 1146.368
38.71000 1148.223
38.72000 1153.179
38.73000 1163.281
38.74000 1173.461
38.75000 1173.686
38.76000 1162.917
38.77000 1152.181
38.78000 1136.421
38.79000 1117.213
38.80000 1097.595
38.81000 1064.187
38.82000 1024.049
38.83000 984.663
38.84000 956.460
38.85000 931.990
38.86000 909.692
38.87000 868.465
38.88000 828.168
38.89000 788.816
38.90000 754.453
38.91000 720.815
38.92000 686.903
38.93000 652.024
38.94000 617.062
38.95000 592.102
38.96000 544.315
38.97000 507.106
38.98000 474.625
38.99000 449.852
39.00000 425.189
39.01000 403.959
39.02000 386.446
39.03000 369.009
39.04000 357.750
39.05000 350.935
39.06000 343.919
39.07000 330.465
39.08000 313.922
39.09000 298.198
39.10000 294.304
39.11000 294.290
39.12000 294.277
39.13000 288.627
39.14000 282.531
39.15000 276.569
39.16000 271.301
39.17000 266.132
39.18000 261.457
39.19000 258.482
39.20000 255.650
39.21000 253.639
39.22000 245.814
39.23000 239.676
39.24000 236.956
39.25000 239.715
39.26000 242.546
39.27000 243.433
39.28000 242.258
39.29000 241.087
39.30000 240.810
39.31000 241.152
39.32000 241.362
39.33000 237.500
39.34000 231.719
39.35000 226.406
39.36000 227.661
39.37000 231.032
39.38000 234.090
39.39000 238.631
39.40000 242.921
39.41000 245.629
39.42000 240.309
39.43000 233.870
39.44000 229.154
39.45000 230.273
39.46000 231.872
39.47000 233.001
39.48000 232.345
39.49000 231.794
39.50000 231.716
39.51000 232.386
39.52000 233.065
39.53000 234.770
39.54000 237.543
39.55000 240.301
39.56000 242.328
39.57000 243.836
39.58000 245.234
39.59000 243.397
39.60000 240.060
39.61000 236.921
39.62000 236.472
39.63000 236.876
39.64000 237.241
39.65000 235.765
39.66000 234.120
39.67000 231.901
39.68000 226.824
39.69000 221.357
39.70000 219.087
39.71000 227.455
39.72000 236.671
39.73000 243.145
39.74000 229.485
39.75000 218.553
39.76000 215.308
39.77000 223.947
39.78000 232.721
39.79000 236.676
39.80000 235.712
39.81000 234.754
39.82000 234.954
39.83000 235.917
39.84000 236.821
39.85000 236.036
39.86000 234.481
39.87000 232.682
39.88000 227.654
39.89000 221.621
39.90000 216.175
39.91000 217.754
39.92000 220.429
39.93000 222.551
39.94000 221.972
39.95000 221.033
39.96000 221.229
39.97000 225.137
39.98000 229.334
39.99000 232.265
40.00000 228.453
40.01000 225.385
40.02000 222.159
40.03000 218.693
40.04000 215.224
40.05000 216.021
40.06000 221.084
40.07000 226.116
40.08000 231.117
40.09000 236.028
40.10000 240.688
40.11000 238.573
40.12000 233.424
40.13000 228.367
40.14000 224.505
40.15000 221.008
40.16000 217.860
40.17000 219.565
40.18000 221.930
40.19000 223.952
40.20000 224.322
40.21000 224.478
40.22000 224.828
40.23000 225.807
40.24000 226.833
40.25000 227.546
40.26000 222.951
40.27000 219.347
40.28000 219.417
40.29000 224.969
40.30000 230.573
40.31000 233.135
40.32000 232.716
40.33000 232.299
40.34000 227.736
40.35000 220.601
40.36000 213.551
40.37000 208.731
40.38000 204.892
40.39000 201.783
40.40000 207.812
40.41000 216.589
40.42000 224.470
40.43000 222.445
40.44000 218.930
40.45000 216.267
40.46000 217.608
40.47000 219.459
40.48000 221.949
40.49000 226.452
40.50000 231.103
40.51000 234.314
40.52000 220.023
40.53000 208.834
40.54000 206.204
40.55000 216.115
40.56000 226.136
40.57000 229.458
40.58000 226.342
40.59000 223.249
40.60000 219.453
40.61000 215.281
40.62000 211.229
40.63000 210.197
40.64000 210.471
40.65000 211.002
40.66000 214.665
40.67000 219.253
40.68000 223.363
40.69000 221.591
40.70000 219.031
40.71000 217.223
40.72000 218.891
40.73000 220.992
40.74000 222.583
40.75000 222.591
40.76000 222.485
40.77000 222.412
40.78000 215.520
40.79000 210.187
40.80000 207.085
40.81000 207.193
40.82000 207.327
40.83000 208.071
40.84000 209.389
40.85000 210.696
40.86000 210.198
40.87000 208.601
40.88000 206.999
40.89000 205.274
40.90000 203.497
40.91000 202.224
40.92000 206.941
40.93000 213.398
40.94000 219.166
40.95000 217.327
40.96000 214.442
40.97000 212.759
40.98000 216.512
40.99000 220.931
41.00000 223.702
41.01000 221.451
41.02000 218.852
41.03000 217.078
41.04000 220.747
41.05000 223.618
41.06000 224.414
41.07000 222.280
41.08000 220.124
41.09000 216.307
41.10000 210.955
41.11000 205.650
41.12000 205.194
41.13000 207.665
41.14000 210.055
41.15000 210.558
41.16000 210.273
41.17000 209.825
41.18000 207.500
41.19000 204.639
41.20000 202.090
41.21000 204.121
41.22000 206.642
41.23000 208.949
41.24000 210.302
41.25000 211.541
41.26000 212.210
41.27000 211.172
41.28000 210.019
41.29000 209.237
41.30000 210.890
41.31000 212.177
41.32000 211.847
41.33000 209.275
41.34000 206.688
41.35000 205.535
41.36000 205.680
41.37000 205.823
41.38000 204.894
41.39000 203.350
41.40000 201.847
41.41000 201.258
41.42000 201.044
41.43000 200.989
41.44000 202.709
41.45000 204.928
41.46000 206.899
41.47000 207.711
41.48000 208.227
41.49000 209.532
41.50000 214.281
41.51000 219.432
41.52000 221.482
41.53000 214.395
41.54000 206.712
41.55000 201.530
41.56000 200.386
41.57000 199.620
41.58000 200.707
41.59000 204.317
41.60000 207.939
41.61000 207.356
41.62000 203.036
41.63000 198.759
41.64000 199.563
41.65000 203.292
41.66000 206.947
41.67000 209.012
41.68000 210.434
41.69000 211.794
41.70000 212.477
41.71000 212.974
41.72000 213.414
41.73000 211.310
41.74000 209.086
41.75000 207.174
41.76000 206.595
41.77000 206.167
41.78000 206.689
41.79000 209.956
41.80000 213.398
41.81000 215.705
41.82000 210.817
41.83000 207.044
41.84000 204.757
41.85000 204.455
41.86000 204.162
41.87000 201.689
41.88000 197.317
41.89000 192.992
41.90000 194.483
41.91000 199.249
41.92000 203.937
41.93000 207.027
41.94000 209.481
41.95000 211.776
41.96000 212.366
41.97000 212.494
41.98000 212.608
41.99000 215.200
42.00000 217.823
42.01000 219.007
42.02000 214.140
42.03000 208.600
42.04000 204.933
42.05000 206.601
42.06000 208.597
42.07000 209.927
42.08000 211.760
42.09000 213.127
42.10000 216.647
42.11000 222.995
42.12000 229.344
42.13000 228.004
42.14000 220.090
42.15000 212.267
42.16000 208.745
42.17000 207.707
42.18000 206.755
42.19000 207.510
42.20000 208.932
42.21000 210.199
42.22000 209.848
42.23000 209.068
42.24000 208.380
42.25000 211.077
42.26000 213.914
42.27000 216.776
42.28000 219.741
42.29000 222.719
42.30000 225.187
42.31000 226.233
42.32000 227.193
42.33000 227.830
42.34000 225.637
42.35000 223.966
42.36000 219.539
42.37000 211.559
42.38000 203.576
42.39000 201.516
42.40000 204.423
42.41000 207.294
42.42000 209.064
42.43000 210.184
42.44000 211.376
42.45000 213.940
42.46000 217.030
42.47000 219.638
42.48000 217.343
42.49000 213.768
42.50000 210.626
42.51000 207.768
42.52000 205.351
42.53000 203.921
42.54000 206.494
42.55000 209.492
42.56000 211.369
42.57000 210.167
42.58000 208.788
42.59000 207.880
42.60000 207.197
42.61000 206.698
42.62000 207.890
42.63000 211.222
42.64000 214.551
42.65000 213.659
42.66000 209.292
42.67000 204.983
42.68000 202.860
42.69000 201.968
42.70000 201.096
42.71000 200.589
42.72000 200.219
42.73000 199.891
42.74000 199.976
42.75000 200.166
42.76000 200.333
42.77000 201.540
42.78000 202.725
42.79000 204.420
42.80000 208.145
42.81000 212.080
42.82000 214.051
42.83000 210.712
42.84000 207.077
42.85000 204.700
42.86000 192.411
42.87000 183.223
42.88000 182.611
42.89000 192.649
42.90000 202.696
42.91000 204.915
42.92000 200.813
42.93000 196.768
42.94000 197.295
42.95000 200.218
42.96000 203.088
42.97000 205.019
42.98000 206.601
42.99000 208.091
43.00000 208.686
43.01000 209.055
43.02000 209.378
43.03000 206.621
43.04000 203.824
43.05000 201.661
43.06000 201.980
43.07000 202.550
43.08000 204.554
43.09000 210.369
43.10000 216.389
43.11000 220.300
43.12000 209.260
43.13000 200.944
43.14000 197.656
43.15000 200.497
43.16000 203.340
43.17000 202.414
43.18000 198.502
43.19000 194.647
43.20000 193.333
43.21000 193.374
43.22000 193.407
43.23000 193.295
43.24000 193.131
43.25000 193.121
43.26000 194.571
43.27000 196.382
43.28000 197.960
43.29000 199.829
43.30000 201.468
43.31000 201.543
43.32000 195.613
43.33000 189.090
43.34000 185.538
43.35000 189.744
43.36000 194.354
43.37000 197.330
43.38000 197.431
43.39000 197.464
43.40000 196.938
43.41000 195.743
43.42000 194.554
43.43000 195.238
43.44000 197.378
43.45000 199.485
43.46000 197.925
43.47000 194.551
43.48000 191.277
43.49000 189.707
43.50000 188.747
43.51000 188.319
43.52000 192.802
43.53000 198.478
43.54000 203.410
43.55000 200.120
43.56000 196.203
43.57000 193.242
43.58000 193.889
43.59000 194.884
43.60000 195.547
43.61000 195.361
43.62000 195.132
43.63000 194.985
43.64000 189.385
43.65000 185.230
43.66000 185.597
43.67000 191.269
43.68000 196.928
43.69000 197.815
43.70000 195.057
43.71000 192.344
43.72000 190.837
43.73000 189.981
43.74000 189.258
43.75000 190.736
43.76000 192.989
43.77000 195.351
43.78000 198.688
43.79000 202.258
43.80000 205.351
43.81000 203.856
43.82000 201.978
43.83000 200.375
43.84000 199.799
43.85000 199.319
43.86000 197.813
43.87000 193.719
43.88000 189.500
43.89000 186.812
43.90000 187.561
43.91000 188.149
43.92000 191.631
43.93000 198.445
43.94000 205.220
43.95000 203.474
43.96000 195.339
43.97000 187.346
43.98000 190.034
43.99000 197.854
44.00000 205.070
44.01000 202.682
44.02000 196.968
44.03000 191.509
44.04000 188.288
44.05000 185.592
44.06000 183.264
44.07000 184.186
44.08000 185.390
44.09000 186.366
44.10000 186.512
44.11000 186.582
44.12000 188.959
44.13000 197.061
44.14000 205.431
44.15000 210.726
44.16000 201.596
44.17000 194.806
44.18000 192.986
44.19000 196.778
44.20000 200.566
44.21000 202.831
44.22000 203.974
44.23000 205.096
44.24000 203.094
44.25000 199.663
44.26000 196.342
44.27000 194.716
44.28000 193.666
44.29000 193.198
44.30000 197.731
44.31000 203.412
44.32000 208.304
44.33000 205.119
44.34000 201.400
44.35000 197.714
44.36000 194.144
44.37000 190.584
44.38000 188.737
44.39000 191.067
44.40000 193.587
44.41000 195.169
44.42000 200.040
44.43000 203.598
44.44000 204.554
44.45000 202.626
44.46000 200.715
44.47000 201.617
44.48000 204.551
44.49000 207.429
44.50000 209.022
44.51000 209.950
44.52000 210.806
44.53000 210.588
44.54000 210.011
44.55000 209.664
44.56000 211.255
44.57000 213.282
44.58000 215.022
44.59000 213.077
44.60000 210.978
44.61000 210.122
44.62000 213.636
44.63000 217.529
44.64000 220.404
44.65000 220.837
44.66000 221.163
44.67000 221.367
44.68000 216.261
44.69000 212.525
44.70000 214.213
44.71000 221.794
44.72000 229.346
44.73000 232.497
44.74000 232.523
44.75000 232.549
44.76000 229.319
44.77000 224.708
44.78000 220.463
44.79000 221.532
44.80000 224.348
44.81000 227.100
44.82000 229.327
44.83000 231.438
44.84000 233.243
44.85000 237.007
44.86000 240.418
44.87000 243.115
44.88000 243.345
44.89000 243.367
44.90000 242.701
44.91000 240.412
44.92000 238.056
44.93000 236.596
44.94000 241.896
44.95000 245.772
44.96000 247.155
44.97000 245.883
44.98000 244.613
44.99000 243.660
45.00000 242.928
45.01000 242.212
45.02000 247.391
45.03000 255.037
45.04000 262.355
45.05000 265.046
45.06000 266.242
45.07000 267.168
45.08000 265.934
45.09000 264.230
45.10000 262.777
45.11000 256.770
45.12000 251.180
45.13000 246.824
45.14000 246.663
45.15000 246.847
45.16000 247.154
45.17000 247.745
45.18000 248.347
45.19000 248.717
45.20000 252.795
45.21000 255.752
45.22000 251.455
45.23000 239.585
45.24000 227.769
45.25000 222.329
45.26000 221.253
45.27000 220.202
45.28000 222.596
45.29000 226.425
45.30000 230.326
45.31000 235.210
45.32000 240.407
45.33000 244.931
45.34000 244.169
45.35000 242.278
45.36000 240.672
45.37000 233.290
45.38000 226.427
45.39000 220.459
45.40000 217.474
45.41000 214.728
45.42000 213.235
45.43000 214.598
45.44000 216.072
45.45000 216.972
45.46000 212.594
45.47000 209.420
45.48000 209.683
45.49000 213.463
45.50000 217.193
45.51000 215.546
45.52000 210.284
45.53000 205.146
45.54000 203.188
45.55000 202.705
45.56000 202.525
45.57000 206.386
45.58000 211.508
45.59000 215.528
45.60000 211.072
45.61000 204.841
45.62000 199.561
45.63000 201.449
45.64000 203.836
45.65000 205.608
45.66000 205.367
45.67000 204.969
45.68000 204.323
45.69000 203.122
45.70000 201.900
45.71000 201.159
45.72000 200.161
45.73000 199.447
45.74000 202.312
45.75000 208.768
45.76000 215.148
45.77000 214.110
45.78000 208.174
45.79000 202.384
45.80000 196.036
45.81000 189.734
45.82000 183.881
45.83000 183.842
45.84000 185.586
45.85000 187.360
45.86000 189.352
45.87000 191.389
45.88000 193.109
45.89000 193.224
45.90000 193.145
45.91000 192.748
45.92000 191.330
45.93000 189.833
45.94000 187.894
45.95000 184.979
45.96000 182.030
45.97000 180.256
45.98000 184.335
45.99000 187.275
46.00000 187.932
46.01000 186.342
46.02000 184.756
46.03000 183.509
46.04000 182.482
46.05000 181.482
46.06000 180.515
46.07000 179.606
46.08000 178.872
46.09000 180.342
46.10000 182.477
46.11000 184.317
46.12000 183.986
46.13000 183.218
46.14000 182.571
46.15000 181.391
46.16000 180.349
46.17000 178.966
46.18000 176.500
46.19000 173.954
46.20000 171.686
46.21000 170.017
46.22000 168.369
46.23000 167.386
46.24000 176.470
46.25000 182.975
46.26000 184.775
46.27000 182.040
46.28000 179.338
46.29000 179.314
46.30000 180.996
46.31000 182.633
46.32000 180.189
46.33000 176.176
46.34000 172.412
46.35000 171.685
46.36000 171.858
46.37000 172.219
46.38000 173.933
46.39000 175.914
46.40000 177.576
46.41000 179.407
46.42000 180.949
46.43000 182.562
46.44000 184.398
46.45000 186.250
46.46000 186.287
46.47000 182.464
46.48000 178.514
46.49000 176.174
46.50000 173.198
46.51000 171.090
46.52000 168.634
46.53000 165.849
46.54000 163.136
46.55000 165.952
46.56000 172.230
46.57000 178.330
46.58000 179.258
46.59000 178.042
46.60000 176.744
46.61000 174.464
46.62000 171.897
46.63000 169.943
46.64000 172.305
46.65000 175.505
46.66000 178.180
46.67000 177.755
46.68000 177.086
46.69000 175.981
46.70000 173.543
46.71000 171.012
46.72000 170.419
46.73000 173.879
46.74000 177.466
46.75000 179.575
46.76000 182.332
46.77000 184.279
46.78000 182.301
46.79000 176.687
46.80000 171.167
46.81000 172.343
46.82000 177.637
46.83000 182.775
46.84000 181.965
46.85000 178.831
46.86000 175.751
46.87000 173.310
46.88000 171.051
46.89000 169.194
46.90000 170.114
46.91000 171.561
46.92000 172.767
46.93000 168.789
46.94000 164.978
46.95000 162.248
46.96000 162.764
46.97000 163.501
46.98000 165.451
46.99000 169.895
47.00000 174.414
47.01000 177.051
47.02000 180.003
47.03000 182.077
47.04000 178.270
47.05000 169.122
47.06000 160.099
47.07000 159.457
47.08000 163.880
47.09000 168.167
47.10000 170.743
47.11000 172.516
47.12000 173.732
47.13000 168.667
47.14000 161.838
47.15000 156.391
47.16000 160.281
47.17000 165.914
47.18000 170.591
47.19000 174.143
47.20000 176.970
47.21000 178.022
47.22000 173.831
47.23000 169.296
47.24000 165.252
47.25000 162.197
47.26000 159.170
47.27000 157.418
47.28000 164.327
47.29000 169.204
47.30000 170.501
47.31000 168.607
47.32000 166.681
47.33000 162.715
47.34000 157.539
47.35000 152.528
47.36000 154.982
47.37000 160.160
47.38000 164.944
47.39000 165.371
47.40000 164.597
47.41000 164.336
47.42000 167.472
47.43000 171.230
47.44000 174.339
47.45000 176.084
47.46000 177.395
47.47000 176.361
47.48000 168.521
47.49000 160.247
47.50000 154.762
47.51000 154.812
47.52000 155.013
47.53000 155.128
47.54000 158.941
47.55000 161.617
47.56000 161.088
47.57000 157.758
47.58000 154.524
47.59000 156.951
47.60000 162.680
47.61000 168.219
47.62000 168.757
47.63000 167.384
47.64000 165.883
47.65000 163.015
47.66000 159.776
47.67000 157.526
47.68000 161.679
47.69000 166.981
47.70000 171.351
47.71000 167.630
47.72000 163.822
47.73000 160.290
47.74000 157.542
47.75000 154.842
47.76000 155.369
47.77000 162.192
47.78000 169.178
47.79000 173.157
47.80000 172.405
47.81000 171.862
47.82000 168.462
47.83000 162.613
47.84000 156.847
47.85000 155.596
47.86000 156.933
47.87000 158.224
47.88000 159.109
47.89000 159.792
47.90000 160.697
47.91000 163.914
47.92000 167.747
47.93000 170.393
47.94000 165.510
47.95000 159.303
47.96000 154.204
47.97000 157.109
47.98000 160.211
47.99000 160.723
48.00000 153.970
48.01000 146.783
48.02000 144.346
48.03000 151.019
48.04000 157.918
48.05000 161.815
48.06000 157.233
48.07000 154.031
48.08000 154.568
48.09000 158.250
48.10000 161.835
48.11000 160.438
48.12000 156.234
48.13000 152.180
48.14000 151.087
48.15000 151.131
48.16000 150.838
48.17000 147.104
48.18000 142.471
48.19000 138.990
48.20000 142.671
48.21000 147.588
48.22000 151.611
48.23000 147.036
48.24000 142.536
48.25000 139.945
48.26000 142.618
48.27000 145.594
48.28000 150.141
48.29000 157.645
48.30000 165.220
48.31000 169.462
48.32000 160.478
48.33000 154.232
48.34000 153.327
48.35000 156.830
48.36000 160.256
48.37000 159.938
48.38000 157.547
48.39000 155.245
48.40000 153.766
48.41000 152.670
48.42000 152.179
48.43000 157.704
48.44000 164.775
48.45000 170.800
48.46000 170.455
48.47000 169.033
48.48000 167.873
48.49000 161.692
48.50000 156.212
48.51000 152.959
48.52000 155.740
48.53000 158.859
48.54000 161.556
48.55000 163.473
48.56000 165.373
48.57000 166.428
48.58000 162.948
48.59000 160.536
48.60000 158.671
48.61000 157.251
48.62000 155.819
48.63000 153.895
48.64000 151.703
48.65000 149.596
48.66000 150.737
48.67000 152.938
48.68000 154.911
48.69000 154.674
48.70000 153.879
48.71000 153.121
48.72000 152.585
48.73000 152.086
48.74000 151.680
48.75000 150.796
48.76000 150.035
48.77000 150.009
48.78000 151.939
48.79000 153.975
48.80000 154.842
48.81000 153.578
48.82000 152.270
48.83000 151.550
48.84000 159.286
48.85000 164.611
48.86000 164.224
48.87000 159.297
48.88000 154.440
48.89000 152.636
48.90000 152.464
48.91000 152.299
48.92000 150.828
48.93000 149.007
48.94000 147.967
48.95000 154.345
48.96000 162.561
48.97000 168.490
48.98000 161.041
48.99000 151.418
49.00000 143.634
49.01000 149.332
49.02000 155.056
49.03000 157.844
49.04000 152.942
49.05000 147.638
49.06000 145.079
49.07000 147.435
49.08000 149.888
49.09000 151.227
49.10000 150.213
49.11000 149.519
49.12000 150.347
49.13000 152.362
49.14000 154.348
49.15000 155.090
49.16000 155.179
49.17000 155.264
49.18000 156.364
49.19000 157.731
49.20000 158.864
49.21000 157.830
49.22000 156.268
49.23000 154.747
49.24000 153.462
49.25000 152.214
49.26000 151.209
49.27000 144.667
49.28000 138.922
49.29000 137.311
49.30000 146.339
49.31000 155.906
49.32000 161.295
49.33000 159.336
49.34000 157.239
49.35000 156.105
49.36000 157.348
49.37000 158.197
49.38000 158.247
49.39000 157.685
49.40000 157.084
49.41000 154.972
49.42000 152.080
49.43000 149.311
49.44000 148.162
49.45000 147.623
49.46000 147.278
49.47000 148.681
49.48000 150.502
49.49000 152.252
49.50000 153.603
49.51000 154.892
49.52000 155.927
49.53000 153.809
49.54000 151.853
49.55000 150.921
49.56000 152.580
49.57000 154.366
49.58000 154.804
49.59000 152.916
49.60000 150.986
49.61000 149.952
49.62000 145.641
49.63000 142.726
49.64000 145.853
49.65000 153.523
49.66000 160.968
49.67000 159.987
49.68000 154.726
49.69000 149.700
49.70000 145.762
49.71000 142.451
49.72000 139.529
49.73000 140.042
49.74000 141.361
49.75000 142.949
49.76000 146.015
49.77000 149.306
49.78000 151.937
49.79000 152.797
49.80000 153.360
49.81000 153.303
49.82000 151.702
49.83000 150.029
49.84000 149.641
49.85000 151.435
49.86000 153.266
49.87000 154.239
49.88000 153.425
49.89000 152.870
49.90000 152.145
49.91000 151.295
49.92000 150.392
49.93000 147.615
49.94000 143.902
49.95000 140.359
49.96000 141.054
49.97000 143.041
49.98000 144.967
49.99000 146.367
50.00000 147.646
50.01000 149.130
50.02000 151.729
50.03000 154.495
50.04000 156.697
50.05000 153.806
50.06000 151.107
50.07000 148.807
50.08000 147.483
50.09000 146.203
50.10000 146.767
50.11000 150.407
50.12000 154.095
50.13000 156.036
50.14000 154.218
50.15000 152.986
50.16000 152.338
50.17000 152.114
50.18000 151.860
50.19000 150.609
50.20000 148.869
50.21000 147.211
50.22000 146.309
50.23000 145.708
50.24000 145.757
50.25000 151.275
50.26000 158.030
50.27000 162.815
50.28000 157.152
50.29000 149.959
50.30000 144.254
50.31000 152.351
50.32000 159.834
50.33000 163.846
50.34000 159.518
50.35000 154.824
50.36000 152.018
50.37000 152.308
50.38000 152.642
50.39000 152.817
50.40000 156.512
50.41000 158.995
50.42000 159.057
50.43000 157.398
50.44000 155.870
50.45000 158.637
50.46000 163.475
50.47000 168.075
50.48000 167.507
50.49000 165.406
50.50000 163.193
50.51000 160.051
50.52000 156.703
50.53000 154.015
50.54000 154.756
50.55000 155.989
50.56000 156.963
50.57000 159.997
50.58000 162.574
50.59000 164.725
50.60000 165.869
50.61000 166.970
50.62000 168.696
50.63000 171.426
50.64000 174.169
50.65000 175.586
50.66000 170.548
50.67000 167.157
50.68000 164.493
50.69000 162.335
50.70000 160.160
50.71000 157.441
50.72000 154.463
50.73000 151.637
50.74000 157.668
50.75000 165.884
50.76000 172.815
50.77000 169.395
50.78000 163.720
50.79000 158.274
50.80000 153.999
50.81000 149.889
50.82000 146.656
50.83000 151.147
50.84000 155.254
50.85000 158.454
50.86000 159.543
50.87000 160.547
50.88000 160.234
50.89000 157.837
50.90000 155.414
50.91000 154.175
50.92000 151.833
50.93000 150.259
50.94000 148.565
50.95000 146.788
50.96000 145.298
50.97000 152.300
50.98000 163.260
50.99000 173.646
51.00000 171.196
51.01000 165.173
51.02000 159.695
51.03000 158.505
51.04000 158.231
51.05000 158.268
51.06000 159.860
51.07000 161.666
51.08000 163.080
51.09000 159.958
51.10000 157.172
51.11000 155.074
51.12000 154.550
51.13000 154.087
51.14000 153.550
51.15000 152.897
51.16000 152.243
51.17000 151.912
51.18000 148.082
51.19000 145.543
51.20000 145.647
51.21000 147.532
51.22000 149.348
51.23000 149.163
51.24000 148.062
51.25000 147.021
51.26000 147.011
51.27000 147.299
51.28000 147.594
51.29000 147.942
51.30000 148.300
51.31000 149.508
51.32000 154.888
51.33000 160.829
51.34000 165.462
51.35000 158.270
51.36000 151.799
51.37000 147.090
51.38000 146.338
51.39000 145.733
51.40000 145.262
51.41000 144.995
51.42000 144.730
51.43000 144.597
51.44000 146.574
51.45000 147.867
51.46000 146.641
51.47000 143.748
51.48000 141.012
51.49000 142.585
51.50000 146.098
51.51000 149.416
51.52000 147.549
51.53000 144.373
51.54000 141.045
51.55000 136.570
51.56000 131.859
51.57000 128.385
51.58000 130.870
51.59000 134.139
51.60000 136.677
51.61000 138.031
51.62000 139.036
51.63000 139.860
51.64000 140.288
51.65000 140.701
51.66000 140.485
51.67000 139.326
51.68000 138.159
51.69000 139.228
51.70000 142.503
51.71000 145.768
51.72000 148.181
51.73000 150.041
51.74000 151.820
51.75000 151.495
51.76000 150.240
51.77000 149.056
51.78000 147.705
51.79000 146.422
51.80000 144.812
51.81000 140.800
51.82000 136.301
51.83000 133.009
51.84000 135.421
51.85000 138.567
51.86000 140.999
51.87000 142.216
51.88000 143.110
51.89000 143.366
51.90000 142.237
51.91000 141.060
51.92000 141.258
51.93000 143.482
51.94000 145.724
51.95000 145.499
51.96000 142.891
51.97000 140.280
51.98000 137.401
51.99000 134.352
52.00000 131.425
52.01000 131.582
52.02000 133.080
52.03000 134.489
52.04000 133.236
52.05000 131.368
52.06000 130.306
52.07000 135.064
52.08000 140.977
52.09000 146.115
52.10000 147.652
52.11000 148.736
52.12000 149.571
52.13000 139.365
52.14000 130.658
52.15000 126.751
52.16000 133.077
52.17000 139.742
52.18000 143.175
52.19000 141.932
52.20000 140.651
52.21000 139.230
52.22000 137.678
52.23000 136.167
52.24000 137.978
52.25000 141.872
52.26000 145.570
52.27000 144.510
52.28000 141.415
52.29000 138.508
52.30000 135.099
52.31000 131.855
52.32000 129.606
52.33000 134.388
52.34000 140.537
52.35000 145.256
52.36000 143.460
52.37000 140.862
52.38000 138.871
52.39000 141.685
52.40000 144.173
52.41000 144.501
52.42000 140.302
52.43000 135.961
52.44000 137.155
52.45000 146.213
52.46000 155.329
52.47000 157.186
52.48000 152.303
52.49000 147.432
52.50000 143.437
52.51000 139.982
52.52000 136.756
52.53000 138.891
52.54000 143.279
52.55000 147.392
52.56000 142.824
52.57000 136.400
52.58000 130.494
52.59000 128.173
52.60000 126.537
52.61000 125.850
52.62000 129.406
52.63000 133.472
52.64000 136.574
52.65000 142.313
52.66000 146.975
52.67000 150.797
52.68000 152.889
52.69000 154.929
52.70000 155.455
52.71000 153.868
52.72000 152.267
52.73000 149.210
52.74000 144.831
52.75000 140.504
52.76000 139.724
52.77000 141.093
52.78000 142.418
52.79000 142.747
52.80000 142.663
52.81000 142.585
52.82000 140.212
52.83000 137.468
52.84000 135.451
52.85000 138.362
52.86000 142.196
52.87000 145.232
52.88000 144.771
52.89000 143.899
52.90000 143.236
52.91000 144.034
52.92000 144.738
52.93000 144.620
52.94000 142.842
52.95000 141.016
52.96000 140.265
52.97000 140.987
52.98000 141.717
52.99000 139.354
53.00000 134.234
53.01000 129.195
53.02000 129.252
53.03000 132.343
53.04000 135.393
53.05000 137.589
53.06000 139.436
53.07000 141.162
53.08000 142.929
53.09000 144.543
53.10000 146.131
53.11000 147.551
53.12000 148.940
53.13000 149.301
53.14000 145.236
53.15000 140.662
53.16000 137.205
53.17000 147.808
53.18000 156.826
53.19000 160.693
53.20000 154.304
53.21000 147.633
53.22000 146.357
53.23000 152.338
53.24000 158.354
53.25000 160.777
53.26000 160.054
53.27000 159.377
53.28000 161.453
53.29000 165.139
53.30000 168.485
53.31000 164.723
53.32000 158.122
53.33000 151.970
53.34000 155.137
53.35000 160.297
53.36000 164.377
53.37000 161.455
53.38000 157.272
53.39000 154.686
53.40000 158.859
53.41000 163.789
53.42000 167.498
53.43000 165.040
53.44000 162.819
53.45000 160.563
53.46000 158.242
53.47000 155.918
53.48000 154.208
53.49000 153.308
53.50000 152.412
53.51000 151.901
53.52000 151.720
53.53000 151.567
53.54000 152.925
53.55000 155.151
53.56000 157.177
53.57000 155.155
53.58000 151.543
53.59000 148.184
53.60000 149.300
53.61000 151.389
53.62000 152.833
53.63000 150.181
53.64000 146.805
53.65000 144.074
53.66000 144.021
53.67000 144.261
53.68000 144.441
53.69000 139.384
53.70000 135.192
53.71000 132.894
53.72000 134.239
53.73000 135.674
53.74000 135.854
53.75000 134.409
53.76000 132.958
53.77000 135.668
53.78000 141.871
53.79000 148.026
53.80000 151.679
53.81000 153.918
53.82000 155.890
53.83000 152.648
53.84000 147.395
53.85000 142.519
53.86000 141.129
53.87000 140.700
53.88000 140.552
53.89000 142.154
53.90000 144.057
53.91000 145.223
53.92000 143.380
53.93000 141.214
53.94000 139.600
53.95000 140.220
53.96000 140.804
53.97000 140.426
53.98000 138.229
53.99000 135.990
54.00000 137.436
54.01000 143.572
54.02000 149.717
54.03000 148.367
54.04000 140.840
54.05000 133.414
54.06000 130.962
54.07000 131.271
54.08000 131.789
54.09000 136.259
54.10000 142.228
54.11000 147.756
54.12000 146.971
54.13000 144.802
54.14000 142.993
54.15000 143.389
54.16000 144.159
54.17000 144.406
54.18000 142.563
54.19000 140.502
54.20000 138.973
54.21000 140.369
54.22000 141.581
54.23000 141.109
54.24000 137.512
54.25000 133.844
54.26000 132.814
54.27000 135.078
54.28000 137.348
54.29000 139.103
54.30000 140.435
54.31000 141.731
54.32000 141.337
54.33000 140.022
54.34000 138.906
54.35000 141.421
54.36000 145.289
54.37000 148.865
54.38000 146.767
54.39000 143.594
54.40000 140.484
54.41000 137.752
54.42000 135.083
54.43000 132.493
54.44000 130.211
54.45000 127.961
54.46000 126.301
54.47000 134.883
54.48000 141.965
54.49000 144.844
54.50000 140.048
54.51000 135.089
54.52000 133.435
54.53000 135.829
54.54000 138.230
54.55000 138.545
54.56000 137.203
54.57000 135.893
54.58000 135.968
54.59000 136.784
54.60000 137.674
54.61000 139.854
54.62000 142.507
54.63000 144.954
54.64000 143.627
54.65000 141.598
54.66000 139.853
54.67000 139.776
54.68000 139.971
54.69000 139.985
54.70000 139.297
54.71000 138.539
54.72000 137.982
54.73000 140.424
54.74000 142.434
54.75000 143.793
54.76000 143.983
54.77000 144.149
54.78000 144.202
54.79000 144.118
54.80000 144.034
54.81000 142.851
54.82000 140.818
54.83000 138.823
54.84000 138.401
54.85000 138.808
54.86000 139.199
54.87000 139.335
54.88000 139.378
54.89000 139.418
54.90000 141.348
54.91000 143.485
54.92000 145.162
54.93000 144.188
54.94000 142.792
54.95000 141.076
54.96000 138.151
54.97000 135.107
54.98000 132.884
54.99000 140.849
55.00000 147.391
55.01000 150.678
55.02000 148.230
55.03000 145.672
55.04000 145.432
55.05000 147.925
55.06000 150.417
55.07000 149.206
55.08000 145.176
55.09000 141.292
55.10000 143.186
55.11000 148.072
55.12000 152.659
55.13000 152.304
55.14000 150.197
55.15000 148.263
55.16000 150.268
55.17000 152.900
55.18000 155.038
55.19000 154.396
55.20000 153.319
55.21000 153.190
55.22000 156.593
55.23000 160.331
55.24000 163.048
55.25000 167.662
55.26000 171.284
55.27000 171.955
55.28000 167.515
55.29000 162.984
55.30000 161.228
55.31000 162.684
55.32000 164.141
55.33000 166.550
55.34000 169.656
55.35000 172.644
55.36000 171.211
55.37000 167.528
55.38000 164.279
55.39000 167.993
55.40000 174.132
55.41000 179.756
55.42000 181.028
55.43000 181.248
55.44000 181.386
55.45000 181.071
55.46000 180.687
55.47000 183.089
55.48000 195.696
55.49000 209.243
55.50000 219.040
55.51000 224.179
55.52000 227.952
55.53000 233.319
55.54000 241.398
55.55000 249.521
55.56000 254.811
55.57000 256.882
55.58000 258.944
55.59000 267.725
55.60000 281.373
55.61000 295.021
55.62000 308.666
55.63000 322.309
55.64000 335.679
55.65000 344.809
55.66000 352.489
55.67000 359.510
55.68000 370.391
55.69000 380.851
55.70000 393.287
55.71000 416.433
55.72000 441.185
55.73000 464.582
55.74000 483.108
55.75000 501.196
55.76000 514.207
55.77000 531.401
55.78000 544.710
55.79000 556.838
55.80000 566.989
55.81000 577.109
55.82000 586.524
55.83000 595.153
55.84000 603.750
55.85000 619.580
55.86000 640.482
55.87000 661.084
55.88000 671.386
55.89000 676.623
55.90000 682.060
55.91000 690.533
55.92000 700.026
55.93000 708.686
55.94000 714.966
55.95000 720.057
55.96000 722.922
55.97000 713.948
55.98000 703.236
55.99000 692.328
56.00000 680.731
56.01000 669.074
56.02000 660.732
56.03000 652.633
56.04000 646.457
56.05000 635.383
56.06000 616.263
56.07000 597.025
56.08000 579.585
56.09000 564.111
56.10000 548.699
56.11000 531.596
56.12000 513.463
56.13000 495.357
56.14000 478.157
56.15000 461.394
56.16000 444.952
56.17000 433.199
56.18000 422.997
56.19000 413.712
56.20000 395.204
56.21000 377.009
56.22000 359.444
56.23000 345.166
56.24000 331.359
56.25000 319.191
56.26000 312.712
56.27000 306.718
56.28000 302.451
56.29000 281.179
56.30000 264.424
56.31000 253.766
56.32000 252.954
56.33000 252.277
56.34000 247.998
56.35000 239.864
56.36000 231.765
56.37000 222.872
56.38000 213.522
56.39000 204.332
56.40000 200.128
56.41000 198.294
56.42000 196.078
56.43000 188.437
56.44000 179.034
56.45000 170.497
56.46000 168.457
56.47000 167.910
56.48000 166.406
56.49000 160.007
56.50000 152.918
56.51000 148.291
56.52000 152.063
56.53000 156.533
56.54000 159.697
56.55000 154.858
56.56000 150.933
56.57000 148.985
56.58000 150.171
56.59000 151.397
56.60000 149.315
56.61000 143.759
56.62000 138.230
56.63000 138.054
56.64000 141.520
56.65000 144.823
56.66000 143.211
56.67000 139.304
56.68000 135.643
56.69000 135.365
56.70000 136.169
56.71000 136.896
56.72000 137.191
56.73000 137.370
56.74000 136.577
56.75000 130.907
56.76000 124.565
56.77000 121.001
56.78000 126.753
56.79000 133.257
56.80000 137.837
56.81000 130.551
56.82000 124.674
56.83000 122.873
56.84000 127.423
56.85000 132.048
56.86000 132.972
56.87000 130.086
56.88000 127.215
56.89000 127.362
56.90000 129.520
56.91000 131.707
56.92000 134.697
56.93000 138.056
56.94000 141.049
56.95000 139.131
56.96000 135.673
56.97000 132.548
56.98000 137.242
56.99000 142.818
57.00000 146.523
57.01000 141.024
57.02000 134.283
57.03000 129.092
57.04000 129.007
57.05000 129.324
57.06000 129.546
57.07000 130.797
57.08000 131.773
57.09000 132.832
57.10000 134.019
57.11000 135.207
57.12000 136.361
57.13000 137.479
57.14000 138.590
57.15000 138.053
57.16000 136.444
57.17000 134.855
57.18000 133.794
57.19000 132.973
57.20000 132.231
57.21000 132.521
57.22000 133.128
57.23000 133.675
57.24000 130.182
57.25000 126.383
57.26000 123.546
57.27000 125.352
57.28000 127.770
57.29000 128.459
57.30000 123.547
57.31000 118.207
57.32000 114.489
57.33000 120.554
57.34000 125.395
57.35000 128.412
57.36000 128.684
57.37000 128.929
57.38000 130.080
57.39000 132.129
57.40000 134.164
57.41000 131.053
57.42000 124.682
57.43000 118.600
57.44000 120.156
57.45000 125.102
57.46000 129.847
57.47000 132.051
57.48000 133.486
57.49000 134.776
57.50000 133.069
57.51000 131.043
57.52000 129.786
57.53000 132.177
57.54000 135.039
57.55000 137.078
57.56000 136.500
57.57000 135.727
57.58000 135.192
57.59000 133.558
57.60000 132.300
57.61000 129.690
57.62000 125.082
57.63000 120.456
57.64000 121.799
57.65000 128.928
57.66000 136.005
57.67000 133.930
57.68000 126.118
57.69000 118.607
57.70000 118.727
57.71000 122.176
57.72000 125.415
57.73000 126.069
57.74000 125.952
57.75000 125.847
57.76000 126.951
57.77000 128.125
57.78000 128.547
57.79000 125.475
57.80000 121.961
57.81000 120.214
57.82000 123.993
57.83000 128.170
57.84000 131.046
57.85000 126.085
57.86000 122.166
57.87000 119.779
57.88000 119.614
57.89000 119.468
57.90000 120.927
57.91000 123.912
57.92000 126.873
57.93000 126.574
57.94000 124.264
57.95000 122.088
57.96000 123.180
57.97000 125.673
57.98000 127.817
57.99000 125.763
58.00000 122.481
58.01000 119.545
58.02000 122.282
58.03000 125.634
58.04000 128.149
58.05000 126.840
58.06000 125.060
58.07000 123.219
58.08000 121.191
58.09000 119.150
58.10000 117.753
58.11000 113.910
58.12000 110.975
58.13000 111.566
58.14000 117.178
58.15000 122.827
58.16000 125.155
58.17000 124.389
58.18000 123.629
58.19000 123.408
58.20000 123.519
58.21000 123.591
58.22000 122.778
58.23000 121.592
58.24000 120.577
58.25000 121.574
58.26000 123.149
58.27000 124.554
58.28000 126.712
58.29000 128.716
58.30000 130.571
58.31000 131.755
58.32000 132.859
58.33000 132.941
58.34000 129.938
58.35000 126.726
58.36000 124.540
58.37000 122.073
58.38000 120.224
58.39000 118.521
58.40000 117.022
58.41000 115.524
58.42000 114.585
58.43000 114.157
58.44000 113.732
58.45000 116.985
58.46000 122.363
58.47000 127.455
58.48000 126.063
58.49000 121.984
58.50000 118.108
58.51000 116.541
58.52000 115.626
58.53000 114.812
58.54000 115.850
58.55000 117.052
58.56000 117.867
58.57000 116.975
58.58000 115.883
58.59000 115.967
58.60000 119.540
58.61000 123.345
58.62000 125.917
58.63000 118.605
58.64000 112.944
58.65000 110.792
58.66000 113.460
58.67000 116.156
58.68000 117.873
58.69000 118.712
58.70000 119.543
58.71000 119.868
58.72000 119.892
58.73000 119.893
58.74000 119.409
58.75000 118.728
58.76000 117.904
58.77000 115.491
58.78000 112.638
58.79000 110.107
58.80000 112.389
58.81000 115.134
58.82000 117.404
58.83000 117.623
58.84000 117.605
58.85000 117.711
58.86000 118.180
58.87000 118.672
58.88000 119.003
58.89000 115.720
58.90000 113.206
58.91000 110.867
58.92000 108.764
58.93000 106.666
58.94000 106.962
58.95000 109.363
58.96000 111.739
58.97000 113.118
58.98000 113.896
58.99000 114.779
59.00000 117.861
59.01000 121.823
59.02000 125.066
59.03000 120.530
59.04000 113.873
59.05000 107.982
59.06000 113.402
59.07000 119.853
59.08000 124.817
59.09000 123.472
59.10000 121.416
59.11000 120.160
59.12000 121.196
59.13000 122.374
59.14000 123.162
59.15000 125.647
59.16000 127.521
59.17000 126.856
59.18000 122.826
59.19000 118.783
59.20000 116.268
59.21000 115.070
59.22000 113.886
59.23000 113.353
59.24000 113.199
59.25000 113.109
59.26000 114.317
59.27000 116.036
59.28000 117.596
59.29000 117.490
59.30000 116.937
59.31000 116.449
59.32000 115.834
59.33000 115.283
59.34000 115.205
59.35000 117.095
59.36000 119.201
59.37000 120.934
59.38000 121.618
59.39000 122.238
59.40000 122.650
59.41000 119.177
59.42000 116.538
59.43000 115.274
59.44000 115.798
59.45000 116.329
59.46000 116.212
59.47000 115.547
59.48000 114.890
59.49000 115.872
59.50000 117.734
59.51000 119.538
59.52000 120.208
59.53000 120.440
59.54000 120.458
59.55000 118.289
59.56000 115.543
59.57000 113.127
59.58000 117.056
59.59000 121.386
59.60000 124.486
59.61000 122.550
59.62000 120.074
59.63000 118.556
59.64000 119.690
59.65000 120.980
59.66000 121.831
59.67000 115.782
59.68000 111.201
59.69000 112.216
59.70000 120.368
59.71000 128.528
59.72000 128.449
59.73000 121.531
59.74000 114.701
59.75000 113.871
59.76000 116.315
59.77000 118.633
59.78000 118.598
59.79000 117.667
59.80000 116.782
59.81000 116.364
59.82000 116.065
59.83000 115.803
59.84000 117.254
59.85000 118.750
59.86000 119.708
59.87000 118.502
59.88000 117.069
59.89000 115.775
59.90000 114.860
59.91000 113.966
59.92000 113.379
59.93000 116.835
59.94000 119.443
59.95000 119.908
59.96000 117.689
59.97000 115.465
59.98000 114.901
59.99000 115.688
60.00000 116.463
60.01000 115.610
60.02000 113.914
60.03000 112.342
60.04000 113.063
60.05000 114.640
60.06000 116.203
60.07000 117.629
60.08000 119.020
60.09000 120.237
60.10000 125.195
60.11000 129.979
60.12000 133.079
60.13000 129.540
60.14000 125.321
60.15000 121.754
60.16000 119.931
60.17000 118.204
60.18000 117.078
60.19000 112.418
60.20000 108.944
60.21000 109.899
60.22000 116.296
60.23000 122.692
60.24000 123.996
60.25000 121.232
60.26000 118.507
60.27000 119.195
60.28000 121.644
60.29000 123.899
60.30000 122.722
60.31000 120.284
60.32000 117.997
60.33000 117.156
60.34000 116.675
60.35000 116.256
60.36000 113.928
60.37000 111.670
60.38000 111.108
60.39000 117.122
60.40000 123.791
60.41000 126.570
60.42000 119.110
60.43000 111.108
60.44000 105.929
60.45000 106.881
60.46000 107.668
60.47000 109.123
60.48000 111.381
60.49000 113.636
60.50000 114.321
60.51000 113.774
60.52000 113.235
60.53000 112.364
60.54000 111.348
60.55000 110.816
60.56000 118.571
60.57000 129.318
60.58000 138.834
60.59000 136.864
60.60000 132.083
60.61000 127.923
60.62000 123.433
60.63000 119.555
60.64000 116.774
60.65000 118.164
60.66000 119.961
60.67000 120.161
60.68000 116.227
60.69000 112.083
60.70000 109.418
60.71000 111.193
60.72000 112.551
60.73000 114.888
60.74000 118.386
60.75000 121.876
60.76000 123.110
60.77000 122.608
60.78000 122.114
60.79000 122.153
60.80000 122.458
60.81000 122.492
60.82000 118.006
60.83000 111.917
60.84000 106.933
60.85000 112.015
60.86000 119.516
60.87000 126.023
60.88000 123.222
60.89000 119.593
60.90000 116.002
60.91000 112.550
60.92000 109.111
60.93000 107.899
60.94000 112.351
60.95000 117.084
60.96000 120.106
60.97000 116.111
60.98000 113.112
60.99000 111.107
61.00000 110.256
61.01000 109.422
61.02000 111.777
61.03000 116.544
61.04000 121.228
61.05000 122.364
61.06000 121.712
61.07000 121.142
61.08000 121.903
61.09000 123.128
61.10000 124.472
61.11000 126.877
61.12000 129.533
61.13000 131.830
61.14000 129.553
61.15000 127.021
61.16000 125.352
61.17000 126.850
61.18000 128.642
61.19000 128.770
61.20000 124.736
61.21000 120.503
61.22000 117.818
61.23000 123.199
61.24000 127.203
61.25000 127.901
61.26000 124.835
61.27000 121.784
61.28000 122.178
61.29000 125.130
61.30000 128.028
61.31000 127.449
61.32000 125.208
61.33000 123.061
61.34000 122.386
61.35000 122.216
61.36000 122.293
61.37000 124.508
61.38000 127.220
61.39000 129.557
61.40000 127.189
61.41000 124.582
61.42000 123.056
61.43000 125.434
61.44000 128.163
61.45000 129.157
61.46000 125.886
61.47000 122.419
61.48000 120.234
61.49000 126.050
61.50000 130.350
61.51000 138.288
61.52000 150.290
61.53000 162.274
61.54000 170.893
61.55000 177.059
61.56000 183.109
61.57000 194.312
61.58000 207.556
61.59000 221.002
61.60000 237.508
61.61000 255.047
61.62000 271.739
61.63000 281.245
61.64000 289.115
61.65000 295.880
61.66000 292.672
61.67000 288.714
61.68000 286.173
61.69000 288.655
61.70000 291.579
61.71000 294.586
61.72000 297.796
61.73000 301.015
61.74000 303.030
61.75000 290.279
61.76000 280.918
61.77000 271.580
61.78000 262.270
61.79000 252.948
61.80000 241.993
61.81000 229.868
61.82000 217.987
61.83000 200.909
61.84000 182.057
61.85000 163.826
61.86000 154.719
61.87000 148.636
61.88000 142.951
61.89000 140.561
61.90000 138.908
61.91000 137.491
61.92000 136.906
61.93000 136.513
61.94000 135.095
61.95000 130.106
61.96000 124.812
61.97000 121.272
61.98000 121.898
61.99000 122.701
62.00000 123.200
62.01000 122.468
62.02000 121.929
62.03000 123.433
62.04000 127.132
62.05000 130.805
62.06000 130.772
62.07000 128.137
62.08000 125.557
62.09000 123.774
62.10000 122.426
62.11000 121.249
62.12000 122.532
62.13000 124.616
62.14000 126.417
62.15000 125.928
62.16000 124.937
62.17000 124.091
62.18000 120.822
62.19000 117.780
62.20000 115.940
62.21000 118.211
62.22000 120.825
62.23000 122.801
62.24000 123.289
62.25000 123.716
62.26000 123.980
62.27000 123.679
62.28000 123.457
62.29000 123.112
62.30000 122.635
62.31000 122.169
62.32000 122.900
62.33000 124.458
62.34000 125.981
62.35000 124.787
62.36000 122.421
62.37000 120.467
62.38000 124.215
62.39000 129.788
62.40000 134.756
62.41000 134.929
62.42000 134.070
62.43000 133.339
62.44000 134.330
62.45000 135.362
62.46000 136.027
62.47000 135.452
62.48000 134.776
62.49000 133.654
62.50000 131.508
62.51000 129.322
62.52000 127.983
62.53000 126.629
62.54000 125.660
62.55000 126.124
62.56000 128.067
62.57000 130.001
62.58000 130.806
62.59000 130.846
62.60000 130.886
62.61000 127.228
62.62000 122.098
62.63000 117.533
62.64000 120.602
62.65000 126.072
62.66000 130.546
62.67000 127.304
62.68000 122.433
62.69000 118.300
62.70000 122.540
62.71000 127.047
62.72000 130.354
62.73000 129.700
62.74000 128.734
62.75000 127.040
62.76000 123.705
62.77000 120.307
62.78000 118.240
62.79000 127.249
62.80000 133.768
62.81000 135.722
62.82000 133.055
62.83000 130.393
62.84000 128.260
62.85000 126.480
62.86000 124.743
62.87000 123.538
62.88000 122.616
62.89000 122.113
62.90000 127.089
62.91000 133.760
62.92000 139.375
62.93000 136.990
62.94000 132.947
62.95000 129.528
62.96000 130.421
62.97000 131.646
62.98000 132.380
62.99000 131.521
63.00000 130.540
63.01000 129.859
63.02000 129.839
63.03000 129.844
63.04000 129.847
63.05000 130.422
63.06000 130.835
63.07000 130.821
63.08000 130.383
63.09000 129.949
63.10000 129.845
63.11000 129.957
63.12000 130.066
63.13000 130.571
63.14000 131.223
63.15000 131.904
63.16000 132.977
63.17000 134.168
63.18000 135.277
63.19000 135.779
63.20000 136.159
63.21000 136.479
63.22000 132.585
63.23000 128.878
63.24000 126.575
63.25000 128.747
63.26000 131.254
63.27000 133.245
63.28000 134.112
63.29000 134.939
63.30000 135.435
63.31000 134.263
63.32000 133.419
63.33000 132.918
63.34000 132.749
63.35000 132.561
63.36000 130.697
63.37000 127.755
63.38000 124.891
63.39000 125.378
63.40000 127.236
63.41000 128.999
63.42000 129.587
63.43000 129.824
63.44000 130.164
63.45000 131.245
63.46000 132.473
63.47000 133.505
63.48000 128.449
63.49000 123.594
63.50000 121.410
63.51000 127.599
63.52000 134.396
63.53000 138.053
63.54000 134.985
63.55000 131.692
63.56000 129.734
63.57000 129.136
63.58000 128.721
63.59000 128.869
63.60000 129.554
63.61000 130.263
63.62000 132.953
63.63000 136.893
63.64000 140.723
63.65000 139.646
63.66000 136.616
63.67000 134.058
63.68000 137.179
63.69000 141.965
63.70000 146.599
63.71000 150.148
63.72000 153.484
63.73000 156.277
63.74000 149.399
63.75000 142.686
63.76000 138.845
63.77000 143.849
63.78000 149.476
63.79000 150.789
63.80000 143.015
63.81000 134.950
63.82000 130.191
63.83000 132.312
63.84000 133.846
63.85000 135.007
63.86000 135.819
63.87000 136.637
63.88000 137.876
63.89000 139.377
63.90000 140.834
63.91000 140.286
63.92000 138.961
63.93000 137.802
63.94000 138.584
63.95000 139.926
63.96000 140.864
63.97000 138.990
63.98000 136.575
63.99000 134.560
64.00000 138.720
64.01000 142.790
64.02000 146.556
64.03000 149.403
64.04000 152.187
64.05000 151.987
64.06000 145.608
64.07000 139.039
64.08000 135.193
64.09000 138.331
64.10000 140.574
64.11000 141.534
64.12000 141.320
64.13000 141.120
64.14000 141.877
64.15000 143.217
64.16000 144.516
64.17000 145.399
64.18000 146.071
64.19000 146.789
64.20000 148.038
64.21000 149.436
64.22000 150.947
64.23000 153.227
64.24000 155.653
64.25000 157.669
64.26000 156.864
64.27000 155.922
64.28000 154.341
64.29000 150.860
64.30000 147.253
64.31000 146.251
64.32000 150.550
64.33000 155.005
64.34000 157.592
64.35000 150.735
64.36000 145.882
64.37000 143.522
64.38000 143.404
64.39000 143.349
64.40000 147.353
64.41000 153.784
64.42000 160.014
64.43000 162.200
64.44000 162.705
64.45000 162.819
64.46000 158.568
64.47000 153.103
64.48000 149.215
64.49000 155.848
64.50000 164.424
64.51000 171.529
64.52000 167.601
64.53000 163.305
64.54000 159.452
64.55000 156.900
64.56000 154.431
64.57000 153.623
64.58000 156.138
64.59000 158.746
64.60000 160.249
64.61000 156.266
64.62000 153.461
64.63000 154.429
64.64000 158.722
64.65000 162.950
64.66000 163.239
64.67000 161.212
64.68000 159.251
64.69000 158.339
64.70000 157.875
64.71000 157.745
64.72000 161.241
64.73000 165.727
64.74000 169.631
64.75000 169.729
64.76000 169.139
64.77000 168.651
64.78000 167.566
64.79000 166.616
64.80000 165.878
64.81000 165.745
64.82000 165.650
64.83000 166.604
64.84000 169.618
64.85000 172.686
64.86000 174.440
64.87000 175.016
64.88000 175.414
64.89000 175.496
64.90000 175.304
64.91000 175.119
64.92000 175.337
64.93000 175.789
64.94000 176.224
64.95000 179.360
64.96000 183.319
64.97000 187.092
64.98000 188.887
64.99000 190.151
65.00000 191.091
65.01000 189.958
65.02000 188.457
65.03000 187.223
65.04000 180.975
65.05000 175.385
65.06000 173.394
65.07000 181.572
65.08000 190.367
65.09000 197.132
65.10000 199.977
65.11000 202.722
65.12000 204.278
65.13000 197.006
65.14000 191.925
65.15000 190.998
65.16000 193.593
65.17000 196.171
65.18000 197.860
65.19000 199.045
65.20000 200.187
65.21000 205.494
65.22000 212.008
65.23000 218.035
65.24000 219.049
65.25000 218.740
65.26000 219.412
65.27000 226.242
65.28000 234.143
65.29000 240.618
65.30000 238.527
65.31000 236.055
65.32000 233.144
65.33000 229.013
65.34000 224.811
65.35000 225.446
65.36000 235.267
65.37000 245.308
65.38000 250.953
65.39000 256.787
65.40000 260.823
65.41000 258.676
65.42000 251.385
65.43000 244.278
65.44000 246.399
65.45000 253.668
65.46000 260.671
65.47000 266.944
65.48000 272.574
65.49000 278.338
65.50000 285.438
65.51000 292.885
65.52000 299.558
65.53000 301.478
65.54000 302.587
65.55000 303.492
65.56000 316.686
65.57000 328.540
65.58000 339.042
65.59000 345.852
65.60000 352.451
65.61000 360.690
65.62000 371.987
65.63000 383.354
65.64000 389.691
65.65000 427.140
65.66000 453.143
65.67000 489.339
65.68000 533.857
65.69000 578.792
65.70000 643.396
65.71000 718.785
65.72000 791.307
65.73000 905.331
65.74000 1026.824
65.75000 1147.875
65.76000 1264.593
65.77000 1380.209
65.78000 1490.486
65.79000 1568.620
65.80000 1641.378
65.81000 1700.564
65.82000 1794.742
65.83000 1874.564
65.84000 1934.085
65.85000 1939.121
65.86000 1941.163
65.87000 1939.345
65.88000 1930.445
65.89000 1921.393
65.90000 1916.390
65.91000 1893.559
65.92000 1877.700
65.93000 1836.245
65.94000 1774.276
65.95000 1711.299
65.96000 1603.161
65.97000 1470.690
65.98000 1343.444
65.99000 1213.230
66.00000 1090.341
66.01000 969.811
66.02000 871.906
66.03000 779.653
66.04000 692.027
66.05000 631.695
66.06000 575.838
66.07000 530.573
66.08000 489.744
66.09000 456.847
66.10000 425.542
66.11000 398.435
66.12000 371.552
66.13000 355.087
66.14000 357.408
66.15000 360.111
66.16000 361.593
66.17000 359.988
66.18000 358.892
66.19000 361.062
66.20000 365.801
66.21000 370.557
66.22000 376.016
66.23000 381.849
66.24000 387.443
66.25000 397.130
66.26000 407.564
66.27000 417.951
66.28000 427.898
66.29000 437.737
66.30000 450.822
66.31000 482.682
66.32000 517.557
66.33000 545.710
66.34000 557.014
66.35000 564.863
66.36000 575.693
66.37000 594.252
66.38000 613.208
66.39000 624.444
66.40000 622.002
66.41000 619.297
66.42000 617.828
66.43000 627.303
66.44000 633.762
66.45000 627.990
66.46000 612.773
66.47000 597.676
66.48000 587.384
66.49000 579.593
66.50000 572.132
66.51000 554.080
66.52000 533.733
66.53000 513.847
66.54000 498.177
66.55000 483.524
66.56000 468.349
66.57000 450.216
66.58000 431.617
66.59000 416.662
66.60000 404.990
66.61000 395.779
66.62000 384.607
66.63000 368.435
66.64000 352.016
66.65000 342.492
66.66000 344.977
66.67000 347.679
66.68000 349.133
66.69000 343.646
66.70000 339.908
66.71000 340.449
66.72000 344.233
66.73000 348.006
66.74000 351.328
66.75000 354.420
66.76000 357.376
66.77000 353.028
66.78000 346.603
66.79000 340.936
66.80000 342.027
66.81000 344.717
66.82000 346.304
66.83000 341.755
66.84000 336.260
66.85000 331.859
66.86000 332.640
66.87000 333.662
66.88000 335.767
66.89000 340.584
66.90000 345.532
66.91000 348.710
66.92000 348.859
66.93000 348.956
66.94000 349.008
66.95000 354.495
66.96000 358.223
66.97000 359.147
66.98000 357.984
66.99000 356.878
67.00000 357.878
67.01000 359.937
67.02000 361.903
67.03000 365.248
67.04000 368.796
67.05000 371.248
67.06000 364.143
67.07000 354.819
67.08000 348.127
67.09000 355.785
67.10000 365.609
67.11000 373.447
67.12000 369.954
67.13000 366.307
67.14000 362.369
67.15000 357.716
67.16000 353.031
67.17000 353.440
67.18000 362.415
67.19000 371.526
67.20000 376.342
67.21000 376.305
67.22000 376.277
67.23000 376.293
67.24000 376.340
67.25000 376.474
67.26000 379.600
67.27000 384.206
67.28000 388.596
67.29000 389.459
67.30000 389.155
67.31000 389.146
67.32000 391.655
67.33000 394.739
67.34000 398.236
67.35000 403.945
67.36000 409.981
67.37000 414.776
67.38000 399.571
67.39000 385.906
67.40000 377.899
67.41000 383.596
67.42000 389.903
67.43000 397.222
67.44000 406.213
67.45000 415.229
67.46000 419.950
67.47000 414.456
67.48000 410.761
67.49000 411.292
67.50000 414.855
67.51000 418.226
67.52000 415.222
67.53000 409.121
67.54000 403.315
67.55000 402.976
67.56000 404.342
67.57000 406.285
67.58000 413.033
67.59000 420.857
67.60000 428.246
67.61000 433.350
67.62000 438.124
67.63000 441.902
67.64000 441.134
67.65000 440.202
67.66000 441.262
67.67000 447.064
67.68000 453.068
67.69000 455.383
67.70000 451.706
67.71000 447.947
67.72000 445.997
67.73000 447.114
67.74000 447.883
67.75000 450.534
67.76000 454.510
67.77000 458.206
67.78000 452.992
67.79000 443.524
67.80000 434.529
67.81000 445.690
67.82000 462.078
67.83000 476.456
67.84000 474.477
67.85000 468.902
67.86000 464.715
67.87000 467.668
67.88000 471.631
67.89000 474.755
67.90000 476.269
67.91000 477.375
67.92000 478.907
67.93000 481.439
67.94000 484.011
67.95000 483.721
67.96000 478.866
67.97000 473.952
67.98000 471.428
67.99000 471.405
68.00000 471.420
68.01000 474.984
68.02000 481.003
68.03000 487.072
68.04000 494.617
68.05000 502.856
68.06000 510.670
68.07000 512.874
68.08000 513.247
68.09000 513.797
68.10000 515.755
68.11000 518.018
68.12000 520.378
68.13000 523.228
68.14000 526.146
68.15000 528.436
68.16000 523.062
68.17000 518.265
68.18000 516.978
68.19000 523.768
68.20000 530.879
68.21000 536.791
68.22000 540.825
68.23000 544.837
68.24000 546.878
68.25000 543.198
68.26000 540.816
68.27000 547.979
68.28000 561.628
68.29000 574.975
68.30000 579.543
68.31000 580.061
68.32000 580.551
68.33000 584.601
68.34000 589.360
68.35000 593.535
68.36000 593.155
68.37000 591.810
68.38000 592.054
68.39000 600.156
68.40000 609.324
68.41000 616.488
68.42000 618.141
68.43000 619.111
68.44000 620.728
68.45000 623.806
68.46000 626.940
68.47000 632.046
68.48000 640.188
68.49000 648.362
68.50000 652.480
68.51000 670.282
68.52000 682.159
68.53000 692.052
68.54000 700.621
68.55000 709.566
68.56000 728.999
68.57000 753.188
68.58000 776.050
68.59000 800.306
68.60000 822.979
68.61000 846.936
68.62000 880.668
68.63000 916.430
68.64000 949.778
68.65000 971.399
68.66000 991.463
68.67000 1007.074
68.68000 1063.336
68.69000 1110.619
68.70000 1154.280
68.71000 1189.892
68.72000 1225.209
68.73000 1262.936
68.74000 1304.305
68.75000 1345.712
68.76000 1391.801
68.77000 1442.547
68.78000 1493.274
68.79000 1542.110
68.80000 1589.707
68.81000 1637.600
68.82000 1693.408
68.83000 1752.745
68.84000 1808.727
68.85000 1880.092
68.86000 1949.799
68.87000 2030.135
68.88000 2189.624
68.89000 2365.251
68.90000 2568.298
68.91000 2902.040
68.92000 3252.757
68.93000 3524.442
68.94000 4857.961
68.95000 5980.252
68.96000 7497.869
68.97000 9879.404
68.98000 12291.303
68.99000 15117.951
69.00000 18560.404
69.01000 22008.535
69.02000 25313.969
69.03000 28480.074
69.04000 31639.125
69.05000 34186.203
69.06000 36339.258
69.07000 38461.691
69.08000 39798.281
69.09000 40790.453
69.10000 41724.816
69.11000 42410.609
69.12000 42969.926
69.13000 43546.660
69.14000 44250.297
69.15000 44979.320
69.16000 45674.055
69.17000 46208.395
69.18000 46722.355
69.19000 47118.754
69.20000 46187.039
69.21000 45372.137
69.22000 43990.996
69.23000 41393.469
69.24000 38754.977
69.25000 36115.434
69.26000 33474.348
69.27000 30833.418
69.28000 28595.613
69.29000 26743.473
69.30000 24899.021
69.31000 23671.873
69.32000 22835.174
69.33000 22013.740
69.34000 21568.930
69.35000 21286.387
69.36000 21020.793
69.37000 20521.736
69.38000 20003.418
69.39000 19403.664
69.40000 18223.139
69.41000 16928.637
69.42000 15535.821
69.43000 13691.655
69.44000 11791.423
69.45000 10332.357
69.46000 8424.485
69.47000 6891.208
69.48000 5546.335
69.49000 4599.302
69.50000 3665.093
69.51000 2931.181
69.52000 2484.123
69.53000 2039.344
69.54000 1740.080
69.55000 1577.242
69.56000 1415.041
69.57000 1300.248
69.58000 1214.915
69.59000 1130.792
69.60000 1075.400
69.61000 1032.176
69.62000 991.622
69.63000 953.368
69.64000 919.116
69.65000 885.302
69.66000 854.541
69.67000 824.368
69.68000 796.919
69.69000 781.749
69.70000 768.070
69.71000 757.614
69.72000 741.860
69.73000 729.149
69.74000 712.698
69.75000 688.487
69.76000 664.037
69.77000 645.417
69.78000 634.998
69.79000 624.639
69.80000 618.306
69.81000 615.673
69.82000 612.961
69.83000 604.694
69.84000 593.036
69.85000 581.632
69.86000 576.023
69.87000 572.826
69.88000 569.833
69.89000 565.391
69.90000 560.978
69.91000 556.028
69.92000 547.410
69.93000 538.098
69.94000 528.676
69.95000 518.764
69.96000 508.794
69.97000 501.207
69.98000 502.047
69.99000 503.150
70.00000 505.323
