20.00000 492.237
20.01000 492.984
20.02000 493.837
20.03000 492.732
20.04000 483.904
20.05000 474.287
20.06000 467.186
20.07000 470.045
20.08000 472.683
20.09000 478.327
20.10000 489.471
20.11000 500.733
20.12000 503.696
20.13000 496.464
20.14000 489.219
20.15000 487.065
20.16000 488.971
20.17000 490.759
20.18000 487.382
20.19000 481.229
20.20000 475.601
20.21000 479.269
20.22000 486.351
20.23000 492.885
20.24000 493.093
20.25000 491.866
20.26000 490.956
20.27000 491.904
20.28000 493.156
20.29000 491.624
20.30000 479.316
20.31000 465.932
20.32000 456.099
20.33000 464.639
20.34000 471.993
20.35000 476.289
20.36000 475.087
20.37000 473.774
20.38000 473.868
20.39000 475.657
20.40000 477.446
20.41000 478.202
20.42000 478.149
20.43000 478.145
20.44000 480.183
20.45000 483.300
20.46000 486.097
20.47000 483.429
20.48000 478.788
20.49000 474.515
20.50000 475.014
20.51000 476.504
20.52000 477.522
20.53000 475.817
20.54000 473.676
20.55000 470.351
20.56000 462.521
20.57000 454.252
20.58000 448.207
20.59000 462.768
20.60000 474.812
20.61000 480.187
20.62000 473.780
20.63000 467.148
20.64000 466.763
20.65000 473.767
20.66000 480.766
20.67000 478.953
20.68000 470.408
20.69000 462.004
20.70000 459.217
20.71000 459.346
20.72000 459.672
20.73000 463.263
20.74000 468.012
20.75000 472.375
20.76000 472.833
20.77000 472.404
20.78000 471.834
20.79000 470.466
20.80000 468.972
20.81000 466.783
20.82000 461.997
20.83000 456.964
20.84000 453.303
20.85000 456.632
20.86000 459.459
20.87000 463.020
20.88000 467.856
20.89000 472.715
20.90000 472.194
20.91000 465.433
20.92000 458.682
20.93000 461.574
20.94000 471.683
20.95000 481.666
20.96000 486.836
20.97000 489.552
20.98000 491.937
20.99000 488.997
21.00000 484.199
21.01000 479.801
21.02000 475.501
21.03000 471.692
21.04000 468.741
21.05000 470.548
21.06000 473.085
21.07000 474.368
21.08000 471.050
21.09000 467.306
21.10000 464.597
21.11000 469.111
21.12000 472.839
21.13000 475.834
21.14000 477.577
21.15000 479.299
21.16000 478.080
21.17000 473.513
21.18000 468.957
21.19000 466.022
21.20000 464.304
21.21000 462.855
21.22000 471.169
21.23000 484.377
21.24000 496.604
21.25000 493.524
21.26000 485.196
21.27000 477.580
21.28000 470.794
21.29000 464.932
21.30000 459.755
21.31000 458.299
21.32000 457.402
21.33000 458.189
21.34000 465.047
21.35000 472.452
21.36000 477.782
21.37000 468.919
21.38000 461.633
21.39000 454.859
21.40000 448.944
21.41000 443.043
21.42000 439.051
21.43000 437.191
21.44000 435.338
21.45000 443.278
21.46000 458.222
21.47000 472.742
21.48000 472.685
21.49000 465.442
21.50000 459.213
21.51000 468.301
21.52000 482.552
21.53000 495.554
21.54000 488.604
21.55000 478.415
21.56000 470.140
21.57000 472.063
21.58000 475.489
21.59000 477.194
21.60000 472.806
21.61000 467.882
21.62000 464.357
21.63000 470.065
21.64000 474.737
21.65000 475.752
21.66000 470.743
21.67000 465.645
21.68000 467.267
21.69000 476.247
21.70000 485.195
21.71000 490.185
21.72000 492.322
21.73000 494.099
21.74000 483.992
21.75000 468.130
21.76000 453.741
21.77000 460.984
21.78000 475.392
21.79000 488.507
21.80000 487.704
21.81000 484.243
21.82000 482.409
21.83000 489.071
21.84000 496.960
21.85000 504.153
21.86000 508.927
21.87000 513.494
21.88000 516.747
21.89000 502.785
21.90000 491.587
21.91000 486.408
21.92000 490.969
21.93000 495.664
21.94000 499.959
21.95000 503.823
21.96000 507.670
21.97000 509.271
21.98000 509.293
21.99000 509.589
22.00000 518.498
22.01000 531.508
22.02000 543.628
22.03000 543.056
22.04000 538.352
22.05000 534.080
22.06000 530.841
22.07000 528.179
22.08000 525.512
22.09000 522.819
22.10000 520.123
22.11000 519.637
22.12000 526.712
22.13000 534.416
22.14000 539.874
22.15000 527.840
22.16000 518.147
22.17000 510.883
22.18000 507.482
22.19000 504.129
22.20000 502.983
22.21000 504.158
22.22000 505.327
22.23000 499.342
22.24000 488.548
22.25000 478.093
22.26000 477.850
22.27000 482.386
22.28000 486.614
22.29000 486.580
22.30000 485.183
22.31000 483.917
22.32000 476.391
22.33000 468.570
22.34000 463.271
22.35000 470.650
22.36000 479.781
22.37000 486.056
22.38000 482.731
22.39000 478.627
22.40000 475.736
22.41000 491.125
22.42000 503.341
22.43000 502.549
22.44000 481.439
22.45000 460.090
22.46000 456.612
22.47000 471.577
22.48000 486.464
22.49000 481.367
22.50000 462.968
22.51000 445.073
22.52000 441.729
22.53000 445.079
22.54000 448.262
22.55000 449.194
22.56000 449.418
22.57000 449.621
22.58000 452.686
22.59000 455.913
22.60000 456.759
22.61000 445.863
22.62000 433.378
22.63000 425.291
22.64000 431.723
22.65000 439.301
22.66000 444.611
22.67000 443.059
22.68000 441.688
22.69000 441.257
22.70000 442.267
22.71000 443.293
22.72000 441.756
22.73000 437.627
22.74000 433.523
22.75000 438.369
22.76000 449.022
22.77000 459.343
22.78000 460.503
22.79000 457.521
22.80000 454.830
22.81000 455.965
22.82000 458.282
22.83000 460.371
22.84000 456.653
22.85000 452.333
22.86000 448.735
22.87000 448.631
22.88000 448.990
22.89000 446.785
22.90000 436.263
22.91000 425.103
22.92000 417.327
22.93000 425.469
22.94000 432.049
22.95000 438.860
22.96000 446.020
22.97000 453.183
22.98000 455.497
22.99000 453.005
23.00000 450.529
23.01000 449.793
23.02000 450.188
23.03000 450.536
23.04000 449.655
23.05000 448.226
23.06000 447.061
23.07000 449.256
23.08000 452.470
23.09000 455.361
23.10000 455.135
23.11000 454.383
23.12000 452.582
23.13000 445.796
23.14000 438.365
23.15000 434.733
23.16000 443.214
23.17000 452.599
23.18000 459.101
23.19000 448.392
23.20000 439.880
23.21000 435.989
23.22000 438.939
23.23000 441.952
23.24000 442.703
23.25000 441.254
23.26000 439.816
23.27000 441.013
23.28000 443.855
23.29000 446.657
23.30000 448.456
23.31000 449.815
23.32000 450.901
23.33000 448.610
23.34000 445.311
23.35000 442.352
23.36000 440.861
23.37000 439.814
23.38000 438.510
23.39000 436.006
23.40000 433.349
23.41000 431.341
23.42000 431.362
23.43000 431.530
23.44000 431.646
23.45000 438.232
23.46000 443.339
23.47000 445.727
23.48000 444.162
23.49000 442.564
23.50000 444.597
23.51000 450.088
23.52000 455.537
23.53000 458.684
23.54000 460.351
23.55000 461.696
23.56000 455.164
23.57000 445.248
23.58000 436.288
23.59000 438.860
23.60000 444.812
23.61000 450.137
23.62000 446.258
23.63000 441.303
23.64000 438.811
23.65000 447.584
23.66000 457.751
23.67000 465.221
23.68000 464.384
23.69000 462.961
23.70000 461.987
23.71000 463.495
23.72000 464.684
23.73000 464.481
23.74000 462.292
23.75000 460.090
23.76000 467.069
23.77000 482.623
23.78000 498.047
23.79000 501.361
23.80000 497.249
23.81000 493.262
23.82000 492.246
23.83000 492.483
23.84000 493.215
23.85000 499.752
23.86000 507.959
23.87000 515.284
23.88000 514.837
23.89000 513.150
23.90000 511.928
23.91000 512.796
23.92000 513.916
23.93000 516.630
23.94000 524.167
23.95000 532.035
23.96000 537.391
23.97000 536.565
23.98000 535.806
23.99000 531.791
24.00000 523.212
24.01000 514.606
24.02000 516.600
24.03000 528.302
24.04000 539.900
24.05000 540.219
24.06000 533.802
24.07000 527.278
24.08000 518.334
24.09000 508.386
24.10000 499.028
24.11000 496.411
24.12000 495.703
24.13000 495.072
24.14000 495.427
24.15000 495.897
24.16000 495.186
24.17000 489.273
24.18000 482.744
24.19000 476.245
24.20000 469.833
24.21000 463.426
24.22000 459.091
24.23000 471.641
24.24000 481.360
24.25000 481.744
24.26000 469.278
24.27000 456.735
24.28000 447.966
24.29000 442.585
24.30000 437.257
24.31000 437.863
24.32000 441.932
24.33000 445.803
24.34000 445.350
24.35000 443.132
24.36000 440.973
24.37000 439.478
24.38000 438.168
24.39000 437.006
24.40000 439.080
24.41000 441.396
24.42000 442.871
24.43000 440.710
24.44000 438.129
24.45000 435.003
24.46000 430.285
24.47000 425.465
24.48000 422.222
24.49000 425.053
24.50000 427.283
24.51000 425.011
24.52000 416.652
24.53000 408.269
24.54000 408.606
24.55000 416.626
24.56000 424.563
24.57000 428.023
24.58000 428.833
24.59000 429.476
24.60000 426.569
24.61000 422.238
24.62000 418.058
24.63000 415.516
24.64000 413.421
24.65000 411.567
24.66000 418.282
24.67000 425.431
24.68000 428.609
24.69000 414.909
24.70000 399.305
24.71000 389.540
24.72000 396.559
24.73000 404.626
24.74000 410.020
24.75000 401.386
24.76000 394.710
24.77000 392.432
24.78000 395.991
24.79000 399.581
24.80000 404.993
24.81000 411.979
24.82000 418.887
24.83000 414.784
24.84000 404.566
24.85000 395.019
24.86000 399.157
24.87000 408.690
24.88000 417.160
24.89000 414.377
24.90000 408.574
24.91000 403.451
24.92000 402.594
24.93000 402.508
24.94000 402.648
24.95000 403.731
24.96000 404.919
24.97000 406.989
24.98000 411.555
24.99000 416.271
25.00000 419.405
25.01000 416.758
25.02000 414.692
25.03000 411.014
25.04000 405.235
25.05000 399.450
25.06000 395.274
25.07000 392.463
25.08000 389.685
25.09000 389.709
25.10000 391.283
25.11000 393.185
25.12000 401.556
25.13000 412.435
25.14000 421.762
25.15000 415.077
25.16000 404.171
25.17000 394.570
25.18000 397.125
25.19000 401.147
25.20000 405.248
25.21000 409.675
25.22000 414.136
25.23000 415.312
25.24000 407.365
25.25000 398.883
25.26000 393.282
25.27000 397.381
25.28000 400.576
25.29000 403.463
25.30000 405.958
25.31000 408.445
25.32000 408.250
25.33000 405.824
25.34000 403.429
25.35000 406.351
25.36000 412.084
25.37000 417.472
25.38000 416.306
25.39000 412.642
25.40000 409.242
25.41000 408.504
25.42000 408.456
25.43000 408.413
25.44000 397.699
25.45000 386.929
25.46000 379.819
25.47000 387.444
25.48000 396.618
25.49000 404.552
25.50000 409.102
25.51000 413.459
25.52000 416.318
25.53000 413.252
25.54000 410.898
25.55000 407.053
25.56000 401.338
25.57000 395.619
25.58000 390.854
25.59000 386.868
25.60000 382.935
25.61000 384.331
25.62000 388.530
25.63000 392.565
25.64000 393.591
25.65000 393.490
25.66000 393.582
25.67000 395.566
25.68000 398.032
25.69000 400.190
25.70000 401.360
25.71000 402.220
25.72000 401.936
25.73000 397.122
25.74000 391.844
25.75000 386.288
25.76000 379.983
25.77000 373.638
25.78000 369.501
25.79000 393.209
25.80000 411.043
25.81000 418.392
25.82000 412.826
25.83000 407.223
25.84000 400.605
25.85000 393.172
25.86000 385.847
25.87000 392.090
25.88000 405.249
25.89000 417.317
25.90000 409.969
25.91000 395.470
25.92000 382.374
25.93000 382.704
25.94000 386.388
25.95000 389.603
25.96000 398.063
25.97000 406.037
25.98000 412.511
25.99000 413.161
26.00000 413.229
26.01000 410.933
26.02000 402.404
26.03000 393.543
26.04000 387.804
26.05000 383.624
26.06000 380.588
26.07000 384.468
26.08000 396.706
26.09000 408.911
26.10000 406.243
26.11000 391.881
26.12000 377.737
26.13000 378.772
26.14000 387.566
26.15000 395.594
26.16000 390.424
26.17000 380.477
26.18000 371.662
26.19000 373.435
26.20000 377.806
26.21000 381.609
26.22000 382.580
26.23000 383.021
26.24000 383.527
26.25000 384.281
26.26000 385.059
26.27000 385.418
26.28000 384.689
26.29000 383.903
26.30000 383.398
26.31000 381.877
26.32000 380.753
26.33000 382.564
26.34000 387.855
26.35000 393.149
26.36000 397.743
26.37000 401.796
26.38000 405.784
26.39000 402.789
26.40000 396.372
26.41000 390.064
26.42000 385.567
26.43000 381.715
26.44000 378.703
26.45000 383.363
26.46000 389.871
26.47000 395.517
26.48000 388.950
26.49000 381.720
26.50000 376.980
26.51000 381.570
26.52000 387.049
26.53000 390.721
26.54000 389.790
26.55000 388.629
26.56000 387.888
26.57000 387.993
26.58000 388.081
26.59000 382.454
26.60000 370.176
26.61000 357.953
26.62000 359.764
26.63000 372.207
26.64000 384.438
26.65000 389.168
26.66000 390.033
26.67000 390.840
26.68000 390.714
26.69000 390.260
26.70000 389.175
26.71000 382.453
26.72000 374.398
26.73000 367.429
26.74000 373.743
26.75000 380.849
26.76000 386.750
26.77000 388.213
26.78000 389.264
26.79000 388.289
26.80000 382.241
26.81000 375.949
26.82000 371.955
26.83000 373.138
26.84000 374.061
26.85000 374.888
26.86000 375.606
26.87000 376.338
26.88000 379.770
26.89000 385.211
26.90000 390.555
26.91000 387.702
26.92000 380.973
26.93000 374.729
26.94000 376.109
26.95000 380.109
26.96000 383.946
26.97000 386.360
26.98000 388.445
26.99000 390.242
27.00000 387.044
27.01000 383.692
27.02000 380.405
27.03000 377.349
27.04000 374.314
27.05000 373.208
27.06000 376.852
27.07000 380.716
27.08000 383.152
27.09000 371.303
27.10000 362.558
27.11000 359.830
27.12000 363.837
27.13000 367.848
27.14000 371.585
27.15000 375.122
27.16000 378.593
27.17000 385.535
27.18000 393.879
27.19000 401.248
27.20000 393.803
27.21000 381.352
27.22000 370.139
27.23000 369.468
27.24000 371.201
27.25000 372.691
27.26000 370.697
27.27000 368.575
27.28000 365.477
27.29000 358.917
27.30000 352.051
27.31000 350.094
27.32000 360.022
27.33000 370.479
27.34000 377.028
27.35000 381.969
27.36000 385.520
27.37000 385.007
27.38000 380.032
27.39000 375.082
27.40000 374.159
27.41000 376.124
27.42000 378.050
27.43000 382.026
27.44000 386.810
27.45000 391.178
27.46000 389.414
27.47000 385.614
27.48000 382.096
27.49000 380.923
27.50000 380.276
27.51000 379.722
27.52000 369.670
27.53000 360.021
27.54000 354.520
27.55000 363.492
27.56000 373.707
27.57000 380.283
27.58000 378.199
27.59000 375.744
27.60000 374.217
27.61000 376.929
27.62000 378.924
27.63000 378.342
27.64000 374.984
27.65000 371.635
27.66000 369.681
27.67000 368.709
27.68000 367.757
27.69000 362.208
27.70000 354.768
27.71000 348.178
27.72000 353.757
27.73000 363.307
27.74000 371.819
27.75000 371.883
27.76000 370.091
27.77000 368.561
27.78000 362.583
27.79000 357.016
27.80000 353.648
27.81000 357.818
27.82000 362.618
27.83000 367.168
27.84000 371.132
27.85000 375.073
27.86000 377.506
27.87000 371.457
27.88000 367.034
27.89000 367.478
27.90000 373.063
27.91000 378.587
27.92000 376.669
27.93000 369.605
27.94000 362.697
27.95000 365.089
27.96000 371.568
27.97000 378.284
27.98000 388.285
27.99000 399.339
28.00000 408.125
28.01000 398.874
28.02000 385.734
28.03000 374.542
28.04000 376.610
28.05000 379.893
28.06000 380.856
28.07000 374.006
28.08000 366.520
28.09000 358.532
28.10000 349.390
28.11000 340.202
28.12000 334.570
28.13000 353.286
28.14000 366.900
28.15000 371.872
28.16000 367.899
28.17000 363.948
28.18000 362.455
28.19000 362.633
28.20000 362.806
28.21000 365.520
28.22000 369.240
28.23000 372.556
28.24000 370.406
28.25000 366.534
28.26000 362.821
28.27000 360.344
28.28000 358.129
28.29000 356.248
28.30000 355.484
28.31000 354.971
28.32000 355.104
28.33000 357.379
28.34000 359.822
28.35000 363.002
28.36000 367.847
28.37000 372.754
28.38000 375.741
28.39000 360.663
28.40000 349.751
28.41000 349.732
28.42000 360.767
28.43000 371.718
28.44000 374.021
28.45000 370.556
28.46000 367.175
28.47000 369.148
28.48000 373.355
28.49000 376.862
28.50000 371.164
28.51000 362.614
28.52000 354.543
28.53000 350.114
28.54000 346.443
28.55000 343.336
28.56000 345.263
28.57000 347.434
28.58000 350.163
28.59000 354.703
28.60000 359.383
28.61000 362.815
28.62000 363.476
28.63000 364.036
28.64000 364.374
28.65000 358.427
28.66000 354.146
28.67000 351.563
28.68000 350.668
28.69000 349.841
28.70000 355.283
28.71000 364.833
28.72000 374.142
28.73000 372.901
28.74000 367.230
28.75000 361.897
28.76000 360.884
28.77000 361.187
28.78000 361.433
28.79000 361.266
28.80000 361.013
28.81000 360.800
28.82000 358.714
28.83000 356.768
28.84000 355.100
28.85000 354.321
28.86000 353.609
28.87000 354.497
28.88000 358.882
28.89000 363.389
28.90000 366.092
28.91000 363.121
28.92000 360.972
28.93000 359.275
28.94000 358.018
28.95000 356.785
28.96000 357.650
28.97000 359.865
28.98000 362.022
28.99000 361.855
29.00000 360.727
29.01000 359.406
29.02000 355.690
29.03000 351.257
29.04000 347.368
29.05000 347.436
29.06000 348.297
29.07000 349.020
29.08000 352.759
29.09000 356.194
29.10000 357.628
29.11000 352.773
29.12000 347.460
29.13000 345.710
29.14000 351.610
29.15000 357.767
29.16000 361.431
29.17000 355.732
29.18000 351.639
29.19000 353.067
29.20000 359.771
29.21000 366.374
29.22000 364.958
29.23000 358.471
29.24000 352.163
29.25000 353.953
29.26000 358.973
29.27000 363.448
29.28000 361.318
29.29000 357.249
29.30000 353.161
29.31000 348.947
29.32000 344.709
29.33000 341.158
29.34000 345.132
29.35000 349.213
29.36000 351.229
29.37000 346.867
29.38000 342.054
29.39000 342.778
29.40000 355.192
29.41000 367.983
29.42000 375.537
29.43000 363.056
29.44000 354.132
29.45000 348.945
29.46000 347.258
29.47000 345.647
29.48000 349.738
29.49000 357.369
29.50000 364.780
29.51000 365.084
29.52000 362.516
29.53000 360.045
29.54000 358.732
29.55000 357.753
29.56000 356.886
29.57000 356.795
29.58000 356.853
29.59000 356.902
29.60000 353.685
29.61000 350.688
29.62000 349.538
29.63000 353.990
29.64000 358.828
29.65000 362.599
29.66000 364.161
29.67000 365.654
29.68000 366.529
29.69000 359.089
29.70000 353.810
29.71000 354.599
29.72000 360.961
29.73000 367.269
29.74000 369.831
29.75000 370.107
29.76000 370.375
29.77000 369.519
29.78000 368.264
29.79000 367.594
29.80000 373.635
29.81000 381.581
29.82000 388.092
29.83000 384.800
29.84000 379.658
29.85000 375.381
29.86000 384.531
29.87000 393.423
29.88000 397.402
29.89000 386.730
29.90000 375.080
29.91000 368.937
29.92000 374.027
29.93000 379.446
29.94000 382.597
29.95000 373.823
29.96000 367.616
29.97000 371.315
29.98000 383.938
29.99000 396.437
30.00000 400.902
30.01000 400.550
30.02000 400.209
30.03000 396.147
30.04000 390.863
30.05000 385.895
30.06000 384.459
30.07000 384.007
30.08000 383.114
30.09000 379.273
30.10000 374.887
30.11000 371.252
30.12000 376.175
30.13000 381.061
30.14000 385.411
30.15000 388.191
30.16000 390.870
30.17000 393.292
30.18000 395.201
30.19000 397.095
30.20000 398.187
30.21000 391.120
30.22000 386.143
30.23000 385.251
30.24000 387.968
30.25000 390.642
30.26000 390.724
30.27000 389.279
30.28000 387.881
30.29000 381.368
30.30000 373.273
30.31000 365.710
30.32000 363.952
30.33000 363.784
30.34000 365.151
30.35000 376.574
30.36000 389.822
30.37000 400.764
30.38000 386.351
30.39000 372.107
30.40000 361.552
30.41000 361.623
30.42000 362.360
30.43000 361.446
30.44000 357.279
30.45000 353.024
30.46000 350.590
30.47000 354.383
30.48000 357.053
30.49000 360.680
30.50000 365.134
30.51000 369.553
30.52000 371.920
30.53000 373.100
30.54000 374.240
30.55000 373.993
30.56000 373.243
30.57000 372.553
30.58000 372.498
30.59000 372.615
30.60000 373.328
30.61000 377.873
30.62000 383.099
30.63000 387.400
30.64000 374.812
30.65000 362.926
30.66000 357.872
30.67000 372.169
30.68000 387.642
30.69000 394.916
30.70000 386.313
30.71000 377.305
30.72000 372.193
30.73000 383.704
30.74000 391.760
30.75000 394.011
30.76000 391.327
30.77000 388.710
30.78000 389.653
30.79000 392.622
30.80000 395.486
30.81000 398.305
30.82000 400.942
30.83000 403.694
30.84000 407.647
30.85000 411.918
30.86000 415.249
30.87000 412.672
30.88000 409.064
30.89000 406.106
30.90000 417.855
30.91000 428.797
30.92000 437.314
30.93000 439.079
30.94000 440.447
30.95000 442.127
30.96000 444.399
30.97000 446.686
30.98000 447.974
30.99000 452.687
31.00000 455.985
31.01000 468.102
31.02000 487.573
31.03000 506.780
31.04000 512.592
31.05000 510.917
31.06000 509.302
31.07000 527.648
31.08000 552.048
31.09000 575.650
31.10000 591.189
31.11000 604.635
31.12000 618.656
31.13000 636.221
31.14000 654.393
31.15000 669.237
31.16000 706.104
31.17000 738.182
31.18000 772.073
31.19000 810.928
31.20000 850.065
31.21000 880.604
31.22000 895.056
31.23000 909.141
31.24000 917.000
31.25000 981.012
31.26000 1025.397
31.27000 1051.220
31.28000 1061.849
31.29000 1072.693
31.30000 1093.827
31.31000 1120.612
31.32000 1146.384
31.33000 1172.160
31.34000 1196.336
31.35000 1218.894
31.36000 1225.525
31.37000 1228.095
31.38000 1230.238
31.39000 1229.806
31.40000 1228.942
31.41000 1228.238
31.42000 1219.599
31.43000 1211.877
31.44000 1201.177
31.45000 1182.467
31.46000 1163.315
31.47000 1137.555
31.48000 1099.644
31.49000 1061.470
31.50000 1040.349
31.51000 993.092
31.52000 960.444
31.53000 931.875
31.54000 906.582
31.55000 881.091
31.56000 846.690
31.57000 807.477
31.58000 769.803
31.59000 739.452
31.60000 713.570
31.61000 687.421
31.62000 658.703
31.63000 629.342
31.64000 602.424
31.65000 589.956
31.66000 579.861
31.67000 571.678
31.68000 551.401
31.69000 533.890
31.70000 516.261
31.71000 498.321
31.72000 480.364
31.73000 466.214
31.74000 458.941
31.75000 451.809
31.76000 447.897
31.77000 437.125
31.78000 429.700
31.79000 421.195
31.80000 411.839
31.81000 402.565
31.82000 396.814
31.83000 392.933
31.84000 389.210
31.85000 387.449
31.86000 386.467
31.87000 384.605
31.88000 374.471
31.89000 362.303
31.90000 353.250
31.91000 362.261
31.92000 374.179
31.93000 383.805
31.94000 376.830
31.95000 369.836
31.96000 365.151
31.97000 366.462
31.98000 368.083
31.99000 369.831
32.00000 371.807
32.01000 373.787
32.02000 374.864
32.03000 361.292
32.04000 351.987
32.05000 348.197
32.06000 348.673
32.07000 349.128
32.08000 348.685
32.09000 347.774
32.10000 346.901
32.11000 343.321
32.12000 339.081
32.13000 335.674
32.14000 339.892
32.15000 345.952
32.16000 350.815
32.17000 348.878
32.18000 345.869
32.19000 343.448
32.20000 346.373
32.21000 349.160
32.22000 351.192
32.23000 351.295
32.24000 351.301
32.25000 348.332
32.26000 340.171
32.27000 331.916
32.28000 327.467
32.29000 335.121
32.30000 340.353
32.31000 342.753
32.32000 342.999
32.33000 343.225
32.34000 342.621
32.35000 341.593
32.36000 340.609
32.37000 337.965
32.38000 334.961
32.39000 332.588
32.40000 335.857
32.41000 340.464
32.42000 344.025
32.43000 341.755
32.44000 338.583
32.45000 336.042
32.46000 333.328
32.47000 331.119
32.48000 327.729
32.49000 321.372
32.50000 314.872
32.51000 312.436
32.52000 316.967
32.53000 321.617
32.54000 324.100
32.55000 318.639
32.56000 314.933
32.57000 315.683
32.58000 319.756
32.59000 323.780
32.60000 326.034
32.61000 327.395
32.62000 328.695
32.63000 328.249
32.64000 327.276
32.65000 325.871
32.66000 320.699
32.67000 314.649
32.68000 309.789
32.69000 311.428
32.70000 314.051
32.71000 316.144
32.72000 312.640
32.73000 309.400
32.74000 307.003
32.75000 306.684
32.76000 306.462
32.77000 306.788
32.78000 308.040
32.79000 309.307
32.80000 309.977
32.81000 311.619
32.82000 312.740
32.83000 314.764
32.84000 317.447
32.85000 320.005
32.86000 318.152
32.87000 314.116
32.88000 310.267
32.89000 314.195
32.90000 320.280
32.91000 325.672
32.92000 325.136
32.93000 323.245
32.94000 321.767
32.95000 322.496
32.96000 323.553
32.97000 324.393
32.98000 324.034
32.99000 323.660
33.00000 322.218
33.01000 318.188
33.02000 314.043
33.03000 314.139
33.04000 321.257
33.05000 328.482
33.06000 332.269
33.07000 322.177
33.08000 315.350
33.09000 310.722
33.10000 307.674
33.11000 304.780
33.12000 307.021
33.13000 311.763
33.14000 316.275
33.15000 320.024
33.16000 323.259
33.17000 325.813
33.18000 322.679
33.19000 318.270
33.20000 314.209
33.21000 311.977
33.22000 310.011
33.23000 308.455
33.24000 310.192
33.25000 311.816
33.26000 312.628
33.27000 311.505
33.28000 310.298
33.29000 309.648
33.30000 309.901
33.31000 310.167
33.32000 310.305
33.33000 306.034
33.34000 303.157
33.35000 301.356
33.36000 300.313
33.37000 299.398
33.38000 302.523
33.39000 307.582
33.40000 312.388
33.41000 307.785
33.42000 300.687
33.43000 294.645
33.44000 297.213
33.45000 301.679
33.46000 304.148
33.47000 296.318
33.48000 287.027
33.49000 279.701
33.50000 283.388
33.51000 287.086
33.52000 290.770
33.53000 294.419
33.54000 298.067
33.55000 299.219
33.56000 296.382
33.57000 293.492
33.58000 292.006
33.59000 312.254
33.60000 325.770
33.61000 325.026
33.62000 314.398
33.63000 304.031
33.64000 301.646
33.65000 303.015
33.66000 304.314
33.67000 306.035
33.68000 307.746
33.69000 308.849
33.70000 305.087
33.71000 300.275
33.72000 296.448
33.73000 297.608
33.74000 299.462
33.75000 300.918
33.76000 301.491
33.77000 301.893
33.78000 304.933
33.79000 314.056
33.80000 323.422
33.81000 327.097
33.82000 321.839
33.83000 316.473
33.84000 313.739
33.85000 308.047
33.86000 304.308
33.87000 309.473
33.88000 320.702
33.89000 331.559
33.90000 331.534
33.91000 326.477
33.92000 321.689
33.93000 317.113
33.94000 312.964
33.95000 309.820
33.96000 314.519
33.97000 320.881
33.98000 325.747
33.99000 323.184
34.00000 319.611
34.01000 316.817
34.02000 312.694
34.03000 309.319
34.04000 310.288
34.05000 321.100
34.06000 332.290
34.07000 337.685
34.08000 334.140
34.09000 330.496
34.10000 328.658
34.11000 333.237
34.12000 336.271
34.13000 336.375
34.14000 334.519
34.15000 332.870
34.16000 336.992
34.17000 343.737
34.18000 350.113
34.19000 346.939
34.20000 341.298
34.21000 336.164
34.22000 334.902
34.23000 334.446
34.24000 334.418
34.25000 336.471
34.26000 338.801
34.27000 340.615
34.28000 348.442
34.29000 355.045
34.30000 358.958
34.31000 356.879
34.32000 354.580
34.33000 350.427
34.34000 343.464
34.35000 336.473
34.36000 336.244
34.37000 342.757
34.38000 349.230
34.39000 351.898
34.40000 352.065
34.41000 352.260
34.42000 353.181
34.43000 354.426
34.44000 355.600
34.45000 358.429
34.46000 361.486
34.47000 363.032
34.48000 353.299
34.49000 341.261
34.50000 332.373
34.51000 338.535
34.52000 346.657
34.53000 352.953
34.54000 343.932
34.55000 335.850
34.56000 332.124
34.57000 337.939
34.58000 344.090
34.59000 344.732
34.60000 337.177
34.61000 329.545
34.62000 326.272
34.63000 327.261
34.64000 328.240
34.65000 328.381
34.66000 327.982
34.67000 327.550
34.68000 326.287
34.69000 324.660
34.70000 323.127
34.71000 318.337
34.72000 313.060
34.73000 308.139
34.74000 305.820
34.75000 304.022
34.76000 303.659
34.77000 310.018
34.78000 317.235
34.79000 322.804
34.80000 318.387
34.81000 314.308
34.82000 309.025
34.83000 301.148
34.84000 293.183
34.85000 286.334
34.86000 281.116
34.87000 275.913
34.88000 275.421
34.89000 279.443
34.90000 283.427
34.91000 284.281
34.92000 283.152
34.93000 281.921
34.94000 278.185
34.95000 273.367
34.96000 268.837
34.97000 275.590
34.98000 284.794
34.99000 292.392
35.00000 288.513
35.01000 282.375
35.02000 277.204
35.03000 276.483
35.04000 276.316
35.05000 276.188
35.06000 274.557
35.07000 273.184
35.08000 270.059
35.09000 263.229
35.10000 256.280
35.11000 255.249
35.12000 262.712
35.13000 270.241
35.14000 277.046
35.15000 283.169
35.16000 289.209
35.17000 289.043
35.18000 285.012
35.19000 281.142
35.20000 281.129
35.21000 282.753
35.22000 284.277
35.23000 285.904
35.24000 287.414
35.25000 287.953
35.26000 281.699
35.27000 274.134
35.28000 268.027
35.29000 268.508
35.30000 269.792
35.31000 270.774
35.32000 273.594
35.33000 275.919
35.34000 275.986
35.35000 271.356
35.36000 266.580
35.37000 264.993
35.38000 267.901
35.39000 270.840
35.40000 270.214
35.41000 266.305
35.42000 262.429
35.43000 260.747
35.44000 260.410
35.45000 260.054
35.46000 259.281
35.47000 258.334
35.48000 257.446
35.49000 261.290
35.50000 266.011
35.51000 270.262
35.52000 271.295
35.53000 271.719
35.54000 272.513
35.55000 274.947
35.56000 277.577
35.57000 279.579
35.58000 275.607
35.59000 272.167
35.60000 268.643
35.61000 264.946
35.62000 261.244
35.63000 261.468
35.64000 267.126
35.65000 272.816
35.66000 270.670
35.67000 261.453
35.68000 252.352
35.69000 250.824
35.70000 253.850
35.71000 256.928
35.72000 261.172
35.73000 265.895
35.74000 270.310
35.75000 267.385
35.76000 262.868
35.77000 258.910
35.78000 258.707
35.79000 259.201
35.80000 259.251
35.81000 257.369
35.82000 255.263
35.83000 253.666
35.84000 255.518
35.85000 257.149
35.86000 255.967
35.87000 249.133
35.88000 242.140
35.89000 239.791
35.90000 243.753
35.91000 247.750
35.92000 250.222
35.93000 251.344
35.94000 252.495
35.95000 255.457
35.96000 259.488
35.97000 263.543
35.98000 268.115
35.99000 272.895
36.00000 277.355
36.01000 272.005
36.02000 264.718
36.03000 257.622
36.04000 251.785
36.05000 246.176
36.06000 242.559
36.07000 247.452
36.08000 253.312
36.09000 257.732
36.10000 262.260
36.11000 265.812
36.12000 265.058
36.13000 255.798
36.14000 246.308
36.15000 245.345
36.16000 255.757
36.17000 266.219
36.18000 268.133
36.19000 262.629
36.20000 257.130
36.21000 252.004
36.22000 247.094
36.23000 242.664
36.24000 248.111
36.25000 257.473
36.26000 266.190
36.27000 266.809
36.28000 265.392
36.29000 263.611
36.30000 259.482
36.31000 254.935
36.32000 252.204
36.33000 257.091
36.34000 262.825
36.35000 267.129
36.36000 262.065
36.37000 257.661
36.38000 255.106
36.39000 256.140
36.40000 257.267
36.41000 257.591
36.42000 256.865
36.43000 256.134
36.44000 255.653
36.45000 255.385
36.46000 255.158
36.47000 257.176
36.48000 260.475
36.49000 263.624
36.50000 263.800
36.51000 262.819
36.52000 261.906
36.53000 262.665
36.54000 263.749
36.55000 263.768
36.56000 257.078
36.57000 249.214
36.58000 243.712
36.59000 247.944
36.60000 253.231
36.61000 257.182
36.62000 258.684
36.63000 259.742
36.64000 260.893
36.65000 262.220
36.66000 263.552
36.67000 264.621
36.68000 265.353
36.69000 266.082
36.70000 266.570
36.71000 266.856
36.72000 267.146
36.73000 267.705
36.74000 268.413
36.75000 269.016
36.76000 267.593
36.77000 265.394
36.78000 263.354
36.79000 257.879
36.80000 252.143
36.81000 247.829
36.82000 252.296
36.83000 258.270
36.84000 263.735
36.85000 267.145
36.86000 270.336
36.87000 272.710
36.88000 284.657
36.89000 294.376
36.90000 297.743
36.91000 289.197
36.92000 280.377
36.93000 273.714
36.94000 269.775
36.95000 265.851
36.96000 267.407
36.97000 273.441
36.98000 279.372
36.99000 280.355
37.00000 278.612
37.01000 276.887
37.02000 275.493
37.03000 274.223
37.04000 273.047
37.05000 274.780
37.06000 277.005
37.07000 279.104
37.08000 280.438
37.09000 281.645
37.10000 282.049
37.11000 279.267
37.12000 276.156
37.13000 273.854
37.14000 273.094
37.15000 272.570
37.16000 272.113
37.17000 271.780
37.18000 271.449
37.19000 271.295
37.20000 271.361
37.21000 271.427
37.22000 274.159
37.23000 279.018
37.24000 283.674
37.25000 279.059
37.26000 269.427
37.27000 260.113
37.28000 256.536
37.29000 255.083
37.30000 253.740
37.31000 254.901
37.32000 256.506
37.33000 257.219
37.34000 252.646
37.35000 247.202
37.36000 244.275
37.37000 251.173
37.38000 259.062
37.39000 264.871
37.40000 269.653
37.41000 273.311
37.42000 271.833
37.43000 261.047
37.44000 250.070
37.45000 246.335
37.46000 251.404
37.47000 256.485
37.48000 260.448
37.49000 263.513
37.50000 266.522
37.51000 267.082
37.52000 266.339
37.53000 265.394
37.54000 260.926
37.55000 255.177
37.56000 249.879
37.57000 254.995
37.58000 261.873
37.59000 267.322
37.60000 264.463
37.61000 260.263
37.62000 256.335
37.63000 253.446
37.64000 250.660
37.65000 248.618
37.66000 250.732
37.67000 252.531
37.68000 253.579
37.69000 253.291
37.70000 252.977
37.71000 252.854
37.72000 252.959
37.73000 253.065
37.74000 250.050
37.75000 244.644
37.76000 239.384
37.77000 240.092
37.78000 243.921
37.79000 247.580
37.80000 248.381
37.81000 248.161
37.82000 247.958
37.83000 249.121
37.84000 250.455
37.85000 252.117
37.86000 255.651
37.87000 259.481
37.88000 261.514
37.89000 256.781
37.90000 251.400
37.91000 247.477
37.92000 252.544
37.93000 256.793
37.94000 259.518
37.95000 259.574
37.96000 259.582
37.97000 258.446
37.98000 255.973
37.99000 253.504
38.00000 255.141
38.01000 259.876
38.02000 264.617
38.03000 269.608
38.04000 274.726
38.05000 279.299
38.06000 274.964
38.07000 267.498
38.08000 260.648
38.09000 260.154
38.10000 261.060
38.11000 262.172
38.12000 264.433
38.13000 266.872
38.14000 269.525
38.15000 272.967
38.16000 276.483
38.17000 279.033
38.18000 272.993
38.19000 268.033
38.20000 264.510
38.21000 263.458
38.22000 262.450
38.23000 263.431
38.24000 266.697
38.25000 269.957
38.26000 273.924
38.27000 278.389
38.28000 282.944
38.29000 290.829
38.30000 300.397
38.31000 309.469
38.32000 310.697
38.33000 309.216
38.34000 307.860
38.35000 314.589
38.36000 322.255
38.37000 329.544
38.38000 334.767
38.39000 339.676
38.40000 345.679
38.41000 355.661
38.42000 366.006
38.43000 373.469
38.44000 401.325
38.45000 423.408
38.46000 445.204
38.47000 466.515
38.48000 487.819
38.49000 510.888
38.50000 535.947
38.51000 560.925
38.52000 588.181
38.53000 616.877
38.54000 645.591
38.55000 674.964
38.56000 704.665
38.57000 734.784
38.58000 771.319
38.59000 810.033
38.60000 845.391
38.61000 869.981
38.62000 889.619
38.63000 910.887
38.64000 940.910
38.65000 972.235
38.66000 999.445
38.67000 1011.970
38.68000 1023.189
38.69000 1031.242
38.70000 1048.868
38.71000 1062.676
38.72000 1068.779
38.73000 1062.096
38.74000 1055.218
38.75000 1043.397
38.76000 1026.117
38.77000 1008.898
38.78000 990.503
38.79000 971.432
38.80000 952.588
38.81000 941.324
38.82000 933.760
38.83000 924.334
38.84000 887.212
38.85000 840.846
38.86000 798.597
38.87000 762.741
38.88000 732.250
38.89000 699.762
38.90000 656.750
38.91000 612.207
38.92000 572.461
38.93000 549.543
38.94000 528.080
38.95000 512.758
38.96000 480.848
38.97000 455.958
38.98000 431.299
38.99000 407.018
39.00000 382.742
39.01000 364.053
39.02000 351.416
39.03000 338.833
39.04000 325.880
39.05000 312.797
39.06000 299.881
39.07000 292.297
39.08000 287.272
39.09000 282.538
39.10000 282.008
39.11000 282.857
39.12000 283.629
39.13000 277.179
39.14000 270.066
39.15000 263.278
39.16000 258.169
39.17000 253.299
39.18000 248.625
39.19000 244.625
39.20000 240.683
39.21000 237.883
39.22000 246.513
39.23000 253.442
39.24000 256.544
39.25000 253.514
39.26000 250.404
39.27000 247.478
39.28000 244.750
39.29000 242.034
39.30000 244.675
39.31000 250.968
39.32000 256.997
39.33000 254.876
39.34000 248.912
39.35000 243.280
39.36000 242.301
39.37000 242.823
39.38000 243.296
39.39000 242.854
39.40000 242.289
39.41000 241.882
39.42000 242.274
39.43000 242.777
39.44000 243.456
39.45000 244.730
39.46000 246.054
39.47000 246.988
39.48000 242.556
39.49000 239.028
39.50000 237.892
39.51000 240.522
39.52000 243.197
39.53000 240.926
39.54000 233.506
39.55000 226.123
39.56000 224.240
39.57000 226.089
39.58000 227.968
39.59000 230.743
39.60000 233.932
39.61000 236.883
39.62000 236.595
39.63000 235.281
39.64000 234.092
39.65000 231.268
39.66000 228.475
39.67000 225.964
39.68000 224.855
39.69000 223.937
39.70000 224.952
39.71000 232.403
39.72000 240.367
39.73000 245.960
39.74000 246.035
39.75000 245.930
39.76000 245.994
39.77000 246.321
39.78000 246.650
39.79000 245.647
39.80000 243.283
39.81000 240.934
39.82000 240.019
39.83000 240.065
39.84000 239.925
39.85000 234.543
39.86000 226.773
39.87000 219.704
39.88000 221.933
39.89000 227.056
39.90000 231.680
39.91000 233.829
39.92000 235.263
39.93000 236.245
39.94000 235.018
39.95000 233.497
39.96000 233.703
39.97000 239.558
39.98000 245.852
39.99000 250.248
40.00000 246.449
40.01000 243.349
40.02000 240.077
40.03000 236.541
40.04000 233.002
40.05000 230.496
40.06000 229.024
40.07000 227.561
40.08000 226.991
40.09000 227.010
40.10000 227.007
40.11000 226.406
40.12000 225.537
40.13000 224.694
40.14000 224.186
40.15000 223.780
40.16000 223.415
40.17000 228.699
40.18000 234.347
40.19000 238.680
40.20000 236.719
40.21000 233.935
40.22000 231.805
40.23000 231.777
40.24000 231.908
40.25000 231.999
40.26000 224.949
40.27000 219.446
40.28000 215.268
40.29000 213.068
40.30000 210.887
40.31000 213.497
40.32000 220.802
40.33000 228.057
40.34000 226.468
40.35000 219.269
40.36000 212.508
40.37000 217.104
40.38000 226.700
40.39000 235.224
40.40000 230.319
40.41000 221.376
40.42000 213.345
40.43000 209.746
40.44000 207.377
40.45000 206.969
40.46000 215.780
40.47000 225.769
40.48000 232.416
40.49000 228.509
40.50000 223.828
40.51000 220.595
40.52000 222.029
40.53000 223.226
40.54000 220.266
40.55000 211.213
40.56000 202.108
40.57000 200.430
40.58000 205.888
40.59000 211.306
40.60000 214.986
40.61000 217.519
40.62000 219.957
40.63000 220.007
40.64000 219.024
40.65000 217.881
40.66000 214.795
40.67000 211.134
40.68000 207.856
40.69000 205.470
40.70000 203.542
40.71000 202.302
40.72000 204.236
40.73000 206.567
40.74000 207.742
40.75000 205.329
40.76000 202.660
40.77000 200.827
40.78000 215.279
40.79000 226.512
40.80000 230.734
40.81000 224.865
40.82000 218.916
40.83000 216.369
40.84000 217.026
40.85000 217.678
40.86000 214.929
40.87000 210.142
40.88000 205.590
40.89000 206.650
40.90000 210.099
40.91000 213.169
40.92000 211.746
40.93000 209.019
40.94000 206.582
40.95000 211.022
40.96000 216.049
40.97000 220.388
40.98000 221.611
40.99000 222.453
41.00000 222.311
41.01000 219.168
41.02000 215.818
41.03000 213.531
41.04000 215.330
41.05000 216.770
41.06000 218.111
41.07000 219.312
41.08000 220.510
41.09000 219.022
41.10000 215.054
41.11000 211.121
41.12000 208.531
41.13000 206.798
41.14000 205.150
41.15000 205.440
41.16000 206.542
41.17000 207.913
41.18000 212.397
41.19000 217.769
41.20000 222.556
41.21000 224.075
41.22000 224.857
41.23000 224.543
41.24000 219.358
41.25000 213.591
41.26000 209.010
41.27000 207.985
41.28000 207.199
41.29000 206.666
41.30000 211.126
41.31000 214.563
41.32000 214.294
41.33000 208.882
41.34000 203.439
41.35000 203.473
41.36000 208.467
41.37000 213.414
41.38000 213.545
41.39000 210.829
41.40000 208.129
41.41000 205.769
41.42000 203.549
41.43000 201.447
41.44000 200.667
41.45000 200.259
41.46000 199.896
41.47000 199.568
41.48000 199.289
41.49000 200.755
41.50000 209.836
41.51000 219.805
41.52000 225.945
41.53000 220.799
41.54000 214.918
41.55000 210.950
41.56000 209.089
41.57000 207.748
41.58000 205.091
41.59000 200.640
41.60000 196.184
41.61000 196.583
41.62000 201.298
41.63000 205.965
41.64000 207.874
41.65000 208.143
41.66000 208.308
41.67000 206.233
41.68000 203.253
41.69000 200.414
41.70000 199.118
41.71000 198.248
41.72000 197.477
41.73000 201.859
41.74000 206.466
41.75000 209.925
41.76000 208.466
41.77000 206.446
41.78000 205.386
41.79000 207.105
41.80000 209.000
41.81000 210.271
41.82000 221.170
41.83000 229.453
41.84000 233.712
41.85000 232.589
41.86000 231.437
41.87000 229.431
41.88000 226.682
41.89000 223.961
41.90000 220.862
41.91000 217.617
41.92000 214.295
41.93000 209.354
41.94000 203.771
41.95000 198.584
41.96000 197.631
41.97000 197.823
41.98000 197.994
41.99000 204.132
42.00000 210.358
42.01000 215.449
42.02000 215.768
42.03000 215.555
42.04000 214.542
42.05000 211.250
42.06000 207.818
42.07000 205.531
42.08000 211.962
42.09000 216.890
42.10000 219.911
42.11000 220.428
42.12000 220.936
42.13000 222.695
42.14000 225.526
42.15000 228.323
42.16000 227.073
42.17000 223.594
42.18000 220.288
42.19000 220.410
42.20000 221.872
42.21000 223.009
42.22000 220.753
42.23000 217.597
42.24000 214.814
42.25000 207.139
42.26000 199.783
42.27000 194.882
42.28000 200.126
42.29000 206.474
42.30000 213.494
42.31000 222.396
42.32000 231.410
42.33000 237.379
42.34000 232.124
42.35000 228.041
42.36000 224.142
42.37000 220.481
42.38000 216.827
42.39000 216.375
42.40000 218.610
42.41000 220.816
42.42000 217.911
42.43000 212.280
42.44000 207.177
42.45000 212.250
42.46000 221.232
42.47000 229.383
42.48000 229.089
42.49000 226.591
42.50000 224.395
42.51000 219.708
42.52000 215.308
42.53000 211.425
42.54000 209.638
42.55000 208.075
42.56000 208.114
42.57000 212.559
42.58000 217.259
42.59000 220.351
42.60000 221.931
42.61000 223.068
42.62000 220.653
42.63000 213.741
42.64000 206.820
42.65000 202.149
42.66000 199.330
42.67000 196.548
42.68000 200.630
42.69000 208.290
42.70000 215.440
42.71000 213.075
42.72000 207.118
42.73000 201.842
42.74000 203.324
42.75000 206.538
42.76000 209.354
42.77000 208.161
42.78000 206.557
42.79000 204.912
42.80000 203.104
42.81000 201.279
42.82000 200.769
42.83000 203.815
42.84000 207.058
42.85000 209.179
42.86000 207.316
42.87000 205.882
42.88000 205.046
42.89000 204.950
42.90000 204.870
42.91000 209.834
42.92000 218.871
42.93000 227.782
42.94000 223.656
42.95000 212.771
42.96000 202.475
42.97000 202.786
42.98000 207.033
42.99000 210.528
43.00000 206.739
43.01000 201.116
43.02000 196.202
43.03000 198.225
43.04000 200.939
43.05000 202.263
43.06000 198.146
43.07000 193.479
43.08000 192.792
43.09000 202.681
43.10000 213.140
43.11000 219.934
43.12000 215.356
43.13000 211.829
43.14000 210.866
43.15000 213.030
43.16000 215.184
43.17000 212.369
43.18000 205.613
43.19000 198.958
43.20000 201.216
43.21000 208.020
43.22000 214.207
43.23000 209.624
43.24000 201.113
43.25000 193.206
43.26000 191.010
43.27000 190.225
43.28000 189.542
43.29000 197.278
43.30000 205.053
43.31000 209.172
43.32000 199.232
43.33000 187.904
43.34000 181.569
43.35000 188.275
43.36000 195.661
43.37000 200.427
43.38000 198.994
43.39000 197.857
43.40000 198.622
43.41000 201.660
43.42000 204.685
43.43000 202.865
43.44000 197.277
43.45000 191.776
43.46000 189.622
43.47000 189.234
43.48000 189.063
43.49000 192.563
43.50000 197.380
43.51000 201.428
43.52000 198.397
43.53000 193.647
43.54000 189.519
43.55000 190.821
43.56000 192.666
43.57000 195.118
43.58000 199.865
43.59000 204.832
43.60000 205.234
43.61000 193.912
43.62000 182.001
43.63000 174.364
43.64000 180.639
43.65000 185.400
43.66000 188.635
43.67000 190.079
43.68000 191.515
43.69000 191.922
43.70000 191.542
43.71000 191.169
43.72000 192.067
43.73000 193.571
43.74000 194.940
43.75000 194.095
43.76000 192.470
43.77000 191.071
43.78000 191.709
43.79000 192.832
43.80000 193.805
43.81000 192.220
43.82000 190.532
43.83000 188.473
43.84000 185.033
43.85000 181.463
43.86000 180.075
43.87000 184.195
43.88000 188.584
43.89000 191.378
43.90000 192.751
43.91000 193.731
43.92000 193.951
43.93000 193.296
43.94000 192.645
43.95000 192.924
43.96000 193.900
43.97000 194.859
43.98000 193.273
43.99000 190.496
44.00000 188.013
44.01000 190.210
44.02000 194.028
44.03000 197.685
44.04000 199.921
44.05000 201.824
44.06000 203.467
44.07000 197.917
44.08000 192.274
44.09000 188.339
44.10000 190.621
44.11000 193.473
44.12000 195.343
44.13000 194.776
44.14000 194.096
44.15000 193.665
44.16000 200.112
44.17000 204.868
44.18000 202.661
44.19000 192.592
44.20000 182.561
44.21000 180.625
44.22000 184.647
44.23000 188.595
44.24000 193.091
44.25000 197.692
44.26000 201.915
44.27000 200.331
44.28000 196.769
44.29000 193.742
44.30000 195.317
44.31000 197.949
44.32000 200.216
44.33000 204.223
44.34000 207.837
44.35000 209.373
44.36000 203.470
44.37000 196.903
44.38000 194.181
44.39000 200.837
44.40000 207.918
44.41000 212.366
44.42000 210.733
44.43000 209.485
44.44000 209.187
44.45000 209.940
44.46000 210.689
44.47000 210.486
44.48000 209.596
44.49000 208.724
44.50000 208.795
44.51000 209.308
44.52000 209.880
44.53000 211.351
44.54000 213.121
44.55000 214.812
44.56000 215.835
44.57000 216.708
44.58000 217.457
44.59000 216.591
44.60000 215.660
44.61000 215.848
44.62000 219.976
44.63000 224.446
44.64000 227.032
44.65000 225.100
44.66000 222.971
44.67000 221.642
44.68000 229.290
44.69000 234.896
44.70000 236.546
44.71000 233.897
44.72000 231.266
44.73000 231.478
44.74000 233.708
44.75000 235.892
44.76000 236.005
44.77000 235.158
44.78000 234.330
44.79000 233.801
44.80000 233.371
44.81000 233.244
44.82000 235.612
44.83000 238.534
44.84000 241.033
44.85000 245.238
44.86000 248.990
44.87000 251.481
44.88000 249.615
44.89000 247.380
44.90000 247.043
44.91000 251.176
44.92000 255.497
44.93000 258.174
44.94000 251.814
44.95000 247.154
44.96000 243.287
44.97000 240.264
44.98000 237.276
44.99000 238.683
45.00000 243.151
45.01000 247.524
45.02000 252.090
45.03000 256.561
45.04000 260.395
45.05000 255.252
45.06000 247.208
45.07000 240.136
45.08000 240.863
45.09000 243.286
45.10000 245.352
45.11000 250.474
45.12000 255.144
45.13000 257.242
45.14000 250.606
45.15000 243.250
45.16000 236.764
45.17000 232.292
45.18000 227.902
45.19000 225.201
45.20000 225.962
45.21000 226.537
45.22000 229.052
45.23000 233.589
45.24000 238.125
45.25000 242.407
45.26000 246.514
45.27000 250.529
45.28000 247.199
45.29000 240.738
45.30000 234.567
45.31000 232.375
45.32000 231.447
45.33000 229.747
45.34000 221.986
45.35000 212.933
45.36000 205.236
45.37000 208.274
45.38000 212.058
45.39000 214.991
45.40000 215.079
45.41000 214.939
45.42000 215.421
45.43000 217.319
45.44000 219.271
45.45000 220.464
45.46000 219.174
45.47000 218.232
45.48000 214.973
45.49000 209.342
45.50000 203.775
45.51000 205.044
45.52000 210.910
45.53000 216.637
45.54000 215.569
45.55000 211.579
45.56000 207.875
45.57000 207.979
45.58000 209.272
45.59000 210.254
45.60000 208.846
45.61000 206.937
45.62000 205.320
45.63000 200.370
45.64000 195.850
45.65000 192.740
45.66000 194.253
45.67000 196.127
45.68000 196.671
45.69000 194.240
45.70000 191.697
45.71000 190.156
45.72000 188.498
45.73000 187.315
45.74000 189.037
45.75000 193.674
45.76000 198.259
45.77000 197.862
45.78000 194.174
45.79000 190.577
45.80000 190.968
45.81000 193.050
45.82000 194.868
45.83000 193.251
45.84000 190.582
45.85000 188.355
45.86000 189.450
45.87000 191.228
45.88000 192.730
45.89000 191.198
45.90000 189.585
45.91000 188.762
45.92000 190.482
45.93000 192.395
45.94000 192.753
45.95000 189.690
45.96000 186.504
45.97000 184.587
45.98000 181.937
45.99000 180.047
46.00000 176.524
46.01000 171.394
46.02000 166.335
46.03000 167.578
46.04000 172.908
46.05000 178.101
46.06000 180.823
46.07000 182.379
46.08000 183.717
46.09000 182.322
46.10000 180.102
46.11000 177.634
46.12000 173.338
46.13000 168.673
46.14000 164.747
46.15000 174.683
46.16000 184.453
46.17000 190.093
46.18000 182.658
46.19000 174.259
46.20000 168.893
46.21000 170.089
46.22000 171.511
46.23000 172.359
46.24000 175.582
46.25000 177.883
46.26000 177.616
46.27000 174.876
46.28000 172.204
46.29000 175.241
46.30000 181.915
46.31000 188.409
46.32000 186.549
46.33000 181.327
46.34000 176.598
46.35000 177.891
46.36000 180.968
46.37000 183.190
46.38000 179.264
46.39000 174.121
46.40000 169.806
46.41000 172.986
46.42000 176.415
46.43000 179.258
46.44000 180.279
46.45000 181.169
46.46000 181.230
46.47000 179.525
46.48000 177.763
46.49000 176.719
46.50000 170.183
46.51000 165.530
46.52000 162.597
46.53000 161.290
46.54000 160.052
46.55000 164.140
46.56000 171.561
46.57000 178.773
46.58000 180.622
46.59000 180.205
46.60000 179.727
46.61000 178.517
46.62000 177.094
46.63000 175.854
46.64000 175.903
46.65000 176.201
46.66000 176.451
46.67000 177.053
46.68000 177.589
46.69000 177.396
46.70000 174.975
46.71000 172.399
46.72000 170.927
46.73000 171.763
46.74000 172.672
46.75000 173.207
46.76000 180.072
46.77000 184.944
46.78000 184.502
46.79000 179.137
46.80000 173.842
46.81000 173.543
46.82000 176.318
46.83000 179.012
46.84000 175.279
46.85000 169.183
46.86000 163.803
46.87000 166.741
46.88000 172.057
46.89000 176.502
46.90000 174.939
46.91000 172.232
46.92000 169.976
46.93000 168.229
46.94000 166.831
46.95000 166.103
46.96000 167.385
46.97000 168.803
46.98000 170.249
46.99000 171.755
47.00000 173.262
47.01000 174.142
47.02000 172.055
47.03000 170.574
47.04000 169.960
47.05000 170.133
47.06000 170.291
47.07000 169.406
47.08000 167.891
47.09000 166.423
47.10000 167.604
47.11000 169.757
47.12000 171.690
47.13000 171.131
47.14000 169.871
47.15000 168.562
47.16000 166.915
47.17000 165.205
47.18000 163.785
47.19000 168.588
47.20000 173.162
47.21000 175.815
47.22000 172.794
47.23000 169.402
47.24000 166.935
47.25000 166.340
47.26000 165.799
47.27000 165.486
47.28000 163.075
47.29000 161.377
47.30000 160.608
47.31000 160.668
47.32000 160.741
47.33000 161.699
47.34000 163.182
47.35000 164.617
47.36000 164.355
47.37000 163.457
47.38000 162.740
47.39000 164.023
47.40000 165.857
47.41000 167.371
47.42000 166.763
47.43000 165.768
47.44000 164.944
47.45000 158.314
47.46000 152.296
47.47000 149.561
47.48000 156.352
47.49000 163.748
47.50000 167.956
47.51000 165.832
47.52000 163.534
47.53000 162.215
47.54000 163.989
47.55000 165.239
47.56000 166.027
47.57000 166.409
47.58000 166.784
47.59000 166.685
47.60000 166.310
47.61000 165.948
47.62000 162.939
47.63000 159.104
47.64000 155.547
47.65000 154.979
47.66000 155.222
47.67000 155.736
47.68000 158.011
47.69000 160.603
47.70000 162.738
47.71000 160.500
47.72000 158.255
47.73000 157.859
47.74000 162.740
47.75000 167.945
47.76000 170.149
47.77000 166.493
47.78000 162.686
47.79000 160.517
47.80000 164.286
47.81000 166.927
47.82000 165.843
47.83000 161.565
47.84000 157.393
47.85000 159.040
47.86000 164.025
47.87000 168.837
47.88000 165.035
47.89000 158.277
47.90000 152.543
47.91000 157.528
47.92000 165.368
47.93000 171.975
47.94000 170.754
47.95000 168.155
47.96000 166.021
47.97000 165.182
47.98000 164.610
47.99000 164.706
48.00000 166.680
48.01000 168.767
48.02000 167.902
48.03000 161.379
48.04000 154.716
48.05000 150.952
48.06000 155.937
48.07000 159.427
48.08000 163.545
48.09000 168.189
48.10000 172.751
48.11000 173.055
48.12000 170.959
48.13000 168.939
48.14000 160.714
48.15000 150.734
48.16000 141.655
48.17000 141.775
48.18000 144.302
48.19000 147.000
48.20000 150.766
48.21000 154.717
48.22000 157.949
48.23000 155.642
48.24000 153.267
48.25000 151.330
48.26000 150.596
48.27000 149.932
48.28000 150.436
48.29000 153.142
48.30000 155.900
48.31000 157.445
48.32000 161.715
48.33000 164.676
48.34000 165.330
48.35000 164.081
48.36000 162.842
48.37000 162.084
48.38000 161.591
48.39000 161.116
48.40000 160.873
48.41000 160.726
48.42000 160.606
48.43000 160.755
48.44000 160.973
48.45000 160.963
48.46000 159.567
48.47000 157.937
48.48000 156.608
48.49000 155.325
48.50000 154.280
48.51000 153.791
48.52000 154.810
48.53000 155.914
48.54000 156.630
48.55000 156.631
48.56000 156.615
48.57000 156.607
48.58000 158.040
48.59000 159.025
48.60000 156.985
48.61000 152.495
48.62000 148.118
48.63000 148.975
48.64000 152.681
48.65000 156.244
48.66000 157.154
48.67000 157.083
48.68000 157.033
48.69000 157.189
48.70000 157.398
48.71000 157.786
48.72000 159.251
48.73000 160.894
48.74000 162.228
48.75000 159.629
48.76000 157.184
48.77000 155.786
48.78000 157.182
48.79000 158.729
48.80000 158.982
48.81000 156.880
48.82000 154.728
48.83000 153.544
48.84000 156.372
48.85000 158.327
48.86000 160.383
48.87000 162.520
48.88000 164.548
48.89000 161.840
48.90000 156.600
48.91000 151.571
48.92000 154.526
48.93000 160.020
48.94000 165.019
48.95000 165.320
48.96000 164.456
48.97000 163.413
48.98000 161.316
48.99000 159.048
49.00000 157.213
49.01000 159.316
49.02000 161.345
49.03000 161.796
49.04000 158.113
49.05000 154.214
49.06000 152.366
49.07000 154.188
49.08000 156.082
49.09000 157.116
49.10000 158.441
49.11000 159.350
49.12000 159.945
49.13000 160.294
49.14000 160.627
49.15000 160.270
49.16000 159.550
49.17000 158.860
49.18000 159.743
49.19000 161.095
49.20000 162.196
49.21000 160.970
49.22000 159.177
49.23000 157.347
49.24000 155.303
49.25000 153.225
49.26000 151.550
49.27000 152.681
49.28000 153.820
49.29000 153.408
49.30000 149.007
49.31000 144.404
49.32000 142.411
49.33000 145.006
49.34000 147.688
49.35000 149.139
49.36000 151.756
49.37000 153.547
49.38000 154.880
49.39000 155.863
49.40000 156.835
49.41000 157.384
49.42000 157.715
49.43000 158.031
49.44000 156.991
49.45000 155.575
49.46000 154.443
49.47000 155.877
49.48000 157.924
49.49000 159.165
49.50000 155.870
49.51000 151.869
49.52000 148.657
49.53000 152.356
49.54000 155.880
49.55000 158.224
49.56000 157.581
49.57000 156.793
49.58000 156.384
49.59000 156.632
49.60000 156.891
49.61000 157.030
49.62000 156.343
49.63000 155.873
49.64000 155.117
49.65000 154.146
49.66000 153.102
49.67000 149.294
49.68000 144.084
49.69000 139.106
49.70000 139.601
49.71000 141.830
49.72000 144.214
49.73000 147.975
49.74000 152.059
49.75000 155.083
49.76000 152.258
49.77000 148.540
49.78000 145.568
49.79000 145.207
49.80000 145.110
49.81000 145.645
49.82000 147.755
49.83000 149.938
49.84000 151.117
49.85000 150.591
49.86000 150.036
49.87000 149.742
49.88000 148.189
49.89000 147.149
49.90000 149.073
49.91000 153.187
49.92000 157.208
49.93000 157.958
49.94000 157.077
49.95000 156.235
49.96000 155.277
49.97000 154.351
49.98000 153.807
49.99000 156.569
50.00000 160.092
50.01000 162.234
50.02000 156.918
50.03000 150.486
50.04000 145.364
50.05000 142.694
50.06000 140.718
50.07000 141.132
50.08000 147.391
50.09000 153.915
50.10000 157.175
50.11000 154.989
50.12000 152.718
50.13000 151.523
50.14000 157.047
50.15000 160.768
50.16000 159.854
50.17000 155.582
50.18000 151.369
50.19000 149.157
50.20000 147.926
50.21000 146.754
50.22000 148.366
50.23000 150.723
50.24000 152.478
50.25000 149.151
50.26000 144.674
50.27000 142.526
50.28000 152.721
50.29000 164.722
50.30000 174.241
50.31000 164.740
50.32000 155.761
50.33000 149.082
50.34000 147.927
50.35000 147.014
50.36000 148.185
50.37000 152.774
50.38000 157.412
50.39000 159.830
50.40000 158.870
50.41000 158.211
50.42000 156.183
50.43000 153.181
50.44000 150.268
50.45000 150.245
50.46000 151.616
50.47000 152.919
50.48000 153.547
50.49000 153.923
50.50000 154.071
50.51000 152.348
50.52000 150.210
50.53000 148.485
50.54000 148.911
50.55000 149.646
50.56000 150.226
50.57000 154.865
50.58000 158.865
50.59000 161.468
50.60000 160.767
50.61000 159.926
50.62000 159.410
50.63000 159.417
50.64000 159.431
50.65000 159.439
50.66000 166.710
50.67000 171.602
50.68000 175.107
50.69000 177.644
50.70000 180.005
50.71000 176.933
50.72000 171.285
50.73000 165.923
50.74000 164.455
50.75000 164.265
50.76000 163.662
50.77000 159.737
50.78000 155.088
50.79000 151.808
50.80000 155.510
50.81000 160.191
50.82000 163.873
50.83000 162.825
50.84000 161.673
50.85000 160.857
50.86000 160.822
50.87000 160.819
50.88000 160.576
50.89000 159.957
50.90000 159.332
50.91000 159.013
50.92000 154.880
50.93000 152.129
50.94000 152.366
50.95000 154.654
50.96000 156.931
50.97000 158.912
50.98000 160.754
50.99000 162.500
51.00000 156.833
51.01000 149.438
51.02000 142.965
51.03000 143.753
51.04000 146.096
51.05000 148.414
51.06000 150.612
51.07000 152.793
51.08000 154.501
51.09000 151.122
51.10000 148.094
51.11000 147.326
51.12000 151.716
51.13000 156.307
51.14000 155.815
51.15000 147.423
51.16000 138.939
51.17000 134.642
51.18000 145.262
51.19000 152.335
51.20000 155.299
51.21000 155.493
51.22000 155.702
51.23000 156.333
51.24000 157.157
51.25000 157.936
51.26000 159.342
51.27000 160.816
51.28000 161.679
51.29000 157.844
51.30000 153.021
51.31000 148.372
51.32000 144.572
51.33000 140.886
51.34000 138.011
51.35000 143.466
51.36000 148.334
51.37000 150.485
51.38000 146.540
51.39000 142.366
51.40000 139.579
51.41000 138.909
51.42000 138.262
51.43000 137.937
51.44000 138.736
51.45000 139.267
51.46000 139.521
51.47000 139.591
51.48000 139.613
51.49000 138.286
51.50000 136.352
51.51000 134.526
51.52000 137.964
51.53000 142.605
51.54000 146.795
51.55000 147.593
51.56000 147.691
51.57000 147.701
51.58000 147.288
51.59000 146.818
51.60000 146.453
51.61000 147.439
51.62000 148.304
51.63000 149.296
51.64000 150.566
51.65000 151.846
51.66000 151.272
51.67000 147.918
51.68000 144.537
51.69000 142.493
51.70000 141.768
51.71000 141.100
51.72000 145.533
51.73000 153.283
51.74000 160.556
51.75000 155.295
51.76000 144.488
51.77000 134.300
51.78000 137.059
51.79000 143.168
51.80000 148.365
51.81000 146.839
51.82000 143.953
51.83000 141.430
51.84000 140.626
51.85000 140.043
51.86000 139.592
51.87000 143.570
51.88000 146.986
51.89000 148.351
51.90000 145.268
51.91000 142.031
51.92000 139.638
51.93000 138.488
51.94000 137.350
51.95000 137.653
51.96000 139.348
51.97000 141.038
51.98000 142.229
51.99000 143.102
52.00000 143.825
52.01000 140.782
52.02000 136.101
52.03000 131.696
52.04000 135.432
52.05000 141.058
52.06000 146.030
52.07000 146.285
52.08000 145.605
52.09000 145.067
52.10000 145.184
52.11000 145.384
52.12000 145.538
52.13000 143.461
52.14000 141.690
52.15000 141.326
52.16000 143.964
52.17000 146.701
52.18000 147.296
52.19000 144.791
52.20000 142.262
52.21000 139.712
52.22000 137.145
52.23000 134.639
52.24000 136.954
52.25000 142.293
52.26000 147.469
52.27000 148.687
52.28000 148.213
52.29000 147.767
52.30000 145.401
52.31000 142.732
52.32000 140.416
52.33000 140.593
52.34000 141.256
52.35000 141.781
52.36000 141.684
52.37000 141.510
52.38000 141.376
52.39000 138.483
52.40000 136.046
52.41000 136.453
52.42000 142.822
52.43000 149.379
52.44000 151.334
52.45000 146.748
52.46000 142.115
52.47000 139.317
52.48000 138.224
52.49000 137.185
52.50000 140.051
52.51000 145.325
52.52000 150.314
52.53000 148.674
52.54000 144.247
52.55000 140.097
52.56000 139.325
52.57000 139.504
52.58000 139.743
52.59000 140.400
52.60000 141.137
52.61000 142.165
52.62000 144.494
52.63000 146.980
52.64000 148.876
52.65000 145.253
52.66000 142.104
52.67000 140.891
52.68000 143.669
52.69000 146.566
52.70000 147.837
52.71000 146.839
52.72000 145.826
52.73000 146.126
52.74000 147.622
52.75000 149.038
52.76000 145.079
52.77000 137.863
52.78000 131.032
52.79000 132.833
52.80000 138.202
52.81000 143.225
52.82000 140.327
52.83000 135.666
52.84000 132.211
52.85000 136.925
52.86000 143.169
52.87000 147.575
52.88000 143.913
52.89000 139.303
52.90000 135.803
52.91000 137.475
52.92000 139.056
52.93000 140.802
52.94000 142.878
52.95000 144.964
52.96000 144.318
52.97000 139.926
52.98000 135.515
52.99000 133.785
53.00000 134.452
53.01000 135.120
53.02000 135.827
53.03000 136.558
53.04000 137.246
53.05000 137.017
53.06000 136.415
53.07000 135.853
53.08000 136.479
53.09000 137.344
53.10000 138.489
53.11000 141.488
53.12000 144.828
53.13000 147.314
53.14000 146.127
53.15000 144.518
53.16000 143.302
53.17000 145.111
53.18000 146.682
53.19000 148.381
53.20000 150.335
53.21000 152.296
53.22000 154.513
53.23000 157.074
53.24000 159.635
53.25000 158.156
53.26000 153.144
53.27000 148.244
53.28000 149.972
53.29000 155.578
53.30000 160.890
53.31000 160.087
53.32000 156.841
53.33000 153.816
53.34000 159.985
53.35000 167.831
53.36000 174.506
53.37000 173.580
53.38000 171.285
53.39000 168.580
53.40000 164.140
53.41000 159.505
53.42000 156.018
53.43000 154.555
53.44000 153.509
53.45000 152.729
53.46000 152.466
53.47000 152.217
53.48000 152.396
53.49000 153.140
53.50000 153.886
53.51000 153.033
53.52000 150.808
53.53000 148.676
53.54000 151.676
53.55000 157.626
53.56000 163.217
53.57000 161.561
53.58000 157.061
53.59000 152.875
53.60000 151.173
53.61000 150.235
53.62000 149.167
53.63000 147.271
53.64000 145.230
53.65000 143.881
53.66000 145.406
53.67000 147.247
53.68000 148.625
53.69000 147.875
53.70000 147.190
53.71000 145.723
53.72000 142.753
53.73000 139.746
53.74000 142.055
53.75000 151.254
53.76000 160.473
53.77000 162.400
53.78000 158.187
53.79000 153.983
53.80000 150.209
53.81000 146.677
53.82000 143.245
53.83000 141.764
53.84000 141.036
53.85000 140.361
53.86000 140.479
53.87000 140.773
53.88000 140.944
53.89000 140.351
53.90000 139.627
53.91000 139.517
53.92000 141.914
53.93000 144.580
53.94000 146.567
53.95000 143.292
53.96000 140.504
53.97000 138.576
53.98000 138.274
53.99000 138.010
54.00000 138.621
54.01000 140.346
54.02000 142.072
54.03000 142.440
54.04000 141.684
54.05000 140.897
54.06000 138.575
54.07000 135.401
54.08000 132.436
54.09000 133.424
54.10000 135.911
54.11000 138.215
54.12000 138.884
54.13000 139.107
54.14000 139.515
54.15000 141.057
54.16000 142.792
54.17000 144.051
54.18000 143.401
54.19000 142.551
54.20000 141.921
54.21000 144.512
54.22000 146.665
54.23000 147.597
54.24000 146.261
54.25000 144.873
54.26000 142.497
54.27000 138.886
54.28000 135.276
54.29000 135.381
54.30000 138.491
54.31000 141.539
54.32000 141.713
54.33000 140.318
54.34000 138.967
54.35000 138.408
54.36000 138.146
54.37000 137.903
54.38000 137.390
54.39000 136.867
54.40000 137.263
54.41000 143.159
54.42000 149.969
54.43000 154.582
54.44000 150.557
54.45000 145.651
54.46000 142.031
54.47000 142.011
54.48000 142.147
54.49000 141.227
54.50000 138.379
54.51000 135.490
54.52000 135.921
54.53000 140.423
54.54000 144.927
54.55000 146.356
54.56000 145.337
54.57000 144.368
54.58000 145.577
54.59000 147.955
54.60000 150.252
54.61000 151.112
54.62000 151.446
54.63000 151.755
54.64000 147.960
54.65000 143.646
54.66000 139.873
54.67000 139.270
54.68000 139.184
54.69000 138.914
54.70000 137.939
54.71000 136.893
54.72000 136.126
54.73000 142.113
54.74000 147.016
54.75000 148.856
54.76000 145.201
54.77000 141.436
54.78000 141.920
54.79000 147.513
54.80000 153.106
54.81000 151.447
54.82000 144.153
54.83000 136.912
54.84000 131.851
54.85000 127.938
54.86000 124.645
54.87000 131.916
54.88000 142.993
54.89000 153.188
54.90000 151.926
54.91000 148.298
54.92000 144.729
54.93000 141.503
54.94000 138.332
54.95000 136.609
54.96000 140.377
54.97000 144.677
54.98000 147.819
54.99000 148.276
55.00000 148.522
55.01000 147.822
55.02000 145.455
55.03000 143.056
55.04000 143.471
55.05000 147.206
55.06000 150.938
55.07000 153.039
55.08000 153.884
55.09000 154.776
55.10000 157.538
55.11000 161.269
55.12000 164.759
55.13000 164.274
55.14000 162.380
55.15000 160.641
55.16000 157.117
55.17000 153.590
55.18000 150.658
55.19000 151.075
55.20000 152.017
55.21000 152.751
55.22000 152.714
55.23000 152.605
55.24000 152.525
55.25000 152.352
55.26000 152.215
55.27000 153.440
55.28000 157.023
55.29000 160.648
55.30000 163.057
55.31000 164.059
55.32000 165.057
55.33000 167.508
55.34000 171.029
55.35000 174.516
55.36000 176.680
55.37000 178.172
55.38000 179.703
55.39000 181.888
55.40000 184.301
55.41000 186.511
55.42000 188.428
55.43000 190.073
55.44000 192.487
55.45000 199.149
55.46000 206.461
55.47000 212.250
55.48000 212.464
55.49000 212.162
55.50000 211.945
55.51000 220.210
55.52000 226.862
55.53000 231.639
55.54000 233.226
55.55000 234.759
55.56000 239.990
55.57000 249.418
55.58000 258.822
55.59000 269.779
55.60000 281.792
55.61000 293.690
55.62000 301.462
55.63000 307.168
55.64000 312.857
55.65000 318.270
55.66000 323.588
55.67000 328.450
55.68000 340.882
55.69000 353.482
55.70000 366.695
55.71000 383.224
55.72000 400.250
55.73000 416.268
55.74000 428.657
55.75000 440.720
55.76000 449.397
55.77000 454.966
55.78000 459.119
55.79000 466.583
55.80000 479.584
55.81000 492.671
55.82000 503.743
55.83000 512.571
55.84000 521.366
55.85000 535.340
55.86000 552.925
55.87000 570.224
55.88000 577.753
55.89000 580.477
55.90000 583.121
55.91000 584.560
55.92000 585.593
55.93000 586.536
55.94000 593.608
55.95000 601.113
55.96000 605.666
55.97000 594.534
55.98000 581.096
55.99000 570.958
56.00000 572.479
56.01000 575.021
56.02000 576.840
56.03000 568.609
56.04000 561.985
56.05000 551.299
56.06000 533.938
56.07000 516.479
56.08000 501.336
56.09000 488.721
56.10000 476.158
56.11000 462.486
56.12000 448.161
56.13000 433.820
56.14000 418.967
56.15000 403.867
56.16000 389.143
56.17000 379.935
56.18000 372.550
56.19000 365.830
56.20000 351.780
56.21000 337.903
56.22000 324.602
56.23000 314.302
56.24000 304.434
56.25000 293.357
56.26000 278.081
56.27000 262.448
56.28000 251.320
56.29000 251.181
56.30000 251.431
56.31000 245.983
56.32000 231.334
56.33000 216.561
56.34000 209.064
56.35000 209.362
56.36000 209.660
56.37000 207.635
56.38000 204.020
56.39000 200.312
56.40000 193.693
56.41000 185.691
56.42000 178.205
56.43000 178.054
56.44000 180.285
56.45000 182.310
56.46000 180.789
56.47000 178.761
56.48000 176.056
56.49000 169.889
56.50000 163.235
56.51000 157.707
56.52000 156.025
56.53000 154.662
56.54000 153.698
56.55000 152.950
56.56000 152.388
56.57000 153.532
56.58000 157.382
56.59000 161.266
56.60000 159.117
56.61000 150.633
56.62000 142.190
56.63000 138.642
56.64000 138.464
56.65000 138.293
56.66000 138.298
56.67000 138.386
56.68000 138.555
56.69000 139.856
56.70000 141.517
56.71000 143.022
56.72000 143.268
56.73000 143.246
56.74000 142.903
56.75000 140.945
56.76000 138.764
56.77000 136.757
56.78000 135.330
56.79000 133.951
56.80000 132.979
56.81000 142.031
56.82000 149.192
56.83000 151.366
56.84000 145.769
56.85000 140.081
56.86000 135.647
56.87000 132.502
56.88000 129.375
56.89000 128.331
56.90000 128.690
56.91000 129.133
56.92000 131.973
56.93000 135.912
56.94000 139.531
56.95000 138.853
56.96000 136.827
56.97000 134.996
56.98000 136.121
56.99000 137.657
57.00000 138.957
57.01000 139.094
57.02000 139.075
57.03000 139.026
57.04000 138.880
57.05000 138.726
57.06000 138.619
57.07000 137.750
57.08000 137.072
57.09000 135.590
57.10000 132.878
57.11000 130.152
57.12000 128.981
57.13000 129.380
57.14000 129.777
57.15000 132.437
57.16000 136.544
57.17000 140.494
57.18000 140.122
57.19000 137.799
57.20000 135.519
57.21000 133.792
57.22000 132.236
57.23000 130.833
57.24000 131.528
57.25000 132.517
57.26000 132.842
57.27000 129.961
57.28000 126.658
57.29000 123.993
57.30000 123.398
57.31000 122.961
57.32000 122.656
57.33000 131.732
57.34000 138.833
57.35000 140.805
57.36000 135.062
57.37000 129.242
57.38000 127.472
57.39000 129.708
57.40000 131.929
57.41000 130.826
57.42000 127.605
57.43000 124.429
57.44000 122.479
57.45000 121.072
57.46000 119.739
57.47000 119.335
57.48000 119.212
57.49000 119.102
57.50000 124.000
57.51000 129.178
57.52000 132.995
57.53000 130.361
57.54000 126.895
57.55000 124.084
57.56000 123.356
57.57000 122.783
57.58000 122.387
57.59000 126.053
57.60000 128.917
57.61000 129.675
57.62000 127.320
57.63000 124.937
57.64000 124.847
57.65000 126.979
57.66000 129.097
57.67000 128.476
57.68000 126.140
57.69000 123.975
57.70000 126.155
57.71000 130.230
57.72000 133.984
57.73000 133.778
57.74000 132.394
57.75000 131.152
57.76000 133.575
57.77000 136.330
57.78000 138.006
57.79000 134.664
57.80000 130.689
57.81000 127.294
57.82000 125.713
57.83000 124.264
57.84000 123.266
57.85000 123.869
57.86000 124.361
57.87000 124.949
57.88000 125.675
57.89000 126.402
57.90000 126.791
57.91000 126.861
57.92000 126.930
57.93000 128.262
57.94000 130.352
57.95000 132.329
57.96000 131.541
57.97000 129.569
57.98000 127.721
57.99000 127.377
58.00000 127.473
58.01000 127.559
58.02000 127.248
58.03000 126.909
58.04000 126.706
58.05000 127.129
58.06000 127.628
58.07000 127.463
58.08000 125.253
58.09000 122.900
58.10000 121.289
58.11000 123.693
58.12000 125.589
58.13000 124.781
58.14000 120.122
58.15000 115.435
58.16000 114.264
58.17000 116.369
58.18000 118.457
58.19000 118.862
58.20000 118.238
58.21000 117.711
58.22000 119.438
58.23000 122.116
58.24000 124.633
58.25000 125.277
58.26000 125.383
58.27000 125.477
58.28000 124.437
58.29000 123.344
58.30000 121.915
58.31000 118.984
58.32000 115.871
58.33000 114.241
58.34000 117.088
58.35000 120.240
58.36000 122.384
58.37000 125.493
58.38000 127.837
58.39000 129.095
58.40000 128.832
58.41000 128.557
58.42000 126.100
58.43000 121.649
58.44000 117.238
58.45000 117.793
58.46000 121.295
58.47000 124.756
58.48000 127.309
58.49000 129.486
58.50000 131.297
58.51000 128.933
58.52000 125.390
58.53000 122.237
58.54000 124.455
58.55000 127.256
58.56000 128.776
58.57000 124.660
58.58000 119.880
58.59000 115.929
58.60000 114.441
58.61000 113.115
58.62000 112.219
58.63000 115.499
58.64000 118.033
58.65000 118.233
58.66000 115.227
58.67000 112.202
58.68000 110.559
58.69000 110.155
58.70000 109.754
58.71000 113.351
58.72000 119.207
58.73000 124.762
58.74000 123.748
58.75000 120.061
58.76000 116.776
58.77000 117.963
58.78000 120.391
58.79000 122.545
58.80000 122.641
58.81000 122.395
58.82000 121.755
58.83000 119.417
58.84000 116.882
58.85000 115.938
58.86000 119.631
58.87000 123.621
58.88000 126.304
58.89000 123.820
58.90000 121.869
58.91000 119.941
58.92000 118.044
58.93000 116.148
58.94000 114.856
58.95000 114.093
58.96000 113.339
58.97000 112.794
58.98000 112.381
58.99000 112.151
59.00000 115.777
59.01000 120.946
59.02000 125.590
59.03000 124.554
59.04000 121.970
59.05000 119.683
59.06000 118.803
59.07000 118.263
59.08000 118.423
59.09000 121.555
59.10000 125.022
59.11000 127.325
59.12000 126.290
59.13000 125.047
59.14000 124.216
59.15000 124.544
59.16000 124.810
59.17000 123.562
59.18000 120.309
59.19000 117.051
59.20000 116.327
59.21000 117.789
59.22000 119.235
59.23000 119.397
59.24000 118.833
59.25000 118.423
59.26000 121.137
59.27000 125.080
59.28000 128.423
59.29000 125.441
59.30000 120.765
59.31000 116.639
59.32000 116.165
59.33000 116.314
59.34000 117.530
59.35000 123.195
59.36000 129.348
59.37000 131.275
59.38000 121.289
59.39000 110.585
59.40000 103.477
59.41000 110.538
59.42000 116.020
59.43000 118.368
59.44000 116.643
59.45000 114.900
59.46000 112.775
59.47000 110.326
59.48000 107.908
59.49000 110.727
59.50000 116.368
59.51000 121.754
59.52000 122.121
59.53000 120.547
59.54000 119.046
59.55000 118.297
59.56000 117.746
59.57000 117.261
59.58000 118.270
59.59000 119.361
59.60000 120.059
59.61000 119.149
59.62000 118.066
59.63000 117.667
59.64000 119.165
59.65000 120.773
59.66000 121.834
59.67000 122.305
59.68000 122.642
59.69000 122.020
59.70000 120.172
59.71000 118.320
59.72000 116.634
59.73000 115.086
59.74000 113.557
59.75000 116.531
59.76000 121.866
59.77000 126.874
59.78000 125.680
59.79000 122.127
59.80000 118.679
59.81000 116.280
59.82000 114.153
59.83000 112.285
59.84000 114.348
59.85000 116.693
59.86000 118.799
59.87000 119.942
59.88000 120.984
59.89000 121.770
59.90000 121.857
59.91000 121.905
59.92000 121.937
59.93000 118.039
59.94000 115.108
59.95000 113.578
59.96000 113.803
59.97000 114.044
59.98000 118.034
59.99000 125.080
60.00000 132.029
60.01000 128.148
60.02000 118.617
60.03000 109.602
60.04000 110.035
60.05000 114.000
60.06000 117.589
60.07000 117.488
60.08000 116.452
60.09000 115.545
60.10000 115.959
60.11000 116.503
60.12000 117.775
60.13000 121.916
60.14000 126.351
60.15000 128.461
60.16000 124.350
60.17000 119.897
60.18000 116.997
60.19000 117.526
60.20000 117.968
60.21000 117.895
60.22000 117.189
60.23000 116.488
60.24000 118.171
60.25000 121.760
60.26000 125.298
60.27000 122.565
60.28000 116.641
60.29000 111.117
60.30000 112.700
60.31000 116.895
60.32000 120.772
60.33000 121.620
60.34000 121.713
60.35000 121.794
60.36000 119.560
60.37000 117.327
60.38000 116.037
60.39000 118.403
60.40000 121.133
60.41000 122.702
60.42000 121.213
60.43000 119.562
60.44000 118.493
60.45000 120.673
60.46000 122.315
60.47000 123.198
60.48000 123.166
60.49000 123.125
60.50000 120.825
60.51000 116.754
60.52000 112.745
60.53000 112.909
60.54000 115.204
60.55000 117.504
60.56000 119.892
60.57000 122.311
60.58000 124.594
60.59000 125.605
60.60000 126.305
60.61000 126.914
60.62000 118.589
60.63000 110.263
60.64000 104.435
60.65000 108.109
60.66000 112.709
60.67000 116.396
60.68000 117.720
60.69000 118.924
60.70000 119.697
60.71000 121.129
60.72000 122.183
60.73000 122.178
60.74000 120.919
60.75000 119.666
60.76000 120.286
60.77000 122.348
60.78000 124.376
60.79000 124.348
60.80000 123.288
60.81000 122.234
60.82000 121.284
60.83000 120.370
60.84000 119.475
60.85000 118.752
60.86000 118.071
60.87000 117.480
60.88000 113.481
60.89000 109.621
60.90000 107.833
60.91000 113.791
60.92000 120.484
60.93000 125.047
60.94000 124.194
60.95000 123.074
60.96000 122.358
60.97000 118.149
60.98000 115.040
60.99000 115.229
61.00000 119.246
61.01000 123.253
61.02000 123.817
61.03000 121.779
61.04000 119.776
61.05000 121.689
61.06000 125.469
61.07000 129.008
61.08000 128.672
61.09000 126.983
61.10000 125.543
61.11000 126.317
61.12000 127.614
61.13000 128.735
61.14000 123.701
61.15000 118.619
61.16000 114.602
61.17000 114.496
61.18000 114.752
61.19000 117.278
61.20000 125.478
61.21000 133.948
61.22000 139.322
61.23000 136.068
61.24000 133.601
61.25000 131.956
61.26000 131.245
61.27000 130.537
61.28000 130.044
61.29000 129.711
61.30000 129.385
61.31000 129.327
61.32000 129.402
61.33000 129.407
61.34000 128.339
61.35000 126.902
61.36000 125.754
61.37000 127.112
61.38000 129.051
61.39000 130.723
61.40000 123.955
61.41000 117.139
61.42000 113.920
61.43000 123.674
61.44000 134.598
61.45000 142.295
61.46000 142.057
61.47000 141.455
61.48000 141.076
61.49000 143.629
61.50000 145.510
61.51000 150.188
61.52000 157.991
61.53000 165.825
61.54000 178.327
61.55000 194.231
61.56000 209.832
61.57000 221.218
61.58000 230.186
61.59000 239.190
61.60000 248.721
61.61000 258.431
61.62000 267.461
61.63000 270.727
61.64000 272.682
61.65000 274.363
61.66000 278.576
61.67000 282.457
61.68000 285.179
61.69000 283.794
61.70000 282.049
61.71000 281.075
61.72000 281.965
61.73000 282.937
61.74000 283.545
61.75000 278.927
61.76000 275.538
61.77000 268.805
61.78000 258.408
61.79000 247.967
61.80000 231.099
61.81000 209.635
61.82000 188.600
61.83000 177.196
61.84000 170.713
61.85000 164.265
61.86000 158.330
61.87000 152.566
61.88000 147.068
61.89000 143.786
61.90000 140.999
61.91000 138.610
61.92000 137.400
61.93000 136.523
61.94000 135.583
61.95000 134.427
61.96000 133.252
61.97000 131.022
61.98000 126.285
61.99000 121.441
62.00000 118.431
62.01000 124.102
62.02000 128.270
62.03000 129.329
62.04000 127.048
62.05000 124.779
62.06000 124.148
62.07000 124.668
62.08000 125.177
62.09000 124.680
62.10000 123.741
62.11000 122.734
62.12000 120.732
62.13000 118.407
62.14000 117.039
62.15000 123.442
62.16000 131.547
62.17000 138.470
62.18000 137.815
62.19000 136.361
62.20000 134.999
62.21000 133.951
62.22000 132.930
62.23000 131.910
62.24000 130.894
62.25000 129.878
62.26000 129.252
62.27000 122.822
62.28000 118.153
62.29000 116.477
62.30000 117.953
62.31000 119.442
62.32000 122.307
62.33000 126.123
62.34000 129.854
62.35000 127.246
62.36000 121.899
62.37000 117.089
62.38000 119.730
62.39000 124.757
62.40000 129.612
62.41000 133.108
62.42000 136.312
62.43000 139.040
62.44000 133.961
62.45000 128.784
62.46000 124.890
62.47000 125.304
62.48000 126.069
62.49000 127.314
62.50000 129.663
62.51000 132.055
62.52000 133.521
62.53000 131.382
62.54000 129.821
62.55000 128.015
62.56000 125.957
62.57000 123.932
62.58000 125.572
62.59000 129.694
62.60000 133.721
62.61000 130.795
62.62000 124.930
62.63000 119.581
62.64000 121.183
62.65000 124.972
62.66000 128.667
62.67000 131.635
62.68000 134.449
62.69000 136.837
62.70000 135.540
62.71000 134.034
62.72000 132.865
62.73000 132.814
62.74000 132.850
62.75000 132.564
62.76000 131.551
62.77000 130.511
62.78000 129.878
62.79000 129.290
62.80000 128.870
62.81000 132.027
62.82000 138.805
62.83000 145.529
62.84000 146.743
62.85000 144.291
62.86000 141.899
62.87000 138.411
62.88000 134.604
62.89000 131.133
62.90000 132.075
62.91000 134.382
62.92000 136.446
62.93000 136.675
62.94000 136.524
62.95000 136.395
62.96000 131.401
62.97000 126.683
62.98000 123.539
62.99000 125.506
63.00000 127.866
63.01000 128.625
63.02000 125.836
63.03000 122.918
63.04000 121.156
63.05000 127.945
63.06000 132.840
63.07000 133.776
63.08000 130.786
63.09000 127.833
63.10000 128.294
63.11000 130.986
63.12000 133.610
63.13000 132.995
63.14000 131.035
63.15000 129.363
63.16000 131.370
63.17000 134.493
63.18000 137.275
63.19000 137.512
63.20000 137.232
63.21000 136.996
63.22000 135.087
63.23000 133.313
63.24000 132.449
63.25000 134.490
63.26000 136.747
63.27000 138.219
63.28000 137.978
63.29000 137.678
63.30000 137.499
63.31000 138.301
63.32000 138.876
63.33000 137.930
63.34000 135.503
63.35000 133.122
63.36000 134.610
63.37000 138.583
63.38000 142.450
63.39000 142.024
63.40000 139.829
63.41000 137.690
63.42000 136.241
63.43000 134.998
63.44000 133.793
63.45000 132.866
63.46000 131.994
63.47000 131.261
63.48000 133.316
63.49000 135.321
63.50000 136.504
63.51000 135.105
63.52000 133.519
63.53000 132.090
63.54000 130.996
63.55000 129.913
63.56000 129.269
63.57000 128.217
63.58000 127.469
63.59000 127.484
63.60000 128.226
63.61000 128.970
63.62000 129.893
63.63000 130.930
63.64000 131.938
63.65000 131.556
63.66000 130.625
63.67000 130.053
63.68000 133.809
63.69000 138.833
63.70000 143.270
63.71000 143.525
63.72000 142.962
63.73000 142.491
63.74000 141.968
63.75000 141.528
63.76000 141.358
63.77000 142.018
63.78000 142.737
63.79000 143.537
63.80000 144.508
63.81000 145.485
63.82000 146.061
63.83000 144.016
63.84000 142.558
63.85000 140.932
63.86000 139.149
63.87000 137.404
63.88000 138.497
63.89000 141.347
63.90000 144.116
63.91000 146.591
63.92000 148.822
63.93000 150.672
63.94000 148.036
63.95000 144.108
63.96000 140.698
63.97000 140.897
63.98000 141.788
63.99000 142.532
64.00000 143.871
64.01000 145.042
64.02000 146.241
64.03000 147.527
64.04000 148.818
64.05000 149.572
64.06000 149.214
64.07000 148.822
64.08000 148.592
64.09000 148.661
64.10000 148.711
64.11000 148.849
64.12000 149.066
64.13000 149.258
64.14000 147.740
64.15000 145.180
64.16000 142.697
64.17000 145.875
64.18000 151.114
64.19000 155.936
64.20000 155.990
64.21000 154.694
64.22000 153.760
64.23000 155.294
64.24000 157.293
64.25000 158.955
64.26000 154.772
64.27000 150.738
64.28000 149.227
64.29000 155.220
64.30000 161.712
64.31000 163.359
64.32000 155.144
64.33000 146.640
64.34000 141.701
64.35000 152.087
64.36000 159.441
64.37000 160.243
64.38000 155.159
64.39000 150.130
64.40000 148.695
64.41000 149.408
64.42000 150.099
64.43000 153.052
64.44000 156.720
64.45000 159.978
64.46000 158.679
64.47000 156.112
64.48000 153.937
64.49000 154.381
64.50000 155.309
64.51000 156.077
64.52000 157.564
64.53000 158.860
64.54000 159.463
64.55000 158.039
64.56000 156.484
64.57000 155.793
64.58000 156.831
64.59000 157.916
64.60000 158.542
64.61000 157.705
64.62000 157.115
64.63000 157.885
64.64000 159.854
64.65000 161.810
64.66000 163.026
64.67000 163.805
64.68000 164.560
64.69000 162.548
64.70000 159.600
64.71000 157.430
64.72000 163.697
64.73000 172.271
64.74000 179.729
64.75000 179.900
64.76000 178.752
64.77000 177.804
64.78000 178.999
64.79000 180.183
64.80000 180.002
64.81000 175.900
64.82000 171.553
64.83000 168.939
64.84000 169.732
64.85000 170.616
64.86000 171.122
64.87000 173.980
64.88000 175.981
64.89000 175.974
64.90000 174.231
64.91000 172.566
64.92000 175.331
64.93000 180.655
64.94000 185.798
64.95000 185.834
64.96000 183.969
64.97000 182.194
64.98000 181.380
64.99000 180.825
65.00000 180.836
65.01000 184.479
65.02000 188.766
65.03000 192.292
65.04000 191.741
65.05000 190.918
65.06000 189.954
65.07000 188.594
65.08000 187.210
65.09000 187.747
65.10000 191.994
65.11000 196.335
65.12000 198.796
65.13000 207.974
65.14000 214.373
65.15000 215.078
65.16000 210.955
65.17000 206.890
65.18000 205.952
65.19000 206.789
65.20000 207.595
65.21000 208.675
65.22000 209.791
65.23000 211.056
65.24000 213.860
65.25000 217.071
65.26000 220.604
65.27000 226.157
65.28000 232.062
65.29000 236.901
65.30000 232.952
65.31000 228.938
65.32000 226.794
65.33000 229.848
65.34000 233.207
65.35000 237.784
65.36000 244.676
65.37000 251.623
65.38000 255.529
65.39000 256.257
65.40000 256.756
65.41000 257.622
65.42000 258.794
65.43000 260.007
65.44000 263.237
65.45000 267.592
65.46000 271.787
65.47000 278.748
65.48000 286.277
65.49000 293.297
65.50000 295.195
65.51000 295.767
65.52000 297.140
65.53000 303.439
65.54000 310.579
65.55000 316.409
65.56000 330.744
65.57000 343.205
65.58000 354.935
65.59000 364.668
65.60000 374.287
65.61000 384.913
65.62000 397.420
65.63000 409.970
65.64000 416.966
65.65000 454.647
65.66000 480.820
65.67000 520.956
65.68000 572.495
65.69000 624.533
65.70000 700.190
65.71000 788.796
65.72000 874.031
65.73000 981.129
65.74000 1089.226
65.75000 1197.983
65.76000 1313.228
65.77000 1430.122
65.78000 1540.556
65.79000 1612.092
65.80000 1677.122
65.81000 1730.022
65.82000 1782.265
65.83000 1824.864
65.84000 1859.867
65.85000 1874.486
65.86000 1887.984
65.87000 1895.732
65.88000 1892.928
65.89000 1889.896
65.90000 1888.221
65.91000 1833.053
65.92000 1794.831
65.93000 1733.613
65.94000 1653.965
65.95000 1573.714
65.96000 1466.412
65.97000 1344.537
65.98000 1227.468
65.99000 1102.531
66.00000 982.892
66.01000 865.459
66.02000 769.179
66.03000 678.185
66.04000 593.647
66.05000 547.206
66.06000 507.007
66.07000 474.432
66.08000 451.475
66.09000 433.559
66.10000 416.610
66.11000 402.212
66.12000 387.948
66.13000 378.233
66.14000 376.719
66.15000 375.372
66.16000 374.634
66.17000 354.723
66.18000 341.031
66.19000 336.417
66.20000 338.941
66.21000 341.689
66.22000 353.904
66.23000 371.134
66.24000 387.659
66.25000 399.354
66.26000 408.647
66.27000 418.702
66.28000 435.905
66.29000 454.861
66.30000 473.751
66.31000 492.255
66.32000 510.698
66.33000 525.586
66.34000 552.196
66.35000 574.754
66.36000 593.149
66.37000 600.745
66.38000 607.787
66.39000 612.945
66.40000 614.763
66.41000 616.518
66.42000 617.471
66.43000 611.454
66.44000 607.328
66.45000 605.048
66.46000 604.194
66.47000 602.956
66.48000 586.270
66.49000 561.544
66.50000 537.864
66.51000 517.690
66.52000 500.044
66.53000 482.578
66.54000 466.763
66.55000 451.346
66.56000 436.404
66.57000 424.159
66.58000 412.337
66.59000 402.832
66.60000 392.302
66.61000 383.685
66.62000 377.491
66.63000 377.477
66.64000 377.770
66.65000 373.601
66.66000 361.664
66.67000 349.586
66.68000 343.084
66.69000 336.558
66.70000 332.119
66.71000 332.468
66.72000 336.446
66.73000 340.365
66.74000 342.014
66.75000 342.502
66.76000 342.969
66.77000 338.592
66.78000 332.941
66.79000 328.260
66.80000 332.241
66.81000 338.271
66.82000 344.047
66.83000 348.419
66.84000 352.574
66.85000 355.901
66.86000 353.324
66.87000 350.796
66.88000 348.451
66.89000 346.566
66.90000 344.704
66.91000 344.332
66.92000 346.511
66.93000 348.734
66.94000 349.919
66.95000 343.374
66.96000 338.948
66.97000 342.072
66.98000 350.815
66.99000 359.360
67.00000 360.707
67.01000 358.434
67.02000 356.264
67.03000 362.488
67.04000 370.950
67.05000 378.306
67.06000 376.023
67.07000 371.501
67.08000 368.239
67.09000 371.846
67.10000 376.491
67.11000 380.195
67.12000 370.177
67.13000 361.088
67.14000 357.068
67.15000 365.534
67.16000 374.577
67.17000 380.192
67.18000 380.043
67.19000 379.802
67.20000 379.675
67.21000 370.668
67.22000 364.596
67.23000 366.852
67.24000 375.192
67.25000 383.324
67.26000 384.221
67.27000 381.542
67.28000 378.988
67.29000 379.916
67.30000 381.869
67.31000 383.674
67.32000 384.225
67.33000 384.491
67.34000 385.664
67.35000 391.691
67.36000 398.435
67.37000 403.793
67.38000 414.862
67.39000 424.181
67.40000 427.375
67.41000 415.736
67.42000 403.436
67.43000 395.222
67.44000 393.761
67.45000 392.399
67.46000 391.686
67.47000 409.043
67.48000 420.715
67.49000 419.323
67.50000 408.562
67.51000 398.316
67.52000 405.186
67.53000 420.370
67.54000 434.819
67.55000 436.601
67.56000 434.355
67.57000 432.059
67.58000 429.345
67.59000 426.538
67.60000 423.795
67.61000 421.388
67.62000 419.030
67.63000 417.164
67.64000 422.303
67.65000 426.916
67.66000 430.045
67.67000 429.644
67.68000 429.091
67.69000 428.099
67.70000 426.397
67.71000 424.685
67.72000 423.797
67.73000 430.715
67.74000 435.397
67.75000 441.633
67.76000 448.964
67.77000 456.015
67.78000 454.229
67.79000 448.223
67.80000 442.517
67.81000 448.276
67.82000 457.054
67.83000 464.423
67.84000 460.338
67.85000 453.735
67.86000 448.306
67.87000 448.917
67.88000 450.384
67.89000 451.539
67.90000 463.633
67.91000 474.061
67.92000 481.957
67.93000 483.930
67.94000 485.658
67.95000 486.539
67.96000 486.070
67.97000 485.584
67.98000 485.335
67.99000 487.417
68.00000 488.811
68.01000 489.398
68.02000 489.425
68.03000 489.368
68.04000 486.732
68.05000 482.887
68.06000 479.240
68.07000 480.452
68.08000 483.007
68.09000 486.721
68.10000 499.655
68.11000 514.578
68.12000 526.748
68.13000 525.027
68.14000 521.379
68.15000 518.517
68.16000 517.055
68.17000 515.976
68.18000 517.377
68.19000 524.480
68.20000 531.810
68.21000 535.540
68.22000 533.631
68.23000 531.654
68.24000 530.648
68.25000 538.232
68.26000 543.381
68.27000 555.557
68.28000 572.509
68.29000 588.873
68.30000 588.169
68.31000 579.590
68.32000 571.467
68.33000 568.169
68.34000 566.534
68.35000 566.558
68.36000 579.487
68.37000 595.148
68.38000 610.248
68.39000 622.571
68.40000 634.517
68.41000 643.852
68.42000 626.864
68.43000 611.644
68.44000 605.127
68.45000 618.293
68.46000 632.209
68.47000 643.889
68.48000 652.127
68.49000 660.326
68.50000 664.456
68.51000 680.873
68.52000 691.822
68.53000 700.411
68.54000 707.423
68.55000 714.811
68.56000 732.629
68.57000 755.178
68.58000 776.489
68.59000 800.670
68.60000 823.694
68.61000 846.529
68.62000 867.927
68.63000 889.027
68.64000 912.810
68.65000 949.628
68.66000 988.178
68.67000 1018.170
68.68000 1075.176
68.69000 1122.214
68.70000 1166.412
68.71000 1204.299
68.72000 1241.954
68.73000 1284.889
68.74000 1335.805
68.75000 1386.802
68.76000 1431.708
68.77000 1470.553
68.78000 1509.473
68.79000 1555.527
68.80000 1606.256
68.81000 1657.114
68.82000 1711.410
68.83000 1767.239
68.84000 1819.911
68.85000 1912.645
68.86000 2008.826
68.87000 2111.844
68.88000 2265.774
68.89000 2430.085
68.90000 2644.758
68.91000 3099.472
68.92000 3585.363
68.93000 3961.762
68.94000 5641.824
68.95000 7053.737
68.96000 8863.783
68.97000 11543.885
68.98000 14254.564
68.99000 17227.729
69.00000 20590.619
69.01000 23957.078
69.02000 27071.902
69.03000 29941.199
69.04000 32801.293
69.05000 34863.160
69.06000 36411.082
69.07000 37939.172
69.08000 38958.250
69.09000 39754.234
69.10000 40503.844
69.11000 41066.117
69.12000 41529.203
69.13000 42038.035
69.14000 42880.258
69.15000 43789.172
69.16000 44588.285
69.17000 44873.813
69.18000 45094.098
69.19000 45263.996
69.20000 43715.570
69.21000 42389.496
69.22000 40563.160
69.23000 37662.160
69.24000 34724.969
69.25000 32023.184
69.26000 29664.680
69.27000 27309.254
69.28000 25436.063
69.29000 24024.074
69.30000 22618.783
69.31000 21751.211
69.32000 21223.748
69.33000 20704.934
69.34000 20399.436
69.35000 20185.846
69.36000 19985.070
69.37000 19361.926
69.38000 18679.602
69.39000 17918.318
69.40000 16593.910
69.41000 15158.989
69.42000 13655.953
69.43000 11840.201
69.44000 9985.604
69.45000 8561.579
69.46000 6890.113
69.47000 5554.979
69.48000 4415.196
69.49000 3687.921
69.50000 2973.942
69.51000 2411.083
69.52000 2064.647
69.53000 1719.932
69.54000 1495.843
69.55000 1384.838
69.56000 1274.284
69.57000 1197.399
69.58000 1141.434
69.59000 1085.725
69.60000 1036.083
69.61000 989.011
69.62000 944.845
69.63000 908.533
69.64000 877.512
69.65000 847.382
69.66000 823.465
69.67000 800.745
69.68000 778.228
69.69000 756.630
69.70000 735.143
69.71000 718.719
69.72000 707.638
69.73000 699.189
69.74000 691.416
69.75000 685.049
69.76000 678.725
69.77000 669.900
69.78000 657.556
69.79000 645.191
69.80000 630.183
69.81000 612.757
69.82000 595.369
69.83000 580.629
69.84000 567.504
69.85000 554.955
69.86000 555.568
69.87000 561.660
69.88000 567.365
69.89000 558.577
69.90000 546.844
69.91000 536.043
69.92000 531.610
69.93000 528.378
69.94000 524.757
69.95000 519.410
69.96000 513.857
69.97000 509.632
69.98000 504.040
69.99000 499.568
70.00000 496.848
