20.00000 481.063
20.01000 484.367
20.02000 488.143
20.03000 489.464
20.04000 481.108
20.05000 471.762
20.06000 464.862
20.07000 468.098
20.08000 471.037
20.09000 472.303
20.10000 470.509
20.11000 468.650
20.12000 468.134
20.13000 469.266
20.14000 470.400
20.15000 468.639
20.16000 464.583
20.17000 460.736
20.18000 466.159
20.19000 476.563
20.20000 486.494
20.21000 488.076
20.22000 486.590
20.23000 485.220
20.24000 476.153
20.25000 466.310
20.26000 458.279
20.27000 460.907
20.28000 465.275
20.29000 470.044
20.30000 476.367
20.31000 482.846
20.32000 487.606
20.33000 477.379
20.34000 468.859
20.35000 463.322
20.36000 463.146
20.37000 463.078
20.38000 465.886
20.39000 472.161
20.40000 478.430
20.41000 480.512
20.42000 479.317
20.43000 477.997
20.44000 471.423
20.45000 462.075
20.46000 453.312
20.47000 454.585
20.48000 459.481
20.49000 463.988
20.50000 467.348
20.51000 470.101
20.52000 472.365
20.53000 471.804
20.54000 470.791
20.55000 468.336
20.56000 460.394
20.57000 451.919
20.58000 445.723
20.59000 445.248
20.60000 445.107
20.61000 446.857
20.62000 451.947
20.63000 457.100
20.64000 463.798
20.65000 472.323
20.66000 480.831
20.67000 482.210
20.68000 478.126
20.69000 474.121
20.70000 473.284
20.71000 474.090
20.72000 474.659
20.73000 471.302
20.74000 466.551
20.75000 462.186
20.76000 464.456
20.77000 467.905
20.78000 471.430
20.79000 475.387
20.80000 479.412
20.81000 482.208
20.82000 480.412
20.83000 478.181
20.84000 476.559
20.85000 470.153
20.86000 465.043
20.87000 462.933
20.88000 466.031
20.89000 469.222
20.90000 469.546
20.91000 466.543
20.92000 463.543
20.93000 462.566
20.94000 463.113
20.95000 463.681
20.96000 465.007
20.97000 466.719
20.98000 468.386
20.99000 469.321
21.00000 470.001
21.01000 470.624
21.02000 465.901
21.03000 460.572
21.04000 457.443
21.05000 466.510
21.06000 477.449
21.07000 485.108
21.08000 480.731
21.09000 475.239
21.10000 471.266
21.11000 474.089
21.12000 476.505
21.13000 479.447
21.14000 483.286
21.15000 487.140
21.16000 484.737
21.17000 475.212
21.18000 465.708
21.19000 468.501
21.20000 480.323
21.21000 491.813
21.22000 491.256
21.23000 484.660
21.24000 478.426
21.25000 477.834
21.26000 479.177
21.27000 480.405
21.28000 485.796
21.29000 491.445
21.30000 495.269
21.31000 489.178
21.32000 481.596
21.33000 475.783
21.34000 476.351
21.35000 477.494
21.36000 478.317
21.37000 467.713
21.38000 459.191
21.39000 454.145
21.40000 454.924
21.41000 455.795
21.42000 458.359
21.43000 462.815
21.44000 467.256
21.45000 472.271
21.46000 477.658
21.47000 482.893
21.48000 482.913
21.49000 480.362
21.50000 477.808
21.51000 475.190
21.52000 472.551
21.53000 470.143
21.54000 472.286
21.55000 475.105
21.56000 477.920
21.57000 480.716
21.58000 483.509
21.59000 483.076
21.60000 471.217
21.61000 458.354
21.62000 449.143
21.63000 462.396
21.64000 473.279
21.65000 484.407
21.66000 495.937
21.67000 507.473
21.68000 513.977
21.69000 514.971
21.70000 515.959
21.71000 519.559
21.72000 524.976
21.73000 530.548
21.74000 541.244
21.75000 554.421
21.76000 566.943
21.77000 569.851
21.78000 569.573
21.79000 569.320
21.80000 584.134
21.81000 600.222
21.82000 614.318
21.83000 618.001
21.84000 620.183
21.85000 625.474
21.86000 641.587
21.87000 658.626
21.88000 670.762
21.89000 683.048
21.90000 692.416
21.91000 705.214
21.92000 723.564
21.93000 741.990
21.94000 758.237
21.95000 772.143
21.96000 785.988
21.97000 791.580
21.98000 791.380
21.99000 791.578
22.00000 804.274
22.01000 822.922
22.02000 839.988
22.03000 834.502
22.04000 821.674
22.05000 810.024
22.06000 809.653
22.07000 811.507
22.08000 810.719
22.09000 796.390
22.10000 780.149
22.11000 765.979
22.12000 758.888
22.13000 752.387
22.14000 747.781
22.15000 722.386
22.16000 702.434
22.17000 685.513
22.18000 673.412
22.19000 661.373
22.20000 647.981
22.21000 633.166
22.22000 618.422
22.23000 605.997
22.24000 595.295
22.25000 584.610
22.26000 574.473
22.27000 564.591
22.28000 554.948
22.29000 548.618
22.30000 543.347
22.31000 538.573
22.32000 536.207
22.33000 534.577
22.34000 531.350
22.35000 520.086
22.36000 507.711
22.37000 497.713
22.38000 495.702
22.39000 494.339
22.40000 493.379
22.41000 488.785
22.42000 485.193
22.43000 483.936
22.44000 486.326
22.45000 488.759
22.46000 487.809
22.47000 483.367
22.48000 478.949
22.49000 477.851
22.50000 478.987
22.51000 480.106
22.52000 480.717
22.53000 481.095
22.54000 481.109
22.55000 476.237
22.56000 469.828
22.57000 464.036
22.58000 460.696
22.59000 458.213
22.60000 455.564
22.61000 452.094
22.62000 448.513
22.63000 448.946
22.64000 462.629
22.65000 477.357
22.66000 487.677
22.67000 466.533
22.68000 449.637
22.69000 440.929
22.70000 444.780
22.71000 448.769
22.72000 448.341
22.73000 443.444
22.74000 438.576
22.75000 437.257
22.76000 438.285
22.77000 439.214
22.78000 437.400
22.79000 434.345
22.80000 431.425
22.81000 430.261
22.82000 429.639
22.83000 429.079
22.84000 432.275
22.85000 435.762
22.86000 439.415
22.87000 443.865
22.88000 448.421
22.89000 449.578
22.90000 439.706
22.91000 428.989
22.92000 421.521
22.93000 434.570
22.94000 444.979
22.95000 450.509
22.96000 448.684
22.97000 446.786
22.98000 441.652
22.99000 433.312
23.00000 425.026
23.01000 421.001
23.02000 419.778
23.03000 418.908
23.04000 427.431
23.05000 440.129
23.06000 451.588
23.07000 447.290
23.08000 438.207
23.09000 430.039
23.10000 428.103
23.11000 427.515
23.12000 428.252
23.13000 435.277
23.14000 443.116
23.15000 448.502
23.16000 446.063
23.17000 443.040
23.18000 440.947
23.19000 429.451
23.20000 420.552
23.21000 418.867
23.22000 427.861
23.23000 436.953
23.24000 437.722
23.25000 430.404
23.26000 423.138
23.27000 421.996
23.28000 424.741
23.29000 427.257
23.30000 423.925
23.31000 418.037
23.32000 412.761
23.33000 415.054
23.34000 419.606
23.35000 423.689
23.36000 425.488
23.37000 426.661
23.38000 427.375
23.39000 425.941
23.40000 424.236
23.41000 422.794
23.42000 422.177
23.43000 421.620
23.44000 421.236
23.45000 426.632
23.46000 430.828
23.47000 429.842
23.48000 421.321
23.49000 412.738
23.50000 411.260
23.51000 416.553
23.52000 421.804
23.53000 426.056
23.54000 429.616
23.55000 432.926
23.56000 430.127
23.57000 424.703
23.58000 419.986
23.59000 423.780
23.60000 430.070
23.61000 435.697
23.62000 434.371
23.63000 432.029
23.64000 429.507
23.65000 426.167
23.66000 422.725
23.67000 420.003
23.68000 419.494
23.69000 419.140
23.70000 418.899
23.71000 423.647
23.72000 427.322
23.73000 428.580
23.74000 426.387
23.75000 424.167
23.76000 421.682
23.77000 418.949
23.78000 416.239
23.79000 416.329
23.80000 418.120
23.81000 419.704
23.82000 416.427
23.83000 411.097
23.84000 405.804
23.85000 400.950
23.86000 396.221
23.87000 392.002
23.88000 390.620
23.89000 389.891
23.90000 391.789
23.91000 405.486
23.92000 420.610
23.93000 430.035
23.94000 422.211
23.95000 413.207
23.96000 407.077
23.97000 417.284
23.98000 425.283
23.99000 427.520
24.00000 421.680
24.01000 415.788
24.02000 417.427
24.03000 425.961
24.04000 434.419
24.05000 433.775
24.06000 427.711
24.07000 421.540
24.08000 412.946
24.09000 403.346
24.10000 394.865
24.11000 399.161
24.12000 407.074
24.13000 414.117
24.14000 412.768
24.15000 410.225
24.16000 408.197
24.17000 408.439
24.18000 408.951
24.19000 408.818
24.20000 406.772
24.21000 404.598
24.22000 403.127
24.23000 410.541
24.24000 416.257
24.25000 419.782
24.26000 420.287
24.27000 420.775
24.28000 422.972
24.29000 426.703
24.30000 430.399
24.31000 426.983
24.32000 419.474
24.33000 412.348
24.34000 413.597
24.35000 418.265
24.36000 421.909
24.37000 414.151
24.38000 403.222
24.39000 393.521
24.40000 400.726
24.41000 409.674
24.42000 417.086
24.43000 417.841
24.44000 417.826
24.45000 416.994
24.46000 413.767
24.47000 410.387
24.48000 408.113
24.49000 412.918
24.50000 416.637
24.51000 416.488
24.52000 411.112
24.53000 405.714
24.54000 407.825
24.55000 416.550
24.56000 425.185
24.57000 425.558
24.58000 421.175
24.59000 416.955
24.60000 416.161
24.61000 416.742
24.62000 417.083
24.63000 414.814
24.64000 411.832
24.65000 409.192
24.66000 410.683
24.67000 412.618
24.68000 413.802
24.69000 411.795
24.70000 409.427
24.71000 406.921
24.72000 404.017
24.73000 401.088
24.74000 399.129
24.75000 401.199
24.76000 402.812
24.77000 403.861
24.78000 404.161
24.79000 404.454
24.80000 402.881
24.81000 399.694
24.82000 396.542
24.83000 398.165
24.84000 402.443
24.85000 406.363
24.86000 403.007
24.87000 396.782
24.88000 391.428
24.89000 395.282
24.90000 401.607
24.91000 407.192
24.92000 404.037
24.93000 399.976
24.94000 397.709
24.95000 402.925
24.96000 408.967
24.97000 411.650
24.98000 404.845
24.99000 397.466
25.00000 392.563
25.01000 400.166
25.02000 406.021
25.03000 408.576
25.04000 406.831
25.05000 405.075
25.06000 406.999
25.07000 412.042
25.08000 417.026
25.09000 413.497
25.10000 405.344
25.11000 397.568
25.12000 397.222
25.13000 399.755
25.14000 401.956
25.15000 400.727
25.16000 398.594
25.17000 396.717
25.18000 390.438
25.19000 384.372
25.20000 379.811
25.21000 381.419
25.22000 383.690
25.23000 386.980
25.24000 393.096
25.25000 399.377
25.26000 403.526
25.27000 400.522
25.28000 398.181
25.29000 394.954
25.30000 390.594
25.31000 386.244
25.32000 388.858
25.33000 397.263
25.34000 405.563
25.35000 406.553
25.36000 403.548
25.37000 400.766
25.38000 402.229
25.39000 405.309
25.40000 407.428
25.41000 399.865
25.42000 389.797
25.43000 380.957
25.44000 388.270
25.45000 396.921
25.46000 402.946
25.47000 398.401
25.48000 392.745
25.49000 390.031
25.50000 395.346
25.51000 401.117
25.52000 404.904
25.53000 396.587
25.54000 390.266
25.55000 387.382
25.56000 388.811
25.57000 390.259
25.58000 393.984
25.59000 399.567
25.60000 405.074
25.61000 406.838
25.62000 406.558
25.63000 406.199
25.64000 404.393
25.65000 402.046
25.66000 399.587
25.67000 396.033
25.68000 392.199
25.69000 388.844
25.70000 392.854
25.71000 397.347
25.72000 400.944
25.73000 400.997
25.74000 400.687
25.75000 399.420
25.76000 395.585
25.77000 391.608
25.78000 389.016
25.79000 388.758
25.80000 388.605
25.81000 388.966
25.82000 389.958
25.83000 390.954
25.84000 392.543
25.85000 394.609
25.86000 396.644
25.87000 392.264
25.88000 384.655
25.89000 377.722
25.90000 382.830
25.91000 392.372
25.92000 400.875
25.93000 399.430
25.94000 395.500
25.95000 392.070
25.96000 387.433
25.97000 383.296
25.98000 380.573
25.99000 383.338
26.00000 386.652
26.01000 389.091
26.02000 389.224
26.03000 389.234
26.04000 389.241
26.05000 397.399
26.06000 403.490
26.07000 403.974
26.08000 397.680
26.09000 391.397
26.10000 392.319
26.11000 398.907
26.12000 405.394
26.13000 404.967
26.14000 401.003
26.15000 397.148
26.16000 395.169
26.17000 393.869
26.18000 392.788
26.19000 393.759
26.20000 395.233
26.21000 396.516
26.22000 399.623
26.23000 402.526
26.24000 402.656
26.25000 392.208
26.26000 380.727
26.27000 373.151
26.28000 375.702
26.29000 378.772
26.30000 380.748
26.31000 377.249
26.32000 374.618
26.33000 375.859
26.34000 381.694
26.35000 387.491
26.36000 381.815
26.37000 367.286
26.38000 352.990
26.39000 356.482
26.40000 368.823
26.41000 380.535
26.42000 381.773
26.43000 379.284
26.44000 376.928
26.45000 375.788
26.46000 374.941
26.47000 374.206
26.48000 373.213
26.49000 372.331
26.50000 372.936
26.51000 379.106
26.52000 385.807
26.53000 390.883
26.54000 391.820
26.55000 392.551
26.56000 393.018
26.57000 390.462
26.58000 388.561
26.59000 385.845
26.60000 382.180
26.61000 378.540
26.62000 380.467
26.63000 386.613
26.64000 392.654
26.65000 397.105
26.66000 400.623
26.67000 403.431
26.68000 394.769
26.69000 382.095
26.70000 370.700
26.71000 370.711
26.72000 373.420
26.73000 375.763
26.74000 380.301
26.75000 384.445
26.76000 386.623
26.77000 381.565
26.78000 375.835
26.79000 374.255
26.80000 383.075
26.81000 392.392
26.82000 398.308
26.83000 392.385
26.84000 387.939
26.85000 384.368
26.86000 381.796
26.87000 379.229
26.88000 377.296
26.89000 375.834
26.90000 374.400
26.91000 375.667
26.92000 378.202
26.93000 380.743
26.94000 383.383
26.95000 386.058
26.96000 388.463
26.97000 388.526
26.98000 388.045
26.99000 387.630
27.00000 384.868
27.01000 382.226
27.02000 380.088
27.03000 379.779
27.04000 379.634
27.05000 379.597
27.06000 379.826
27.07000 380.066
27.08000 380.218
27.09000 378.600
27.10000 377.408
27.11000 381.683
27.12000 392.078
27.13000 402.404
27.14000 400.227
27.15000 388.919
27.16000 377.826
27.17000 377.720
27.18000 382.851
27.19000 387.500
27.20000 384.829
27.21000 379.685
27.22000 374.378
27.23000 367.684
27.24000 360.674
27.25000 354.646
27.26000 360.503
27.27000 366.945
27.28000 371.709
27.29000 370.514
27.30000 368.794
27.31000 368.355
27.32000 371.016
27.33000 373.814
27.34000 375.567
27.35000 372.617
27.36000 370.437
27.37000 370.381
27.38000 372.658
27.39000 374.942
27.40000 378.154
27.41000 382.030
27.42000 385.829
27.43000 383.959
27.44000 379.511
27.45000 375.191
27.46000 372.761
27.47000 370.958
27.48000 368.767
27.49000 363.337
27.50000 357.183
27.51000 351.907
27.52000 360.266
27.53000 368.990
27.54000 375.359
27.55000 373.512
27.56000 370.960
27.57000 372.161
27.58000 382.295
27.59000 392.812
27.60000 399.353
27.61000 388.624
27.62000 380.724
27.63000 375.692
27.64000 373.747
27.65000 371.813
27.66000 371.246
27.67000 371.641
27.68000 372.029
27.69000 371.259
27.70000 369.988
27.71000 368.507
27.72000 364.005
27.73000 358.518
27.74000 354.464
27.75000 362.070
27.76000 372.238
27.77000 380.926
27.78000 372.569
27.79000 363.494
27.80000 356.871
27.81000 358.653
27.82000 361.137
27.83000 363.475
27.84000 365.468
27.85000 367.448
27.86000 368.670
27.87000 368.461
27.88000 368.299
27.89000 369.176
27.90000 371.151
27.91000 373.092
27.92000 370.823
27.93000 365.641
27.94000 360.574
27.95000 361.949
27.96000 366.166
27.97000 370.185
27.98000 371.424
27.99000 371.773
28.00000 372.180
28.01000 373.046
28.02000 374.010
28.03000 374.832
28.04000 374.592
28.05000 374.267
28.06000 372.196
28.07000 364.242
28.08000 355.810
28.09000 352.356
28.10000 360.353
28.11000 368.804
28.12000 373.985
28.13000 386.013
28.14000 394.687
28.15000 391.058
28.16000 374.692
28.17000 358.466
28.18000 357.909
28.19000 367.992
28.20000 377.843
28.21000 381.261
28.22000 381.692
28.23000 382.065
28.24000 381.641
28.25000 380.966
28.26000 380.608
28.27000 382.713
28.28000 385.340
28.29000 387.570
28.30000 380.695
28.31000 373.891
28.32000 369.318
28.33000 372.129
28.34000 375.525
28.35000 377.349
28.36000 375.620
28.37000 373.756
28.38000 372.622
28.39000 367.321
28.40000 363.502
28.41000 359.436
28.42000 355.119
28.43000 350.875
28.44000 354.171
28.45000 362.497
28.46000 370.621
28.47000 369.807
28.48000 365.156
28.49000 360.990
28.50000 363.204
28.51000 367.395
28.52000 370.869
28.53000 368.884
28.54000 365.766
28.55000 363.127
28.56000 359.716
28.57000 356.774
28.58000 356.576
28.59000 365.302
28.60000 374.716
28.61000 380.529
28.62000 378.344
28.63000 375.866
28.64000 374.369
28.65000 366.912
28.66000 361.558
28.67000 359.632
28.68000 361.115
28.69000 362.586
28.70000 362.915
28.71000 362.494
28.72000 362.084
28.73000 358.930
28.74000 354.752
28.75000 351.259
28.76000 356.515
28.77000 364.434
28.78000 371.164
28.79000 369.039
28.80000 365.110
28.81000 361.796
28.82000 361.913
28.83000 362.383
28.84000 362.719
28.85000 362.622
28.86000 362.493
28.87000 362.838
28.88000 364.220
28.89000 365.638
28.90000 366.489
28.91000 353.240
28.92000 343.735
28.93000 337.363
28.94000 334.042
28.95000 330.782
28.96000 332.784
28.97000 338.173
28.98000 343.421
28.99000 353.625
29.00000 365.417
29.01000 375.841
29.02000 369.252
29.03000 357.573
29.04000 347.531
29.05000 349.403
29.06000 353.658
29.07000 357.234
29.08000 355.627
29.09000 353.739
29.10000 352.354
29.11000 352.548
29.12000 352.857
29.13000 354.252
29.14000 357.978
29.15000 361.782
29.16000 364.047
29.17000 351.271
29.18000 342.132
29.19000 338.997
29.20000 341.598
29.21000 344.213
29.22000 347.952
29.23000 352.401
29.24000 356.727
29.25000 358.430
29.26000 358.976
29.27000 359.243
29.28000 356.145
29.29000 352.058
29.30000 349.112
29.31000 354.309
29.32000 361.103
29.33000 366.794
29.34000 358.879
29.35000 350.893
29.36000 344.941
29.37000 345.267
29.38000 346.038
29.39000 346.376
29.40000 345.802
29.41000 345.197
29.42000 344.841
29.43000 350.955
29.44000 355.307
29.45000 353.877
29.46000 347.032
29.47000 340.289
29.48000 341.204
29.49000 346.877
29.50000 352.386
29.51000 357.386
29.52000 361.928
29.53000 366.520
29.54000 371.691
29.55000 377.028
29.56000 380.989
29.57000 375.341
29.58000 367.845
29.59000 361.587
29.60000 362.797
29.61000 364.552
29.62000 366.038
29.63000 366.711
29.64000 367.327
29.65000 367.620
29.66000 367.242
29.67000 366.843
29.68000 366.609
29.69000 371.338
29.70000 374.693
29.71000 376.753
29.72000 377.622
29.73000 378.491
29.74000 379.337
29.75000 380.168
29.76000 380.975
29.77000 390.457
29.78000 402.869
29.79000 414.566
29.80000 418.064
29.81000 419.236
29.82000 419.551
29.83000 414.020
29.84000 407.385
29.85000 401.866
29.86000 412.587
29.87000 423.056
29.88000 431.528
29.89000 434.041
29.90000 436.157
29.91000 440.966
29.92000 451.267
29.93000 461.730
29.94000 467.813
29.95000 471.450
29.96000 473.991
29.97000 473.926
29.98000 471.512
29.99000 469.114
30.00000 467.692
30.01000 466.855
30.02000 466.045
30.03000 466.165
30.04000 466.639
30.05000 467.252
30.06000 469.417
30.07000 472.015
30.08000 474.068
30.09000 472.475
30.10000 470.207
30.11000 468.328
30.12000 470.333
30.13000 472.361
30.14000 470.478
30.15000 457.129
30.16000 443.039
30.17000 434.709
30.18000 437.930
30.19000 441.475
30.20000 443.520
30.21000 432.958
30.22000 425.517
30.23000 423.389
30.24000 425.953
30.25000 428.434
30.26000 425.829
30.27000 420.228
30.28000 414.810
30.29000 413.987
30.30000 414.956
30.31000 415.537
30.32000 411.905
30.33000 407.118
30.34000 401.668
30.35000 391.872
30.36000 381.287
30.37000 372.544
30.38000 377.527
30.39000 382.913
30.40000 388.911
30.41000 396.668
30.42000 404.535
30.43000 406.728
30.44000 397.737
30.45000 388.448
30.46000 383.133
30.47000 389.792
30.48000 394.477
30.49000 394.503
30.50000 390.491
30.51000 386.620
30.52000 390.713
30.53000 399.416
30.54000 407.825
30.55000 403.796
30.56000 395.359
30.57000 387.661
30.58000 387.801
30.59000 390.051
30.60000 392.728
30.61000 398.152
30.62000 404.066
30.63000 408.932
30.64000 405.954
30.65000 402.792
30.66000 400.375
30.67000 400.066
30.68000 399.886
30.69000 399.582
30.70000 399.039
30.71000 398.490
30.72000 398.179
30.73000 411.375
30.74000 420.597
30.75000 425.672
30.76000 427.223
30.77000 428.752
30.78000 429.120
30.79000 428.826
30.80000 428.543
30.81000 432.889
30.82000 438.672
30.83000 443.849
30.84000 442.756
30.85000 440.005
30.86000 439.144
30.87000 450.163
30.88000 463.254
30.89000 473.989
30.90000 486.456
30.91000 496.838
30.92000 507.651
30.93000 519.668
30.94000 531.755
30.95000 544.023
30.96000 556.636
30.97000 569.258
30.98000 576.360
30.99000 619.357
31.00000 649.295
31.01000 677.778
31.02000 705.048
31.03000 732.651
31.04000 777.113
31.05000 831.000
31.06000 882.920
31.07000 956.214
31.08000 1032.746
31.09000 1108.572
31.10000 1177.267
31.11000 1244.112
31.12000 1312.371
31.13000 1389.349
31.14000 1467.817
31.15000 1531.918
31.16000 1655.720
31.17000 1762.207
31.18000 1867.502
31.19000 1969.535
31.20000 2071.382
31.21000 2169.751
31.22000 2261.614
31.23000 2353.328
31.24000 2404.508
31.25000 2577.797
31.26000 2697.964
31.27000 2799.932
31.28000 2887.002
31.29000 2973.913
31.30000 3053.212
31.31000 3128.330
31.32000 3200.604
31.33000 3229.438
31.34000 3241.181
31.35000 3251.338
31.36000 3245.871
31.37000 3236.420
31.38000 3224.926
31.39000 3201.098
31.40000 3175.201
31.41000 3154.126
31.42000 3087.778
31.43000 3029.788
31.44000 2963.273
31.45000 2873.828
31.46000 2783.119
31.47000 2681.765
31.48000 2560.839
31.49000 2439.490
31.50000 2372.348
31.51000 2244.297
31.52000 2155.771
31.53000 2050.874
31.54000 1932.827
31.55000 1814.691
31.56000 1692.564
31.57000 1568.282
31.58000 1448.879
31.59000 1371.081
31.60000 1312.630
31.61000 1252.795
31.62000 1179.655
31.63000 1103.184
31.64000 1029.314
31.65000 970.834
31.66000 914.883
31.67000 869.522
31.68000 821.343
31.69000 781.856
31.70000 741.181
31.71000 697.362
31.72000 653.375
31.73000 617.457
31.74000 596.120
31.75000 575.082
31.76000 563.542
31.77000 543.835
31.78000 530.276
31.79000 520.024
31.80000 512.378
31.81000 504.644
31.82000 493.119
31.83000 479.583
31.84000 466.597
31.85000 452.898
31.86000 439.855
31.87000 427.004
31.88000 415.944
31.89000 405.325
31.90000 396.413
31.91000 397.404
31.92000 399.988
31.93000 402.076
31.94000 384.932
31.95000 369.463
31.96000 358.295
31.97000 358.310
31.98000 358.901
31.99000 357.912
32.00000 354.116
32.01000 350.267
32.02000 348.173
32.03000 339.141
32.04000 332.971
32.05000 335.386
32.06000 344.444
32.07000 353.392
32.08000 357.889
32.09000 360.063
32.10000 362.146
32.11000 359.382
32.12000 355.192
32.13000 350.661
32.14000 342.997
32.15000 334.577
32.16000 327.622
32.17000 328.997
32.18000 331.685
32.19000 333.848
32.20000 339.558
32.21000 344.465
32.22000 346.832
32.23000 342.714
32.24000 338.273
32.25000 334.812
32.26000 333.063
32.27000 331.345
32.28000 330.419
32.29000 334.219
32.30000 336.830
32.31000 341.087
32.32000 346.595
32.33000 351.905
32.34000 349.552
32.35000 343.272
32.36000 337.265
32.37000 337.778
32.38000 340.383
32.39000 342.658
32.40000 341.981
32.41000 340.604
32.42000 338.824
32.43000 334.802
32.44000 330.433
32.45000 326.932
32.46000 320.585
32.47000 315.235
32.48000 313.874
32.49000 322.535
32.50000 331.678
32.51000 335.496
32.52000 330.180
32.53000 324.709
32.54000 321.787
32.55000 331.254
32.56000 337.669
32.57000 335.076
32.58000 325.764
32.59000 316.666
32.60000 315.422
32.61000 318.135
32.62000 320.726
32.63000 326.096
32.64000 331.975
32.65000 336.562
32.66000 329.848
32.67000 320.502
32.68000 313.681
32.69000 320.655
32.70000 329.716
32.71000 336.947
32.72000 333.640
32.73000 330.197
32.74000 324.662
32.75000 313.963
32.76000 303.025
32.77000 299.167
32.78000 307.239
32.79000 315.502
32.80000 319.875
32.81000 318.819
32.82000 318.117
32.83000 320.549
32.84000 325.277
32.85000 329.852
32.86000 329.123
32.87000 325.767
32.88000 322.567
32.89000 321.398
32.90000 320.953
32.91000 320.528
32.92000 320.285
32.93000 320.083
32.94000 320.357
32.95000 323.181
32.96000 326.383
32.97000 328.929
32.98000 330.810
32.99000 332.278
33.00000 330.843
33.01000 322.362
33.02000 313.566
33.03000 311.635
33.04000 321.066
33.05000 330.669
33.06000 335.702
33.07000 325.134
33.08000 317.991
33.09000 314.085
33.10000 312.505
33.11000 310.801
33.12000 304.939
33.13000 297.053
33.14000 289.547
33.15000 298.888
33.16000 312.725
33.17000 324.653
33.18000 320.641
33.19000 313.051
33.20000 306.100
33.21000 302.500
33.22000 299.387
33.23000 296.923
33.24000 300.213
33.25000 303.257
33.26000 302.941
33.27000 294.609
33.28000 285.931
33.29000 285.100
33.30000 297.033
33.31000 309.144
33.32000 315.434
33.33000 306.243
33.34000 300.048
33.35000 295.724
33.36000 292.722
33.37000 289.845
33.38000 290.956
33.39000 293.975
33.40000 296.845
33.41000 297.618
33.42000 297.699
33.43000 297.388
33.44000 293.882
33.45000 289.672
33.46000 285.975
33.47000 284.919
33.48000 284.239
33.49000 283.702
33.50000 289.260
33.51000 294.127
33.52000 299.016
33.53000 303.959
33.54000 308.903
33.55000 309.653
33.56000 303.700
33.57000 297.660
33.58000 294.553
33.59000 291.508
33.60000 289.466
33.61000 288.266
33.62000 287.649
33.63000 286.993
33.64000 285.164
33.65000 282.782
33.66000 280.523
33.67000 281.957
33.68000 284.374
33.69000 287.306
33.70000 294.345
33.71000 302.271
33.72000 308.530
33.73000 306.361
33.74000 303.021
33.75000 300.398
33.76000 293.212
33.77000 287.166
33.78000 282.692
33.79000 281.843
33.80000 281.140
33.81000 281.695
33.82000 284.228
33.83000 286.785
33.84000 288.088
33.85000 289.486
33.86000 290.368
33.87000 284.836
33.88000 274.938
33.89000 265.433
33.90000 267.427
33.91000 274.738
33.92000 281.662
33.93000 285.175
33.94000 287.416
33.95000 289.174
33.96000 287.158
33.97000 284.342
33.98000 281.823
33.99000 280.773
34.00000 279.924
34.01000 279.260
34.02000 280.577
34.03000 281.753
34.04000 283.434
34.05000 286.260
34.06000 289.130
34.07000 289.438
34.08000 285.794
34.09000 282.107
34.10000 280.247
34.11000 279.609
34.12000 279.213
34.13000 281.936
34.14000 286.746
34.15000 291.270
34.16000 287.793
34.17000 280.678
34.18000 273.953
34.19000 281.219
34.20000 291.884
34.21000 300.399
34.22000 292.505
34.23000 281.194
34.24000 272.181
34.25000 274.358
34.26000 278.026
34.27000 280.880
34.28000 278.046
34.29000 275.439
34.30000 272.835
34.31000 270.238
34.32000 267.641
34.33000 268.506
34.34000 274.617
34.35000 280.781
34.36000 285.110
34.37000 287.609
34.38000 290.086
34.39000 290.569
34.40000 289.741
34.41000 289.132
34.42000 294.395
34.43000 302.281
34.44000 309.723
34.45000 303.507
34.46000 293.988
34.47000 285.205
34.48000 281.919
34.49000 279.756
34.50000 278.406
34.51000 280.941
34.52000 283.982
34.53000 286.338
34.54000 279.834
34.55000 274.138
34.56000 270.828
34.57000 272.744
34.58000 274.844
34.59000 275.279
34.60000 273.236
34.61000 271.169
34.62000 269.382
34.63000 267.867
34.64000 266.400
34.65000 269.188
34.66000 274.722
34.67000 280.067
34.68000 280.529
34.69000 278.846
34.70000 277.261
34.71000 276.647
34.72000 276.353
34.73000 275.956
34.74000 274.813
34.75000 273.521
34.76000 272.906
34.77000 275.459
34.78000 278.417
34.79000 280.699
34.80000 282.290
34.81000 283.511
34.82000 283.458
34.83000 280.660
34.84000 277.770
34.85000 277.358
34.86000 280.568
34.87000 283.810
34.88000 287.039
34.89000 290.257
34.90000 293.381
34.91000 288.891
34.92000 279.575
34.93000 270.559
34.94000 268.983
34.95000 270.619
34.96000 272.157
34.97000 272.510
34.98000 272.515
34.99000 273.252
35.00000 279.229
35.01000 286.236
35.02000 290.320
35.03000 280.953
35.04000 269.910
35.05000 261.426
35.06000 263.063
35.07000 264.927
35.08000 268.252
35.09000 274.669
35.10000 281.186
35.11000 285.037
35.12000 285.061
35.13000 285.055
35.14000 282.782
35.15000 278.381
35.16000 274.075
35.17000 277.006
35.18000 284.443
35.19000 291.339
35.20000 285.310
35.21000 273.797
35.22000 262.992
35.23000 268.187
35.24000 277.145
35.25000 284.658
35.26000 282.060
35.27000 277.511
35.28000 273.701
35.29000 273.231
35.30000 273.166
35.31000 273.117
35.32000 273.346
35.33000 273.542
35.34000 273.963
35.35000 274.852
35.36000 275.756
35.37000 274.458
35.38000 270.055
35.39000 265.631
35.40000 265.322
35.41000 268.803
35.42000 272.228
35.43000 271.835
35.44000 269.106
35.45000 266.233
35.46000 260.032
35.47000 252.444
35.48000 245.337
35.49000 247.273
35.50000 251.375
35.51000 255.578
35.52000 260.476
35.53000 265.505
35.54000 270.166
35.55000 273.195
35.56000 276.030
35.57000 278.189
35.58000 273.276
35.59000 269.037
35.60000 266.474
35.61000 267.339
35.62000 268.305
35.63000 268.634
35.64000 268.080
35.65000 267.521
35.66000 268.814
35.67000 271.777
35.68000 274.679
35.69000 273.593
35.70000 270.108
35.71000 266.727
35.72000 265.660
35.73000 265.542
35.74000 265.431
35.75000 261.248
35.76000 256.417
35.77000 252.231
35.78000 252.362
35.79000 253.296
35.80000 254.150
35.81000 254.658
35.82000 255.127
35.83000 255.482
35.84000 260.985
35.85000 265.569
35.86000 270.180
35.87000 274.844
35.88000 279.511
35.89000 279.063
35.90000 271.666
35.91000 264.233
35.92000 260.574
35.93000 260.258
35.94000 259.975
35.95000 261.742
35.96000 264.720
35.97000 267.651
35.98000 269.582
35.99000 271.111
36.00000 272.538
36.01000 269.439
36.02000 265.507
36.03000 261.518
36.04000 257.161
36.05000 252.738
36.06000 249.520
36.07000 251.453
36.08000 253.972
36.09000 255.872
36.10000 257.822
36.11000 259.351
36.12000 260.931
36.13000 262.612
36.14000 264.295
36.15000 266.428
36.16000 269.161
36.17000 271.895
36.18000 269.198
36.19000 261.796
36.20000 254.509
36.21000 253.931
36.22000 257.247
36.23000 260.299
36.24000 257.943
36.25000 253.444
36.26000 249.254
36.27000 250.695
36.28000 253.372
36.29000 256.018
36.30000 258.469
36.31000 260.886
36.32000 262.322
36.33000 259.645
36.34000 256.511
36.35000 254.158
36.36000 257.740
36.37000 260.823
36.38000 261.132
36.39000 256.054
36.40000 250.839
36.41000 252.254
36.42000 262.354
36.43000 272.484
36.44000 271.226
36.45000 260.284
36.46000 249.536
36.47000 249.274
36.48000 254.992
36.49000 260.378
36.50000 259.166
36.51000 255.383
36.52000 251.867
36.53000 252.529
36.54000 254.125
36.55000 255.460
36.56000 255.148
36.57000 254.547
36.58000 254.208
36.59000 254.944
36.60000 255.797
36.61000 256.434
36.62000 256.067
36.63000 255.735
36.64000 256.315
36.65000 258.637
36.66000 261.001
36.67000 263.283
36.68000 265.458
36.69000 267.630
36.70000 267.158
36.71000 264.479
36.72000 261.830
36.73000 260.637
36.74000 260.259
36.75000 259.868
36.76000 259.224
36.77000 258.482
36.78000 257.794
36.79000 255.371
36.80000 252.782
36.81000 250.706
36.82000 251.796
36.83000 253.430
36.84000 255.523
36.85000 259.479
36.86000 263.631
36.87000 266.719
36.88000 270.227
36.89000 272.973
36.90000 272.243
36.91000 264.992
36.92000 257.591
36.93000 256.710
36.94000 264.057
36.95000 271.422
36.96000 270.711
36.97000 263.397
36.98000 256.215
36.99000 255.385
37.00000 258.053
37.01000 260.597
37.02000 260.843
37.03000 260.223
37.04000 259.650
37.05000 260.429
37.06000 261.439
37.07000 262.081
37.08000 260.489
37.09000 258.522
37.10000 257.176
37.11000 258.302
37.12000 259.684
37.13000 260.706
37.14000 261.916
37.15000 262.862
37.16000 264.262
37.17000 266.498
37.18000 268.752
37.19000 269.094
37.20000 267.068
37.21000 265.039
37.22000 262.918
37.23000 260.732
37.24000 258.580
37.25000 257.949
37.26000 258.143
37.27000 258.398
37.28000 259.768
37.29000 261.552
37.30000 263.199
37.31000 259.023
37.32000 253.967
37.33000 249.957
37.34000 252.149
37.35000 255.364
37.36000 257.673
37.37000 256.447
37.38000 254.864
37.39000 253.699
37.40000 246.709
37.41000 241.057
37.42000 239.022
37.43000 243.538
37.44000 248.189
37.45000 248.808
37.46000 244.524
37.47000 240.237
37.48000 237.408
37.49000 235.739
37.50000 234.164
37.51000 236.642
37.52000 241.276
37.53000 245.802
37.54000 248.453
37.55000 250.423
37.56000 252.238
37.57000 250.799
37.58000 248.792
37.59000 246.612
37.60000 243.424
37.61000 240.073
37.62000 237.652
37.63000 238.794
37.64000 240.287
37.65000 241.380
37.66000 248.877
37.67000 254.922
37.68000 259.388
37.69000 261.044
37.70000 262.645
37.71000 262.305
37.72000 259.650
37.73000 256.996
37.74000 251.845
37.75000 244.795
37.76000 237.883
37.77000 236.583
37.78000 238.217
37.79000 239.870
37.80000 241.847
37.81000 243.940
37.82000 245.865
37.83000 249.881
37.84000 253.920
37.85000 257.163
37.86000 255.860
37.87000 253.838
37.88000 252.246
37.89000 252.277
37.90000 252.463
37.91000 252.598
37.92000 249.545
37.93000 247.071
37.94000 247.938
37.95000 254.653
37.96000 261.475
37.97000 264.023
37.98000 261.573
37.99000 259.120
38.00000 256.137
38.01000 252.771
38.02000 249.481
38.03000 249.152
38.04000 250.344
38.05000 251.595
38.06000 253.804
38.07000 256.349
38.08000 258.685
38.09000 264.065
38.10000 269.506
38.11000 273.171
38.12000 266.907
38.13000 259.104
38.14000 253.506
38.15000 256.065
38.16000 259.386
38.17000 261.795
38.18000 262.436
38.19000 262.864
38.20000 261.409
38.21000 256.721
38.22000 251.977
38.23000 253.535
38.24000 262.329
38.25000 271.105
38.26000 276.195
38.27000 278.512
38.28000 280.911
38.29000 286.366
38.30000 293.364
38.31000 299.889
38.32000 298.929
38.33000 295.383
38.34000 292.137
38.35000 302.225
38.36000 313.968
38.37000 324.815
38.38000 330.745
38.39000 335.930
38.40000 339.135
38.41000 335.148
38.42000 330.505
38.43000 327.156
38.44000 345.242
38.45000 359.874
38.46000 375.295
38.47000 392.048
38.48000 408.823
38.49000 418.753
38.50000 420.975
38.51000 423.183
38.52000 429.749
38.53000 439.435
38.54000 449.051
38.55000 456.189
38.56000 462.098
38.57000 467.793
38.58000 470.220
38.59000 471.538
38.60000 472.742
38.61000 479.187
38.62000 485.976
38.63000 492.825
38.64000 499.999
38.65000 507.221
38.66000 512.344
38.67000 509.971
38.68000 506.932
38.69000 504.751
38.70000 510.455
38.71000 515.088
38.72000 518.208
38.73000 518.813
38.74000 519.380
38.75000 514.841
38.76000 504.661
38.77000 494.517
38.78000 482.353
38.79000 468.855
38.80000 455.433
38.81000 444.512
38.82000 434.814
38.83000 425.248
38.84000 417.664
38.85000 410.742
38.86000 404.434
38.87000 395.969
38.88000 388.040
38.89000 381.027
38.90000 378.842
38.91000 377.359
38.92000 373.690
38.93000 362.349
38.94000 350.345
38.95000 341.775
38.96000 328.970
38.97000 319.061
38.98000 312.277
38.99000 310.590
39.00000 308.974
39.01000 303.491
39.02000 293.818
39.03000 284.184
39.04000 278.471
39.05000 275.562
39.06000 272.545
39.07000 266.043
39.08000 257.868
39.09000 250.176
39.10000 249.464
39.11000 251.042
39.12000 252.476
39.13000 253.294
39.14000 253.897
39.15000 252.903
39.16000 243.657
39.17000 233.234
39.18000 225.682
39.19000 228.022
39.20000 231.196
39.21000 233.449
39.22000 233.378
39.23000 233.251
39.24000 232.372
39.25000 230.292
39.26000 228.195
39.27000 231.808
39.28000 241.485
39.29000 251.117
39.30000 248.223
39.31000 236.750
39.32000 225.555
39.33000 222.907
39.34000 224.289
39.35000 225.687
39.36000 227.304
39.37000 228.991
39.38000 230.522
39.39000 231.489
39.40000 232.234
39.41000 233.233
39.42000 235.513
39.43000 237.972
39.44000 239.953
39.45000 240.315
39.46000 240.545
39.47000 240.708
39.48000 230.900
39.49000 223.151
39.50000 219.876
39.51000 223.644
39.52000 227.498
39.53000 229.505
39.54000 229.589
39.55000 229.673
39.56000 228.896
39.57000 227.546
39.58000 226.240
39.59000 226.185
39.60000 226.709
39.61000 227.333
39.62000 229.314
39.63000 231.725
39.64000 233.906
39.65000 235.021
39.66000 235.803
39.67000 235.101
39.68000 227.014
39.69000 217.919
39.70000 213.323
39.71000 223.696
39.72000 235.264
39.73000 243.389
39.74000 230.593
39.75000 220.292
39.76000 217.527
39.77000 226.417
39.78000 235.438
39.79000 236.925
39.80000 230.723
39.81000 224.556
39.82000 219.685
39.83000 215.736
39.84000 212.087
39.85000 216.863
39.86000 225.480
39.87000 233.634
39.88000 235.670
39.89000 235.800
39.90000 235.918
39.91000 235.593
39.92000 235.227
39.93000 235.209
39.94000 236.890
39.95000 238.798
39.96000 238.221
39.97000 229.524
39.98000 220.196
39.99000 213.681
40.00000 224.795
40.01000 233.684
40.02000 237.538
40.03000 233.746
40.04000 229.873
40.05000 230.185
40.06000 234.682
40.07000 239.151
40.08000 238.994
40.09000 235.836
40.10000 232.754
40.11000 231.750
40.12000 231.677
40.13000 231.539
40.14000 230.565
40.15000 229.334
40.16000 228.227
40.17000 221.594
40.18000 214.786
40.19000 209.262
40.20000 209.888
40.21000 211.318
40.22000 212.765
40.23000 214.270
40.24000 215.779
40.25000 216.827
40.26000 221.476
40.27000 225.076
40.28000 228.144
40.29000 230.419
40.30000 232.685
40.31000 229.905
40.32000 222.176
40.33000 214.501
40.34000 212.466
40.35000 214.056
40.36000 215.582
40.37000 215.449
40.38000 214.584
40.39000 213.826
40.40000 214.396
40.41000 215.366
40.42000 216.236
40.43000 214.878
40.44000 213.297
40.45000 211.792
40.46000 210.646
40.47000 209.546
40.48000 210.045
40.49000 215.594
40.50000 221.513
40.51000 225.601
40.52000 223.460
40.53000 221.692
40.54000 220.229
40.55000 219.213
40.56000 218.202
40.57000 216.079
40.58000 212.890
40.59000 209.723
40.60000 210.980
40.61000 214.980
40.62000 218.747
40.63000 216.699
40.64000 212.135
40.65000 207.928
40.66000 208.080
40.67000 209.519
40.68000 210.808
40.69000 214.009
40.70000 217.133
40.71000 220.304
40.72000 223.689
40.73000 227.101
40.74000 229.169
40.75000 227.067
40.76000 224.667
40.77000 223.019
40.78000 217.862
40.79000 213.910
40.80000 212.120
40.81000 213.442
40.82000 214.788
40.83000 216.516
40.84000 218.604
40.85000 220.675
40.86000 220.403
40.87000 218.699
40.88000 216.911
40.89000 213.110
40.90000 208.451
40.91000 204.568
40.92000 209.887
40.93000 217.878
40.94000 225.016
40.95000 219.497
40.96000 212.555
40.97000 208.194
40.98000 215.525
40.99000 224.284
41.00000 229.302
41.01000 222.911
41.02000 215.730
41.03000 210.828
41.04000 213.436
41.05000 215.562
41.06000 216.225
41.07000 214.819
41.08000 213.397
41.09000 210.577
41.10000 206.463
41.11000 202.386
41.12000 201.654
41.13000 202.949
41.14000 204.384
41.15000 209.028
41.16000 215.013
41.17000 220.075
41.18000 214.447
41.19000 205.770
41.20000 198.039
41.21000 197.210
41.22000 197.628
41.23000 198.914
41.24000 204.054
41.25000 209.655
41.26000 213.136
41.27000 210.266
41.28000 206.968
41.29000 204.730
41.30000 209.651
41.31000 213.481
41.32000 215.016
41.33000 213.367
41.34000 211.699
41.35000 213.126
41.36000 217.357
41.37000 221.548
41.38000 219.965
41.39000 215.005
41.40000 210.298
41.41000 211.216
41.42000 214.448
41.43000 217.624
41.44000 220.179
41.45000 222.559
41.46000 224.674
41.47000 218.627
41.48000 212.064
41.49000 206.949
41.50000 208.158
41.51000 210.105
41.52000 211.453
41.53000 211.037
41.54000 210.505
41.55000 210.146
41.56000 209.626
41.57000 209.236
41.58000 209.150
41.59000 209.479
41.60000 209.807
41.61000 207.398
41.62000 202.556
41.63000 197.764
41.64000 200.543
41.65000 207.651
41.66000 214.444
41.67000 214.492
41.68000 211.814
41.69000 209.110
41.70000 206.129
41.71000 203.072
41.72000 200.363
41.73000 203.294
41.74000 206.723
41.75000 209.409
41.76000 208.911
41.77000 208.050
41.78000 208.163
41.79000 211.095
41.80000 214.205
41.81000 216.290
41.82000 218.113
41.83000 219.461
41.84000 219.637
41.85000 218.246
41.86000 216.845
41.87000 213.165
41.88000 207.501
41.89000 201.898
41.90000 203.833
41.91000 210.010
41.92000 215.927
41.93000 216.470
41.94000 214.877
41.95000 212.893
41.96000 206.724
41.97000 199.424
41.98000 192.972
41.99000 198.091
42.00000 204.302
42.01000 208.184
42.02000 202.265
42.03000 195.255
42.04000 191.358
42.05000 196.322
42.06000 201.830
42.07000 205.500
42.08000 204.350
42.09000 203.407
42.10000 203.529
42.11000 205.048
42.12000 206.573
42.13000 207.170
42.14000 206.974
42.15000 206.781
42.16000 206.959
42.17000 207.340
42.18000 207.702
42.19000 207.695
42.20000 207.543
42.21000 207.404
42.22000 207.406
42.23000 207.445
42.24000 207.479
42.25000 207.697
42.26000 207.912
42.27000 208.300
42.28000 209.402
42.29000 210.582
42.30000 209.393
42.31000 201.578
42.32000 193.369
42.33000 187.933
42.34000 194.931
42.35000 200.324
42.36000 202.488
42.37000 200.492
42.38000 198.481
42.39000 197.617
42.40000 197.715
42.41000 197.812
42.42000 197.277
42.43000 196.410
42.44000 195.708
42.45000 198.195
42.46000 201.908
42.47000 205.511
42.48000 208.000
42.49000 210.200
42.50000 212.133
42.51000 210.509
42.52000 208.586
42.53000 206.586
42.54000 204.269
42.55000 201.920
42.56000 199.986
42.57000 199.199
42.58000 198.477
42.59000 198.002
42.60000 196.645
42.61000 195.629
42.62000 196.846
42.63000 200.885
42.64000 204.931
42.65000 207.418
42.66000 208.623
42.67000 209.811
42.68000 208.121
42.69000 204.931
42.70000 201.835
42.71000 200.524
42.72000 199.885
42.73000 199.764
42.74000 204.769
42.75000 211.089
42.76000 216.628
42.77000 207.846
42.78000 198.236
42.79000 191.370
42.80000 195.432
42.81000 200.627
42.82000 203.962
42.83000 202.266
42.84000 200.290
42.85000 198.998
42.86000 202.967
42.87000 205.967
42.88000 205.915
42.89000 202.072
42.90000 198.236
42.91000 200.810
42.92000 208.562
42.93000 216.205
42.94000 218.341
42.95000 217.511
42.96000 217.140
42.97000 225.036
42.98000 235.998
42.99000 245.222
43.00000 237.606
43.01000 225.752
43.02000 215.391
43.03000 210.075
43.04000 206.235
43.05000 204.367
43.06000 210.207
43.07000 216.828
43.08000 220.178
43.09000 214.836
43.10000 209.025
43.11000 205.250
43.12000 221.301
43.13000 233.363
43.14000 234.611
43.15000 222.676
43.16000 210.733
43.17000 205.743
43.18000 206.265
43.19000 206.780
43.20000 206.607
43.21000 206.085
43.22000 205.597
43.23000 205.731
43.24000 206.091
43.25000 206.221
43.26000 204.175
43.27000 201.590
43.28000 199.338
43.29000 200.287
43.30000 201.541
43.31000 201.781
43.32000 198.127
43.33000 194.089
43.34000 193.134
43.35000 200.233
43.36000 207.753
43.37000 212.605
43.38000 199.976
43.39000 190.496
43.40000 186.119
43.41000 187.846
43.42000 189.587
43.43000 192.120
43.44000 195.269
43.45000 198.369
43.46000 197.704
43.47000 195.149
43.48000 192.991
43.49000 197.552
43.50000 204.521
43.51000 210.901
43.52000 211.845
43.53000 211.469
43.54000 211.142
43.55000 204.936
43.56000 198.849
43.57000 193.102
43.58000 188.642
43.59000 184.305
43.60000 182.364
43.61000 186.574
43.62000 191.093
43.63000 193.990
43.64000 193.204
43.65000 192.581
43.66000 196.963
43.67000 207.216
43.68000 217.433
43.69000 217.307
43.70000 209.284
43.71000 201.393
43.72000 198.456
43.73000 198.083
43.74000 197.967
43.75000 202.067
43.76000 207.651
43.77000 212.094
43.78000 206.241
43.79000 197.933
43.80000 190.737
43.81000 195.740
43.82000 201.610
43.83000 205.724
43.84000 203.325
43.85000 200.315
43.86000 197.519
43.87000 195.266
43.88000 193.040
43.89000 191.622
43.90000 196.843
43.91000 200.723
43.92000 200.165
43.93000 194.501
43.94000 188.858
43.95000 188.739
43.96000 192.761
43.97000 196.712
43.98000 199.580
43.99000 201.820
44.00000 203.932
44.01000 204.021
44.02000 203.408
44.03000 202.810
44.04000 202.331
44.05000 201.880
44.06000 201.490
44.07000 198.824
44.08000 196.266
44.09000 195.405
44.10000 200.724
44.11000 206.608
44.12000 209.313
44.13000 204.128
44.14000 198.573
44.15000 195.059
44.16000 194.156
44.17000 193.532
44.18000 196.468
44.19000 203.423
44.20000 210.349
44.21000 211.302
44.22000 207.858
44.23000 204.479
44.24000 202.625
44.25000 201.570
44.26000 200.587
44.27000 200.709
44.28000 201.207
44.29000 201.573
44.30000 200.804
44.31000 199.774
44.32000 198.887
44.33000 201.710
44.34000 204.571
44.35000 206.007
44.36000 202.344
44.37000 198.227
44.38000 196.960
44.39000 202.648
44.40000 208.651
44.41000 212.422
44.42000 221.907
44.43000 228.827
44.44000 230.498
44.45000 226.353
44.46000 222.227
44.47000 221.560
44.48000 223.393
44.49000 225.190
44.50000 229.541
44.51000 234.934
44.52000 239.806
44.53000 236.905
44.54000 231.403
44.55000 227.192
44.56000 233.837
44.57000 242.930
44.58000 250.735
44.59000 253.513
44.60000 255.241
44.61000 259.059
44.62000 270.227
44.63000 282.033
44.64000 292.174
44.65000 298.321
44.66000 304.293
44.67000 308.019
44.68000 318.869
44.69000 326.765
44.70000 332.613
44.71000 336.237
44.72000 339.934
44.73000 354.189
44.74000 375.938
44.75000 397.241
44.76000 402.256
44.77000 399.546
44.78000 397.448
44.79000 404.231
44.80000 413.935
44.81000 423.758
44.82000 434.565
44.83000 445.589
44.84000 455.022
44.85000 461.945
44.86000 467.480
44.87000 475.329
44.88000 491.171
44.89000 507.689
44.90000 514.897
44.91000 500.162
44.92000 484.506
44.93000 474.808
44.94000 477.537
44.95000 479.618
44.96000 480.956
44.97000 481.503
44.98000 482.032
44.99000 480.323
45.00000 477.054
45.01000 473.854
45.02000 471.974
45.03000 470.767
45.04000 469.398
45.05000 465.745
45.06000 461.353
45.07000 457.191
45.08000 454.880
45.09000 452.971
45.10000 451.342
45.11000 435.382
45.12000 420.263
45.13000 407.530
45.14000 402.896
45.15000 398.930
45.16000 392.650
45.17000 381.011
45.18000 369.156
45.19000 361.865
45.20000 361.143
45.21000 360.683
45.22000 358.867
45.23000 355.635
45.24000 352.362
45.25000 344.352
45.26000 333.100
45.27000 322.102
45.28000 313.939
45.29000 307.379
45.30000 301.013
45.31000 297.310
45.32000 294.452
45.33000 291.701
45.34000 289.786
45.35000 288.049
45.36000 286.573
45.37000 287.717
45.38000 288.979
45.39000 289.426
45.40000 287.154
45.41000 284.665
45.42000 283.450
45.43000 285.138
45.44000 286.939
45.45000 288.038
45.46000 274.133
45.47000 264.065
45.48000 257.208
45.49000 253.638
45.50000 250.063
45.51000 245.917
45.52000 241.389
45.53000 236.969
45.54000 236.232
45.55000 237.137
45.56000 237.553
45.57000 231.471
45.58000 223.360
45.59000 215.973
45.60000 214.146
45.61000 213.483
45.62000 212.921
45.63000 218.933
45.64000 224.709
45.65000 228.173
45.66000 224.063
45.67000 219.362
45.68000 215.278
45.69000 212.575
45.70000 209.923
45.71000 208.316
45.72000 203.989
45.73000 200.882
45.74000 199.714
45.75000 200.490
45.76000 201.247
45.77000 200.031
45.78000 197.513
45.79000 195.057
45.80000 194.322
45.81000 194.357
45.82000 194.637
45.83000 198.087
45.84000 202.511
45.85000 206.207
45.86000 204.441
45.87000 201.551
45.88000 199.111
45.89000 200.242
45.90000 201.580
45.91000 202.954
45.92000 204.451
45.93000 205.956
45.94000 205.322
45.95000 199.976
45.96000 194.462
45.97000 191.145
45.98000 189.820
45.99000 188.892
46.00000 188.258
46.01000 187.914
46.02000 187.569
46.03000 187.173
46.04000 186.743
46.05000 186.323
46.06000 188.869
46.07000 192.544
46.08000 196.025
46.09000 197.072
46.10000 197.385
46.11000 197.453
46.12000 195.714
46.13000 193.610
46.14000 191.840
46.15000 188.913
46.16000 186.348
46.17000 183.875
46.18000 181.695
46.19000 179.536
46.20000 177.744
46.21000 176.748
46.22000 175.779
46.23000 175.201
46.24000 177.229
46.25000 178.684
46.26000 179.590
46.27000 179.966
46.28000 180.365
46.29000 182.672
46.30000 186.195
46.31000 189.622
46.32000 185.907
46.33000 179.421
46.34000 173.542
46.35000 175.109
46.36000 178.881
46.37000 182.030
46.38000 180.704
46.39000 178.492
46.40000 176.637
46.41000 179.067
46.42000 181.537
46.43000 182.728
46.44000 179.937
46.45000 176.860
46.46000 176.540
46.47000 182.082
46.48000 187.815
46.49000 191.213
46.50000 188.494
46.51000 186.536
46.52000 183.290
46.53000 178.828
46.54000 174.385
46.55000 171.498
46.56000 169.584
46.57000 167.724
46.58000 169.851
46.59000 173.488
46.60000 176.796
46.61000 176.185
46.62000 174.434
46.63000 173.110
46.64000 174.788
46.65000 177.050
46.66000 178.941
46.67000 178.713
46.68000 178.308
46.69000 178.292
46.70000 179.462
46.71000 180.716
46.72000 179.334
46.73000 172.443
46.74000 165.379
46.75000 161.225
46.76000 167.892
46.77000 172.648
46.78000 174.754
46.79000 174.405
46.80000 174.083
46.81000 175.707
46.82000 178.528
46.83000 181.266
46.84000 180.766
46.85000 179.004
46.86000 176.828
46.87000 169.849
46.88000 161.497
46.89000 154.862
46.90000 160.065
46.91000 167.521
46.92000 173.733
46.93000 172.015
46.94000 169.803
46.95000 167.802
46.96000 166.432
46.97000 165.105
46.98000 164.292
46.99000 164.536
47.00000 164.812
47.01000 164.973
47.02000 171.931
47.03000 176.853
47.04000 176.970
47.05000 172.722
47.06000 168.507
47.07000 166.548
47.08000 165.953
47.09000 165.376
47.10000 164.549
47.11000 163.668
47.12000 162.865
47.13000 162.941
47.14000 163.264
47.15000 163.546
47.16000 163.555
47.17000 163.514
47.18000 163.479
47.19000 167.597
47.20000 171.404
47.21000 174.128
47.22000 173.654
47.23000 172.970
47.24000 171.178
47.25000 167.148
47.26000 163.054
47.27000 160.684
47.28000 168.066
47.29000 173.279
47.30000 174.351
47.31000 171.734
47.32000 169.149
47.33000 168.620
47.34000 169.311
47.35000 169.980
47.36000 171.446
47.37000 173.138
47.38000 174.687
47.39000 174.661
47.40000 174.200
47.41000 172.993
47.42000 166.851
47.43000 159.806
47.44000 153.978
47.45000 152.648
47.46000 151.975
47.47000 152.715
47.48000 157.555
47.49000 162.655
47.50000 165.198
47.51000 162.665
47.52000 159.994
47.53000 158.460
47.54000 164.388
47.55000 168.554
47.56000 167.828
47.57000 162.824
47.58000 157.945
47.59000 160.313
47.60000 166.909
47.61000 173.287
47.62000 172.114
47.63000 168.169
47.64000 164.946
47.65000 169.477
47.66000 176.111
47.67000 181.076
47.68000 175.226
47.69000 167.435
47.70000 161.013
47.71000 163.464
47.72000 166.298
47.73000 168.974
47.74000 171.201
47.75000 173.401
47.76000 173.163
47.77000 168.168
47.78000 163.050
47.79000 160.135
47.80000 162.168
47.81000 163.598
47.82000 162.325
47.83000 158.733
47.84000 155.223
47.85000 156.127
47.86000 159.563
47.87000 162.880
47.88000 163.589
47.89000 163.294
47.90000 163.078
47.91000 163.677
47.92000 164.493
47.93000 164.976
47.94000 163.348
47.95000 161.348
47.96000 159.706
47.97000 164.800
47.98000 169.588
47.99000 172.345
48.00000 169.411
48.01000 166.137
48.02000 163.488
48.03000 162.038
48.04000 160.619
48.05000 159.817
48.06000 160.649
48.07000 161.237
48.08000 164.071
48.09000 168.794
48.10000 173.391
48.11000 171.476
48.12000 165.892
48.13000 160.508
48.14000 161.664
48.15000 165.118
48.16000 168.155
48.17000 166.941
48.18000 164.616
48.19000 162.453
48.20000 161.302
48.21000 160.327
48.22000 159.528
48.23000 156.575
48.24000 153.968
48.25000 153.064
48.26000 156.858
48.27000 160.923
48.28000 163.863
48.29000 164.681
48.30000 165.449
48.31000 165.880
48.32000 164.010
48.33000 162.708
48.34000 160.913
48.35000 158.712
48.36000 156.636
48.37000 160.653
48.38000 168.044
48.39000 175.160
48.40000 172.125
48.41000 165.671
48.42000 159.809
48.43000 159.836
48.44000 161.377
48.45000 162.858
48.46000 163.975
48.47000 165.031
48.48000 165.891
48.49000 166.849
48.50000 167.639
48.51000 168.095
48.52000 167.640
48.53000 167.135
48.54000 165.394
48.55000 161.362
48.56000 157.279
48.57000 155.012
48.58000 153.637
48.59000 152.687
48.60000 150.928
48.61000 148.513
48.62000 146.233
48.63000 150.146
48.64000 157.429
48.65000 164.430
48.66000 161.183
48.67000 154.569
48.68000 148.815
48.69000 151.418
48.70000 156.131
48.71000 159.491
48.72000 154.774
48.73000 148.719
48.74000 143.802
48.75000 151.928
48.76000 159.636
48.77000 165.322
48.78000 165.626
48.79000 165.637
48.80000 165.291
48.81000 164.294
48.82000 163.284
48.83000 162.727
48.84000 158.568
48.85000 155.700
48.86000 153.799
48.87000 152.666
48.88000 151.547
48.89000 151.046
48.90000 150.876
48.91000 150.713
48.92000 152.529
48.93000 154.904
48.94000 157.041
48.95000 156.933
48.96000 156.268
48.97000 155.871
48.98000 157.044
48.99000 158.472
49.00000 159.628
49.01000 158.433
49.02000 157.271
49.03000 156.159
49.04000 155.177
49.05000 154.202
49.06000 152.685
49.07000 150.196
49.08000 147.688
49.09000 146.320
49.10000 147.271
49.11000 147.931
49.12000 149.451
49.13000 151.642
49.14000 153.820
49.15000 155.427
49.16000 156.736
49.17000 157.990
49.18000 159.753
49.19000 161.570
49.20000 162.747
49.21000 158.003
49.22000 151.817
49.23000 146.578
49.24000 146.767
49.25000 147.821
49.26000 148.671
49.27000 149.585
49.28000 150.332
49.29000 150.944
49.30000 151.210
49.31000 151.458
49.32000 151.831
49.33000 152.421
49.34000 153.016
49.35000 153.338
49.36000 155.914
49.37000 157.682
49.38000 159.928
49.39000 162.540
49.40000 165.022
49.41000 162.372
49.42000 157.071
49.43000 151.998
49.44000 150.711
49.45000 150.759
49.46000 150.853
49.47000 151.360
49.48000 151.965
49.49000 151.855
49.50000 147.716
49.51000 142.950
49.52000 139.124
49.53000 146.224
49.54000 152.809
49.55000 156.293
49.56000 151.929
49.57000 147.182
49.58000 146.408
49.59000 152.501
49.60000 158.715
49.61000 162.047
49.62000 157.999
49.63000 155.236
49.64000 153.735
49.65000 153.183
49.66000 152.670
49.67000 153.587
49.68000 155.230
49.69000 156.801
49.70000 159.627
49.71000 162.660
49.72000 164.748
49.73000 158.488
49.74000 150.268
49.75000 143.416
49.76000 144.102
49.77000 145.939
49.78000 147.408
49.79000 148.984
49.80000 150.265
49.81000 150.141
49.82000 146.522
49.83000 142.739
49.84000 142.692
49.85000 148.988
49.86000 155.389
49.87000 158.789
49.88000 159.578
49.89000 160.106
49.90000 159.381
49.91000 157.730
49.92000 156.095
49.93000 155.012
49.94000 154.205
49.95000 153.435
49.96000 156.836
49.97000 161.314
49.98000 165.417
49.99000 166.282
50.00000 166.401
50.01000 165.750
50.02000 160.935
50.03000 155.497
50.04000 151.167
50.05000 150.616
50.06000 150.445
50.07000 151.643
50.08000 156.191
50.09000 160.892
50.10000 164.091
50.11000 164.783
50.12000 165.437
50.13000 165.781
50.14000 167.574
50.15000 168.825
50.16000 175.483
50.17000 186.060
50.18000 196.297
50.19000 194.935
50.20000 187.884
50.21000 181.168
50.22000 184.110
50.23000 189.837
50.24000 194.663
50.25000 191.895
50.26000 187.409
50.27000 183.910
50.28000 185.640
50.29000 188.137
50.30000 190.117
50.31000 192.442
50.32000 194.337
50.33000 197.186
50.34000 202.330
50.35000 207.575
50.36000 210.764
50.37000 210.584
50.38000 210.356
50.39000 210.236
50.40000 217.514
50.41000 222.439
50.42000 227.806
50.43000 233.487
50.44000 238.998
50.45000 239.025
50.46000 236.407
50.47000 233.917
50.48000 237.451
50.49000 242.555
50.50000 246.686
50.51000 242.809
50.52000 237.152
50.53000 232.695
50.54000 234.478
50.55000 237.155
50.56000 239.270
50.57000 247.495
50.58000 254.512
50.59000 259.256
50.60000 258.624
50.61000 257.766
50.62000 258.311
50.63000 261.115
50.64000 263.949
50.65000 265.413
50.66000 269.275
50.67000 271.842
50.68000 269.880
50.69000 264.751
50.70000 259.594
50.71000 253.542
50.72000 247.065
50.73000 240.916
50.74000 239.058
50.75000 238.626
50.76000 237.817
50.77000 233.961
50.78000 229.443
50.79000 225.741
50.80000 226.210
50.81000 227.265
50.82000 228.094
50.83000 222.895
50.84000 218.333
50.85000 212.679
50.86000 204.490
50.87000 196.198
50.88000 192.275
50.89000 195.264
50.90000 198.339
50.91000 199.913
50.92000 192.853
50.93000 188.114
50.94000 183.891
50.95000 180.023
50.96000 176.317
50.97000 177.454
50.98000 180.847
50.99000 184.062
51.00000 184.326
51.01000 183.704
51.02000 182.900
51.03000 180.668
51.04000 178.130
51.05000 175.708
51.06000 173.859
51.07000 172.089
51.08000 170.702
51.09000 166.876
51.10000 163.662
51.11000 161.377
51.12000 161.213
51.13000 161.131
51.14000 163.754
51.15000 170.580
51.16000 177.454
51.17000 180.936
51.18000 175.333
51.19000 171.554
51.20000 164.891
51.21000 156.282
51.22000 147.964
51.23000 147.941
51.24000 151.717
51.25000 155.289
51.26000 158.076
51.27000 160.412
51.28000 162.390
51.29000 161.605
51.30000 160.239
51.31000 158.329
51.32000 153.749
51.33000 148.809
51.34000 144.957
51.35000 146.591
51.36000 148.236
51.37000 149.523
51.38000 150.009
51.39000 150.464
51.40000 150.799
51.41000 150.952
51.42000 151.103
51.43000 151.179
51.44000 145.067
51.45000 141.042
51.46000 142.271
51.47000 146.977
51.48000 151.578
51.49000 153.310
51.50000 153.751
51.51000 154.167
51.52000 149.781
51.53000 144.401
51.54000 139.624
51.55000 139.391
51.56000 140.094
51.57000 140.425
51.58000 138.959
51.59000 137.258
51.60000 135.936
51.61000 137.602
51.62000 139.108
51.63000 140.660
51.64000 142.316
51.65000 143.975
51.66000 145.519
51.67000 146.893
51.68000 148.265
51.69000 146.444
51.70000 141.477
51.71000 136.552
51.72000 135.459
51.73000 136.859
51.74000 138.289
51.75000 140.524
51.76000 143.116
51.77000 145.559
51.78000 145.456
51.79000 144.656
51.80000 143.680
51.81000 141.395
51.82000 138.846
51.83000 137.483
51.84000 141.725
51.85000 146.687
51.86000 150.524
51.87000 144.114
51.88000 138.426
51.89000 134.868
51.90000 135.929
51.91000 137.148
51.92000 137.398
51.93000 136.220
51.94000 135.028
51.95000 138.110
51.96000 145.321
51.97000 152.433
51.98000 151.219
51.99000 144.687
52.00000 138.428
52.01000 139.043
52.02000 142.648
52.03000 146.041
52.04000 141.817
52.05000 135.888
52.06000 131.298
52.07000 136.370
52.08000 143.358
52.09000 148.334
52.10000 143.972
52.11000 138.436
52.12000 134.175
52.13000 138.488
52.14000 142.390
52.15000 143.932
52.16000 140.442
52.17000 136.785
52.18000 135.537
52.19000 137.773
52.20000 140.038
52.21000 141.406
52.22000 141.926
52.23000 142.427
52.24000 141.500
52.25000 139.677
52.26000 137.901
52.27000 137.299
52.28000 137.198
52.29000 137.103
52.30000 138.953
52.31000 141.158
52.32000 143.304
52.33000 145.025
52.34000 146.664
52.35000 147.725
52.36000 146.152
52.37000 144.255
52.38000 142.802
52.39000 140.110
52.40000 137.915
52.41000 136.665
52.42000 137.395
52.43000 138.188
52.44000 141.059
52.45000 146.883
52.46000 152.728
52.47000 152.244
52.48000 145.882
52.49000 139.568
52.50000 136.653
52.51000 135.836
52.52000 135.036
52.53000 134.667
52.54000 134.479
52.55000 134.302
52.56000 134.461
52.57000 134.694
52.58000 134.609
52.59000 132.325
52.60000 129.621
52.61000 127.974
52.62000 131.053
52.63000 134.699
52.64000 137.481
52.65000 139.588
52.66000 141.212
52.67000 141.335
52.68000 138.365
52.69000 135.303
52.70000 134.757
52.71000 137.724
52.72000 140.713
52.73000 141.147
52.74000 139.255
52.75000 137.384
52.76000 136.984
52.77000 137.475
52.78000 138.016
52.79000 139.687
52.80000 141.824
52.81000 143.823
52.82000 148.268
52.83000 152.933
52.84000 156.172
52.85000 149.756
52.86000 141.532
52.87000 135.206
52.88000 137.207
52.89000 140.186
52.90000 142.448
52.91000 144.948
52.92000 146.925
52.93000 147.814
52.94000 146.499
52.95000 145.121
52.96000 144.868
52.97000 146.156
52.98000 147.453
52.99000 148.313
53.00000 148.783
53.01000 149.283
53.02000 151.628
53.03000 155.072
53.04000 158.277
53.05000 156.298
53.06000 152.213
53.07000 148.398
53.08000 149.292
53.09000 151.284
53.10000 152.865
53.11000 151.714
53.12000 150.062
53.13000 149.038
53.14000 150.718
53.15000 152.710
53.16000 154.215
53.17000 154.000
53.18000 153.746
53.19000 152.880
53.20000 150.796
53.21000 148.680
53.22000 149.787
53.23000 155.231
53.24000 160.695
53.25000 161.872
53.26000 159.295
53.27000 156.776
53.28000 157.717
53.29000 160.680
53.30000 163.409
53.31000 161.227
53.32000 157.084
53.33000 153.223
53.34000 153.945
53.35000 155.726
53.36000 157.180
53.37000 156.509
53.38000 155.454
53.39000 154.223
53.40000 152.244
53.41000 150.181
53.42000 148.629
53.43000 157.104
53.44000 164.219
53.45000 165.816
53.46000 156.617
53.47000 147.136
53.48000 141.638
53.49000 141.400
53.50000 141.187
53.51000 146.492
53.52000 156.519
53.53000 166.344
53.54000 164.930
53.55000 157.055
53.56000 149.485
53.57000 148.042
53.58000 149.005
53.59000 149.901
53.60000 150.965
53.61000 151.966
53.62000 152.177
53.63000 147.356
53.64000 141.648
53.65000 137.161
53.66000 137.751
53.67000 138.897
53.68000 139.755
53.69000 147.109
53.70000 153.152
53.71000 154.343
53.72000 146.204
53.73000 137.832
53.74000 134.619
53.75000 138.094
53.76000 141.592
53.77000 142.049
53.78000 139.945
53.79000 137.885
53.80000 138.058
53.81000 139.493
53.82000 140.701
53.83000 137.494
53.84000 132.583
53.85000 128.025
53.86000 127.241
53.87000 127.427
53.88000 128.547
53.89000 135.486
53.90000 143.433
53.91000 149.353
53.92000 147.009
53.93000 143.780
53.94000 141.374
53.95000 140.025
53.96000 139.023
53.97000 138.257
53.98000 137.939
53.99000 137.632
54.00000 136.927
54.01000 135.716
54.02000 134.505
54.03000 133.561
54.04000 132.842
54.05000 132.158
54.06000 133.258
54.07000 135.348
54.08000 137.266
54.09000 135.960
54.10000 133.431
54.11000 131.089
54.12000 130.155
54.13000 129.641
54.14000 130.212
54.15000 137.402
54.16000 145.715
54.17000 150.906
54.18000 143.589
54.19000 134.966
54.20000 128.572
54.21000 132.382
54.22000 135.788
54.23000 140.033
54.24000 145.840
54.25000 151.681
54.26000 152.724
54.27000 147.776
54.28000 142.818
54.29000 141.035
54.30000 141.829
54.31000 142.585
54.32000 141.610
54.33000 139.691
54.34000 137.849
54.35000 137.408
54.36000 137.490
54.37000 137.565
54.38000 140.006
54.39000 142.735
54.40000 144.540
54.41000 140.824
54.42000 136.189
54.43000 133.405
54.44000 137.898
54.45000 143.132
54.46000 146.995
54.47000 141.864
54.48000 137.508
54.49000 135.080
54.50000 136.170
54.51000 137.335
54.52000 138.452
54.53000 139.510
54.54000 140.566
54.55000 140.010
54.56000 138.178
54.57000 136.435
54.58000 138.634
54.59000 142.947
54.60000 146.990
54.61000 146.288
54.62000 143.847
54.63000 141.595
54.64000 147.066
54.65000 153.686
54.66000 158.445
54.67000 152.280
54.68000 144.335
54.69000 138.655
54.70000 141.729
54.71000 145.674
54.72000 148.570
54.73000 148.540
54.74000 148.397
54.75000 148.409
54.76000 148.697
54.77000 148.991
54.78000 147.304
54.79000 143.235
54.80000 139.170
54.81000 136.691
54.82000 135.460
54.83000 134.322
54.84000 137.032
54.85000 141.771
54.86000 146.139
54.87000 144.188
54.88000 139.961
54.89000 136.070
54.90000 139.035
54.91000 143.181
54.92000 146.186
54.93000 142.629
54.94000 138.024
54.95000 135.771
54.96000 142.444
54.97000 149.983
54.98000 155.491
54.99000 156.732
55.00000 157.521
55.01000 155.165
55.02000 147.261
55.03000 139.252
55.04000 139.569
55.05000 149.709
55.06000 159.841
55.07000 161.192
55.08000 155.832
55.09000 150.546
55.10000 148.137
55.11000 147.218
55.12000 146.524
55.13000 149.524
55.14000 153.833
55.15000 157.791
55.16000 158.427
55.17000 158.285
55.18000 158.299
55.19000 159.195
55.20000 160.229
55.21000 162.667
55.22000 170.340
55.23000 178.509
55.24000 184.447
55.25000 172.192
55.26000 162.078
55.27000 159.964
55.28000 171.710
55.29000 183.702
55.30000 191.693
55.31000 195.054
55.32000 198.398
55.33000 200.635
55.34000 202.026
55.35000 203.498
55.36000 208.003
55.37000 214.052
55.38000 219.950
55.39000 223.424
55.40000 226.054
55.41000 228.464
55.42000 234.527
55.43000 240.692
55.44000 247.609
55.45000 258.690
55.46000 270.408
55.47000 281.064
55.48000 287.829
55.49000 294.236
55.50000 298.869
55.51000 313.533
55.52000 325.150
55.53000 333.414
55.54000 335.969
55.55000 338.428
55.56000 347.021
55.57000 362.579
55.58000 378.095
55.59000 392.105
55.60000 404.902
55.61000 417.775
55.62000 433.397
55.63000 450.396
55.64000 466.883
55.65000 475.411
55.66000 481.217
55.67000 486.524
55.68000 492.698
55.69000 498.361
55.70000 505.096
55.71000 517.644
55.72000 531.064
55.73000 544.538
55.74000 558.205
55.75000 571.889
55.76000 581.734
55.77000 580.986
55.78000 580.044
55.79000 579.918
55.80000 581.159
55.81000 582.421
55.82000 584.466
55.83000 587.382
55.84000 590.288
55.85000 591.918
55.86000 592.614
55.87000 593.362
55.88000 595.905
55.89000 599.331
55.90000 601.570
55.91000 585.920
55.92000 564.253
55.93000 544.490
55.94000 541.702
55.95000 542.644
55.96000 543.511
55.97000 543.978
55.98000 544.388
55.99000 541.223
56.00000 525.427
56.01000 508.525
56.02000 496.430
56.03000 480.078
56.04000 467.448
56.05000 454.978
56.06000 442.770
56.07000 430.567
56.08000 420.715
56.09000 413.433
56.10000 406.180
56.11000 397.382
56.12000 387.575
56.13000 377.800
56.14000 369.069
56.15000 360.842
56.16000 352.362
56.17000 340.171
56.18000 326.754
56.19000 314.545
56.20000 304.838
56.21000 296.741
56.22000 288.577
56.23000 280.062
56.24000 271.496
56.25000 263.252
56.26000 256.123
56.27000 249.090
56.28000 244.083
56.29000 236.471
56.30000 230.587
56.31000 225.460
56.32000 221.554
56.33000 217.665
56.34000 213.607
56.35000 209.370
56.36000 205.152
56.37000 201.150
56.38000 197.340
56.39000 193.469
56.40000 187.659
56.41000 180.929
56.42000 174.525
56.43000 172.757
56.44000 172.496
56.45000 172.259
56.46000 168.461
56.47000 164.420
56.48000 160.976
56.49000 160.588
56.50000 160.629
56.51000 159.812
56.52000 156.065
56.53000 152.074
56.54000 149.249
56.55000 157.291
56.56000 163.739
56.57000 165.097
56.58000 158.379
56.59000 151.558
56.60000 147.596
56.61000 146.636
56.62000 145.680
56.63000 144.535
56.64000 143.273
56.65000 141.996
56.66000 140.281
56.67000 138.362
56.68000 136.752
56.69000 139.422
56.70000 143.458
56.71000 147.113
56.72000 146.049
56.73000 144.220
56.74000 142.054
56.75000 138.206
56.76000 134.125
56.77000 131.120
56.78000 131.718
56.79000 132.609
56.80000 133.235
56.81000 134.953
56.82000 136.287
56.83000 138.312
56.84000 141.412
56.85000 144.525
56.86000 144.753
56.87000 142.010
56.88000 139.283
56.89000 138.958
56.90000 140.240
56.91000 141.510
56.92000 142.397
56.93000 143.110
56.94000 143.415
56.95000 138.246
56.96000 131.360
56.97000 125.139
56.98000 123.603
56.99000 123.121
57.00000 123.201
57.01000 126.053
57.02000 129.279
57.03000 131.440
57.04000 130.094
57.05000 128.473
57.06000 127.337
57.07000 126.929
57.08000 126.640
57.09000 125.870
57.10000 124.362
57.11000 122.846
57.12000 122.239
57.13000 122.547
57.14000 122.854
57.15000 124.138
57.16000 126.045
57.17000 127.984
57.18000 130.827
57.19000 134.076
57.20000 137.066
57.21000 136.671
57.22000 135.231
57.23000 133.934
57.24000 131.479
57.25000 129.114
57.26000 127.301
57.27000 128.153
57.28000 129.356
57.29000 130.657
57.30000 132.275
57.31000 133.918
57.32000 135.061
57.33000 131.035
57.34000 127.856
57.35000 126.070
57.36000 126.376
57.37000 126.702
57.38000 127.905
57.39000 129.973
57.40000 132.027
57.41000 133.941
57.42000 135.734
57.43000 137.386
57.44000 135.285
57.45000 131.519
57.46000 127.964
57.47000 127.091
57.48000 127.029
57.49000 126.974
57.50000 127.909
57.51000 128.903
57.52000 129.745
57.53000 129.864
57.54000 129.890
57.55000 129.626
57.56000 128.438
57.57000 127.183
57.58000 126.313
57.59000 121.118
57.60000 117.095
57.61000 116.114
57.62000 119.625
57.63000 123.176
57.64000 126.135
57.65000 128.519
57.66000 130.887
57.67000 130.357
57.68000 128.011
57.69000 125.760
57.70000 125.933
57.71000 127.163
57.72000 128.009
57.73000 124.110
57.74000 118.798
57.75000 114.035
57.76000 119.247
57.77000 125.534
57.78000 130.545
57.79000 129.615
57.80000 127.936
57.81000 127.072
57.82000 128.757
57.83000 130.626
57.84000 131.912
57.85000 131.906
57.86000 131.869
57.87000 129.809
57.88000 124.814
57.89000 119.796
57.90000 118.863
57.91000 121.811
57.92000 124.737
57.93000 126.497
57.94000 127.507
57.95000 128.554
57.96000 130.531
57.97000 132.908
57.98000 134.885
57.99000 132.070
58.00000 127.853
58.01000 124.081
58.02000 122.854
58.03000 122.218
58.04000 121.908
58.05000 123.095
58.06000 124.466
58.07000 124.629
58.08000 121.078
58.09000 117.266
58.10000 114.657
58.11000 120.936
58.12000 125.848
58.13000 128.521
58.14000 128.006
58.15000 127.467
58.16000 126.040
58.17000 123.786
58.18000 121.551
58.19000 118.953
58.20000 116.182
58.21000 113.642
58.22000 116.512
58.23000 121.663
58.24000 126.654
58.25000 129.788
58.26000 132.388
58.27000 134.707
58.28000 133.501
58.29000 131.864
58.30000 129.966
58.31000 126.902
58.32000 123.697
58.33000 121.452
58.34000 122.106
58.35000 122.959
58.36000 123.539
58.37000 122.574
58.38000 121.819
58.39000 125.991
58.40000 137.055
58.41000 148.161
58.42000 148.360
58.43000 138.594
58.44000 128.917
58.45000 126.498
58.46000 128.450
58.47000 130.287
58.48000 129.526
58.49000 127.688
58.50000 125.884
58.51000 124.460
58.52000 123.143
58.53000 121.972
58.54000 124.299
58.55000 126.890
58.56000 128.671
58.57000 126.891
58.58000 124.691
58.59000 123.804
58.60000 126.818
58.61000 130.091
58.62000 132.304
58.63000 128.646
58.64000 125.794
58.65000 122.634
58.66000 119.049
58.67000 115.465
58.68000 115.254
58.69000 118.066
58.70000 120.851
58.71000 123.957
58.72000 127.185
58.73000 130.182
58.74000 128.158
58.75000 124.088
58.76000 120.350
58.77000 120.294
58.78000 121.259
58.79000 122.116
58.80000 125.483
58.81000 128.800
58.82000 131.184
58.83000 129.536
58.84000 127.423
58.85000 125.010
58.86000 121.723
58.87000 118.380
58.88000 116.133
58.89000 113.260
58.90000 111.112
58.91000 109.443
58.92000 108.418
58.93000 107.400
58.94000 109.211
58.95000 113.509
58.96000 117.762
58.97000 117.545
58.98000 114.771
58.99000 112.072
59.00000 110.953
59.01000 110.466
59.02000 109.979
59.03000 109.473
59.04000 108.962
59.05000 108.510
59.06000 113.599
59.07000 118.863
59.08000 122.686
59.09000 120.396
59.10000 117.418
59.11000 115.176
59.12000 115.047
59.13000 115.049
59.14000 115.050
59.15000 118.786
59.16000 121.628
59.17000 123.181
59.18000 123.027
59.19000 122.867
59.20000 123.502
59.21000 124.824
59.22000 126.132
59.23000 127.216
59.24000 128.149
59.25000 128.956
59.26000 127.188
59.27000 124.409
59.28000 121.543
59.29000 117.775
59.30000 113.765
59.31000 110.226
59.32000 110.666
59.33000 111.653
59.34000 112.148
59.35000 110.595
59.36000 108.817
59.37000 107.879
59.38000 109.307
59.39000 110.878
59.40000 111.921
59.41000 110.716
59.42000 109.783
59.43000 109.746
59.44000 110.875
59.45000 112.010
59.46000 113.902
59.47000 116.434
59.48000 118.936
59.49000 119.122
59.50000 118.023
59.51000 117.078
59.52000 119.117
59.53000 122.311
59.54000 124.795
59.55000 119.972
59.56000 113.229
59.57000 107.294
59.58000 108.428
59.59000 110.461
59.60000 112.554
59.61000 114.892
59.62000 117.256
59.63000 120.208
59.64000 124.786
59.65000 129.460
59.66000 132.544
59.67000 121.551
59.68000 113.200
59.69000 110.391
59.70000 114.655
59.71000 118.942
59.72000 121.729
59.73000 123.271
59.74000 124.793
59.75000 120.303
59.76000 112.673
59.77000 105.535
59.78000 107.720
59.79000 113.449
59.80000 118.820
59.81000 120.589
59.82000 121.428
59.83000 122.164
59.84000 122.058
59.85000 121.844
59.86000 121.949
59.87000 123.335
59.88000 124.855
59.89000 124.776
59.90000 120.339
59.91000 115.656
59.92000 112.585
59.93000 117.566
59.94000 121.362
59.95000 120.860
59.96000 114.975
59.97000 109.094
59.98000 111.190
59.99000 119.782
60.00000 128.258
60.01000 127.037
60.02000 120.694
60.03000 114.641
60.04000 113.894
60.05000 115.130
60.06000 116.418
60.07000 118.216
60.08000 120.143
60.09000 121.830
60.10000 120.179
60.11000 118.287
60.12000 116.701
60.13000 116.321
60.14000 116.064
60.15000 116.477
60.16000 118.683
60.17000 120.987
60.18000 122.488
60.19000 120.586
60.20000 119.137
60.21000 117.928
60.22000 117.015
60.23000 116.103
60.24000 115.018
60.25000 113.797
60.26000 112.594
60.27000 112.542
60.28000 113.093
60.29000 113.616
60.30000 113.654
60.31000 113.513
60.32000 113.434
60.33000 113.942
60.34000 114.596
60.35000 115.167
60.36000 115.055
60.37000 114.862
60.38000 115.665
60.39000 120.323
60.40000 125.366
60.41000 128.166
60.42000 125.064
60.43000 121.650
60.44000 119.440
60.45000 115.560
60.46000 112.697
60.47000 112.423
60.48000 115.272
60.49000 118.113
60.50000 116.672
60.51000 111.874
60.52000 107.148
60.53000 105.264
60.54000 104.893
60.55000 104.818
60.56000 109.819
60.57000 116.653
60.58000 122.836
60.59000 122.943
60.60000 121.563
60.61000 120.363
60.62000 117.953
60.63000 115.731
60.64000 113.968
60.65000 113.950
60.66000 114.101
60.67000 114.130
60.68000 113.840
60.69000 113.534
60.70000 113.337
60.71000 114.656
60.72000 115.639
60.73000 117.469
60.74000 120.301
60.75000 123.126
60.76000 124.004
60.77000 123.382
60.78000 122.770
60.79000 123.753
60.80000 125.506
60.81000 127.036
60.82000 124.879
60.83000 121.411
60.84000 118.372
60.85000 119.237
60.86000 121.040
60.87000 122.604
60.88000 118.279
60.89000 113.809
60.90000 109.776
60.91000 107.373
60.92000 105.125
60.93000 105.781
60.94000 113.819
60.95000 122.222
60.96000 127.589
60.97000 120.018
60.98000 114.339
60.99000 112.165
61.00000 114.060
61.01000 115.955
61.02000 116.917
61.03000 117.174
61.04000 117.426
61.05000 121.378
61.06000 127.022
61.07000 132.075
61.08000 127.588
61.09000 119.773
61.10000 112.746
61.11000 112.727
61.12000 114.361
61.13000 115.774
61.14000 114.423
61.15000 112.913
61.16000 112.859
61.17000 118.145
61.18000 123.925
61.19000 126.948
61.20000 123.078
61.21000 118.879
61.22000 116.216
61.23000 118.653
61.24000 120.484
61.25000 121.851
61.26000 122.689
61.27000 123.521
61.28000 123.521
61.29000 122.904
61.30000 122.298
61.31000 121.215
61.32000 119.940
61.33000 118.836
61.34000 120.417
61.35000 122.918
61.36000 125.093
61.37000 124.437
61.38000 123.124
61.39000 121.993
61.40000 123.587
61.41000 125.287
61.42000 126.384
61.43000 125.312
61.44000 124.043
61.45000 122.827
61.46000 121.743
61.47000 120.665
61.48000 119.986
61.49000 126.940
61.50000 132.062
61.51000 139.350
61.52000 149.060
61.53000 158.763
61.54000 167.161
61.55000 174.607
61.56000 181.911
61.57000 198.612
61.58000 219.169
61.59000 239.610
61.60000 258.307
61.61000 276.416
61.62000 293.804
61.63000 305.076
61.64000 314.957
61.65000 323.450
61.66000 335.826
61.67000 346.782
61.68000 354.700
61.69000 351.851
61.70000 348.056
61.71000 347.304
61.72000 353.904
61.73000 360.829
61.74000 365.163
61.75000 361.919
61.76000 359.497
61.77000 354.187
61.78000 345.713
61.79000 337.197
61.80000 322.632
61.81000 303.740
61.82000 285.226
61.83000 264.355
61.84000 243.176
61.85000 222.413
61.86000 207.760
61.87000 195.132
61.88000 182.598
61.89000 170.855
61.90000 159.288
61.91000 149.378
61.92000 145.890
61.93000 143.728
61.94000 142.641
61.95000 145.301
61.96000 148.282
61.97000 149.299
61.98000 145.655
61.99000 141.812
62.00000 139.424
62.01000 134.603
62.02000 131.109
62.03000 128.970
62.04000 128.288
62.05000 127.628
62.06000 129.698
62.07000 133.686
62.08000 137.590
62.09000 135.286
62.10000 130.234
62.11000 125.465
62.12000 124.745
62.13000 125.345
62.14000 125.896
62.15000 126.055
62.16000 126.129
62.17000 126.192
62.18000 128.479
62.19000 130.669
62.20000 131.987
62.21000 130.318
62.22000 128.399
62.23000 127.492
62.24000 128.943
62.25000 130.492
62.26000 131.447
62.27000 132.778
62.28000 133.737
62.29000 135.114
62.30000 136.931
62.31000 138.725
62.32000 137.653
62.33000 134.605
62.34000 131.623
62.35000 133.505
62.36000 137.492
62.37000 141.229
62.38000 141.495
62.39000 140.652
62.40000 139.511
62.41000 136.010
62.42000 132.002
62.43000 128.590
62.44000 131.032
62.45000 133.764
62.46000 134.663
62.47000 129.398
62.48000 123.632
62.49000 120.995
62.50000 125.538
62.51000 130.365
62.52000 133.321
62.53000 134.009
62.54000 134.482
62.55000 134.170
62.56000 133.046
62.57000 131.947
62.58000 133.492
62.59000 136.829
62.60000 140.089
62.61000 137.652
62.62000 132.809
62.63000 128.407
62.64000 129.939
62.65000 133.338
62.66000 136.463
62.67000 137.461
62.68000 138.010
62.69000 138.475
62.70000 137.011
62.71000 135.565
62.72000 134.528
62.73000 134.845
62.74000 135.269
62.75000 135.765
62.76000 136.425
62.77000 137.091
62.78000 137.496
62.79000 134.817
62.80000 132.879
62.81000 130.079
62.82000 126.404
62.83000 122.762
62.84000 122.393
62.85000 124.201
62.86000 125.965
62.87000 126.281
62.88000 125.956
62.89000 125.751
62.90000 127.113
62.91000 128.959
62.92000 131.042
62.93000 134.916
62.94000 139.161
62.95000 142.752
62.96000 140.112
62.97000 137.214
62.98000 135.251
62.99000 136.327
63.00000 137.636
63.01000 138.180
63.02000 137.025
63.03000 135.808
63.04000 135.074
63.05000 136.628
63.06000 137.751
63.07000 138.810
63.08000 139.806
63.09000 140.777
63.10000 139.390
63.11000 136.463
63.12000 133.610
63.13000 134.838
63.14000 137.742
63.15000 140.131
63.16000 135.948
63.17000 129.770
63.18000 124.600
63.19000 126.911
63.20000 130.743
63.21000 133.973
63.22000 135.158
63.23000 135.927
63.24000 136.353
63.25000 135.689
63.26000 134.943
63.27000 134.144
63.28000 133.227
63.29000 132.307
63.30000 131.756
63.31000 133.252
63.32000 134.328
63.33000 132.846
63.34000 128.876
63.35000 124.986
63.36000 127.839
63.37000 135.023
63.38000 142.017
63.39000 140.234
63.40000 134.880
63.41000 129.882
63.42000 129.282
63.43000 129.994
63.44000 130.558
63.45000 130.040
63.46000 129.307
63.47000 128.690
63.48000 128.703
63.49000 128.779
63.50000 129.022
63.51000 129.785
63.52000 130.586
63.53000 131.377
63.54000 132.146
63.55000 132.914
63.56000 133.371
63.57000 135.149
63.58000 136.416
63.59000 137.307
63.60000 137.838
63.61000 138.382
63.62000 139.895
63.63000 142.019
63.64000 144.085
63.65000 144.923
63.66000 145.219
63.67000 145.458
63.68000 145.010
63.69000 144.360
63.70000 143.887
63.71000 144.671
63.72000 145.700
63.73000 146.562
63.74000 148.017
63.75000 149.288
63.76000 150.027
63.77000 149.130
63.78000 148.118
63.79000 148.727
63.80000 152.750
63.81000 156.882
63.82000 159.320
63.83000 150.942
63.84000 144.969
63.85000 142.371
63.86000 142.926
63.87000 143.503
63.88000 145.738
63.89000 149.000
63.90000 152.168
63.91000 150.701
63.92000 147.450
63.93000 144.483
63.94000 144.855
63.95000 146.190
63.96000 147.375
63.97000 147.515
63.98000 147.455
63.99000 147.404
64.00000 145.963
64.01000 144.628
64.02000 144.365
64.03000 147.347
64.04000 150.552
64.05000 152.298
64.06000 151.023
64.07000 149.656
64.08000 148.856
64.09000 143.036
64.10000 138.916
64.11000 138.252
64.12000 140.757
64.13000 143.263
64.14000 145.940
64.15000 148.720
64.16000 151.417
64.17000 151.530
64.18000 150.621
64.19000 149.736
64.20000 149.125
64.21000 148.591
64.22000 148.239
64.23000 149.128
64.24000 150.250
64.25000 151.184
64.26000 154.087
64.27000 156.683
64.28000 158.068
64.29000 155.849
64.30000 153.392
64.31000 153.124
64.32000 157.315
64.33000 161.637
64.34000 164.147
64.35000 166.998
64.36000 168.999
64.37000 167.135
64.38000 161.797
64.39000 156.563
64.40000 157.956
64.41000 163.314
64.42000 168.503
64.43000 168.434
64.44000 166.337
64.45000 164.436
64.46000 164.709
64.47000 165.586
64.48000 166.562
64.49000 168.195
64.50000 169.949
64.51000 171.402
64.52000 176.353
64.53000 180.775
64.54000 182.975
64.55000 178.676
64.56000 173.958
64.57000 171.893
64.58000 175.134
64.59000 178.523
64.60000 180.476
64.61000 180.593
64.62000 180.665
64.63000 178.253
64.64000 173.652
64.65000 169.117
64.66000 168.583
64.67000 170.402
64.68000 172.162
64.69000 175.019
64.70000 178.132
64.71000 181.252
64.72000 184.434
64.73000 187.633
64.74000 189.891
64.75000 186.005
64.76000 181.007
64.77000 176.880
64.78000 181.665
64.79000 186.435
64.80000 190.388
64.81000 191.989
64.82000 193.443
64.83000 195.357
64.84000 198.172
64.85000 201.012
64.86000 202.635
64.87000 199.140
64.88000 196.688
64.89000 197.890
64.90000 202.253
64.91000 206.586
64.92000 209.283
64.93000 211.033
64.94000 212.725
64.95000 220.491
64.96000 230.071
64.97000 238.888
64.98000 239.628
64.99000 238.199
65.00000 236.851
65.01000 236.026
65.02000 235.292
65.03000 234.689
65.04000 246.508
65.05000 257.349
65.06000 266.163
65.07000 269.253
65.08000 271.996
65.09000 274.229
65.10000 275.479
65.11000 276.705
65.12000 277.399
65.13000 280.979
65.14000 283.482
65.15000 288.028
65.16000 294.308
65.17000 300.498
65.18000 301.871
65.19000 300.511
65.20000 299.199
65.21000 302.791
65.22000 307.959
65.23000 313.428
65.24000 321.995
65.25000 331.379
65.26000 338.885
65.27000 334.616
65.28000 328.297
65.29000 323.119
65.30000 340.300
65.31000 356.366
65.32000 369.173
65.33000 372.924
65.34000 376.143
65.35000 377.381
65.36000 374.854
65.37000 372.237
65.38000 370.765
65.39000 381.483
65.40000 388.943
65.41000 392.063
65.42000 391.570
65.43000 391.190
65.44000 396.442
65.45000 404.836
65.46000 412.922
65.47000 418.124
65.48000 421.978
65.49000 425.553
65.50000 426.322
65.51000 426.363
65.52000 428.249
65.53000 441.467
65.54000 456.618
65.55000 468.989
65.56000 474.871
65.57000 479.125
65.58000 482.138
65.59000 481.762
65.60000 481.194
65.61000 485.783
65.62000 500.000
65.63000 514.437
65.64000 522.484
65.65000 556.098
65.66000 579.429
65.67000 610.535
65.68000 647.989
65.69000 685.894
65.70000 745.161
65.71000 816.140
65.72000 884.419
65.73000 1005.670
65.74000 1137.969
65.75000 1271.851
65.76000 1421.295
65.77000 1574.698
65.78000 1725.994
65.79000 1864.606
65.80000 2001.098
65.81000 2112.126
65.82000 2266.670
65.83000 2396.491
65.84000 2505.870
65.85000 2560.383
65.86000 2611.880
65.87000 2643.124
65.88000 2637.208
65.89000 2630.491
65.90000 2626.779
65.91000 2666.197
65.92000 2693.321
65.93000 2671.225
65.94000 2609.684
65.95000 2547.346
65.96000 2449.344
65.97000 2332.126
65.98000 2219.531
65.99000 2050.838
66.00000 1873.619
66.01000 1698.190
66.02000 1539.917
66.03000 1385.931
66.04000 1234.987
66.05000 1101.993
66.06000 971.941
66.07000 866.553
66.08000 768.266
66.09000 688.784
66.10000 622.183
66.11000 589.564
66.12000 558.751
66.13000 531.419
66.14000 510.363
66.15000 489.434
66.16000 477.967
66.17000 473.168
66.18000 469.857
66.19000 460.645
66.20000 446.792
66.21000 433.166
66.22000 429.165
66.23000 430.262
66.24000 431.314
66.25000 445.216
66.26000 462.549
66.27000 479.553
66.28000 493.470
66.29000 506.629
66.30000 521.651
66.31000 547.445
66.32000 574.969
66.33000 597.187
66.34000 624.739
66.35000 647.554
66.36000 672.525
66.37000 703.089
66.38000 733.940
66.39000 757.248
66.40000 767.189
66.41000 776.874
66.42000 782.133
66.43000 775.924
66.44000 771.663
66.45000 769.995
66.46000 770.328
66.47000 770.523
66.48000 765.159
66.49000 756.903
66.50000 748.995
66.51000 742.357
66.52000 736.589
66.53000 727.594
66.54000 689.111
66.55000 643.522
66.56000 601.625
66.57000 580.660
66.58000 562.987
66.59000 548.777
66.60000 517.242
66.61000 490.331
66.62000 465.502
66.63000 445.979
66.64000 426.718
66.65000 411.688
66.66000 404.025
66.67000 396.495
66.68000 392.442
66.69000 395.465
66.70000 397.536
66.71000 399.149
66.72000 400.414
66.73000 401.728
66.74000 404.894
66.75000 409.008
66.76000 412.941
66.77000 412.848
66.78000 411.451
66.79000 410.017
66.80000 408.260
66.81000 406.426
66.82000 405.251
66.83000 407.742
66.84000 410.798
66.85000 413.246
66.86000 403.573
66.87000 394.836
66.88000 390.100
66.89000 395.388
66.90000 401.156
66.91000 403.581
66.92000 400.287
66.93000 396.895
66.94000 395.086
66.95000 406.283
66.96000 413.893
66.97000 415.936
66.98000 413.836
66.99000 411.823
67.00000 413.020
67.01000 415.831
67.02000 418.514
67.03000 419.874
67.04000 420.715
67.05000 421.028
67.06000 416.737
67.07000 411.377
67.08000 408.021
67.09000 415.585
67.10000 424.799
67.11000 432.148
67.12000 431.023
67.13000 429.495
67.14000 428.135
67.15000 427.187
67.16000 426.258
67.17000 427.639
67.18000 432.905
67.19000 438.233
67.20000 441.049
67.21000 431.354
67.22000 424.823
67.23000 428.705
67.24000 440.192
67.25000 451.473
67.26000 455.581
67.27000 456.143
67.28000 456.679
67.29000 452.917
67.30000 448.081
67.31000 444.253
67.32000 449.003
67.33000 455.709
67.34000 461.190
67.35000 460.123
67.36000 458.087
67.37000 456.470
67.38000 452.701
67.39000 449.512
67.40000 449.855
67.41000 458.753
67.42000 468.031
67.43000 469.930
67.44000 459.637
67.45000 449.162
67.46000 443.677
67.47000 460.357
67.48000 471.573
67.49000 469.806
67.50000 458.725
67.51000 448.058
67.52000 451.105
67.53000 460.813
67.54000 470.052
67.55000 477.664
67.56000 484.207
67.57000 490.036
67.58000 489.908
67.59000 488.446
67.60000 487.251
67.61000 487.451
67.62000 487.854
67.63000 488.173
67.64000 479.210
67.65000 471.369
67.66000 470.263
67.67000 485.193
67.68000 500.812
67.69000 510.891
67.70000 511.980
67.71000 512.944
67.72000 513.444
67.73000 502.051
67.74000 494.448
67.75000 498.967
67.76000 512.024
67.77000 524.835
67.78000 529.867
67.79000 531.183
67.80000 532.433
67.81000 531.688
67.82000 530.398
67.83000 528.584
67.84000 522.505
67.85000 515.489
67.86000 510.409
67.87000 515.289
67.88000 521.580
67.89000 526.537
67.90000 530.389
67.91000 533.404
67.92000 533.980
67.93000 528.849
67.94000 523.483
67.95000 523.429
67.96000 531.848
67.97000 540.375
67.98000 544.756
67.99000 539.280
68.00000 535.629
68.01000 536.071
68.02000 539.346
68.03000 542.619
68.04000 545.843
68.05000 549.043
68.06000 552.078
68.07000 562.052
68.08000 573.299
68.09000 583.752
68.10000 587.878
68.11000 590.640
68.12000 592.076
68.13000 586.823
68.14000 580.642
68.15000 575.792
68.16000 593.114
68.17000 608.411
68.18000 617.357
68.19000 611.693
68.20000 605.448
68.21000 602.066
68.22000 603.167
68.23000 604.322
68.24000 604.910
68.25000 619.179
68.26000 628.698
68.27000 632.778
68.28000 633.161
68.29000 633.559
68.30000 634.377
68.31000 635.388
68.32000 636.345
68.33000 642.238
68.34000 649.093
68.35000 656.475
68.36000 667.953
68.37000 680.300
68.38000 691.567
68.39000 697.491
68.40000 702.691
68.41000 706.753
68.42000 709.749
68.43000 712.071
68.44000 712.996
68.45000 710.762
68.46000 708.406
68.47000 709.724
68.48000 716.692
68.49000 723.723
68.50000 727.265
68.51000 753.422
68.52000 770.860
68.53000 783.966
68.54000 794.181
68.55000 804.576
68.56000 819.988
68.57000 837.676
68.58000 854.393
68.59000 882.609
68.60000 911.795
68.61000 941.847
68.62000 978.495
68.63000 1016.514
68.64000 1054.942
68.65000 1095.355
68.66000 1136.031
68.67000 1167.678
68.68000 1236.773
68.69000 1294.074
68.70000 1351.146
68.71000 1407.708
68.72000 1464.252
68.73000 1521.434
68.74000 1579.580
68.75000 1637.737
68.76000 1701.999
68.77000 1772.335
68.78000 1842.563
68.79000 1902.567
68.80000 1955.868
68.81000 2010.096
68.82000 2089.063
68.83000 2179.061
68.84000 2263.969
68.85000 2388.303
68.86000 2513.271
68.87000 2644.849
68.88000 2825.652
68.89000 3016.490
68.90000 3234.430
68.91000 3581.541
68.92000 3945.428
68.93000 4227.316
68.94000 5261.774
68.95000 6128.143
68.96000 7339.679
68.97000 9305.526
68.98000 11297.884
68.99000 13942.203
69.00000 17554.531
69.01000 21175.822
69.02000 25324.303
69.03000 29986.543
69.04000 34644.105
69.05000 38895.938
69.06000 42886.539
69.07000 46838.930
69.08000 49810.805
69.09000 52352.934
69.10000 54746.953
69.11000 56249.863
69.12000 57380.793
69.13000 58496.055
69.14000 59497.180
69.15000 60475.473
69.16000 61447.402
69.17000 62389.574
69.18000 63327.969
69.19000 64051.711
69.20000 64285.645
69.21000 64442.730
69.22000 63925.820
69.23000 61961.039
69.24000 59947.500
69.25000 57392.813
69.26000 54048.980
69.27000 50698.645
69.28000 47434.895
69.29000 44254.512
69.30000 41080.617
69.31000 38427.961
69.32000 36104.988
69.33000 33817.125
69.34000 32395.416
69.35000 31346.889
69.36000 30361.271
69.37000 29685.752
69.38000 29152.248
69.39000 28559.477
69.40000 27544.029
69.41000 26445.631
69.42000 25194.605
69.43000 23242.875
69.44000 21204.104
69.45000 19638.664
69.46000 16757.510
69.47000 14406.357
69.48000 12205.096
69.49000 10320.347
69.50000 8445.800
69.51000 6859.125
69.52000 5684.724
69.53000 4513.671
69.54000 3667.360
69.55000 3125.582
69.56000 2586.311
69.57000 2233.916
69.58000 1997.646
69.59000 1765.195
69.60000 1623.419
69.61000 1520.048
69.62000 1423.060
69.63000 1331.123
69.64000 1248.678
69.65000 1169.890
69.66000 1116.621
69.67000 1068.266
69.68000 1023.348
69.69000 993.922
69.70000 966.378
69.71000 945.323
69.72000 909.173
69.73000 879.844
69.74000 854.861
69.75000 838.896
69.76000 823.209
69.77000 806.232
69.78000 787.441
69.79000 768.642
69.80000 746.454
69.81000 721.168
69.82000 696.124
69.83000 687.887
69.84000 689.911
69.85000 691.275
69.86000 677.580
69.87000 657.615
69.88000 638.918
69.89000 634.868
69.90000 634.966
69.91000 632.835
69.92000 615.470
69.93000 595.228
69.94000 578.498
69.95000 577.309
69.96000 577.963
69.97000 578.461
69.98000 566.016
69.99000 555.545
70.00000 547.335
