20.00000 479.095
20.01000 482.308
20.02000 485.980
20.03000 487.163
20.04000 478.531
20.05000 468.895
20.06000 461.780
20.07000 469.036
20.08000 475.268
20.09000 476.674
20.10000 469.250
20.11000 461.637
20.12000 462.548
20.13000 473.930
20.14000 485.319
20.15000 490.416
20.16000 490.484
20.17000 490.467
20.18000 486.679
20.19000 480.864
20.20000 475.175
20.21000 471.704
20.22000 469.050
20.23000 466.600
20.24000 465.324
20.25000 464.442
20.26000 464.840
20.27000 472.761
20.28000 481.910
20.29000 487.184
20.30000 477.450
20.31000 466.219
20.32000 457.967
20.33000 468.311
20.34000 477.069
20.35000 481.985
20.36000 479.994
20.37000 477.864
20.38000 473.394
20.39000 466.105
20.40000 458.825
20.41000 458.610
20.42000 463.906
20.43000 469.066
20.44000 468.445
20.45000 464.774
20.46000 461.287
20.47000 460.978
20.48000 461.816
20.49000 462.588
20.50000 467.431
20.51000 472.653
20.52000 477.458
20.53000 479.861
20.54000 481.879
20.55000 481.514
20.56000 472.085
20.57000 461.773
20.58000 454.235
20.59000 453.357
20.60000 452.942
20.61000 455.967
20.62000 465.071
20.63000 474.291
20.64000 476.258
20.65000 469.646
20.66000 463.036
20.67000 462.874
20.68000 467.648
20.69000 472.319
20.70000 472.867
20.71000 471.277
20.72000 469.816
20.73000 470.509
20.74000 471.966
20.75000 473.304
20.76000 470.104
20.77000 466.275
20.78000 463.806
20.79000 469.025
20.80000 475.448
20.81000 479.063
20.82000 472.183
20.83000 464.307
20.84000 458.579
20.85000 460.771
20.86000 462.758
20.87000 462.964
20.88000 460.080
20.89000 457.139
20.90000 456.046
20.91000 457.095
20.92000 458.143
20.93000 461.220
20.94000 465.798
20.95000 470.384
20.96000 475.305
20.97000 480.397
20.98000 484.817
20.99000 478.423
21.00000 468.257
21.01000 458.940
21.02000 456.472
21.03000 455.713
21.04000 456.179
21.05000 463.432
21.06000 471.726
21.07000 479.723
21.08000 486.622
21.09000 493.421
21.10000 498.340
21.11000 480.483
21.12000 465.943
21.13000 460.086
21.14000 469.044
21.15000 478.251
21.16000 481.747
21.17000 478.745
21.18000 475.745
21.19000 472.276
21.20000 468.487
21.21000 464.898
21.22000 468.485
21.23000 475.670
21.24000 482.240
21.25000 479.214
21.26000 472.899
21.27000 467.123
21.28000 474.592
21.29000 483.958
21.30000 491.298
21.31000 487.637
21.32000 482.321
21.33000 477.585
21.34000 474.941
21.35000 472.486
21.36000 470.718
21.37000 480.457
21.38000 488.320
21.39000 488.657
21.40000 476.378
21.41000 463.900
21.42000 456.374
21.43000 454.378
21.44000 452.393
21.45000 457.871
21.46000 468.690
21.47000 479.404
21.48000 486.487
21.49000 491.780
21.50000 496.203
21.51000 487.471
21.52000 474.306
21.53000 462.294
21.54000 465.691
21.55000 471.810
21.56000 477.526
21.57000 481.090
21.58000 484.337
21.59000 484.986
21.60000 476.430
21.61000 467.065
21.62000 460.359
21.63000 463.999
21.64000 467.130
21.65000 475.449
21.66000 492.315
21.67000 509.306
21.68000 514.887
21.69000 507.973
21.70000 501.081
21.71000 502.788
21.72000 510.570
21.73000 518.298
21.74000 524.237
21.75000 529.311
21.76000 534.766
21.77000 545.833
21.78000 558.757
21.79000 570.522
21.80000 578.435
21.81000 584.678
21.82000 591.084
21.83000 598.336
21.84000 605.712
21.85000 613.624
21.86000 623.407
21.87000 633.350
21.88000 640.432
21.89000 651.197
21.90000 659.519
21.91000 666.991
21.92000 673.085
21.93000 679.161
21.94000 687.674
21.95000 698.804
21.96000 709.886
21.97000 715.014
21.98000 715.951
21.99000 716.934
22.00000 719.360
22.01000 722.474
22.02000 724.789
22.03000 715.721
22.04000 702.947
22.05000 691.347
22.06000 685.231
22.07000 680.891
22.08000 675.122
22.09000 662.032
22.10000 647.907
22.11000 634.713
22.12000 624.701
22.13000 614.954
22.14000 608.049
22.15000 597.192
22.16000 588.816
22.17000 582.397
22.18000 579.091
22.19000 575.824
22.20000 571.081
22.21000 564.784
22.22000 558.518
22.23000 551.545
22.24000 544.172
22.25000 536.948
22.26000 534.237
22.27000 533.638
22.28000 532.371
22.29000 521.840
22.30000 508.346
22.31000 496.122
22.32000 494.392
22.33000 494.856
22.34000 496.087
22.35000 501.172
22.36000 506.791
22.37000 508.378
22.38000 496.419
22.39000 483.363
22.40000 474.164
22.41000 475.789
22.42000 477.345
22.43000 478.741
22.44000 479.887
22.45000 481.030
22.46000 475.106
22.47000 461.888
22.48000 448.741
22.49000 451.069
22.50000 463.719
22.51000 475.910
22.52000 474.883
22.53000 467.774
22.54000 461.128
22.55000 460.715
22.56000 462.263
22.57000 463.661
22.58000 458.905
22.59000 453.578
22.60000 448.589
22.61000 445.260
22.62000 442.156
22.63000 440.045
22.64000 441.216
22.65000 442.645
22.66000 443.647
22.67000 439.767
22.68000 436.692
22.69000 438.832
22.70000 448.973
22.71000 459.202
22.72000 459.347
22.73000 449.292
22.74000 439.297
22.75000 433.919
22.76000 431.644
22.77000 429.505
22.78000 431.108
22.79000 434.403
22.80000 437.680
22.81000 440.727
22.82000 443.703
22.83000 446.386
22.84000 443.336
22.85000 439.617
22.86000 436.162
22.87000 433.992
22.88000 431.991
22.89000 430.949
22.90000 433.019
22.91000 435.328
22.92000 436.937
22.93000 432.577
22.94000 429.123
22.95000 428.397
22.96000 431.780
22.97000 435.205
22.98000 438.182
22.99000 440.715
23.00000 443.232
23.01000 442.476
23.02000 439.624
23.03000 436.899
23.04000 437.556
23.05000 439.717
23.06000 441.421
23.07000 437.302
23.08000 431.416
23.09000 426.122
23.10000 425.806
23.11000 426.414
23.12000 427.220
23.13000 428.962
23.14000 430.825
23.15000 432.152
23.16000 431.773
23.17000 431.267
23.18000 430.917
23.19000 432.713
23.20000 434.122
23.21000 435.396
23.22000 436.470
23.23000 437.542
23.24000 440.093
23.25000 444.081
23.26000 448.042
23.27000 439.485
23.28000 423.157
23.29000 407.553
23.30000 410.400
23.31000 421.311
23.32000 431.274
23.33000 429.494
23.34000 424.210
23.35000 419.470
23.36000 421.131
23.37000 423.698
23.38000 427.033
23.39000 433.947
23.40000 441.314
23.41000 446.765
23.42000 446.211
23.43000 445.222
23.44000 444.541
23.45000 435.673
23.46000 428.809
23.47000 425.556
23.48000 427.550
23.49000 429.588
23.50000 431.159
23.51000 432.284
23.52000 433.401
23.53000 434.972
23.54000 436.798
23.55000 438.601
23.56000 439.834
23.57000 440.821
23.58000 440.870
23.59000 429.606
23.60000 415.026
23.61000 401.982
23.62000 406.132
23.63000 412.685
23.64000 418.901
23.65000 423.571
23.66000 428.050
23.67000 433.293
23.68000 440.889
23.69000 448.651
23.70000 453.967
23.71000 450.005
23.72000 446.816
23.73000 445.085
23.74000 445.434
23.75000 445.799
23.76000 444.209
23.77000 440.793
23.78000 437.406
23.79000 440.715
23.80000 448.037
23.81000 454.951
23.82000 452.249
23.83000 445.487
23.84000 439.135
23.85000 437.606
23.86000 437.466
23.87000 437.342
23.88000 443.498
23.89000 449.905
23.90000 454.907
23.91000 453.596
23.92000 451.520
23.93000 447.706
23.94000 438.627
23.95000 429.189
23.96000 422.764
23.97000 436.527
23.98000 447.270
23.99000 450.020
24.00000 441.565
24.01000 433.036
24.02000 430.864
24.03000 434.515
24.04000 438.132
24.05000 443.418
24.06000 449.597
24.07000 455.402
24.08000 452.718
24.09000 446.509
24.10000 440.515
24.11000 436.971
24.12000 434.120
24.13000 431.582
24.14000 436.272
24.15000 441.527
24.16000 445.671
24.17000 444.911
24.18000 443.571
24.19000 441.612
24.20000 437.809
24.21000 433.883
24.22000 431.226
24.23000 426.111
24.24000 422.246
24.25000 422.690
24.26000 429.065
24.27000 435.474
24.28000 436.573
24.29000 432.904
24.30000 429.271
24.31000 426.057
24.32000 423.157
24.33000 420.642
24.34000 426.564
24.35000 435.929
24.36000 444.418
24.37000 443.151
24.38000 439.172
24.39000 435.641
24.40000 429.157
24.41000 423.066
24.42000 417.920
24.43000 416.868
24.44000 416.289
24.45000 415.115
24.46000 412.202
24.47000 409.178
24.48000 407.143
24.49000 403.259
24.50000 400.334
24.51000 397.935
24.52000 396.246
24.53000 394.568
24.54000 399.269
24.55000 409.591
24.56000 419.806
24.57000 420.956
24.58000 416.871
24.59000 412.814
24.60000 409.362
24.61000 406.153
24.62000 403.050
24.63000 401.097
24.64000 399.459
24.65000 398.008
24.66000 403.163
24.67000 408.655
24.68000 412.377
24.69000 408.575
24.70000 403.923
24.71000 403.443
24.72000 414.950
24.73000 427.207
24.74000 435.401
24.75000 429.966
24.76000 425.668
24.77000 422.218
24.78000 419.893
24.79000 417.570
24.80000 413.282
24.81000 407.296
24.82000 401.377
24.83000 401.432
24.84000 404.854
24.85000 408.314
24.86000 412.533
24.87000 417.051
24.88000 420.852
24.89000 417.069
24.90000 411.252
24.91000 406.116
24.92000 406.897
24.93000 408.476
24.94000 409.517
24.95000 408.310
24.96000 406.855
24.97000 407.328
24.98000 413.248
24.99000 419.496
25.00000 423.649
25.01000 409.254
25.02000 398.264
25.03000 391.166
25.04000 389.138
25.05000 387.143
25.06000 391.870
25.07000 402.297
25.08000 412.600
25.09000 409.208
25.10000 398.322
25.11000 388.103
25.12000 391.009
25.13000 399.005
25.14000 406.564
25.15000 409.629
25.16000 411.508
25.17000 413.163
25.18000 407.400
25.19000 401.326
25.20000 396.637
25.21000 397.621
25.22000 399.217
25.23000 402.803
25.24000 411.915
25.25000 421.351
25.26000 427.582
25.27000 417.525
25.28000 409.819
25.29000 404.967
25.30000 403.763
25.31000 402.583
25.32000 406.476
25.33000 414.589
25.34000 422.599
25.35000 420.413
25.36000 412.746
25.37000 405.307
25.38000 402.212
25.39000 400.771
25.40000 399.645
25.41000 401.681
25.42000 404.535
25.43000 407.041
25.44000 403.156
25.45000 398.882
25.46000 395.638
25.47000 396.546
25.48000 397.889
25.49000 398.551
25.50000 397.353
25.51000 396.050
25.52000 395.194
25.53000 394.114
25.54000 393.315
25.55000 389.355
25.56000 381.428
25.57000 373.499
25.58000 370.324
25.59000 371.027
25.60000 371.722
25.61000 374.779
25.62000 379.012
25.63000 383.385
25.64000 390.340
25.65000 398.261
25.66000 404.988
25.67000 399.982
25.68000 391.993
25.69000 385.000
25.70000 382.772
25.71000 381.544
25.72000 381.080
25.73000 383.630
25.74000 386.490
25.75000 388.295
25.76000 387.270
25.77000 386.090
25.78000 385.320
25.79000 380.387
25.80000 376.702
25.81000 378.985
25.82000 388.620
25.83000 398.249
25.84000 399.158
25.85000 393.083
25.86000 387.095
25.87000 383.800
25.88000 382.007
25.89000 380.646
25.90000 386.953
25.91000 396.084
25.92000 404.334
25.93000 404.154
25.94000 401.868
25.95000 399.873
25.96000 394.429
25.97000 389.288
25.98000 384.508
25.99000 381.131
26.00000 377.895
26.01000 375.238
26.02000 374.111
26.03000 373.066
26.04000 372.388
26.05000 385.776
26.06000 395.783
26.07000 399.869
26.08000 396.798
26.09000 393.714
26.10000 391.202
26.11000 389.141
26.12000 387.111
26.13000 382.804
26.14000 377.459
26.15000 372.377
26.16000 371.812
26.17000 372.881
26.18000 374.217
26.19000 378.043
26.20000 382.480
26.21000 386.342
26.22000 384.471
26.23000 382.087
26.24000 379.919
26.25000 378.571
26.26000 377.303
26.27000 377.973
26.28000 383.670
26.29000 389.624
26.30000 393.455
26.31000 395.818
26.32000 397.522
26.33000 398.449
26.34000 398.453
26.35000 398.440
26.36000 394.579
26.37000 387.748
26.38000 381.026
26.39000 377.830
26.40000 376.512
26.41000 375.527
26.42000 380.105
26.43000 386.661
26.44000 392.241
26.45000 388.899
26.46000 383.408
26.47000 378.643
26.48000 375.387
26.49000 372.816
26.50000 370.935
26.51000 371.644
26.52000 372.599
26.53000 372.644
26.54000 370.371
26.55000 367.983
26.56000 366.457
26.57000 373.677
26.58000 379.047
26.59000 383.237
26.60000 386.051
26.61000 388.837
26.62000 385.978
26.63000 378.843
26.64000 371.829
26.65000 370.710
26.66000 372.542
26.67000 374.615
26.68000 380.586
26.69000 387.921
26.70000 394.162
26.71000 390.650
26.72000 384.832
26.73000 379.799
26.74000 371.082
26.75000 363.190
26.76000 359.133
26.77000 369.184
26.78000 380.544
26.79000 388.891
26.80000 389.685
26.81000 390.118
26.82000 390.392
26.83000 381.972
26.84000 375.751
26.85000 372.789
26.86000 373.545
26.87000 374.301
26.88000 374.055
26.89000 373.066
26.90000 372.094
26.91000 378.804
26.92000 389.007
26.93000 398.425
26.94000 395.543
26.95000 388.432
26.96000 382.478
26.97000 386.605
26.98000 393.074
26.99000 398.653
27.00000 392.931
27.01000 386.631
27.02000 380.370
27.03000 374.244
27.04000 368.130
27.05000 365.125
27.06000 369.776
27.07000 374.781
27.08000 377.937
27.09000 375.198
27.10000 373.148
27.11000 370.888
27.12000 368.393
27.13000 365.901
27.14000 363.821
27.15000 362.042
27.16000 360.296
27.17000 360.873
27.18000 362.536
27.19000 364.438
27.20000 370.001
27.21000 376.800
27.22000 382.381
27.23000 377.600
27.24000 370.457
27.25000 364.315
27.26000 370.771
27.27000 377.809
27.28000 383.377
27.29000 383.718
27.30000 383.599
27.31000 384.839
27.32000 389.369
27.33000 394.045
27.34000 396.974
27.35000 386.162
27.36000 378.207
27.37000 373.269
27.38000 371.643
27.39000 370.040
27.40000 371.572
27.41000 375.352
27.42000 379.057
27.43000 377.947
27.44000 374.629
27.45000 371.337
27.46000 368.434
27.47000 365.660
27.48000 363.375
27.49000 365.153
27.50000 367.840
27.51000 370.143
27.52000 375.054
27.53000 379.519
27.54000 381.370
27.55000 374.099
27.56000 366.045
27.57000 361.830
27.58000 366.750
27.59000 372.063
27.60000 375.367
27.61000 381.887
27.62000 386.615
27.63000 384.694
27.64000 375.613
27.65000 366.576
27.66000 363.804
27.67000 365.445
27.68000 367.051
27.69000 373.235
27.70000 381.274
27.71000 388.341
27.72000 381.482
27.73000 370.078
27.74000 360.315
27.75000 363.895
27.76000 370.407
27.77000 375.971
27.78000 374.078
27.79000 371.593
27.80000 370.247
27.81000 372.807
27.82000 375.693
27.83000 378.240
27.84000 379.992
27.85000 381.712
27.86000 382.774
27.87000 380.361
27.88000 378.595
27.89000 377.304
27.90000 376.514
27.91000 375.729
27.92000 375.418
27.93000 375.435
27.94000 375.452
27.95000 379.643
27.96000 385.541
27.97000 390.706
27.98000 385.664
27.99000 377.350
28.00000 369.889
28.01000 369.218
28.02000 370.011
28.03000 370.687
28.04000 369.140
28.05000 367.581
28.06000 365.971
28.07000 364.193
28.08000 362.402
28.09000 360.895
28.10000 360.043
28.11000 359.218
28.12000 358.711
28.13000 364.882
28.14000 369.359
28.15000 374.461
28.16000 380.211
28.17000 385.861
28.18000 380.447
28.19000 367.519
28.20000 354.890
28.21000 353.955
28.22000 358.226
28.23000 362.482
28.24000 366.526
28.25000 370.503
28.26000 373.642
28.27000 370.258
28.28000 365.493
28.29000 361.449
28.30000 363.186
28.31000 365.301
28.32000 367.364
28.33000 369.255
28.34000 371.132
28.35000 371.260
28.36000 367.432
28.37000 363.454
28.38000 361.033
28.39000 359.057
28.40000 357.649
28.41000 361.200
28.42000 369.781
28.43000 378.264
28.44000 376.743
28.45000 368.550
28.46000 360.555
28.47000 358.994
28.48000 360.291
28.49000 361.455
28.50000 360.880
28.51000 359.765
28.52000 358.739
28.53000 358.387
28.54000 358.176
28.55000 357.997
28.56000 367.823
28.57000 377.159
28.58000 383.026
28.59000 377.606
28.60000 371.316
28.61000 365.515
28.62000 360.798
28.63000 356.120
28.64000 353.294
28.65000 360.469
28.66000 365.652
28.67000 368.998
28.68000 370.518
28.69000 372.011
28.70000 370.994
28.71000 368.332
28.72000 365.738
28.73000 364.927
28.74000 364.912
28.75000 364.377
28.76000 357.203
28.77000 348.007
28.78000 340.649
28.79000 346.962
28.80000 356.063
28.81000 363.737
28.82000 366.553
28.83000 368.379
28.84000 369.240
28.85000 367.020
28.86000 364.569
28.87000 363.893
28.88000 367.095
28.89000 370.432
28.90000 372.434
28.91000 362.049
28.92000 354.590
28.93000 354.712
28.94000 362.222
28.95000 369.602
28.96000 365.721
28.97000 354.594
28.98000 343.760
28.99000 344.159
29.00000 349.228
29.01000 353.913
29.02000 353.822
29.03000 352.302
29.04000 352.146
29.05000 361.923
29.06000 373.687
29.07000 383.574
29.08000 367.971
29.09000 352.273
29.10000 340.581
29.11000 341.481
29.12000 343.296
29.13000 347.331
29.14000 356.128
29.15000 365.086
29.16000 370.417
29.17000 358.080
29.18000 349.235
29.19000 347.364
29.20000 352.154
29.21000 356.863
29.22000 354.966
29.23000 348.892
29.24000 342.986
29.25000 341.805
29.26000 342.616
29.27000 343.790
29.28000 349.345
29.29000 356.188
29.30000 361.993
29.31000 360.402
29.32000 357.360
29.33000 354.811
29.34000 358.536
29.35000 362.281
29.36000 363.618
29.37000 357.522
29.38000 350.900
29.39000 347.425
29.40000 350.593
29.41000 353.974
29.42000 355.971
29.43000 358.447
29.44000 360.199
29.45000 360.109
29.46000 358.295
29.47000 356.554
29.48000 360.188
29.49000 367.161
29.50000 373.933
29.51000 371.430
29.52000 365.324
29.53000 359.737
29.54000 360.266
29.55000 362.561
29.56000 364.342
29.57000 362.546
29.58000 360.061
29.59000 357.987
29.60000 362.598
29.61000 367.096
29.62000 372.590
29.63000 381.104
29.64000 389.825
29.65000 391.811
29.66000 379.822
29.67000 367.403
29.68000 360.125
29.69000 380.094
29.70000 394.287
29.71000 396.550
29.72000 387.855
29.73000 379.295
29.74000 380.069
29.75000 386.538
29.76000 392.813
29.77000 393.698
29.78000 392.411
29.79000 391.872
29.80000 399.913
29.81000 410.388
29.82000 419.589
29.83000 420.088
29.84000 418.945
29.85000 417.994
29.86000 415.374
29.87000 413.041
29.88000 412.768
29.89000 418.641
29.90000 424.924
29.91000 429.843
29.92000 431.981
29.93000 434.037
29.94000 435.233
29.95000 431.597
29.96000 429.024
29.97000 429.591
29.98000 432.987
29.99000 436.368
30.00000 438.755
30.01000 440.548
30.02000 442.284
30.03000 445.059
30.04000 448.088
30.05000 450.305
30.06000 443.453
30.07000 434.073
30.08000 425.817
30.09000 425.087
30.10000 425.749
30.11000 426.298
30.12000 433.568
30.13000 440.216
30.14000 443.808
30.15000 438.443
30.16000 432.499
30.17000 424.738
30.18000 413.334
30.19000 401.827
30.20000 395.191
30.21000 393.836
30.22000 392.907
30.23000 391.591
30.24000 389.933
30.25000 388.348
30.26000 391.261
30.27000 396.822
30.28000 402.203
30.29000 402.387
30.30000 400.586
30.31000 399.052
30.32000 400.420
30.33000 402.583
30.34000 404.329
30.35000 403.337
30.36000 401.849
30.37000 400.620
30.38000 389.194
30.39000 378.827
30.40000 371.502
30.41000 372.941
30.42000 374.931
30.43000 378.160
30.44000 383.833
30.45000 389.571
30.46000 392.854
30.47000 372.543
30.48000 358.304
30.49000 363.266
30.50000 384.869
30.51000 406.146
30.52000 408.828
30.53000 400.745
30.54000 392.936
30.55000 388.846
30.56000 386.376
30.57000 383.589
30.58000 377.425
30.59000 370.352
30.60000 365.172
30.61000 372.136
30.62000 381.262
30.63000 388.772
30.64000 392.086
30.65000 394.429
30.66000 395.065
30.67000 390.863
30.68000 386.368
30.69000 384.734
30.70000 388.645
30.71000 392.696
30.72000 394.995
30.73000 393.496
30.74000 392.446
30.75000 394.711
30.76000 399.796
30.77000 404.833
30.78000 407.312
30.79000 408.337
30.80000 409.326
30.81000 415.585
30.82000 423.403
30.83000 431.278
30.84000 439.733
30.85000 448.342
30.86000 457.408
30.87000 469.348
30.88000 481.790
30.89000 491.991
30.90000 498.168
30.91000 502.878
30.92000 508.036
30.93000 514.442
30.94000 520.921
30.95000 535.025
30.96000 563.644
30.97000 592.613
30.98000 608.916
30.99000 652.251
31.00000 682.417
31.01000 718.984
31.02000 760.891
31.03000 803.023
31.04000 856.476
31.05000 916.259
31.06000 973.861
31.07000 1030.904
31.08000 1084.296
31.09000 1138.484
31.10000 1200.719
31.11000 1265.043
31.12000 1331.711
31.13000 1412.826
31.14000 1496.411
31.15000 1564.692
31.16000 1648.043
31.17000 1717.568
31.18000 1795.783
31.19000 1897.773
31.20000 2001.120
31.21000 2089.612
31.22000 2150.315
31.23000 2210.382
31.24000 2243.901
31.25000 2361.421
31.26000 2442.915
31.27000 2511.362
31.28000 2569.130
31.29000 2626.291
31.30000 2654.573
31.31000 2666.988
31.32000 2678.933
31.33000 2684.549
31.34000 2687.587
31.35000 2688.702
31.36000 2670.874
31.37000 2648.217
31.38000 2622.797
31.39000 2580.704
31.40000 2535.817
31.41000 2499.286
31.42000 2402.373
31.43000 2318.150
31.44000 2233.104
31.45000 2145.843
31.46000 2058.459
31.47000 1969.886
31.48000 1879.127
31.49000 1788.320
31.50000 1738.078
31.51000 1616.910
31.52000 1533.149
31.53000 1444.668
31.54000 1352.396
31.55000 1260.600
31.56000 1190.296
31.57000 1131.595
31.58000 1075.199
31.59000 1000.910
31.60000 925.185
31.61000 852.224
31.62000 805.846
31.63000 766.125
31.64000 727.886
31.65000 698.411
31.66000 670.376
31.67000 647.647
31.68000 610.585
31.69000 579.213
31.70000 551.338
31.71000 532.708
31.72000 514.572
31.73000 496.435
31.74000 478.295
31.75000 460.156
31.76000 450.206
31.77000 440.777
31.78000 434.295
31.79000 429.134
31.80000 425.013
31.81000 420.820
31.82000 413.538
31.83000 404.617
31.84000 396.059
31.85000 393.802
31.86000 393.830
31.87000 393.006
31.88000 384.181
31.89000 373.387
31.90000 363.695
31.91000 360.389
31.92000 358.111
31.93000 356.270
31.94000 357.296
31.95000 358.359
31.96000 359.483
31.97000 360.769
31.98000 362.063
31.99000 360.905
32.00000 355.393
32.01000 349.798
32.02000 346.755
32.03000 346.060
32.04000 345.592
32.05000 346.780
32.06000 349.249
32.07000 351.682
32.08000 352.620
32.09000 352.779
32.10000 352.931
32.11000 355.738
32.12000 359.239
32.13000 361.597
32.14000 353.477
32.15000 342.826
32.16000 333.465
32.17000 331.434
32.18000 330.560
32.19000 329.857
32.20000 328.629
32.21000 327.593
32.22000 328.075
32.23000 332.435
32.24000 336.989
32.25000 337.727
32.26000 331.808
32.27000 325.768
32.28000 322.513
32.29000 325.435
32.30000 327.425
32.31000 326.374
32.32000 323.013
32.33000 319.824
32.34000 323.236
32.35000 330.032
32.36000 336.531
32.37000 334.435
32.38000 329.678
32.39000 325.983
32.40000 331.798
32.41000 339.867
32.42000 345.955
32.43000 341.007
32.44000 334.353
32.45000 329.022
32.46000 319.991
32.47000 312.404
32.48000 306.035
32.49000 302.721
32.50000 299.555
32.51000 300.758
32.52000 309.452
32.53000 318.275
32.54000 322.987
32.55000 330.327
32.56000 335.298
32.57000 333.539
32.58000 326.761
32.59000 320.139
32.60000 319.263
32.61000 321.282
32.62000 323.210
32.63000 322.767
32.64000 321.597
32.65000 320.151
32.66000 316.291
32.67000 311.869
32.68000 308.080
32.69000 307.751
32.70000 307.945
32.71000 308.101
32.72000 306.929
32.73000 305.886
32.74000 305.651
32.75000 307.414
32.76000 309.270
32.77000 313.250
32.78000 320.810
32.79000 328.428
32.80000 332.459
32.81000 331.236
32.82000 330.388
32.83000 327.063
32.84000 321.923
32.85000 317.024
32.86000 320.497
32.87000 328.117
32.88000 335.382
32.89000 337.141
32.90000 337.043
32.91000 337.581
32.92000 343.543
32.93000 350.746
32.94000 355.028
32.95000 343.656
32.96000 329.965
32.97000 319.082
32.98000 318.418
32.99000 318.611
33.00000 319.380
33.01000 321.545
33.02000 323.773
33.03000 326.298
33.04000 329.317
33.05000 332.343
33.06000 333.929
33.07000 320.492
33.08000 311.425
33.09000 308.611
33.10000 310.293
33.11000 311.850
33.12000 309.220
33.13000 304.553
33.14000 300.111
33.15000 297.556
33.16000 295.771
33.17000 294.048
33.18000 292.840
33.19000 291.748
33.20000 290.860
33.21000 291.044
33.22000 291.384
33.23000 291.653
33.24000 294.711
33.25000 297.362
33.26000 299.513
33.27000 300.471
33.28000 301.378
33.29000 301.355
33.30000 299.819
33.31000 298.261
33.32000 297.453
33.33000 308.308
33.34000 315.566
33.35000 312.657
33.36000 302.569
33.37000 292.768
33.38000 292.078
33.39000 295.749
33.40000 299.237
33.41000 297.500
33.42000 294.316
33.43000 291.747
33.44000 294.204
33.45000 297.767
33.46000 300.876
33.47000 301.644
33.48000 302.080
33.49000 302.423
33.50000 306.468
33.51000 309.960
33.52000 312.627
33.53000 313.357
33.54000 314.006
33.55000 310.182
33.56000 299.207
33.57000 288.140
33.58000 282.447
33.59000 290.877
33.60000 296.506
33.61000 296.313
33.62000 292.084
33.63000 288.065
33.64000 290.473
33.65000 295.903
33.66000 301.055
33.67000 302.838
33.68000 303.485
33.69000 304.076
33.70000 304.227
33.71000 304.282
33.72000 303.800
33.73000 300.595
33.74000 297.012
33.75000 294.199
33.76000 289.489
33.77000 285.598
33.78000 284.372
33.79000 289.293
33.80000 294.458
33.81000 298.010
33.82000 299.027
33.83000 300.014
33.84000 300.516
33.85000 301.461
33.86000 302.096
33.87000 302.796
33.88000 303.542
33.89000 304.272
33.90000 304.546
33.91000 304.608
33.92000 304.666
33.93000 301.514
33.94000 297.679
33.95000 294.031
33.96000 291.844
33.97000 289.966
33.98000 289.201
33.99000 293.958
34.00000 299.466
34.01000 303.772
34.02000 304.648
34.03000 305.129
34.04000 305.183
34.05000 304.268
34.06000 303.316
34.07000 303.124
34.08000 304.103
34.09000 305.094
34.10000 305.594
34.11000 295.207
34.12000 288.330
34.13000 288.470
34.14000 293.303
34.15000 298.253
34.16000 306.487
34.17000 316.213
34.18000 325.408
34.19000 325.171
34.20000 322.263
34.21000 319.105
34.22000 314.039
34.23000 308.576
34.24000 304.754
34.25000 308.919
34.26000 314.148
34.27000 318.218
34.28000 316.335
34.29000 314.470
34.30000 312.248
34.31000 309.234
34.32000 306.191
34.33000 303.595
34.34000 301.676
34.35000 299.764
34.36000 302.156
34.37000 308.838
34.38000 315.470
34.39000 317.284
34.40000 315.934
34.41000 314.632
34.42000 314.634
34.43000 315.217
34.44000 315.769
34.45000 313.658
34.46000 310.978
34.47000 308.255
34.48000 305.214
34.49000 302.109
34.50000 300.498
34.51000 306.032
34.52000 312.497
34.53000 317.507
34.54000 314.683
34.55000 311.971
34.56000 310.037
34.57000 309.805
34.58000 309.634
34.59000 310.532
34.60000 313.021
34.61000 315.524
34.62000 315.853
34.63000 314.056
34.64000 312.230
34.65000 307.826
34.66000 301.758
34.67000 295.754
34.68000 291.376
34.69000 287.712
34.70000 284.262
34.71000 286.782
34.72000 290.726
34.73000 294.167
34.74000 293.923
34.75000 292.941
34.76000 292.006
34.77000 291.288
34.78000 290.599
34.79000 290.066
34.80000 290.098
34.81000 290.157
34.82000 291.696
34.83000 296.424
34.84000 301.260
34.85000 301.500
34.86000 295.024
34.87000 288.491
34.88000 285.522
34.89000 285.970
34.90000 286.370
34.91000 282.894
34.92000 276.960
34.93000 271.237
34.94000 270.737
34.95000 272.493
34.96000 274.143
34.97000 273.130
34.98000 271.488
34.99000 270.361
35.00000 272.923
35.01000 276.210
35.02000 278.618
35.03000 276.984
35.04000 274.846
35.05000 273.204
35.06000 268.969
35.07000 265.475
35.08000 264.212
35.09000 267.668
35.10000 271.278
35.11000 272.150
35.12000 269.092
35.13000 266.004
35.14000 269.650
35.15000 279.619
35.16000 289.435
35.17000 287.770
35.18000 278.953
35.19000 270.186
35.20000 262.586
35.21000 255.482
35.22000 248.815
35.23000 252.921
35.24000 259.507
35.25000 265.518
35.26000 267.506
35.27000 268.718
35.28000 269.633
35.29000 269.211
35.30000 268.625
35.31000 268.178
35.32000 272.299
35.33000 275.799
35.34000 275.154
35.35000 265.887
35.36000 256.354
35.37000 252.705
35.38000 257.350
35.39000 262.054
35.40000 263.204
35.41000 261.082
35.42000 258.975
35.43000 257.862
35.44000 257.357
35.45000 256.865
35.46000 256.680
35.47000 256.624
35.48000 256.571
35.49000 259.128
35.50000 262.128
35.51000 265.600
35.52000 272.301
35.53000 279.613
35.54000 284.953
35.55000 281.544
35.56000 277.094
35.57000 273.706
35.58000 275.518
35.59000 277.218
35.60000 276.644
35.61000 271.418
35.62000 266.056
35.63000 263.107
35.64000 263.498
35.65000 263.911
35.66000 261.776
35.67000 257.343
35.68000 253.044
35.69000 257.474
35.70000 267.152
35.71000 276.510
35.72000 278.782
35.73000 278.147
35.74000 277.554
35.75000 275.559
35.76000 273.391
35.77000 270.511
35.78000 262.853
35.79000 254.309
35.80000 247.286
35.81000 246.883
35.82000 247.250
35.83000 247.528
35.84000 250.146
35.85000 252.321
35.86000 254.000
35.87000 254.682
35.88000 255.337
35.89000 255.781
35.90000 255.939
35.91000 256.096
35.92000 258.401
35.93000 262.603
35.94000 266.707
35.95000 264.873
35.96000 259.529
35.97000 254.504
35.98000 256.255
35.99000 260.738
36.00000 264.921
36.01000 266.855
36.02000 268.046
36.03000 268.424
36.04000 263.450
36.05000 257.502
36.06000 253.942
36.07000 260.589
36.08000 268.396
36.09000 274.285
36.10000 263.222
36.11000 253.719
36.12000 247.337
36.13000 247.123
36.14000 247.074
36.15000 247.210
36.16000 247.590
36.17000 247.972
36.18000 251.289
36.19000 257.145
36.20000 262.914
36.21000 263.642
36.22000 261.444
36.23000 259.520
36.24000 263.242
36.25000 269.201
36.26000 274.750
36.27000 267.880
36.28000 258.638
36.29000 251.588
36.30000 258.648
36.31000 268.226
36.32000 275.956
36.33000 275.931
36.34000 275.046
36.35000 274.381
36.36000 266.477
36.37000 259.954
36.38000 254.230
36.39000 250.056
36.40000 245.922
36.41000 246.016
36.42000 251.647
36.43000 257.299
36.44000 259.406
36.45000 258.494
36.46000 257.600
36.47000 257.705
36.48000 258.379
36.49000 259.233
36.50000 263.648
36.51000 269.451
36.52000 274.843
36.53000 272.526
36.54000 268.592
36.55000 264.914
36.56000 262.858
36.57000 261.086
36.58000 260.820
36.59000 266.760
36.60000 273.373
36.61000 278.315
36.62000 271.832
36.63000 266.251
36.64000 261.483
36.65000 258.268
36.66000 255.090
36.67000 254.386
36.68000 256.861
36.69000 259.347
36.70000 261.395
36.71000 263.074
36.72000 264.765
36.73000 267.133
36.74000 269.881
36.75000 272.260
36.76000 267.579
36.77000 260.193
36.78000 253.344
36.79000 253.046
36.80000 254.313
36.81000 255.344
36.82000 254.918
36.83000 254.242
36.84000 254.472
36.85000 258.370
36.86000 262.656
36.87000 265.843
36.88000 268.106
36.89000 269.825
36.90000 270.747
36.91000 270.177
36.92000 269.572
36.93000 269.442
36.94000 269.912
36.95000 270.383
36.96000 270.500
36.97000 270.326
36.98000 270.055
36.99000 265.118
37.00000 257.613
37.01000 250.664
37.02000 254.059
37.03000 261.349
37.04000 268.095
37.05000 275.984
37.06000 283.336
37.07000 289.542
37.08000 288.814
37.09000 286.920
37.10000 283.734
37.11000 275.411
37.12000 266.558
37.13000 260.007
37.14000 258.696
37.15000 257.905
37.16000 256.768
37.17000 254.991
37.18000 253.200
37.19000 252.822
37.20000 254.194
37.21000 255.569
37.22000 258.212
37.23000 261.864
37.24000 265.361
37.25000 261.851
37.26000 254.549
37.27000 247.460
37.28000 244.207
37.29000 242.374
37.30000 240.681
37.31000 247.033
37.32000 254.542
37.33000 260.745
37.34000 259.195
37.35000 256.367
37.36000 253.642
37.37000 251.318
37.38000 249.034
37.39000 247.353
37.40000 250.495
37.41000 253.127
37.42000 255.660
37.43000 258.014
37.44000 260.365
37.45000 260.526
37.46000 258.026
37.47000 255.524
37.48000 252.134
37.49000 248.061
37.50000 244.083
37.51000 244.224
37.52000 246.556
37.53000 248.847
37.54000 250.438
37.55000 251.775
37.56000 253.006
37.57000 252.059
37.58000 250.730
37.59000 249.632
37.60000 249.873
37.61000 250.331
37.62000 251.268
37.63000 254.042
37.64000 256.996
37.65000 259.161
37.66000 255.208
37.67000 251.911
37.68000 250.693
37.69000 253.176
37.70000 255.732
37.71000 254.688
37.72000 249.351
37.73000 244.018
37.74000 244.142
37.75000 248.477
37.76000 252.757
37.77000 254.799
37.78000 255.671
37.79000 256.605
37.80000 258.586
37.81000 260.941
37.82000 263.107
37.83000 263.334
37.84000 263.118
37.85000 262.255
37.86000 257.709
37.87000 252.580
37.88000 248.243
37.89000 246.891
37.90000 245.826
37.91000 245.049
37.92000 250.951
37.93000 255.755
37.94000 257.468
37.95000 253.773
37.96000 249.979
37.97000 250.439
37.98000 255.874
37.99000 261.304
38.00000 262.919
38.01000 261.636
38.02000 260.515
38.03000 265.645
38.04000 273.989
38.05000 281.612
38.06000 277.484
38.07000 269.227
38.08000 261.650
38.09000 259.257
38.10000 258.223
38.11000 258.251
38.12000 264.218
38.13000 271.105
38.14000 275.546
38.15000 270.942
38.16000 265.491
38.17000 261.538
38.18000 265.441
38.19000 268.731
38.20000 270.888
38.21000 271.095
38.22000 271.269
38.23000 276.697
38.24000 288.157
38.25000 299.591
38.26000 306.781
38.27000 310.768
38.28000 314.870
38.29000 323.188
38.30000 333.635
38.31000 343.394
38.32000 342.263
38.33000 337.371
38.34000 332.893
38.35000 345.385
38.36000 360.022
38.37000 374.354
38.38000 387.012
38.39000 399.417
38.40000 412.328
38.41000 427.084
38.42000 442.007
38.43000 452.775
38.44000 464.157
38.45000 472.904
38.46000 485.022
38.47000 502.835
38.48000 520.740
38.49000 533.112
38.50000 539.255
38.51000 545.372
38.52000 553.674
38.53000 563.500
38.54000 573.678
38.55000 596.213
38.56000 624.883
38.57000 652.291
38.58000 660.337
38.59000 661.809
38.60000 663.154
38.61000 675.422
38.62000 688.537
38.63000 700.417
38.64000 705.666
38.65000 709.930
38.66000 712.928
38.67000 711.407
38.68000 709.486
38.69000 708.106
38.70000 691.643
38.71000 678.535
38.72000 669.790
38.73000 668.289
38.74000 666.899
38.75000 654.501
38.76000 629.948
38.77000 605.480
38.78000 589.874
38.79000 580.740
38.80000 571.590
38.81000 561.907
38.82000 551.964
38.83000 541.318
38.84000 520.217
38.85000 495.626
38.86000 473.219
38.87000 455.944
38.88000 441.663
38.89000 427.752
38.90000 415.795
38.91000 404.123
38.92000 393.338
38.93000 385.663
38.94000 378.258
38.95000 372.971
38.96000 360.091
38.97000 350.015
38.98000 340.587
38.99000 332.215
39.00000 323.858
39.01000 314.658
39.02000 304.547
39.03000 294.478
39.04000 284.723
39.05000 275.286
39.06000 266.000
39.07000 261.526
39.08000 259.360
39.09000 257.252
39.10000 255.971
39.11000 254.961
39.12000 254.043
39.13000 256.895
39.14000 260.153
39.15000 262.881
39.16000 262.869
39.17000 262.467
39.18000 260.955
39.19000 255.621
39.20000 249.966
39.21000 245.950
39.22000 245.357
39.23000 245.015
39.24000 244.495
39.25000 243.691
39.26000 242.883
39.27000 241.041
39.28000 238.102
39.29000 235.176
39.30000 232.852
39.31000 230.966
39.32000 229.122
39.33000 228.548
39.34000 228.574
39.35000 228.511
39.36000 227.217
39.37000 225.525
39.38000 223.990
39.39000 226.315
39.40000 229.104
39.41000 231.607
39.42000 232.656
39.43000 233.503
39.44000 233.109
39.45000 228.512
39.46000 223.571
39.47000 220.082
39.48000 227.043
39.49000 232.646
39.50000 236.712
39.51000 238.357
39.52000 239.973
39.53000 238.601
39.54000 234.118
39.55000 229.658
39.56000 231.818
39.57000 238.416
39.58000 244.861
39.59000 246.784
39.60000 246.611
39.61000 246.236
39.62000 243.108
39.63000 239.108
39.64000 235.489
39.65000 237.705
39.66000 240.750
39.67000 242.147
39.68000 235.349
39.69000 227.433
39.70000 221.608
39.71000 222.742
39.72000 224.432
39.73000 225.620
39.74000 220.803
39.75000 216.981
39.76000 215.660
39.77000 218.209
39.78000 220.801
39.79000 224.461
39.80000 229.213
39.81000 233.938
39.82000 236.248
39.83000 236.930
39.84000 237.612
39.85000 238.306
39.86000 239.005
39.87000 239.501
39.88000 237.312
39.89000 234.286
39.90000 231.555
39.91000 227.914
39.92000 224.549
39.93000 221.756
39.94000 221.758
39.95000 222.133
39.96000 222.075
39.97000 220.600
39.98000 219.016
39.99000 217.908
40.00000 219.991
40.01000 221.653
40.02000 222.488
40.03000 222.066
40.04000 221.632
40.05000 221.337
40.06000 221.182
40.07000 221.029
40.08000 223.885
40.09000 228.654
40.10000 233.206
40.11000 231.875
40.12000 227.909
40.13000 224.095
40.14000 222.232
40.15000 220.965
40.16000 219.825
40.17000 222.207
40.18000 224.928
40.19000 226.669
40.20000 223.708
40.21000 220.134
40.22000 219.268
40.23000 227.103
40.24000 235.596
40.25000 241.494
40.26000 232.105
40.27000 224.621
40.28000 220.936
40.29000 222.917
40.30000 224.952
40.31000 224.317
40.32000 221.063
40.33000 217.832
40.34000 218.849
40.35000 222.556
40.36000 226.093
40.37000 225.198
40.38000 222.353
40.39000 219.575
40.40000 217.634
40.41000 215.945
40.42000 214.429
40.43000 217.830
40.44000 221.671
40.45000 224.811
40.46000 224.655
40.47000 224.079
40.48000 223.412
40.49000 222.460
40.50000 221.486
40.51000 220.814
40.52000 226.881
40.53000 231.614
40.54000 232.996
40.55000 229.467
40.56000 225.896
40.57000 224.314
40.58000 224.644
40.59000 224.971
40.60000 223.620
40.61000 221.242
40.62000 218.919
40.63000 217.971
40.64000 217.619
40.65000 217.235
40.66000 216.467
40.67000 215.585
40.68000 214.796
40.69000 217.423
40.70000 220.306
40.71000 221.895
40.72000 217.515
40.73000 212.390
40.74000 209.780
40.75000 214.977
40.76000 220.730
40.77000 224.680
40.78000 224.624
40.79000 224.483
40.80000 221.018
40.81000 212.769
40.82000 204.483
40.83000 203.514
40.84000 209.438
40.85000 215.315
40.86000 216.780
40.87000 215.515
40.88000 214.203
40.89000 211.765
40.90000 208.848
40.91000 206.247
40.92000 207.398
40.93000 209.639
40.94000 211.640
40.95000 213.333
40.96000 214.756
40.97000 216.183
40.98000 217.627
40.99000 219.073
41.00000 219.377
41.01000 216.198
41.02000 212.778
41.03000 210.443
41.04000 211.440
41.05000 212.264
41.06000 213.584
41.07000 215.605
41.08000 217.631
41.09000 218.430
41.10000 218.093
41.11000 217.760
41.12000 218.257
41.13000 219.245
41.14000 220.085
41.15000 217.510
41.16000 213.506
41.17000 209.708
41.18000 208.285
41.19000 207.539
41.20000 206.875
41.21000 206.967
41.22000 207.171
41.23000 207.073
41.24000 205.636
41.25000 204.039
41.26000 204.180
41.27000 209.527
41.28000 215.225
41.29000 219.091
41.30000 218.492
41.31000 217.947
41.32000 219.675
41.33000 224.559
41.34000 229.459
41.35000 226.681
41.36000 216.947
41.37000 207.304
41.38000 204.323
41.39000 205.335
41.40000 206.228
41.41000 204.463
41.42000 201.605
41.43000 199.266
41.44000 202.763
41.45000 207.895
41.46000 212.456
41.47000 215.283
41.48000 217.455
41.49000 218.674
41.50000 215.734
41.51000 212.309
41.52000 210.091
41.53000 211.430
41.54000 213.001
41.55000 214.061
41.56000 210.197
41.57000 207.217
41.58000 205.841
41.59000 206.650
41.60000 207.470
41.61000 207.885
41.62000 207.939
41.63000 207.992
41.64000 207.077
41.65000 205.622
41.66000 204.235
41.67000 204.312
41.68000 204.980
41.69000 205.746
41.70000 207.569
41.71000 209.684
41.72000 211.559
41.73000 213.363
41.74000 214.913
41.75000 215.251
41.76000 210.391
41.77000 204.938
41.78000 202.360
41.79000 208.105
41.80000 214.377
41.81000 218.581
41.82000 214.816
41.83000 211.862
41.84000 208.801
41.85000 205.598
41.86000 202.397
41.87000 201.145
41.88000 201.593
41.89000 202.035
41.90000 204.152
41.91000 207.172
41.92000 210.004
41.93000 208.953
41.94000 206.358
41.95000 204.024
41.96000 204.482
41.97000 205.694
41.98000 206.766
41.99000 205.556
42.00000 204.158
42.01000 203.258
42.02000 204.456
42.03000 205.887
42.04000 207.433
42.05000 209.306
42.06000 211.198
42.07000 212.460
42.08000 208.850
42.09000 206.085
42.10000 204.032
42.11000 202.913
42.12000 201.799
42.13000 200.514
42.14000 199.083
42.15000 197.670
42.16000 198.576
42.17000 200.756
42.18000 202.873
42.19000 203.741
42.20000 204.122
42.21000 204.402
42.22000 203.626
42.23000 202.570
42.24000 201.639
42.25000 204.858
42.26000 208.260
42.27000 210.457
42.28000 207.678
42.29000 204.357
42.30000 201.858
42.31000 201.656
42.32000 201.592
42.33000 201.549
42.34000 204.364
42.35000 206.494
42.36000 204.370
42.37000 196.760
42.38000 189.141
42.39000 187.578
42.40000 191.095
42.41000 194.569
42.42000 197.948
42.43000 201.187
42.44000 204.265
42.45000 204.217
42.46000 202.968
42.47000 202.215
42.48000 206.494
42.49000 212.086
42.50000 217.002
42.51000 216.990
42.52000 216.252
42.53000 215.114
42.54000 212.360
42.55000 209.434
42.56000 207.685
42.57000 209.173
42.58000 210.848
42.59000 211.950
42.60000 199.039
42.61000 189.291
42.62000 187.910
42.63000 197.118
42.64000 206.347
42.65000 209.159
42.66000 206.688
42.67000 204.250
42.68000 201.708
42.69000 199.177
42.70000 196.721
42.71000 195.649
42.72000 195.100
42.73000 194.931
42.74000 198.546
42.75000 203.130
42.76000 207.148
42.77000 204.455
42.78000 201.172
42.79000 200.127
42.80000 207.995
42.81000 216.787
42.82000 221.813
42.83000 216.656
42.84000 210.931
42.85000 207.189
42.86000 201.484
42.87000 197.262
42.88000 199.078
42.89000 208.393
42.90000 217.703
42.91000 217.181
42.92000 208.718
42.93000 200.373
42.94000 198.654
42.95000 200.478
42.96000 202.272
42.97000 203.523
42.98000 204.573
42.99000 205.549
43.00000 205.809
43.01000 205.889
43.02000 205.960
43.03000 209.861
43.04000 213.745
43.05000 215.350
43.06000 208.042
43.07000 199.831
43.08000 194.350
43.09000 196.121
43.10000 198.283
43.11000 199.688
43.12000 204.879
43.13000 208.740
43.14000 210.819
43.15000 210.727
43.16000 210.620
43.17000 207.504
43.18000 202.005
43.19000 196.587
43.20000 196.861
43.21000 200.074
43.22000 203.093
43.23000 202.745
43.24000 201.168
43.25000 199.806
43.26000 200.474
43.27000 201.644
43.28000 202.664
43.29000 201.676
43.30000 200.555
43.31000 199.685
43.32000 199.782
43.33000 199.974
43.34000 200.198
43.35000 200.504
43.36000 200.815
43.37000 201.016
43.38000 199.056
43.39000 197.593
43.40000 196.463
43.41000 195.730
43.42000 195.002
43.43000 195.298
43.44000 196.392
43.45000 197.469
43.46000 199.986
43.47000 203.156
43.48000 206.150
43.49000 206.173
43.50000 205.131
43.51000 204.049
43.52000 202.612
43.53000 201.088
43.54000 199.764
43.55000 202.505
43.56000 205.392
43.57000 205.964
43.58000 197.796
43.59000 188.787
43.60000 182.676
43.61000 184.004
43.62000 185.707
43.63000 186.798
43.64000 195.418
43.65000 201.801
43.66000 206.133
43.67000 208.057
43.68000 209.969
43.69000 209.996
43.70000 208.584
43.71000 207.195
43.72000 200.867
43.73000 192.284
43.74000 184.518
43.75000 190.125
43.76000 200.444
43.77000 209.534
43.78000 207.539
43.79000 202.901
43.80000 198.884
43.81000 195.395
43.82000 192.497
43.83000 190.695
43.84000 192.955
43.85000 195.596
43.86000 197.623
43.87000 198.100
43.88000 198.501
43.89000 198.757
43.90000 196.750
43.91000 195.263
43.92000 194.572
43.93000 194.799
43.94000 195.031
43.95000 196.122
43.96000 197.857
43.97000 199.562
43.98000 201.414
43.99000 203.275
44.00000 205.009
44.01000 204.722
44.02000 203.736
44.03000 202.539
44.04000 199.488
44.05000 196.003
44.06000 192.993
44.07000 188.750
44.08000 184.988
44.09000 183.057
44.10000 187.796
44.11000 193.145
44.12000 197.160
44.13000 197.867
44.14000 198.418
44.15000 198.766
44.16000 199.730
44.17000 200.435
44.18000 200.423
44.19000 199.599
44.20000 198.771
44.21000 197.209
44.22000 195.106
44.23000 193.042
44.24000 197.625
44.25000 205.236
44.26000 212.446
44.27000 213.493
44.28000 212.441
44.29000 211.619
44.30000 212.777
44.31000 214.390
44.32000 215.779
44.33000 211.169
44.34000 206.507
44.35000 203.390
44.36000 205.807
44.37000 208.718
44.38000 210.811
44.39000 210.910
44.40000 210.919
44.41000 210.925
44.42000 215.106
44.43000 218.175
44.44000 220.708
44.45000 222.649
44.46000 224.614
44.47000 230.464
44.48000 239.122
44.49000 247.612
44.50000 246.112
44.51000 239.961
44.52000 234.364
44.53000 237.034
44.54000 242.471
44.55000 247.238
44.56000 246.380
44.57000 244.252
44.58000 242.426
44.59000 257.414
44.60000 272.158
44.61000 283.103
44.62000 280.688
44.63000 277.112
44.64000 275.168
44.65000 277.139
44.66000 279.281
44.67000 280.616
44.68000 288.105
44.69000 293.567
44.70000 298.561
44.71000 303.046
44.72000 307.549
44.73000 314.608
44.74000 323.481
44.75000 332.173
44.76000 339.713
44.77000 346.430
44.78000 353.402
44.79000 364.085
44.80000 375.988
44.81000 387.214
44.82000 392.884
44.83000 397.322
44.84000 401.120
44.85000 399.537
44.86000 397.553
44.87000 397.711
44.88000 405.271
44.89000 413.457
44.90000 419.657
44.91000 421.178
44.92000 422.502
44.93000 423.322
44.94000 415.495
44.95000 409.784
44.96000 404.478
44.97000 399.604
44.98000 394.781
44.99000 396.462
45.00000 402.675
45.01000 408.754
45.02000 402.424
45.03000 390.718
45.04000 379.486
45.05000 374.935
45.06000 372.542
45.07000 369.227
45.08000 358.500
45.09000 346.162
45.10000 335.638
45.11000 331.622
45.12000 329.009
45.13000 327.316
45.14000 328.748
45.15000 330.438
45.16000 329.861
45.17000 324.028
45.18000 317.984
45.19000 314.266
45.20000 302.766
45.21000 294.450
45.22000 288.819
45.23000 285.992
45.24000 283.173
45.25000 281.276
45.26000 280.011
45.27000 278.775
45.28000 278.044
45.29000 277.569
45.30000 276.897
45.31000 273.524
45.32000 269.293
45.33000 264.790
45.34000 258.154
45.35000 251.063
45.36000 245.034
45.37000 247.613
45.38000 250.769
45.39000 250.968
45.40000 241.301
45.41000 230.843
45.42000 224.297
45.43000 226.660
45.44000 229.368
45.45000 231.022
45.46000 234.837
45.47000 237.582
45.48000 233.981
45.49000 223.885
45.50000 213.836
45.51000 208.880
45.52000 207.349
45.53000 205.854
45.54000 208.518
45.55000 212.884
45.56000 217.286
45.57000 222.163
45.58000 227.188
45.59000 231.161
45.60000 227.052
45.61000 221.251
45.62000 216.335
45.63000 213.818
45.64000 211.978
45.65000 210.351
45.66000 209.419
45.67000 208.541
45.68000 209.578
45.69000 214.902
45.70000 220.386
45.71000 223.710
45.72000 211.904
45.73000 203.370
45.74000 198.182
45.75000 196.352
45.76000 194.538
45.77000 194.347
45.78000 195.228
45.79000 196.088
45.80000 195.744
45.81000 194.901
45.82000 193.974
45.83000 191.976
45.84000 189.648
45.85000 187.674
45.86000 188.358
45.87000 189.588
45.88000 190.627
45.89000 189.052
45.90000 187.449
45.91000 186.920
45.92000 189.851
45.93000 193.045
45.94000 195.088
45.95000 194.595
45.96000 194.011
45.97000 193.660
45.98000 189.721
45.99000 186.895
46.00000 185.566
46.01000 185.711
46.02000 185.874
46.03000 187.724
46.04000 190.669
46.05000 193.538
46.06000 190.671
46.07000 185.524
46.08000 180.789
46.09000 181.231
46.10000 183.235
46.11000 185.573
46.12000 190.364
46.13000 195.650
46.14000 200.100
46.15000 191.339
46.16000 182.618
46.17000 177.351
46.18000 183.017
46.19000 189.488
46.20000 191.762
46.21000 184.952
46.22000 177.832
46.23000 173.580
46.24000 187.259
46.25000 197.072
46.26000 196.829
46.27000 186.895
46.28000 177.032
46.29000 173.093
46.30000 172.929
46.31000 172.770
46.32000 172.329
46.33000 171.792
46.34000 171.294
46.35000 171.251
46.36000 171.344
46.37000 172.187
46.38000 178.421
46.39000 185.722
46.40000 191.846
46.41000 185.080
46.42000 178.103
46.43000 173.986
46.44000 178.766
46.45000 184.184
46.46000 187.360
46.47000 185.771
46.48000 184.025
46.49000 182.991
46.50000 178.972
46.51000 176.113
46.52000 173.427
46.53000 170.906
46.54000 168.450
46.55000 171.004
46.56000 176.692
46.57000 182.220
46.58000 181.677
46.59000 178.700
46.60000 175.886
46.61000 175.016
46.62000 174.712
46.63000 174.438
46.64000 174.381
46.65000 174.365
46.66000 174.352
46.67000 170.790
46.68000 167.469
46.69000 165.972
46.70000 170.049
46.71000 174.514
46.72000 176.996
46.73000 175.333
46.74000 173.540
46.75000 172.485
46.76000 172.106
46.77000 171.843
46.78000 171.675
46.79000 171.595
46.80000 171.535
46.81000 172.808
46.82000 174.901
46.83000 176.933
46.84000 174.060
46.85000 169.383
46.86000 165.328
46.87000 168.484
46.88000 173.702
46.89000 178.251
46.90000 178.178
46.91000 177.225
46.92000 176.431
46.93000 175.229
46.94000 174.192
46.95000 172.462
46.96000 168.652
46.97000 164.701
46.98000 161.892
46.99000 161.431
47.00000 161.040
47.01000 160.813
47.02000 170.044
47.03000 176.576
47.04000 178.426
47.05000 176.023
47.06000 173.631
47.07000 172.018
47.08000 170.876
47.09000 169.769
47.10000 168.253
47.11000 166.658
47.12000 165.162
47.13000 164.801
47.14000 164.759
47.15000 165.092
47.16000 167.959
47.17000 171.299
47.18000 174.072
47.19000 169.691
47.20000 165.376
47.21000 161.631
47.22000 159.570
47.23000 157.619
47.24000 158.623
47.25000 165.594
47.26000 172.736
47.27000 176.870
47.28000 173.628
47.29000 171.322
47.30000 165.681
47.31000 157.069
47.32000 148.678
47.33000 154.139
47.34000 167.824
47.35000 181.071
47.36000 181.183
47.37000 176.257
47.38000 171.597
47.39000 169.855
47.40000 168.919
47.41000 168.907
47.42000 175.007
47.43000 182.226
47.44000 188.198
47.45000 182.687
47.46000 177.056
47.47000 173.168
47.48000 174.338
47.49000 175.829
47.50000 173.947
47.51000 165.369
47.52000 156.609
47.53000 151.579
47.54000 150.436
47.55000 149.656
47.56000 152.834
47.57000 159.472
47.58000 166.058
47.59000 169.613
47.60000 171.401
47.61000 173.129
47.62000 171.460
47.63000 168.607
47.64000 166.219
47.65000 168.810
47.66000 172.752
47.67000 175.561
47.68000 171.038
47.69000 165.199
47.70000 160.386
47.71000 158.549
47.72000 157.311
47.73000 156.805
47.74000 158.388
47.75000 160.100
47.76000 162.064
47.77000 164.522
47.78000 166.993
47.79000 168.401
47.80000 156.510
47.81000 148.190
47.82000 148.090
47.83000 155.035
47.84000 161.894
47.85000 164.013
47.86000 163.414
47.87000 162.836
47.88000 164.628
47.89000 167.190
47.90000 169.688
47.91000 171.510
47.92000 173.153
47.93000 174.734
47.94000 175.927
47.95000 177.053
47.96000 177.977
47.97000 171.759
47.98000 166.012
47.99000 162.009
48.00000 162.895
48.01000 164.073
48.02000 164.639
48.03000 164.031
48.04000 163.394
48.05000 163.034
48.06000 167.278
48.07000 170.234
48.08000 169.694
48.09000 166.213
48.10000 162.817
48.11000 163.830
48.12000 167.327
48.13000 170.697
48.14000 166.861
48.15000 160.644
48.16000 154.812
48.17000 152.901
48.18000 152.015
48.19000 151.964
48.20000 157.100
48.21000 163.132
48.22000 168.067
48.23000 169.109
48.24000 169.623
48.25000 169.797
48.26000 169.034
48.27000 168.216
48.28000 168.806
48.29000 172.049
48.30000 175.353
48.31000 177.204
48.32000 171.440
48.33000 167.430
48.34000 165.054
48.35000 164.028
48.36000 163.013
48.37000 162.570
48.38000 162.444
48.39000 162.323
48.40000 162.159
48.41000 161.991
48.42000 161.347
48.43000 155.968
48.44000 149.373
48.45000 143.476
48.46000 141.827
48.47000 140.898
48.48000 140.140
48.49000 152.323
48.50000 163.383
48.51000 170.757
48.52000 168.143
48.53000 164.970
48.54000 163.036
48.55000 163.395
48.56000 163.806
48.57000 164.034
48.58000 160.947
48.59000 158.812
48.60000 158.806
48.61000 160.522
48.62000 162.229
48.63000 163.505
48.64000 164.546
48.65000 165.547
48.66000 164.156
48.67000 162.019
48.68000 160.047
48.69000 159.679
48.70000 159.716
48.71000 159.801
48.72000 160.179
48.73000 160.604
48.74000 160.950
48.75000 160.752
48.76000 160.546
48.77000 158.793
48.78000 152.923
48.79000 146.829
48.80000 144.460
48.81000 148.871
48.82000 153.424
48.83000 155.932
48.84000 160.843
48.85000 164.223
48.86000 165.585
48.87000 165.341
48.88000 165.038
48.89000 162.134
48.90000 157.839
48.91000 153.716
48.92000 154.598
48.93000 157.134
48.94000 159.404
48.95000 159.149
48.96000 158.268
48.97000 157.472
48.98000 157.170
48.99000 156.947
49.00000 156.767
49.01000 159.266
49.02000 161.516
49.03000 161.951
49.04000 157.633
49.05000 153.065
49.06000 150.248
49.07000 150.563
49.08000 150.940
49.09000 151.146
49.10000 152.201
49.11000 152.922
49.12000 152.127
49.13000 150.150
49.14000 148.203
49.15000 147.504
49.16000 147.461
49.17000 147.420
49.18000 148.571
49.19000 150.045
49.20000 151.405
49.21000 151.706
49.22000 151.750
49.23000 152.214
49.24000 155.092
49.25000 158.354
49.26000 160.983
49.27000 160.274
49.28000 159.437
49.29000 158.799
49.30000 158.673
49.31000 158.574
49.32000 158.139
49.33000 157.115
49.34000 156.080
49.35000 155.520
49.36000 157.982
49.37000 159.664
49.38000 159.784
49.39000 158.706
49.40000 157.684
49.41000 158.862
49.42000 161.175
49.43000 163.388
49.44000 160.953
49.45000 157.155
49.46000 153.777
49.47000 154.202
49.48000 155.537
49.49000 156.964
49.50000 158.907
49.51000 160.932
49.52000 162.557
49.53000 168.132
49.54000 172.950
49.55000 173.900
49.56000 165.065
49.57000 155.753
49.58000 151.354
49.59000 155.448
49.60000 159.692
49.61000 161.967
49.62000 161.108
49.63000 160.524
49.64000 160.841
49.65000 161.837
49.66000 162.755
49.67000 160.747
49.68000 157.253
49.69000 153.915
49.70000 154.644
49.71000 156.634
49.72000 158.295
49.73000 157.040
49.74000 155.102
49.75000 153.301
49.76000 152.258
49.77000 151.332
49.78000 150.591
49.79000 156.220
49.80000 161.242
49.81000 163.619
49.82000 159.415
49.83000 154.901
49.84000 153.299
49.85000 156.643
49.86000 160.068
49.87000 161.888
49.88000 161.991
49.89000 162.062
49.90000 162.356
49.91000 162.817
49.92000 163.162
49.93000 159.403
49.94000 153.596
49.95000 148.056
49.96000 152.126
49.97000 158.948
49.98000 165.206
49.99000 166.593
50.00000 166.858
50.01000 167.107
50.02000 167.272
50.03000 167.424
50.04000 167.545
50.05000 169.914
50.06000 171.987
50.07000 172.755
50.08000 170.332
50.09000 167.765
50.10000 167.855
50.11000 172.380
50.12000 176.973
50.13000 179.391
50.14000 177.651
50.15000 176.471
50.16000 175.622
50.17000 175.011
50.18000 174.381
50.19000 173.091
50.20000 171.476
50.21000 169.938
50.22000 179.409
50.23000 191.604
50.24000 202.108
50.25000 198.355
50.26000 191.376
50.27000 186.427
50.28000 192.235
50.29000 199.618
50.30000 205.474
50.31000 201.522
50.32000 197.654
50.33000 198.108
50.34000 208.951
50.35000 220.249
50.36000 225.533
50.37000 220.958
50.38000 216.242
50.39000 213.782
50.40000 217.200
50.41000 219.520
50.42000 222.934
50.43000 227.124
50.44000 231.364
50.45000 237.204
50.46000 243.815
50.47000 250.102
50.48000 253.500
50.49000 255.760
50.50000 257.338
50.51000 253.284
50.52000 247.979
50.53000 243.841
50.54000 245.769
50.55000 248.567
50.56000 250.776
50.57000 249.152
50.58000 247.588
50.59000 246.276
50.60000 245.564
50.61000 244.877
50.62000 245.541
50.63000 248.382
50.64000 251.251
50.65000 252.734
50.66000 249.357
50.67000 247.094
50.68000 246.611
50.69000 247.371
50.70000 248.017
50.71000 245.094
50.72000 240.480
50.73000 236.100
50.74000 228.694
50.75000 220.953
50.76000 214.287
50.77000 216.284
50.78000 220.169
50.79000 222.658
50.80000 218.030
50.81000 212.402
50.82000 207.975
50.83000 202.767
50.84000 198.544
50.85000 195.961
50.86000 197.187
50.87000 198.568
50.88000 198.867
50.89000 197.454
50.90000 196.020
50.91000 195.287
50.92000 188.670
50.93000 184.233
50.94000 180.934
50.95000 178.415
50.96000 175.964
50.97000 175.518
50.98000 176.007
50.99000 176.470
51.00000 174.851
51.01000 172.748
51.02000 170.688
51.03000 168.965
51.04000 167.314
51.05000 165.635
51.06000 163.813
51.07000 161.971
51.08000 160.528
51.09000 162.329
51.10000 163.976
51.11000 163.588
51.12000 158.553
51.13000 153.337
51.14000 150.637
51.15000 151.848
51.16000 153.105
51.17000 153.741
51.18000 155.527
51.19000 156.713
51.20000 156.874
51.21000 156.343
51.22000 155.722
51.23000 152.533
51.24000 148.167
51.25000 144.037
51.26000 148.614
51.27000 155.326
51.28000 161.016
51.29000 158.825
51.30000 154.979
51.31000 151.657
51.32000 150.903
51.33000 150.495
51.34000 150.177
51.35000 145.974
51.36000 142.381
51.37000 142.097
51.38000 149.240
51.39000 156.661
51.40000 161.222
51.41000 161.416
51.42000 161.564
51.43000 161.638
51.44000 158.045
51.45000 155.647
51.46000 153.265
51.47000 150.893
51.48000 148.522
51.49000 146.185
51.50000 143.864
51.51000 141.673
51.52000 142.836
51.53000 144.850
51.54000 146.830
51.55000 148.563
51.56000 150.244
51.57000 150.854
51.58000 146.306
51.59000 141.080
51.60000 137.022
51.61000 140.454
51.62000 143.636
51.63000 145.879
51.64000 146.048
51.65000 146.142
51.66000 144.714
51.67000 141.003
51.68000 137.269
51.69000 137.229
51.70000 140.830
51.71000 144.408
51.72000 145.861
51.73000 145.932
51.74000 145.930
51.75000 144.007
51.76000 141.232
51.77000 138.617
51.78000 137.693
51.79000 137.315
51.80000 137.261
51.81000 139.605
51.82000 142.434
51.83000 145.016
51.84000 146.428
51.85000 147.689
51.86000 148.664
51.87000 146.124
51.88000 143.902
51.89000 141.959
51.90000 140.625
51.91000 139.311
51.92000 140.939
51.93000 146.900
51.94000 152.900
51.95000 155.237
51.96000 154.033
51.97000 152.833
51.98000 151.907
51.99000 151.157
52.00000 150.404
52.01000 149.577
52.02000 148.719
52.03000 147.911
52.04000 144.799
52.05000 141.329
52.06000 138.728
52.07000 142.395
52.08000 147.305
52.09000 150.816
52.10000 147.831
52.11000 144.030
52.12000 141.104
52.13000 140.729
52.14000 140.577
52.15000 140.366
52.16000 140.033
52.17000 139.695
52.18000 139.477
52.19000 139.432
52.20000 139.389
52.21000 139.143
52.22000 138.704
52.23000 138.259
52.24000 137.352
52.25000 136.157
52.26000 135.038
52.27000 135.789
52.28000 137.339
52.29000 138.795
52.30000 138.933
52.31000 138.708
52.32000 138.494
52.33000 138.364
52.34000 138.250
52.35000 138.589
52.36000 140.984
52.37000 143.633
52.38000 145.663
52.39000 137.729
52.40000 130.914
52.41000 128.492
52.42000 135.278
52.43000 142.354
52.44000 145.737
52.45000 143.870
52.46000 141.965
52.47000 142.128
52.48000 144.212
52.49000 146.275
52.50000 146.782
52.51000 146.331
52.52000 145.913
52.53000 146.282
52.54000 146.982
52.55000 147.638
52.56000 148.514
52.57000 149.369
52.58000 149.916
52.59000 148.334
52.60000 146.345
52.61000 144.239
52.62000 141.608
52.63000 138.913
52.64000 136.857
52.65000 141.560
52.66000 145.626
52.67000 147.665
52.68000 145.525
52.69000 143.260
52.70000 141.732
52.71000 141.235
52.72000 140.744
52.73000 142.496
52.74000 146.286
52.75000 150.021
52.76000 150.011
52.77000 147.732
52.78000 145.458
52.79000 143.278
52.80000 141.137
52.81000 139.133
52.82000 140.783
52.83000 143.216
52.84000 145.834
52.85000 149.707
52.86000 153.814
52.87000 156.417
52.88000 152.417
52.89000 147.642
52.90000 144.016
52.91000 142.422
52.92000 141.275
52.93000 141.395
52.94000 144.078
52.95000 146.835
52.96000 148.136
52.97000 147.442
52.98000 146.737
52.99000 147.513
53.00000 149.611
53.01000 151.729
53.02000 155.068
53.03000 159.135
53.04000 162.931
53.05000 160.863
53.06000 156.414
53.07000 152.259
53.08000 153.226
53.09000 155.388
53.10000 157.090
53.11000 155.742
53.12000 153.834
53.13000 152.094
53.14000 151.079
53.15000 150.148
53.16000 149.443
53.17000 152.317
53.18000 154.749
53.19000 156.428
53.20000 156.609
53.21000 156.749
53.22000 158.319
53.23000 161.812
53.24000 165.313
53.25000 166.726
53.26000 166.309
53.27000 165.843
53.28000 162.499
53.29000 157.472
53.30000 152.785
53.31000 155.218
53.32000 160.494
53.33000 165.412
53.34000 161.502
53.35000 155.791
53.36000 151.208
53.37000 153.952
53.38000 158.014
53.39000 161.085
53.40000 159.967
53.41000 158.378
53.42000 157.183
53.43000 153.651
53.44000 150.775
53.45000 149.698
53.46000 152.142
53.47000 154.679
53.48000 155.198
53.49000 153.051
53.50000 150.894
53.51000 149.294
53.52000 148.175
53.53000 147.072
53.54000 146.819
53.55000 147.055
53.56000 147.303
53.57000 147.788
53.58000 148.367
53.59000 148.906
53.60000 149.268
53.61000 149.552
53.62000 149.995
53.63000 151.446
53.64000 153.076
53.65000 153.760
53.66000 150.521
53.67000 146.852
53.68000 144.104
53.69000 145.976
53.70000 147.654
53.71000 148.629
53.72000 148.254
53.73000 147.845
53.74000 148.320
53.75000 149.942
53.76000 151.566
53.77000 151.773
53.78000 150.786
53.79000 149.812
53.80000 149.491
53.81000 149.538
53.82000 149.650
53.83000 151.010
53.84000 152.852
53.85000 154.562
53.86000 151.915
53.87000 148.499
53.88000 145.895
53.89000 148.349
53.90000 151.677
53.91000 154.022
53.92000 152.354
53.93000 150.255
53.94000 148.692
53.95000 146.097
53.96000 144.030
53.97000 143.433
53.98000 145.614
53.99000 147.862
54.00000 149.419
54.01000 150.097
54.02000 150.771
54.03000 150.672
54.04000 149.933
54.05000 149.144
54.06000 145.856
54.07000 141.180
54.08000 136.803
54.09000 138.052
54.10000 141.435
54.11000 144.569
54.12000 144.045
54.13000 142.726
54.14000 141.646
54.15000 142.027
54.16000 142.656
54.17000 142.463
54.18000 138.972
54.19000 135.138
54.20000 132.294
54.21000 135.966
54.22000 139.102
54.23000 140.588
54.24000 139.008
54.25000 137.359
54.26000 137.389
54.27000 139.515
54.28000 141.644
54.29000 142.969
54.30000 143.637
54.31000 144.265
54.32000 142.994
54.33000 140.687
54.34000 138.559
54.35000 139.669
54.36000 141.987
54.37000 144.129
54.38000 141.150
54.39000 137.313
54.40000 134.286
54.41000 136.109
54.42000 138.738
54.43000 141.218
54.44000 143.107
54.45000 144.936
54.46000 146.286
54.47000 144.014
54.48000 142.101
54.49000 141.461
54.50000 143.144
54.51000 144.876
54.52000 144.755
54.53000 142.364
54.54000 139.972
54.55000 141.207
54.56000 145.315
54.57000 149.351
54.58000 150.283
54.59000 149.549
54.60000 148.761
54.61000 147.002
54.62000 144.887
54.63000 142.937
54.64000 143.243
54.65000 144.020
54.66000 144.403
54.67000 142.473
54.68000 140.167
54.69000 139.181
54.70000 143.297
54.71000 147.922
54.72000 151.317
54.73000 149.635
54.74000 148.129
54.75000 147.714
54.76000 149.257
54.77000 150.840
54.78000 150.097
54.79000 146.560
54.80000 143.023
54.81000 143.372
54.82000 146.741
54.83000 150.020
54.84000 149.498
54.85000 146.974
54.86000 144.640
54.87000 145.541
54.88000 147.608
54.89000 149.510
54.90000 151.315
54.91000 152.908
54.92000 154.046
54.93000 152.573
54.94000 150.684
54.95000 148.543
54.96000 145.452
54.97000 142.269
54.98000 139.943
54.99000 151.440
55.00000 160.848
55.01000 165.671
55.02000 162.411
55.03000 158.999
55.04000 159.019
55.05000 163.091
55.06000 167.160
55.07000 168.259
55.08000 167.083
55.09000 165.882
55.10000 163.711
55.11000 161.036
55.12000 158.530
55.13000 158.812
55.14000 160.083
55.15000 161.249
55.16000 163.522
55.17000 165.786
55.18000 167.791
55.19000 168.338
55.20000 168.656
55.21000 169.465
55.22000 172.107
55.23000 174.922
55.24000 176.968
55.25000 182.618
55.26000 187.100
55.27000 191.293
55.28000 194.983
55.29000 198.664
55.30000 204.174
55.31000 211.801
55.32000 219.410
55.33000 227.217
55.34000 235.119
55.35000 242.879
55.36000 245.255
55.37000 244.890
55.38000 244.955
55.39000 251.887
55.40000 261.210
55.41000 269.753
55.42000 276.359
55.43000 281.836
55.44000 289.658
55.45000 310.445
55.46000 333.218
55.47000 353.659
55.48000 365.562
55.49000 376.678
55.50000 384.716
55.51000 386.699
55.52000 388.000
55.53000 396.584
55.54000 417.568
55.55000 438.759
55.56000 455.406
55.57000 466.894
55.58000 478.341
55.59000 489.927
55.60000 501.524
55.61000 513.096
55.62000 523.732
55.63000 533.901
55.64000 544.552
55.65000 562.692
55.66000 583.395
55.67000 602.322
55.68000 599.498
55.69000 592.523
55.70000 590.239
55.71000 613.389
55.72000 640.355
55.73000 662.705
55.74000 668.447
55.75000 672.698
55.76000 675.755
55.77000 676.909
55.78000 677.725
55.79000 676.660
55.80000 672.447
55.81000 668.185
55.82000 669.553
55.83000 677.191
55.84000 684.807
55.85000 682.884
55.86000 674.106
55.87000 665.557
55.88000 664.877
55.89000 668.067
55.90000 670.030
55.91000 653.511
55.92000 630.776
55.93000 610.038
55.94000 599.480
55.95000 592.166
55.96000 583.985
55.97000 571.194
55.98000 557.725
55.99000 546.127
56.00000 541.142
56.01000 536.736
56.02000 533.583
56.03000 507.605
56.04000 486.999
56.05000 470.443
56.06000 460.545
56.07000 450.745
56.08000 436.136
56.09000 416.275
56.10000 396.491
56.11000 384.437
56.12000 377.962
56.13000 371.199
56.14000 355.054
56.15000 334.373
56.16000 314.744
56.17000 310.498
56.18000 311.336
56.19000 312.099
56.20000 301.583
56.21000 290.054
56.22000 278.499
56.23000 266.807
56.24000 255.096
56.25000 244.548
56.26000 238.040
56.27000 231.876
56.28000 227.490
56.29000 222.518
56.30000 218.713
56.31000 216.285
56.32000 216.083
56.33000 215.912
56.34000 211.428
56.35000 202.325
56.36000 193.262
56.37000 189.437
56.38000 189.284
56.39000 189.102
56.40000 188.008
56.41000 186.481
56.42000 184.812
56.43000 181.116
56.44000 176.761
56.45000 172.807
56.46000 169.491
56.47000 166.685
56.48000 163.820
56.49000 160.645
56.50000 157.428
56.51000 155.600
56.52000 158.515
56.53000 161.824
56.54000 164.167
56.55000 154.109
56.56000 146.080
56.57000 140.650
56.58000 139.340
56.59000 138.083
56.60000 137.212
56.61000 136.748
56.62000 136.287
56.63000 137.279
56.64000 139.248
56.65000 141.163
56.66000 141.446
56.67000 140.968
56.68000 140.457
56.69000 139.482
56.70000 138.361
56.71000 137.345
56.72000 141.278
56.73000 145.681
56.74000 148.908
56.75000 146.240
56.76000 142.760
56.77000 140.115
56.78000 140.270
56.79000 140.652
56.80000 140.921
56.81000 140.555
56.82000 140.260
56.83000 139.167
56.84000 136.832
56.85000 134.482
56.86000 133.337
56.87000 133.433
56.88000 133.528
56.89000 133.386
56.90000 133.087
56.91000 132.846
56.92000 134.281
56.93000 136.486
56.94000 138.391
56.95000 136.278
56.96000 132.904
56.97000 129.855
56.98000 129.063
56.99000 128.784
57.00000 128.573
57.01000 128.695
57.02000 128.861
57.03000 127.961
57.04000 123.545
57.05000 118.853
57.06000 115.567
57.07000 119.275
57.08000 122.279
57.09000 126.501
57.10000 132.589
57.11000 138.698
57.12000 141.057
57.13000 139.633
57.14000 138.217
57.15000 135.749
57.16000 132.627
57.17000 129.622
57.18000 129.880
57.19000 131.610
57.20000 133.234
57.21000 133.462
57.22000 133.261
57.23000 133.079
57.24000 135.093
57.25000 137.259
57.26000 138.601
57.27000 135.961
57.28000 132.795
57.29000 130.536
57.30000 131.210
57.31000 132.109
57.32000 132.735
57.33000 135.331
57.34000 137.342
57.35000 137.206
57.36000 133.842
57.37000 130.446
57.38000 128.926
57.39000 129.262
57.40000 129.595
57.41000 129.243
57.42000 128.455
57.43000 127.658
57.44000 126.637
57.45000 125.517
57.46000 124.423
57.47000 123.652
57.48000 122.980
57.49000 122.375
57.50000 123.491
57.51000 124.773
57.52000 125.873
57.53000 126.103
57.54000 126.221
57.55000 125.810
57.56000 123.720
57.57000 121.505
57.58000 119.971
57.59000 121.012
57.60000 121.863
57.61000 122.916
57.62000 124.269
57.63000 125.625
57.64000 125.242
57.65000 123.173
57.66000 121.119
57.67000 122.586
57.68000 126.250
57.69000 129.758
57.70000 129.337
57.71000 127.203
57.72000 125.171
57.73000 124.393
57.74000 123.988
57.75000 123.625
57.76000 125.427
57.77000 127.379
57.78000 128.918
57.79000 128.537
57.80000 127.913
57.81000 127.483
57.82000 127.658
57.83000 127.877
57.84000 128.027
57.85000 126.068
57.86000 124.545
57.87000 124.105
57.88000 125.238
57.89000 126.382
57.90000 125.904
57.91000 123.882
57.92000 121.876
57.93000 120.367
57.94000 119.190
57.95000 118.179
57.96000 121.192
57.97000 125.930
57.98000 130.139
57.99000 127.987
58.00000 123.975
58.01000 120.386
58.02000 122.038
58.03000 124.371
58.04000 126.850
58.05000 130.000
58.06000 133.232
58.07000 135.193
58.08000 133.249
58.09000 131.031
58.10000 129.513
58.11000 125.088
58.12000 121.707
58.13000 120.616
58.14000 122.788
58.15000 124.985
58.16000 125.323
58.17000 123.929
58.18000 122.547
58.19000 120.499
58.20000 118.084
58.21000 115.874
58.22000 118.464
58.23000 123.076
58.24000 127.083
58.25000 124.003
58.26000 118.887
58.27000 114.322
58.28000 116.038
58.29000 118.578
58.30000 120.928
58.31000 122.427
58.32000 123.823
58.33000 124.278
58.34000 121.892
58.35000 119.311
58.36000 117.556
58.37000 115.214
58.38000 113.453
58.39000 114.152
58.40000 118.296
58.41000 122.463
58.42000 127.008
58.43000 131.897
58.44000 136.743
58.45000 136.801
58.46000 134.008
58.47000 131.326
58.48000 131.157
58.49000 132.029
58.50000 132.575
58.51000 129.414
58.52000 125.206
58.53000 121.462
58.54000 121.999
58.55000 123.164
58.56000 123.963
58.57000 123.148
58.58000 122.143
58.59000 120.727
58.60000 118.088
58.61000 115.369
58.62000 113.529
58.63000 120.884
58.64000 126.562
58.65000 128.005
58.66000 123.633
58.67000 119.228
58.68000 118.016
58.69000 119.663
58.70000 121.295
58.71000 119.181
58.72000 114.922
58.73000 110.931
58.74000 112.746
58.75000 116.927
58.76000 120.661
58.77000 119.440
58.78000 116.845
58.79000 114.542
58.80000 120.610
58.81000 127.204
58.82000 132.366
58.83000 131.347
58.84000 129.615
58.85000 127.478
58.86000 124.158
58.87000 120.762
58.88000 118.480
58.89000 117.520
58.90000 116.834
58.91000 116.044
58.92000 115.113
58.93000 114.183
58.94000 115.326
58.95000 118.290
58.96000 121.223
58.97000 123.001
58.98000 124.076
58.99000 125.089
59.00000 124.795
59.01000 123.978
59.02000 122.858
59.03000 118.463
59.04000 113.174
59.05000 108.494
59.06000 113.058
59.07000 118.447
59.08000 123.175
59.09000 125.101
59.10000 126.711
59.11000 128.219
59.12000 129.431
59.13000 130.624
59.14000 131.422
59.15000 127.602
59.16000 124.682
59.17000 121.127
59.18000 116.731
59.19000 112.340
59.20000 114.806
59.21000 123.184
59.22000 131.468
59.23000 128.497
59.24000 119.265
59.25000 110.438
59.26000 109.832
59.27000 112.461
59.28000 114.985
59.29000 116.405
59.30000 117.529
59.31000 118.521
59.32000 118.819
59.33000 118.971
59.34000 119.637
59.35000 122.440
59.36000 125.478
59.37000 127.063
59.38000 124.555
59.39000 121.800
59.40000 119.971
59.41000 121.844
59.42000 123.297
59.43000 123.695
59.44000 122.723
59.45000 121.744
59.46000 119.957
59.47000 117.487
59.48000 115.046
59.49000 113.698
59.50000 112.988
59.51000 112.387
59.52000 113.938
59.53000 116.321
59.54000 118.659
59.55000 120.536
59.56000 122.291
59.57000 123.835
59.58000 122.387
59.59000 120.694
59.60000 119.982
59.61000 123.285
59.62000 127.019
59.63000 130.066
59.64000 131.210
59.65000 132.242
59.66000 132.924
59.67000 123.939
59.68000 117.145
59.69000 113.819
59.70000 114.918
59.71000 116.027
59.72000 114.190
59.73000 109.910
59.74000 105.684
59.75000 108.376
59.76000 114.746
59.77000 120.847
59.78000 121.864
59.79000 120.948
59.80000 120.240
59.81000 121.617
59.82000 123.534
59.83000 125.216
59.84000 123.600
59.85000 121.730
59.86000 120.048
59.87000 119.120
59.88000 118.270
59.89000 117.309
59.90000 116.042
59.91000 114.757
59.92000 113.915
59.93000 119.545
59.94000 123.793
59.95000 124.357
59.96000 120.309
59.97000 116.256
59.98000 115.633
59.99000 117.804
60.00000 119.945
60.01000 119.180
60.02000 116.891
60.03000 114.769
60.04000 115.701
60.05000 117.775
60.06000 119.689
60.07000 120.045
60.08000 120.006
60.09000 119.971
60.10000 122.812
60.11000 125.659
60.12000 127.260
60.13000 123.949
60.14000 120.136
60.15000 117.138
60.16000 116.320
60.17000 115.622
60.18000 115.167
60.19000 115.188
60.20000 115.211
60.21000 115.507
60.22000 116.139
60.23000 116.768
60.24000 116.452
60.25000 115.380
60.26000 114.324
60.27000 116.400
60.28000 120.050
60.29000 123.404
60.30000 121.519
60.31000 117.708
60.32000 114.313
60.33000 114.889
60.34000 116.455
60.35000 117.821
60.36000 115.439
60.37000 112.877
60.38000 112.068
60.39000 118.051
60.40000 124.710
60.41000 128.131
60.42000 123.029
60.43000 117.475
60.44000 113.880
60.45000 112.109
60.46000 110.840
60.47000 112.374
60.48000 117.286
60.49000 122.190
60.50000 122.451
60.51000 119.072
60.52000 115.745
60.53000 114.978
60.54000 115.547
60.55000 116.077
60.56000 115.943
60.57000 115.570
60.58000 115.360
60.59000 116.672
60.60000 118.356
60.61000 119.822
60.62000 121.661
60.63000 123.282
60.64000 123.319
60.65000 117.329
60.66000 110.752
60.67000 106.627
60.68000 108.842
60.69000 111.382
60.70000 113.015
60.71000 116.894
60.72000 119.756
60.73000 121.766
60.74000 122.768
60.75000 123.766
60.76000 124.203
60.77000 124.210
60.78000 124.216
60.79000 123.127
60.80000 121.521
60.81000 119.915
60.82000 118.308
60.83000 116.700
60.84000 115.436
60.85000 117.298
60.86000 119.912
60.87000 122.180
60.88000 123.585
60.89000 124.666
60.90000 125.415
60.91000 124.924
60.92000 124.314
60.93000 122.960
60.94000 119.712
60.95000 116.370
60.96000 114.236
60.97000 117.579
60.98000 120.084
60.99000 120.992
61.00000 120.047
61.01000 119.106
61.02000 119.589
61.03000 121.148
61.04000 122.681
61.05000 122.431
61.06000 121.310
61.07000 120.229
61.08000 119.783
61.09000 119.560
61.10000 119.489
61.11000 120.784
61.12000 122.400
61.13000 123.798
61.14000 125.865
61.15000 127.708
61.16000 129.297
61.17000 129.948
61.18000 130.512
61.19000 129.927
61.20000 126.468
61.21000 122.872
61.22000 120.591
61.23000 120.644
61.24000 120.711
61.25000 121.528
61.26000 123.199
61.27000 124.849
61.28000 122.591
61.29000 117.432
61.30000 112.367
61.31000 115.255
61.32000 121.892
61.33000 128.135
61.34000 128.221
61.35000 126.196
61.36000 124.356
61.37000 124.122
61.38000 124.260
61.39000 124.379
61.40000 125.427
61.41000 126.435
61.42000 127.274
61.43000 127.504
61.44000 127.680
61.45000 127.570
61.46000 126.761
61.47000 125.919
61.48000 125.389
61.49000 130.745
61.50000 134.689
61.51000 141.133
61.52000 150.370
61.53000 159.634
61.54000 173.045
61.55000 189.478
61.56000 205.599
61.57000 218.650
61.58000 229.768
61.59000 241.047
61.60000 254.760
61.61000 269.295
61.62000 283.887
61.63000 298.971
61.64000 314.167
61.65000 327.228
61.66000 330.972
61.67000 332.978
61.68000 335.593
61.69000 340.363
61.70000 345.323
61.71000 348.005
61.72000 345.184
61.73000 342.120
61.74000 340.202
61.75000 325.915
61.76000 315.471
61.77000 307.376
61.78000 301.855
61.79000 296.270
61.80000 280.976
61.81000 258.737
61.82000 236.944
61.83000 218.988
61.84000 203.501
61.85000 188.202
61.86000 175.648
61.87000 164.005
61.88000 153.534
61.89000 152.787
61.90000 154.211
61.91000 155.432
61.92000 152.117
61.93000 148.766
61.94000 145.829
61.95000 144.334
61.96000 142.962
61.97000 141.887
61.98000 141.516
61.99000 141.175
62.00000 140.963
62.01000 138.601
62.02000 136.880
62.03000 135.825
62.04000 135.485
62.05000 135.144
62.06000 134.614
62.07000 133.950
62.08000 133.300
62.09000 132.650
62.10000 132.026
62.11000 131.378
62.12000 130.382
62.13000 129.273
62.14000 128.215
62.15000 127.566
62.16000 127.006
62.17000 126.529
62.18000 127.809
62.19000 129.096
62.20000 130.082
62.21000 130.039
62.22000 129.909
62.23000 131.108
62.24000 135.407
62.25000 139.833
62.26000 142.564
62.27000 137.911
62.28000 134.502
62.29000 133.454
62.30000 134.893
62.31000 136.321
62.32000 136.443
62.33000 135.664
62.34000 134.902
62.35000 133.380
62.36000 131.578
62.37000 130.000
62.38000 131.520
62.39000 134.032
62.40000 136.374
62.41000 137.371
62.42000 138.079
62.43000 138.681
62.44000 135.282
62.45000 131.959
62.46000 128.810
62.47000 126.240
62.48000 123.718
62.49000 122.674
62.50000 125.022
62.51000 127.504
62.52000 129.025
62.53000 131.115
62.54000 132.617
62.55000 133.267
62.56000 133.039
62.57000 132.826
62.58000 134.260
62.59000 136.809
62.60000 139.300
62.61000 138.032
62.62000 135.163
62.63000 132.497
62.64000 132.557
62.65000 133.475
62.66000 134.318
62.67000 134.571
62.68000 134.700
62.69000 134.810
62.70000 138.852
62.71000 142.688
62.72000 145.057
62.73000 142.582
62.74000 139.724
62.75000 137.160
62.76000 135.258
62.77000 133.382
62.78000 132.240
62.79000 131.544
62.80000 131.050
62.81000 130.508
62.82000 129.918
62.83000 129.357
62.84000 131.665
62.85000 135.883
62.86000 139.999
62.87000 139.298
62.88000 136.545
62.89000 133.696
62.90000 129.579
62.91000 125.071
62.92000 121.445
62.93000 124.516
62.94000 128.974
62.95000 132.744
62.96000 132.421
62.97000 131.698
62.98000 131.283
62.99000 131.868
63.00000 132.529
63.01000 133.558
63.02000 135.401
63.03000 137.274
63.04000 138.404
63.05000 135.154
63.06000 132.809
63.07000 135.244
63.08000 142.423
63.09000 149.533
63.10000 150.377
63.11000 147.123
63.12000 143.951
63.13000 144.781
63.14000 147.271
63.15000 149.213
63.16000 144.171
63.17000 137.008
63.18000 130.515
63.19000 128.997
63.20000 128.491
63.21000 128.065
63.22000 128.869
63.23000 129.673
63.24000 130.553
63.25000 131.675
63.26000 132.815
63.27000 133.679
63.28000 133.943
63.29000 134.185
63.30000 134.330
63.31000 136.829
63.32000 138.619
63.33000 136.748
63.34000 131.317
63.35000 125.954
63.36000 126.363
63.37000 130.478
63.38000 134.485
63.39000 136.698
63.40000 138.061
63.41000 139.230
63.42000 138.018
63.43000 136.095
63.44000 134.456
63.45000 134.878
63.46000 135.712
63.47000 136.413
63.48000 134.872
63.49000 133.352
63.50000 133.649
63.51000 139.642
63.52000 146.048
63.53000 150.157
63.54000 149.343
63.55000 148.364
63.56000 147.782
63.57000 141.803
63.58000 137.538
63.59000 136.540
63.60000 138.655
63.61000 140.726
63.62000 139.297
63.63000 135.659
63.64000 132.123
63.65000 133.524
63.66000 136.874
63.67000 139.897
63.68000 138.983
63.69000 136.913
63.70000 135.331
63.71000 137.215
63.72000 139.777
63.73000 141.923
63.74000 137.908
63.75000 133.938
63.76000 131.896
63.77000 135.796
63.78000 140.114
63.79000 143.870
63.80000 146.441
63.81000 148.974
63.82000 150.469
63.83000 150.698
63.84000 150.852
63.85000 149.546
63.86000 146.876
63.87000 144.233
63.88000 143.522
63.89000 144.009
63.90000 144.482
63.91000 145.491
63.92000 146.664
63.93000 147.737
63.94000 147.648
63.95000 147.222
63.96000 146.228
63.97000 141.277
63.98000 135.565
63.99000 130.800
64.00000 134.090
64.01000 137.628
64.02000 141.254
64.03000 145.147
64.04000 149.057
64.05000 151.291
64.06000 150.052
64.07000 148.706
64.08000 147.918
64.09000 152.439
64.10000 155.647
64.11000 156.064
64.12000 153.926
64.13000 151.801
64.14000 150.636
64.15000 150.056
64.16000 149.494
64.17000 148.765
64.18000 148.010
64.19000 147.590
64.20000 151.015
64.21000 155.529
64.22000 158.699
64.23000 152.716
64.24000 145.010
64.25000 138.603
64.26000 145.058
64.27000 151.658
64.28000 156.517
64.29000 156.190
64.30000 155.520
64.31000 156.324
64.32000 160.130
64.33000 164.023
64.34000 166.284
64.35000 165.699
64.36000 165.275
64.37000 164.380
64.38000 163.061
64.39000 161.755
64.40000 161.229
64.41000 161.170
64.42000 161.113
64.43000 162.008
64.44000 163.221
64.45000 164.119
64.46000 161.494
64.47000 157.888
64.48000 155.626
64.49000 162.327
64.50000 170.683
64.51000 177.606
64.52000 174.814
64.53000 171.582
64.54000 168.348
64.55000 165.111
64.56000 161.872
64.57000 160.481
64.58000 162.783
64.59000 165.188
64.60000 166.574
64.61000 164.351
64.62000 162.782
64.63000 162.950
64.64000 164.649
64.65000 166.349
64.66000 168.169
64.67000 170.059
64.68000 171.888
64.69000 170.793
64.70000 168.651
64.71000 167.183
64.72000 173.036
64.73000 180.889
64.74000 188.123
64.75000 191.312
64.76000 193.768
64.77000 195.796
64.78000 192.991
64.79000 190.231
64.80000 188.579
64.81000 190.114
64.82000 191.848
64.83000 193.482
64.84000 194.918
64.85000 196.350
64.86000 197.168
64.87000 200.515
64.88000 202.857
64.89000 202.609
64.90000 200.122
64.91000 197.664
64.92000 196.824
64.93000 196.919
64.94000 197.010
64.95000 201.637
64.96000 207.686
64.97000 213.647
64.98000 218.684
64.99000 223.473
65.00000 227.671
65.01000 228.089
65.02000 227.837
65.03000 227.629
65.04000 236.184
65.05000 244.011
65.06000 250.478
65.07000 253.102
65.08000 255.494
65.09000 257.798
65.10000 259.932
65.11000 262.063
65.12000 263.270
65.13000 268.246
65.14000 271.718
65.15000 273.741
65.16000 274.533
65.17000 275.359
65.18000 277.957
65.19000 281.562
65.20000 285.038
65.21000 286.567
65.22000 287.294
65.23000 288.557
65.24000 295.352
65.25000 303.607
65.26000 311.217
65.27000 314.785
65.28000 317.650
65.29000 319.998
65.30000 328.851
65.31000 336.687
65.32000 343.386
65.33000 346.926
65.34000 350.281
65.35000 351.881
65.36000 350.150
65.37000 348.339
65.38000 347.321
65.39000 356.671
65.40000 363.173
65.41000 363.053
65.42000 357.421
65.43000 351.983
65.44000 356.209
65.45000 365.825
65.46000 375.089
65.47000 382.258
65.48000 388.241
65.49000 393.658
65.50000 393.386
65.51000 391.639
65.52000 390.712
65.53000 394.816
65.54000 399.779
65.55000 403.832
65.56000 414.294
65.57000 423.406
65.58000 431.392
65.59000 436.302
65.60000 441.038
65.61000 451.425
65.62000 472.361
65.63000 493.538
65.64000 505.342
65.65000 526.234
65.66000 540.763
65.67000 577.433
65.68000 632.182
65.69000 687.547
65.70000 771.987
65.71000 872.368
65.72000 968.930
65.73000 1093.754
65.74000 1220.720
65.75000 1348.851
65.76000 1488.422
65.77000 1630.904
65.78000 1773.523
65.79000 1916.972
65.80000 2060.559
65.81000 2177.360
65.82000 2232.148
65.83000 2271.681
65.84000 2308.196
65.85000 2336.610
65.86000 2364.579
65.87000 2380.839
65.88000 2375.614
65.89000 2369.926
65.90000 2366.782
65.91000 2326.170
65.92000 2297.983
65.93000 2234.925
65.94000 2143.921
65.95000 2052.478
65.96000 1941.415
65.97000 1819.780
65.98000 1702.942
65.99000 1543.085
66.00000 1378.645
66.01000 1218.358
66.02000 1097.878
66.03000 987.344
66.04000 879.460
66.05000 787.208
66.06000 697.517
66.07000 624.836
66.08000 573.017
66.09000 532.508
66.10000 496.829
66.11000 473.887
66.12000 451.624
66.13000 431.223
66.14000 414.184
66.15000 397.212
66.16000 387.914
66.17000 385.699
66.18000 384.204
66.19000 387.904
66.20000 395.689
66.21000 403.434
66.22000 409.445
66.23000 414.539
66.24000 419.425
66.25000 433.097
66.26000 448.842
66.27000 464.100
66.28000 474.796
66.29000 484.372
66.30000 496.957
66.31000 526.946
66.32000 559.730
66.33000 586.194
66.34000 621.164
66.35000 650.260
66.36000 676.427
66.37000 694.995
66.38000 713.173
66.39000 722.838
66.40000 717.415
66.41000 711.703
66.42000 708.601
66.43000 715.370
66.44000 719.981
66.45000 714.065
66.46000 700.022
66.47000 685.978
66.48000 671.901
66.49000 657.807
66.50000 644.310
66.51000 630.833
66.52000 618.273
66.53000 605.139
66.54000 586.754
66.55000 567.105
66.56000 546.103
66.57000 517.430
66.58000 487.551
66.59000 463.526
66.60000 447.024
66.61000 434.224
66.62000 422.856
66.63000 415.138
66.64000 407.601
66.65000 401.024
66.66000 396.121
66.67000 391.248
66.68000 388.625
66.69000 381.483
66.70000 376.624
66.71000 377.537
66.72000 382.826
66.73000 387.838
66.74000 382.289
66.75000 371.338
66.76000 360.865
66.77000 359.485
66.78000 361.161
66.79000 363.416
66.80000 370.841
66.81000 379.489
66.82000 386.733
66.83000 386.175
66.84000 384.415
66.85000 383.005
66.86000 386.582
66.87000 389.851
66.88000 389.613
66.89000 380.585
66.90000 371.136
66.91000 368.307
66.92000 376.804
66.93000 385.493
66.94000 390.128
66.95000 384.549
66.96000 380.769
66.97000 382.694
66.98000 388.862
66.99000 394.806
67.00000 392.581
67.01000 386.250
67.02000 380.205
67.03000 388.310
67.04000 400.360
67.05000 410.426
67.06000 403.188
67.07000 391.930
67.08000 383.263
67.09000 388.714
67.10000 396.296
67.11000 402.345
67.12000 404.183
67.13000 405.360
67.14000 406.124
67.15000 405.873
67.16000 405.575
67.17000 407.812
67.18000 414.309
67.19000 420.874
67.20000 424.343
67.21000 418.848
67.22000 415.114
67.23000 411.979
67.24000 409.282
67.25000 406.688
67.26000 407.677
67.27000 410.437
67.28000 413.067
67.29000 413.154
67.30000 412.438
67.31000 411.720
67.32000 410.987
67.33000 410.249
67.34000 410.151
67.35000 413.470
67.36000 417.294
67.37000 420.332
67.38000 424.070
67.39000 427.131
67.40000 429.246
67.41000 429.075
67.42000 428.801
67.43000 430.261
67.44000 434.585
67.45000 438.952
67.46000 441.239
67.47000 441.172
67.48000 441.149
67.49000 444.564
67.50000 450.446
67.51000 456.260
67.52000 459.828
67.53000 462.305
67.54000 464.663
67.55000 459.392
67.56000 452.169
67.57000 446.252
67.58000 451.207
67.59000 458.595
67.60000 464.743
67.61000 464.386
67.62000 463.087
67.63000 462.059
67.64000 467.327
67.65000 471.994
67.66000 473.747
67.67000 468.565
67.68000 463.086
67.69000 458.700
67.70000 456.088
67.71000 453.501
67.72000 452.159
67.73000 464.669
67.74000 473.077
67.75000 476.272
67.76000 475.795
67.77000 475.331
67.78000 475.305
67.79000 475.488
67.80000 475.662
67.81000 481.003
67.82000 487.494
67.83000 493.327
67.84000 493.800
67.85000 493.094
67.86000 492.364
67.87000 491.507
67.88000 490.631
67.89000 489.941
67.90000 487.568
67.91000 485.553
67.92000 488.009
67.93000 500.931
67.94000 514.286
67.95000 521.516
67.96000 518.980
67.97000 516.317
67.98000 514.950
67.99000 520.986
68.00000 525.003
68.01000 523.566
68.02000 518.357
68.03000 513.378
68.04000 515.394
68.05000 520.693
68.06000 525.719
68.07000 536.367
68.08000 547.848
68.09000 557.847
68.10000 556.058
68.11000 551.727
68.12000 548.712
68.13000 552.336
68.14000 556.880
68.15000 560.445
68.16000 549.498
68.17000 539.798
68.18000 534.748
68.19000 540.397
68.20000 546.471
68.21000 551.174
68.22000 553.731
68.23000 556.262
68.24000 557.550
68.25000 568.501
68.26000 575.850
68.27000 583.782
68.28000 592.109
68.29000 600.335
68.30000 605.615
68.31000 609.536
68.32000 613.249
68.33000 615.526
68.34000 617.206
68.35000 618.848
68.36000 620.203
68.37000 621.498
68.38000 623.481
68.39000 628.872
68.40000 634.726
68.41000 639.300
68.42000 661.766
68.43000 680.822
68.44000 696.642
68.45000 705.144
68.46000 713.367
68.47000 717.644
68.48000 715.849
68.49000 713.987
68.50000 713.049
68.51000 726.005
68.52000 734.728
68.53000 749.998
68.54000 769.637
68.55000 788.872
68.56000 796.826
68.57000 799.665
68.58000 802.347
68.59000 822.187
68.60000 845.290
68.61000 869.282
68.62000 900.044
68.63000 932.211
68.64000 968.879
68.65000 1027.402
68.66000 1088.826
68.67000 1136.616
68.68000 1203.495
68.69000 1257.906
68.70000 1314.159
68.71000 1374.508
68.72000 1435.008
68.73000 1486.722
68.74000 1525.157
68.75000 1563.457
68.76000 1613.633
68.77000 1675.623
68.78000 1737.485
68.79000 1787.357
68.80000 1829.370
68.81000 1872.391
68.82000 1942.370
68.83000 2024.369
68.84000 2101.729
68.85000 2205.659
68.86000 2308.336
68.87000 2421.134
68.88000 2609.309
68.89000 2812.852
68.90000 3058.612
68.91000 3505.587
68.92000 3978.696
68.93000 4345.192
68.94000 5903.090
68.95000 7211.297
68.96000 8952.081
68.97000 11638.192
68.98000 14357.527
68.99000 17593.264
69.00000 21595.732
69.01000 25605.279
69.02000 29658.873
69.03000 33755.172
69.04000 37842.027
69.05000 41109.398
69.06000 43849.141
69.07000 46552.977
69.08000 48335.402
69.09000 49713.984
69.10000 51012.246
69.11000 51929.242
69.12000 52663.746
69.13000 53416.375
69.14000 54301.098
69.15000 55212.242
69.16000 56074.504
69.17000 56708.121
69.18000 57312.691
69.19000 57778.969
69.20000 56773.500
69.21000 55891.867
69.22000 54380.168
69.23000 51514.961
69.24000 48604.176
69.25000 45603.875
69.26000 42473.039
69.27000 39341.297
69.28000 36535.262
69.29000 34041.023
69.30000 31556.664
69.31000 29865.145
69.32000 28675.107
69.33000 27504.508
69.34000 26813.377
69.35000 26328.828
69.36000 25873.352
69.37000 25228.646
69.38000 24589.225
69.39000 23867.324
69.40000 22557.205
69.41000 21131.648
69.42000 19578.787
69.43000 17441.475
69.44000 15231.562
69.45000 13534.713
69.46000 11171.312
69.47000 9265.757
69.48000 7559.627
69.49000 6274.611
69.50000 5003.169
69.51000 3985.391
69.52000 3330.899
69.53000 2679.305
69.54000 2248.357
69.55000 2024.266
69.56000 1800.822
69.57000 1625.562
69.58000 1480.244
69.59000 1337.577
69.60000 1257.857
69.61000 1204.798
69.62000 1155.015
69.63000 1103.402
69.64000 1055.889
69.65000 1010.978
69.66000 984.229
69.67000 960.977
69.68000 936.804
69.69000 908.483
69.70000 879.658
69.71000 857.625
69.72000 821.827
69.73000 792.849
69.74000 769.136
69.75000 756.354
69.76000 743.909
69.77000 732.572
69.78000 722.795
69.79000 713.030
69.80000 697.538
69.81000 676.796
69.82000 656.140
69.83000 641.460
69.84000 630.429
69.85000 619.344
69.86000 607.029
69.87000 594.202
69.88000 582.190
69.89000 577.681
69.90000 575.518
69.91000 573.433
69.92000 571.886
69.93000 570.440
69.94000 566.829
69.95000 553.637
69.96000 539.308
69.97000 528.405
69.98000 534.185
69.99000 539.608
70.00000 538.132
