20.00000 479.276
20.01000 485.088
20.02000 491.730
20.03000 495.976
20.04000 490.774
20.05000 484.606
20.06000 480.051
20.07000 485.074
20.08000 489.372
20.09000 492.171
20.10000 492.229
20.11000 492.228
20.12000 486.581
20.13000 473.998
20.14000 461.419
20.15000 458.079
20.16000 462.104
20.17000 466.118
20.18000 469.690
20.19000 473.024
20.20000 476.146
20.21000 475.519
20.22000 473.516
20.23000 471.667
20.24000 467.321
20.25000 462.870
20.26000 459.921
20.27000 465.812
20.28000 473.147
20.29000 478.978
20.30000 478.983
20.31000 478.406
20.32000 477.982
20.33000 483.492
20.34000 487.994
20.35000 491.998
20.36000 495.105
20.37000 498.194
20.38000 493.951
20.39000 480.870
20.40000 467.797
20.41000 464.960
20.42000 470.122
20.43000 475.318
20.44000 481.972
20.45000 489.395
20.46000 496.193
20.47000 492.289
20.48000 484.520
20.49000 477.368
20.50000 482.419
20.51000 489.606
20.52000 494.727
20.53000 487.931
20.54000 479.229
20.55000 473.143
20.56000 477.004
20.57000 481.834
20.58000 485.365
20.59000 475.320
20.60000 467.036
20.61000 462.201
20.62000 463.459
20.63000 464.833
20.64000 466.236
20.65000 467.673
20.66000 469.107
20.67000 472.298
20.68000 476.815
20.69000 481.205
20.70000 480.546
20.71000 477.268
20.72000 473.783
20.73000 466.859
20.74000 458.713
20.75000 451.231
20.76000 451.033
20.77000 452.418
20.78000 455.001
20.79000 464.356
20.80000 474.772
20.81000 482.020
20.82000 477.430
20.83000 471.716
20.84000 467.561
20.85000 469.222
20.86000 470.721
20.87000 470.586
20.88000 467.613
20.89000 464.589
20.90000 460.704
20.91000 455.818
20.92000 450.945
20.93000 448.773
20.94000 448.642
20.95000 448.575
20.96000 450.889
20.97000 454.417
20.98000 458.090
20.99000 464.069
21.00000 470.853
21.01000 477.072
21.02000 471.868
21.03000 464.835
21.04000 459.096
21.05000 460.531
21.06000 463.069
21.07000 464.805
21.08000 463.605
21.09000 462.133
21.10000 461.068
21.11000 474.759
21.12000 485.808
21.13000 487.780
21.14000 474.266
21.15000 460.492
21.16000 457.447
21.17000 466.614
21.18000 475.765
21.19000 476.562
21.20000 471.204
21.21000 465.943
21.22000 464.196
21.23000 464.211
21.24000 464.613
21.25000 471.062
21.26000 479.583
21.27000 487.376
21.28000 483.807
21.29000 478.296
21.30000 473.816
21.31000 474.938
21.32000 476.903
21.33000 477.330
21.34000 472.211
21.35000 466.593
21.36000 462.549
21.37000 458.843
21.38000 456.017
21.39000 452.278
21.40000 447.007
21.41000 441.711
21.42000 442.846
21.43000 451.159
21.44000 459.449
21.45000 459.348
21.46000 453.188
21.47000 447.210
21.48000 447.546
21.49000 450.994
21.50000 454.386
21.51000 456.959
21.52000 459.256
21.53000 461.351
21.54000 460.824
21.55000 459.827
21.56000 460.190
21.57000 467.796
21.58000 476.469
21.59000 482.628
21.60000 479.883
21.61000 476.356
21.62000 473.831
21.63000 469.181
21.64000 465.557
21.65000 462.792
21.66000 461.443
21.67000 460.115
21.68000 465.722
21.69000 478.924
21.70000 492.077
21.71000 494.194
21.72000 488.472
21.73000 482.924
21.74000 483.067
21.75000 485.968
21.76000 488.670
21.77000 488.468
21.78000 487.304
21.79000 486.244
21.80000 483.690
21.81000 481.135
21.82000 478.813
21.83000 477.715
21.84000 476.793
21.85000 476.182
21.86000 476.653
21.87000 477.216
21.88000 477.617
21.89000 482.967
21.90000 487.204
21.91000 490.319
21.92000 491.619
21.93000 492.894
21.94000 492.558
21.95000 490.493
21.96000 488.436
21.97000 490.245
21.98000 494.721
21.99000 499.115
22.00000 500.894
22.01000 501.429
22.02000 502.100
22.03000 504.728
22.04000 507.993
22.05000 510.957
22.06000 513.856
22.07000 516.405
22.08000 516.975
22.09000 507.408
22.10000 496.411
22.11000 490.399
22.12000 501.440
22.13000 513.902
22.14000 522.730
22.15000 511.843
22.16000 502.952
22.17000 498.261
22.18000 500.246
22.19000 502.315
22.20000 504.381
22.21000 506.442
22.22000 508.494
22.23000 502.729
22.24000 491.701
22.25000 480.971
22.26000 479.205
22.27000 481.634
22.28000 484.053
22.29000 486.343
22.30000 488.590
22.31000 490.626
22.32000 483.152
22.33000 474.761
22.34000 468.719
22.35000 474.491
22.36000 481.894
22.37000 484.857
22.38000 472.897
22.39000 459.728
22.40000 450.449
22.41000 460.380
22.42000 468.484
22.43000 471.200
22.44000 465.496
22.45000 459.694
22.46000 459.350
22.47000 464.640
22.48000 469.902
22.49000 469.190
22.50000 464.491
22.51000 460.119
22.52000 465.188
22.53000 474.600
22.54000 482.850
22.55000 475.455
22.56000 463.140
22.57000 452.011
22.58000 446.998
22.59000 443.725
22.60000 441.245
22.61000 442.686
22.62000 444.657
22.63000 445.950
22.64000 445.006
22.65000 443.885
22.66000 443.100
22.67000 436.963
22.68000 432.168
22.69000 431.027
22.70000 435.492
22.71000 440.018
22.72000 441.960
22.73000 441.287
22.74000 440.618
22.75000 439.598
22.76000 438.360
22.77000 437.233
22.78000 439.132
22.79000 442.401
22.80000 445.354
22.81000 444.175
22.82000 441.719
22.83000 439.505
22.84000 440.481
22.85000 441.918
22.86000 441.819
22.87000 434.286
22.88000 425.770
22.89000 421.747
22.90000 432.307
22.91000 443.986
22.92000 452.122
22.93000 449.783
22.94000 447.730
22.95000 448.749
22.96000 454.400
22.97000 460.097
22.98000 458.764
22.99000 450.461
23.00000 442.212
23.01000 433.935
23.02000 425.764
23.03000 418.083
23.04000 423.452
23.05000 434.621
23.06000 445.158
23.07000 447.658
23.08000 447.716
23.09000 447.769
23.10000 452.295
23.11000 457.055
23.12000 458.791
23.13000 446.160
23.14000 431.670
23.15000 421.305
23.16000 424.091
23.17000 427.857
23.18000 430.467
23.19000 431.050
23.20000 431.435
23.21000 433.262
23.22000 437.222
23.23000 441.202
23.24000 441.922
23.25000 439.476
23.26000 437.047
23.27000 433.826
23.28000 430.155
23.29000 426.858
23.30000 433.107
23.31000 443.529
23.32000 453.011
23.33000 450.868
23.34000 445.256
23.35000 440.223
23.36000 437.898
23.37000 436.337
23.38000 435.068
23.39000 435.153
23.40000 435.410
23.41000 436.601
23.42000 440.720
23.43000 445.052
23.44000 448.035
23.45000 451.886
23.46000 454.800
23.47000 457.333
23.48000 459.313
23.49000 461.289
23.50000 459.604
23.51000 454.432
23.52000 449.300
23.53000 449.686
23.54000 453.486
23.55000 457.009
23.56000 453.736
23.57000 447.544
23.58000 442.489
23.59000 451.133
23.60000 463.793
23.61000 475.120
23.62000 466.028
23.63000 454.613
23.64000 447.097
23.65000 457.417
23.66000 469.944
23.67000 479.598
23.68000 480.401
23.69000 480.582
23.70000 480.705
23.71000 484.943
23.72000 488.215
23.73000 489.422
23.74000 487.683
23.75000 485.921
23.76000 486.105
23.77000 488.104
23.78000 490.087
23.79000 494.770
23.80000 501.009
23.81000 507.253
23.82000 513.615
23.83000 520.027
23.84000 525.866
23.85000 524.988
23.86000 522.174
23.87000 519.663
23.88000 520.374
23.89000 521.532
23.90000 523.410
23.91000 528.526
23.92000 534.033
23.93000 538.414
23.94000 539.383
23.95000 540.119
23.96000 540.620
23.97000 539.022
23.98000 537.780
23.99000 539.156
24.00000 544.201
24.01000 549.271
24.02000 551.685
24.03000 551.666
24.04000 551.647
24.05000 544.757
24.06000 533.900
24.07000 523.402
24.08000 521.055
24.09000 522.090
24.10000 523.268
24.11000 526.065
24.12000 529.321
24.13000 532.219
24.14000 537.420
24.15000 542.314
24.16000 542.562
24.17000 522.323
24.18000 499.661
24.19000 481.202
24.20000 475.244
24.21000 470.115
24.22000 466.644
24.23000 462.725
24.24000 459.794
24.25000 457.111
24.26000 454.768
24.27000 452.429
24.28000 452.451
24.29000 454.594
24.30000 456.716
24.31000 452.458
24.32000 444.552
24.33000 437.092
24.34000 439.379
24.35000 445.644
24.36000 451.513
24.37000 452.966
24.38000 453.191
24.39000 453.391
24.40000 447.733
24.41000 441.891
24.42000 438.177
24.43000 443.669
24.44000 450.225
24.45000 453.069
24.46000 445.057
24.47000 436.347
24.48000 430.487
24.49000 433.397
24.50000 435.741
24.51000 438.136
24.52000 440.600
24.53000 443.059
24.54000 440.079
24.55000 432.307
24.56000 424.615
24.57000 424.765
24.58000 429.417
24.59000 433.636
24.60000 428.712
24.61000 420.119
24.62000 412.108
24.63000 410.412
24.64000 410.442
24.65000 410.468
24.66000 421.507
24.67000 432.778
24.68000 440.478
24.69000 433.002
24.70000 423.812
24.71000 415.632
24.72000 410.354
24.73000 405.258
24.74000 401.850
24.75000 405.055
24.76000 407.560
24.77000 411.667
24.78000 417.902
24.79000 424.138
24.80000 424.092
24.81000 418.618
24.82000 413.204
24.83000 407.887
24.84000 402.749
24.85000 397.973
24.86000 400.569
24.87000 406.073
24.88000 410.655
24.89000 405.500
24.90000 397.731
24.91000 390.872
24.92000 397.671
24.93000 405.629
24.94000 412.639
24.95000 415.686
24.96000 418.297
24.97000 418.078
24.98000 409.867
24.99000 401.172
25.00000 395.394
25.01000 396.678
25.02000 397.759
25.03000 400.737
25.04000 406.186
25.05000 411.635
25.06000 410.697
25.07000 404.343
25.08000 398.065
25.09000 397.382
25.10000 399.812
25.11000 402.178
25.12000 403.269
25.13000 403.866
25.14000 404.545
25.15000 406.080
25.16000 407.839
25.17000 409.388
25.18000 410.415
25.19000 411.222
25.20000 410.686
25.21000 404.650
25.22000 398.021
25.23000 394.838
25.24000 401.218
25.25000 408.160
25.26000 412.744
25.27000 409.789
25.28000 407.476
25.29000 406.630
25.30000 407.658
25.31000 408.699
25.32000 412.164
25.33000 417.646
25.34000 423.059
25.35000 418.404
25.36000 408.403
25.37000 398.837
25.38000 397.533
25.39000 399.378
25.40000 401.157
25.41000 402.273
25.42000 403.216
25.43000 404.044
25.44000 401.824
25.45000 399.469
25.46000 397.761
25.47000 398.660
25.48000 399.832
25.49000 400.057
25.50000 397.699
25.51000 395.194
25.52000 393.551
25.53000 396.157
25.54000 398.145
25.55000 399.023
25.56000 398.508
25.57000 397.997
25.58000 401.069
25.59000 407.066
25.60000 412.983
25.61000 409.626
25.62000 401.420
25.63000 393.487
25.64000 390.571
25.65000 389.536
25.66000 389.515
25.67000 399.459
25.68000 411.937
25.69000 422.861
25.70000 415.003
25.71000 405.575
25.72000 397.035
25.73000 392.005
25.74000 387.336
25.75000 384.073
25.76000 384.584
25.77000 385.301
25.78000 385.769
25.79000 393.249
25.80000 398.847
25.81000 403.744
25.82000 407.776
25.83000 411.779
25.84000 406.510
25.85000 393.815
25.86000 381.302
25.87000 377.311
25.88000 377.893
25.89000 378.640
25.90000 382.317
25.91000 387.073
25.92000 391.497
25.93000 392.735
25.94000 393.177
25.95000 393.562
25.96000 393.476
25.97000 393.336
25.98000 393.604
25.99000 395.455
26.00000 397.465
26.01000 398.068
26.02000 394.960
26.03000 391.655
26.04000 389.514
26.05000 387.349
26.06000 385.765
26.07000 388.682
26.08000 397.041
26.09000 405.375
26.10000 403.229
26.11000 392.843
26.12000 382.615
26.13000 382.683
26.14000 388.034
26.15000 393.246
26.16000 396.074
26.17000 398.040
26.18000 399.287
26.19000 393.815
26.20000 386.694
26.21000 380.497
26.22000 387.839
26.23000 395.961
26.24000 401.775
26.25000 398.786
26.26000 394.938
26.27000 391.620
26.28000 389.679
26.29000 387.809
26.30000 386.606
26.31000 388.212
26.32000 389.424
26.33000 390.857
26.34000 392.551
26.35000 394.250
26.36000 397.018
26.37000 400.609
26.38000 404.143
26.39000 407.289
26.40000 410.139
26.41000 412.171
26.42000 400.574
26.43000 384.127
26.44000 369.398
26.45000 370.362
26.46000 375.105
26.47000 379.220
26.48000 387.544
26.49000 395.199
26.50000 400.695
26.51000 398.104
26.52000 394.744
26.53000 393.039
26.54000 395.555
26.55000 398.280
26.56000 400.022
26.57000 404.161
26.58000 407.206
26.59000 406.639
26.60000 401.870
26.61000 397.121
26.62000 397.926
26.63000 402.938
26.64000 407.865
26.65000 402.408
26.66000 391.999
26.67000 381.821
26.68000 375.388
26.69000 370.265
26.70000 366.324
26.71000 372.940
26.72000 382.053
26.73000 389.937
26.74000 384.535
26.75000 378.205
26.76000 373.750
26.77000 376.198
26.78000 379.287
26.79000 381.696
26.80000 382.400
26.81000 383.022
26.82000 383.417
26.83000 383.033
26.84000 382.744
26.85000 380.590
26.86000 376.308
26.87000 372.056
26.88000 374.168
26.89000 381.011
26.90000 387.731
26.91000 385.019
26.92000 377.824
26.93000 371.478
26.94000 378.422
26.95000 389.934
26.96000 400.010
26.97000 397.576
26.98000 392.237
26.99000 387.632
27.00000 393.452
27.01000 399.721
27.02000 401.821
27.03000 388.849
27.04000 374.514
27.05000 365.042
27.06000 367.550
27.07000 370.612
27.08000 372.542
27.09000 388.380
27.10000 400.008
27.11000 402.331
27.12000 394.236
27.13000 386.143
27.14000 379.748
27.15000 374.593
27.16000 369.535
27.17000 368.480
27.18000 369.368
27.19000 370.188
27.20000 369.967
27.21000 369.394
27.22000 368.548
27.23000 365.378
27.24000 361.679
27.25000 358.498
27.26000 365.658
27.27000 373.010
27.28000 378.232
27.29000 375.889
27.30000 372.879
27.31000 369.512
27.32000 365.284
27.33000 361.016
27.34000 358.344
27.35000 367.005
27.36000 373.381
27.37000 377.279
27.38000 378.456
27.39000 379.620
27.40000 379.203
27.41000 377.653
27.42000 376.133
27.43000 369.785
27.44000 361.421
27.45000 353.772
27.46000 356.657
27.47000 363.041
27.48000 369.297
27.49000 374.489
27.50000 379.444
27.51000 383.691
27.52000 380.784
27.53000 377.456
27.54000 374.022
27.55000 370.220
27.56000 366.388
27.57000 365.974
27.58000 373.696
27.59000 381.768
27.60000 386.787
27.61000 375.866
27.62000 367.842
27.63000 365.522
27.64000 369.344
27.65000 373.136
27.66000 372.463
27.67000 368.647
27.68000 364.912
27.69000 370.243
27.70000 379.523
27.71000 387.785
27.72000 381.477
27.73000 370.415
27.74000 361.182
27.75000 366.823
27.76000 375.732
27.77000 383.344
27.78000 379.858
27.79000 375.597
27.80000 371.463
27.81000 367.762
27.82000 364.097
27.83000 362.721
27.84000 366.696
27.85000 370.893
27.86000 373.484
27.87000 371.055
27.88000 369.264
27.89000 370.758
27.90000 375.723
27.91000 380.654
27.92000 381.452
27.93000 379.392
27.94000 377.378
27.95000 372.429
27.96000 366.361
27.97000 360.786
27.98000 362.063
27.99000 365.538
28.00000 368.568
28.01000 368.049
28.02000 366.766
28.03000 365.673
28.04000 364.217
28.05000 362.950
28.06000 362.882
28.07000 366.851
28.08000 371.148
28.09000 373.719
28.10000 372.322
28.11000 370.768
28.12000 369.816
28.13000 376.628
28.14000 381.574
28.15000 381.138
28.16000 375.131
28.17000 369.189
28.18000 370.594
28.19000 376.988
28.20000 383.235
28.21000 384.811
28.22000 384.258
28.23000 383.209
28.24000 375.469
28.25000 365.619
28.26000 357.131
28.27000 359.233
28.28000 363.575
28.29000 367.262
28.30000 361.453
28.31000 355.500
28.32000 350.661
28.33000 349.510
28.34000 348.652
28.35000 348.005
28.36000 347.837
28.37000 347.687
28.38000 347.596
28.39000 352.444
28.40000 355.946
28.41000 360.809
28.42000 367.053
28.43000 373.259
28.44000 375.593
28.45000 375.344
28.46000 375.101
28.47000 372.962
28.48000 370.095
28.49000 367.253
28.50000 364.735
28.51000 362.318
28.52000 359.117
28.53000 349.960
28.54000 339.566
28.55000 330.771
28.56000 343.563
28.57000 356.668
28.58000 365.982
28.59000 362.964
28.60000 358.996
28.61000 354.474
28.62000 348.720
28.63000 342.921
28.64000 339.418
28.65000 348.181
28.66000 354.512
28.67000 355.511
28.68000 351.206
28.69000 346.975
28.70000 349.559
28.71000 356.609
28.72000 363.482
28.73000 363.677
28.74000 361.024
28.75000 358.179
28.76000 352.884
28.77000 346.842
28.78000 342.400
28.79000 349.860
28.80000 359.745
28.81000 368.082
28.82000 366.281
28.83000 363.678
28.84000 360.751
28.85000 356.793
28.86000 352.757
28.87000 351.513
28.88000 356.367
28.89000 361.435
28.90000 364.474
28.91000 360.925
28.92000 358.361
28.93000 355.142
28.94000 351.287
28.95000 347.487
28.96000 348.596
28.97000 352.865
28.98000 357.020
28.99000 360.943
29.00000 364.582
29.01000 367.802
29.02000 365.795
29.03000 362.225
29.04000 359.250
29.05000 360.600
29.06000 362.816
29.07000 364.679
29.08000 359.670
29.09000 354.768
29.10000 351.676
29.11000 354.270
29.12000 357.277
29.13000 357.037
29.14000 349.825
29.15000 342.378
29.16000 337.946
29.17000 339.613
29.18000 340.831
29.19000 343.447
29.20000 347.399
29.21000 351.274
29.22000 348.984
29.23000 342.796
29.24000 336.778
29.25000 337.339
29.26000 340.568
29.27000 344.010
29.28000 350.027
29.29000 356.802
29.30000 362.447
29.31000 360.045
29.32000 356.065
29.33000 352.731
29.34000 356.820
29.35000 360.987
29.36000 364.370
29.37000 365.332
29.38000 366.123
29.39000 365.108
29.40000 360.282
29.41000 355.333
29.42000 352.410
29.43000 347.621
29.44000 344.230
29.45000 346.009
29.46000 352.632
29.47000 359.168
29.48000 359.277
29.49000 355.395
29.50000 351.623
29.51000 354.411
29.52000 359.696
29.53000 364.494
29.54000 363.564
29.55000 360.981
29.56000 358.255
29.57000 354.540
29.58000 350.635
29.59000 347.375
29.60000 350.790
29.61000 354.295
29.62000 357.427
29.63000 359.426
29.64000 361.347
29.65000 362.758
29.66000 363.109
29.67000 363.428
29.68000 363.614
29.69000 365.437
29.70000 366.729
29.71000 366.546
29.72000 365.010
29.73000 363.491
29.74000 363.150
29.75000 363.528
29.76000 363.895
29.77000 365.498
29.78000 367.506
29.79000 369.460
29.80000 370.796
29.81000 371.957
29.82000 373.031
29.83000 373.509
29.84000 373.874
29.85000 374.178
29.86000 376.003
29.87000 377.663
29.88000 379.113
29.89000 379.938
29.90000 380.721
29.91000 382.636
29.92000 386.860
29.93000 391.151
29.94000 393.646
29.95000 379.245
29.96000 369.065
29.97000 372.296
29.98000 387.607
29.99000 402.706
30.00000 404.079
30.01000 397.222
30.02000 390.579
30.03000 390.835
30.04000 393.748
30.05000 395.893
30.06000 389.465
30.07000 380.645
30.08000 373.010
30.09000 373.301
30.10000 375.058
30.11000 376.515
30.12000 372.583
30.13000 368.821
30.14000 368.111
30.15000 376.350
30.16000 385.169
30.17000 390.150
30.18000 387.439
30.19000 384.513
30.20000 382.825
30.21000 372.569
30.22000 365.358
30.23000 362.900
30.24000 364.642
30.25000 366.397
30.26000 368.921
30.27000 371.897
30.28000 374.777
30.29000 370.862
30.30000 364.582
30.31000 358.976
30.32000 360.713
30.33000 364.462
30.34000 367.461
30.35000 365.546
30.36000 362.739
30.37000 360.421
30.38000 360.885
30.39000 361.527
30.40000 362.890
30.41000 366.332
30.42000 369.904
30.43000 370.168
30.44000 363.913
30.45000 357.485
30.46000 353.807
30.47000 358.535
30.48000 361.864
30.49000 364.168
30.50000 365.583
30.51000 366.924
30.52000 364.076
30.53000 358.802
30.54000 353.707
30.55000 360.545
30.56000 371.442
30.57000 381.277
30.58000 379.838
30.59000 375.367
30.60000 371.509
30.61000 371.591
30.62000 372.373
30.63000 373.017
30.64000 373.606
30.65000 374.086
30.66000 375.606
30.67000 380.075
30.68000 384.723
30.69000 388.165
30.70000 389.273
30.71000 390.322
30.72000 390.918
30.73000 383.955
30.74000 379.081
30.75000 372.438
30.76000 364.292
30.77000 356.430
30.78000 363.835
30.79000 379.923
30.80000 395.447
30.81000 400.091
30.82000 400.483
30.83000 401.108
30.84000 404.146
30.85000 407.823
30.86000 410.634
30.87000 408.006
30.88000 404.429
30.89000 401.495
30.90000 412.944
30.91000 423.610
30.92000 430.712
30.93000 427.890
30.94000 424.483
30.95000 426.867
30.96000 440.272
30.97000 453.944
30.98000 461.638
30.99000 468.996
31.00000 474.098
31.01000 477.219
31.02000 478.687
31.03000 480.312
31.04000 489.899
31.05000 503.936
31.06000 517.462
31.07000 535.588
31.08000 554.269
31.09000 572.830
31.10000 590.187
31.11000 607.231
31.12000 624.510
31.13000 643.238
31.14000 662.215
31.15000 677.717
31.16000 700.296
31.17000 719.388
31.18000 738.721
31.19000 758.713
31.20000 778.743
31.21000 805.034
31.22000 843.040
31.23000 881.314
31.24000 902.673
31.25000 935.768
31.26000 958.676
31.27000 971.250
31.28000 975.365
31.29000 979.756
31.30000 997.286
31.31000 1022.035
31.32000 1045.846
31.33000 1061.468
31.34000 1073.233
31.35000 1085.041
31.36000 1097.255
31.37000 1109.573
31.38000 1118.700
31.39000 1108.565
31.40000 1095.201
31.41000 1084.325
31.42000 1073.901
31.43000 1065.426
31.44000 1052.893
31.45000 1029.446
31.46000 1005.397
31.47000 986.303
31.48000 976.321
31.49000 966.537
31.50000 961.124
31.51000 922.448
31.52000 895.696
31.53000 868.765
31.54000 841.689
31.55000 814.578
31.56000 785.883
31.57000 756.332
31.58000 727.942
31.59000 705.773
31.60000 687.171
31.61000 668.748
31.62000 652.054
31.63000 635.793
31.64000 618.529
31.65000 595.327
31.66000 571.150
31.67000 551.548
31.68000 530.288
31.69000 512.830
31.70000 498.443
31.71000 492.175
31.72000 486.340
31.73000 478.554
31.74000 467.242
31.75000 455.858
31.76000 449.614
31.77000 443.838
31.78000 439.856
31.79000 433.244
31.80000 424.559
31.81000 415.986
31.82000 412.230
31.83000 411.029
31.84000 409.877
31.85000 405.852
31.86000 401.115
31.87000 396.099
31.88000 388.458
31.89000 380.170
31.90000 373.057
31.91000 372.748
31.92000 373.535
31.93000 374.171
31.94000 377.584
31.95000 380.579
31.96000 380.191
31.97000 371.008
31.98000 361.372
31.99000 356.130
32.00000 358.693
32.01000 361.408
32.02000 362.883
32.03000 367.468
32.04000 370.599
32.05000 369.207
32.06000 364.316
32.07000 359.453
32.08000 355.720
32.09000 352.578
32.10000 349.567
32.11000 352.966
32.12000 358.268
32.13000 362.699
32.14000 359.145
32.15000 353.663
32.16000 348.842
32.17000 347.785
32.18000 347.322
32.19000 346.949
32.20000 350.729
32.21000 354.117
32.22000 356.105
32.23000 354.517
32.24000 352.751
32.25000 348.879
32.26000 341.330
32.27000 333.714
32.28000 329.610
32.29000 338.204
32.30000 344.086
32.31000 348.566
32.32000 351.981
32.33000 355.197
32.34000 350.803
32.35000 342.508
32.36000 334.574
32.37000 332.847
32.38000 333.265
32.39000 333.707
32.40000 334.368
32.41000 335.079
32.42000 335.934
32.43000 337.584
32.44000 339.358
32.45000 340.779
32.46000 338.609
32.47000 336.583
32.48000 335.754
32.49000 337.929
32.50000 340.248
32.51000 341.038
32.52000 339.204
32.53000 337.325
32.54000 336.321
32.55000 329.747
32.56000 325.298
32.57000 327.906
32.58000 335.776
32.59000 343.358
32.60000 340.368
32.61000 332.051
32.62000 324.109
32.63000 320.654
32.64000 318.879
32.65000 317.210
32.66000 316.469
32.67000 315.943
32.68000 315.438
32.69000 315.044
32.70000 314.667
32.71000 314.367
32.72000 313.795
32.73000 313.314
32.74000 313.102
32.75000 313.554
32.76000 314.037
32.77000 317.775
32.78000 326.999
32.79000 336.311
32.80000 341.238
32.81000 332.924
32.82000 327.290
32.83000 325.652
32.84000 326.939
32.85000 328.113
32.86000 325.317
32.87000 320.555
32.88000 316.015
32.89000 316.384
32.90000 318.268
32.91000 319.589
32.92000 316.099
32.93000 311.509
32.94000 308.332
32.95000 312.724
32.96000 318.238
32.97000 322.621
32.98000 318.422
32.99000 314.427
33.00000 312.156
33.01000 314.067
33.02000 316.165
33.03000 316.690
33.04000 314.613
33.05000 312.496
33.06000 311.386
33.07000 302.458
33.08000 296.438
33.09000 295.080
33.10000 297.075
33.11000 299.226
33.12000 306.620
33.13000 316.566
33.14000 326.033
33.15000 320.515
33.16000 310.789
33.17000 302.703
33.18000 308.306
33.19000 316.981
33.20000 323.426
33.21000 318.146
33.22000 311.165
33.23000 305.638
33.24000 302.738
33.25000 300.589
33.26000 299.533
33.27000 301.086
33.28000 302.750
33.29000 301.748
33.30000 296.409
33.31000 291.008
33.32000 288.203
33.33000 293.816
33.34000 297.601
33.35000 300.335
33.36000 302.328
33.37000 304.201
33.38000 302.248
33.39000 298.464
33.40000 294.869
33.41000 296.413
33.42000 299.393
33.43000 301.692
33.44000 298.432
33.45000 293.947
33.46000 290.748
33.47000 294.179
33.48000 298.551
33.49000 301.998
33.50000 301.695
33.51000 301.200
33.52000 299.953
33.53000 296.943
33.54000 293.861
33.55000 295.274
33.56000 303.872
33.57000 312.563
33.58000 317.034
33.59000 308.318
33.60000 302.506
33.61000 303.724
33.62000 309.814
33.63000 315.546
33.64000 310.371
33.65000 300.066
33.66000 290.291
33.67000 293.829
33.68000 301.039
33.69000 306.670
33.70000 299.709
33.71000 290.026
33.72000 283.590
33.73000 293.583
33.74000 305.860
33.75000 315.498
33.76000 312.662
33.77000 309.578
33.78000 307.714
33.79000 308.664
33.80000 309.726
33.81000 309.089
33.82000 305.784
33.83000 302.446
33.84000 300.746
33.85000 295.640
33.86000 292.287
33.87000 297.036
33.88000 307.302
33.89000 317.245
33.90000 317.753
33.91000 313.897
33.92000 310.246
33.93000 312.119
33.94000 315.450
33.95000 317.796
33.96000 312.455
33.97000 305.484
33.98000 300.619
33.99000 306.206
34.00000 313.215
34.01000 318.695
34.02000 318.948
34.03000 318.817
34.04000 319.054
34.05000 320.123
34.06000 321.223
34.07000 322.788
34.08000 325.067
34.09000 327.354
34.10000 328.507
34.11000 334.699
34.12000 338.785
34.13000 337.433
34.14000 332.443
34.15000 327.706
34.16000 330.031
34.17000 335.566
34.18000 340.798
34.19000 343.296
34.20000 344.812
34.21000 345.933
34.22000 344.042
34.23000 341.525
34.24000 339.853
34.25000 342.293
34.26000 345.280
34.27000 347.606
34.28000 353.688
34.29000 358.762
34.30000 360.523
34.31000 354.907
34.32000 349.018
34.33000 345.015
34.34000 343.868
34.35000 342.751
34.36000 343.339
34.37000 345.628
34.38000 347.869
34.39000 345.633
34.40000 340.455
34.41000 335.432
34.42000 334.589
34.43000 335.614
34.44000 336.582
34.45000 341.206
34.46000 346.469
34.47000 349.939
34.48000 340.030
34.49000 327.386
34.50000 317.599
34.51000 321.459
34.52000 327.096
34.53000 331.466
34.54000 324.783
34.55000 318.814
34.56000 315.566
34.57000 318.277
34.58000 321.200
34.59000 320.865
34.60000 315.685
34.61000 310.459
34.62000 309.031
34.63000 311.316
34.64000 313.570
34.65000 313.078
34.66000 310.814
34.67000 308.606
34.68000 307.816
34.69000 307.649
34.70000 307.492
34.71000 305.820
34.72000 303.876
34.73000 302.045
34.74000 301.047
34.75000 300.215
34.76000 298.972
34.77000 295.794
34.78000 292.370
34.79000 289.728
34.80000 290.889
34.81000 292.029
34.82000 292.440
34.83000 291.281
34.84000 290.070
34.85000 288.855
34.86000 287.634
34.87000 286.413
34.88000 286.949
34.89000 289.169
34.90000 291.367
34.91000 291.714
34.92000 290.888
34.93000 290.132
34.94000 291.129
34.95000 292.882
34.96000 294.530
34.97000 290.327
34.98000 284.913
34.99000 280.287
35.00000 281.287
35.01000 283.394
35.02000 284.194
35.03000 278.979
35.04000 273.014
35.05000 268.431
35.06000 279.170
35.07000 288.522
35.08000 292.606
35.09000 285.543
35.10000 278.119
35.11000 271.851
35.12000 267.243
35.13000 262.649
35.14000 262.962
35.15000 267.883
35.16000 272.750
35.17000 273.541
35.18000 271.794
35.19000 270.254
35.20000 273.660
35.21000 279.165
35.22000 284.331
35.23000 279.980
35.24000 273.502
35.25000 267.581
35.26000 265.553
35.27000 264.276
35.28000 264.054
35.29000 268.590
35.30000 273.706
35.31000 277.619
35.32000 274.423
35.33000 271.514
35.34000 269.929
35.35000 271.098
35.36000 272.352
35.37000 274.291
35.38000 277.193
35.39000 280.102
35.40000 278.398
35.41000 272.450
35.42000 266.549
35.43000 263.892
35.44000 263.221
35.45000 262.612
35.46000 263.443
35.47000 264.875
35.48000 266.216
35.49000 269.744
35.50000 273.519
35.51000 276.393
35.52000 273.100
35.53000 268.639
35.54000 264.975
35.55000 264.850
35.56000 265.146
35.57000 265.372
35.58000 272.596
35.59000 278.650
35.60000 280.302
35.61000 272.953
35.62000 265.337
35.63000 262.693
35.64000 266.931
35.65000 271.211
35.66000 272.415
35.67000 270.840
35.68000 269.254
35.69000 266.870
35.70000 264.008
35.71000 261.299
35.72000 261.974
35.73000 264.037
35.74000 265.966
35.75000 262.997
35.76000 259.059
35.77000 255.940
35.78000 258.320
35.79000 261.719
35.80000 264.106
35.81000 262.083
35.82000 259.548
35.83000 257.626
35.84000 258.615
35.85000 259.540
35.86000 259.448
35.87000 257.313
35.88000 255.120
35.89000 254.759
35.90000 256.888
35.91000 259.030
35.92000 260.487
35.93000 261.336
35.94000 262.190
35.95000 263.404
35.96000 264.831
35.97000 266.033
35.98000 262.459
35.99000 256.960
36.00000 251.828
36.01000 249.046
36.02000 247.109
36.03000 246.677
36.04000 256.133
36.05000 267.388
36.06000 276.007
36.07000 273.357
36.08000 269.426
36.09000 266.460
36.10000 259.428
36.11000 253.718
36.12000 250.159
36.13000 250.848
36.14000 251.651
36.15000 253.999
36.16000 258.408
36.17000 262.824
36.18000 263.725
36.19000 261.575
36.20000 259.537
36.21000 263.966
36.22000 272.150
36.23000 279.718
36.24000 274.628
36.25000 264.521
36.26000 255.110
36.27000 255.671
36.28000 258.610
36.29000 261.171
36.30000 261.293
36.31000 260.980
36.32000 260.434
36.33000 258.908
36.34000 257.274
36.35000 256.047
36.36000 253.137
36.37000 250.783
36.38000 249.490
36.39000 250.256
36.40000 251.076
36.41000 251.983
36.42000 253.007
36.43000 254.030
36.44000 255.442
36.45000 257.180
36.46000 258.864
36.47000 257.643
36.48000 254.764
36.49000 252.026
36.50000 252.100
36.51000 253.268
36.52000 254.354
36.53000 255.886
36.54000 257.376
36.55000 258.511
36.56000 257.407
36.57000 255.912
36.58000 255.747
36.59000 261.065
36.60000 266.978
36.61000 271.396
36.62000 267.816
36.63000 264.656
36.64000 262.192
36.65000 261.054
36.66000 259.948
36.67000 260.289
36.68000 262.488
36.69000 264.692
36.70000 261.860
36.71000 254.835
36.72000 248.032
36.73000 252.549
36.74000 263.411
36.75000 273.884
36.76000 276.917
36.77000 277.099
36.78000 277.269
36.79000 268.582
36.80000 258.684
36.81000 250.882
36.82000 256.030
36.83000 263.399
36.84000 269.604
36.85000 271.099
36.86000 272.096
36.87000 272.838
36.88000 273.560
36.89000 274.121
36.90000 274.114
36.91000 273.039
36.92000 271.941
36.93000 269.567
36.94000 265.585
36.95000 261.603
36.96000 262.068
36.97000 266.171
36.98000 270.294
36.99000 275.422
37.00000 281.103
37.01000 286.276
37.02000 282.023
37.03000 274.220
37.04000 267.000
37.05000 266.731
37.06000 268.087
37.07000 268.935
37.08000 266.710
37.09000 263.969
37.10000 263.370
37.11000 271.284
37.12000 280.079
37.13000 286.586
37.14000 282.221
37.15000 278.366
37.16000 273.957
37.17000 268.526
37.18000 263.073
37.19000 261.581
37.20000 264.995
37.21000 268.418
37.22000 267.597
37.23000 263.375
37.24000 259.176
37.25000 255.987
37.26000 253.346
37.27000 251.028
37.28000 254.520
37.29000 260.163
37.30000 265.373
37.31000 264.809
37.32000 263.002
37.33000 260.725
37.34000 255.666
37.35000 250.148
37.36000 246.428
37.37000 249.721
37.38000 253.721
37.39000 256.667
37.40000 250.314
37.41000 245.010
37.42000 242.136
37.43000 243.665
37.44000 245.286
37.45000 245.669
37.46000 244.548
37.47000 243.426
37.48000 244.845
37.49000 248.256
37.50000 251.634
37.51000 253.553
37.52000 254.696
37.53000 255.868
37.54000 257.555
37.55000 259.429
37.56000 261.156
37.57000 263.376
37.58000 265.471
37.59000 267.260
37.60000 267.262
37.61000 266.976
37.62000 264.524
37.63000 253.769
37.64000 242.197
37.65000 233.719
37.66000 239.153
37.67000 243.906
37.68000 246.549
37.69000 245.437
37.70000 244.252
37.71000 244.222
37.72000 245.572
37.73000 246.921
37.74000 249.905
37.75000 254.133
37.76000 258.295
37.77000 259.725
37.78000 259.726
37.79000 259.577
37.80000 256.890
37.81000 253.295
37.82000 249.990
37.83000 255.107
37.84000 261.499
37.85000 266.753
37.86000 265.524
37.87000 263.269
37.88000 261.038
37.89000 258.893
37.90000 256.757
37.91000 255.200
37.92000 255.647
37.93000 256.069
37.94000 254.574
37.95000 249.727
37.96000 244.818
37.97000 243.310
37.98000 245.779
37.99000 248.248
38.00000 251.727
38.01000 255.948
38.02000 260.136
38.03000 263.052
38.04000 265.313
38.05000 267.273
38.06000 264.328
38.07000 259.659
38.08000 255.375
38.09000 256.567
38.10000 258.789
38.11000 260.669
38.12000 260.632
38.13000 260.299
38.14000 260.897
38.15000 264.937
38.16000 269.299
38.17000 272.463
38.18000 264.000
38.19000 257.066
38.20000 252.957
38.21000 253.706
38.22000 254.540
38.23000 260.461
38.24000 272.222
38.25000 283.955
38.26000 288.591
38.27000 287.926
38.28000 287.283
38.29000 287.499
38.30000 288.149
38.31000 289.264
38.32000 297.746
38.33000 308.772
38.34000 318.865
38.35000 318.476
38.36000 315.954
38.37000 315.244
38.38000 324.467
38.39000 335.196
38.40000 344.967
38.41000 351.254
38.42000 357.224
38.43000 361.531
38.44000 381.921
38.45000 398.128
38.46000 409.545
38.47000 412.871
38.48000 416.067
38.49000 430.498
38.50000 457.580
38.51000 484.583
38.52000 507.926
38.53000 528.413
38.54000 548.915
38.55000 569.936
38.56000 591.215
38.57000 612.453
38.58000 633.050
38.59000 653.429
38.60000 672.042
38.61000 696.295
38.62000 718.974
38.63000 741.040
38.64000 759.811
38.65000 778.092
38.66000 795.111
38.67000 807.623
38.68000 819.735
38.69000 828.428
38.70000 837.994
38.71000 845.340
38.72000 849.920
38.73000 849.909
38.74000 849.827
38.75000 839.992
38.76000 819.383
38.77000 798.845
38.78000 777.752
38.79000 756.453
38.80000 735.120
38.81000 712.668
38.82000 689.669
38.83000 666.900
38.84000 647.556
38.85000 629.354
38.86000 612.768
38.87000 592.794
38.88000 574.423
38.89000 554.502
38.90000 526.416
38.91000 497.141
38.92000 470.039
38.93000 450.556
38.94000 431.732
38.95000 418.294
38.96000 405.825
38.97000 396.346
38.98000 379.682
38.99000 351.304
39.00000 322.759
39.01000 308.171
39.02000 308.699
39.03000 309.230
39.04000 309.563
39.05000 309.753
39.06000 309.793
39.07000 305.022
39.08000 297.943
39.09000 290.950
39.10000 285.206
39.11000 279.872
39.12000 275.023
39.13000 270.067
39.14000 265.666
39.15000 261.264
39.16000 256.859
39.17000 252.455
39.18000 248.903
39.19000 248.291
39.20000 247.925
39.21000 247.666
39.22000 250.174
39.23000 252.170
39.24000 255.644
39.25000 261.484
39.26000 267.357
39.27000 266.348
39.28000 258.033
39.29000 249.755
39.30000 244.321
39.31000 240.903
39.32000 237.544
39.33000 236.041
39.34000 235.413
39.35000 234.896
39.36000 235.955
39.37000 237.521
39.38000 238.941
39.39000 242.240
39.40000 245.510
39.41000 247.337
39.42000 241.847
39.43000 235.337
39.44000 231.371
39.45000 236.018
39.46000 241.372
39.47000 245.154
39.48000 238.427
39.49000 233.001
39.50000 230.572
39.51000 232.858
39.52000 235.203
39.53000 234.278
39.54000 229.949
39.55000 225.642
39.56000 228.452
39.57000 236.028
39.58000 243.398
39.59000 244.710
39.60000 243.215
39.61000 241.965
39.62000 244.052
39.63000 247.196
39.64000 250.040
39.65000 246.791
39.66000 242.789
39.67000 238.740
39.68000 234.457
39.69000 230.142
39.70000 226.622
39.71000 225.746
39.72000 225.081
39.73000 224.615
39.74000 236.222
39.75000 245.365
39.76000 248.924
39.77000 243.850
39.78000 238.678
39.79000 234.620
39.80000 231.698
39.81000 228.793
39.82000 227.570
39.83000 227.476
39.84000 227.405
39.85000 227.984
39.86000 228.860
39.87000 229.694
39.88000 229.979
39.89000 230.092
39.90000 230.194
39.91000 232.401
39.92000 234.727
39.93000 236.562
39.94000 236.003
39.95000 235.123
39.96000 234.315
39.97000 233.737
39.98000 233.177
39.99000 232.786
40.00000 232.918
40.01000 233.033
40.02000 232.038
40.03000 229.358
40.04000 226.660
40.05000 223.808
40.06000 220.803
40.07000 217.816
40.08000 220.378
40.09000 226.506
40.10000 232.580
40.11000 237.219
40.12000 241.214
40.13000 244.677
40.14000 241.290
40.15000 235.807
40.16000 230.870
40.17000 233.302
40.18000 236.757
40.19000 239.669
40.20000 239.982
40.21000 239.954
40.22000 238.200
40.23000 230.894
40.24000 223.168
40.25000 217.803
40.26000 226.225
40.27000 232.940
40.28000 234.510
40.29000 228.404
40.30000 222.225
40.31000 220.592
40.32000 223.416
40.33000 226.220
40.34000 227.317
40.35000 227.308
40.36000 227.267
40.37000 226.394
40.38000 225.154
40.39000 223.917
40.40000 222.714
40.41000 221.521
40.42000 220.449
40.43000 216.306
40.44000 212.141
40.45000 208.218
40.46000 205.431
40.47000 202.788
40.48000 201.835
40.49000 206.216
40.50000 210.988
40.51000 214.283
40.52000 208.494
40.53000 203.909
40.54000 203.824
40.55000 210.332
40.56000 216.897
40.57000 222.000
40.58000 225.699
40.59000 229.370
40.60000 229.999
40.61000 228.715
40.62000 227.408
40.63000 225.517
40.64000 223.372
40.65000 221.138
40.66000 217.816
40.67000 214.173
40.68000 210.910
40.69000 212.062
40.70000 213.827
40.71000 215.648
40.72000 217.726
40.73000 219.836
40.74000 221.543
40.75000 221.998
40.76000 222.363
40.77000 222.614
40.78000 216.658
40.79000 212.041
40.80000 208.748
40.81000 207.360
40.82000 205.987
40.83000 208.556
40.84000 214.839
40.85000 221.072
40.86000 220.865
40.87000 216.713
40.88000 212.636
40.89000 210.358
40.90000 208.845
40.91000 207.639
40.92000 210.090
40.93000 213.603
40.94000 216.741
40.95000 218.870
40.96000 220.555
40.97000 220.635
40.98000 213.445
40.99000 205.367
41.00000 200.356
41.01000 204.703
41.02000 209.697
41.03000 213.106
41.04000 216.122
41.05000 218.368
41.06000 219.756
41.07000 219.933
41.08000 220.101
41.09000 217.938
41.10000 213.622
41.11000 209.344
41.12000 205.711
41.13000 202.536
41.14000 199.615
41.15000 202.573
41.16000 207.991
41.17000 213.277
41.18000 217.035
41.19000 220.357
41.20000 223.317
41.21000 218.913
41.22000 213.869
41.23000 209.814
41.24000 210.157
41.25000 211.025
41.26000 211.053
41.27000 208.564
41.28000 205.906
41.29000 204.102
41.30000 205.135
41.31000 205.968
41.32000 207.269
41.33000 209.221
41.34000 211.176
41.35000 212.464
41.36000 213.147
41.37000 213.824
41.38000 213.322
41.39000 212.134
41.40000 210.896
41.41000 208.530
41.42000 205.701
41.43000 203.452
41.44000 207.740
41.45000 213.860
41.46000 219.299
41.47000 216.415
41.48000 212.569
41.49000 209.391
41.50000 209.129
41.51000 209.209
41.52000 210.445
41.53000 215.088
41.54000 219.955
41.55000 223.237
41.56000 217.083
41.57000 212.304
41.58000 207.889
41.59000 203.968
41.60000 200.055
41.61000 202.343
41.62000 210.140
41.63000 217.859
41.64000 219.006
41.65000 216.320
41.66000 213.730
41.67000 213.175
41.68000 213.444
41.69000 213.347
41.70000 209.241
41.71000 204.032
41.72000 199.415
41.73000 199.217
41.74000 199.743
41.75000 201.397
41.76000 207.884
41.77000 214.921
41.78000 219.704
41.79000 217.957
41.80000 215.797
41.81000 214.348
41.82000 212.986
41.83000 211.976
41.84000 212.963
41.85000 216.621
41.86000 220.287
41.87000 219.406
41.88000 214.562
41.89000 209.770
41.90000 211.806
41.91000 217.678
41.92000 223.077
41.93000 218.687
41.94000 210.407
41.95000 203.227
41.96000 207.825
41.97000 215.607
41.98000 222.486
41.99000 216.184
42.00000 208.702
42.01000 203.841
42.02000 210.003
42.03000 217.394
42.04000 223.091
42.05000 223.970
42.06000 224.553
42.07000 224.941
42.08000 224.124
42.09000 223.495
42.10000 225.872
42.11000 232.196
42.12000 238.527
42.13000 238.165
42.14000 232.079
42.15000 226.063
42.16000 220.247
42.17000 214.682
42.18000 209.469
42.19000 211.276
42.20000 215.824
42.21000 220.546
42.22000 227.072
42.23000 234.077
42.24000 240.252
42.25000 233.404
42.26000 225.531
42.27000 218.953
42.28000 217.723
42.29000 217.075
42.30000 216.718
42.31000 217.173
42.32000 217.676
42.33000 218.009
42.34000 222.223
42.35000 225.405
42.36000 227.069
42.37000 226.775
42.38000 226.473
42.39000 226.569
42.40000 226.998
42.41000 227.421
42.42000 225.531
42.43000 222.422
42.44000 219.675
42.45000 223.917
42.46000 230.843
42.47000 236.477
42.48000 228.973
42.49000 218.041
42.50000 208.432
42.51000 214.059
42.52000 221.154
42.53000 226.088
42.54000 222.255
42.55000 217.491
42.56000 214.248
42.57000 215.187
42.58000 216.366
42.59000 217.142
42.60000 221.252
42.61000 224.336
42.62000 222.931
42.63000 215.844
42.64000 208.753
42.65000 207.949
42.66000 212.319
42.67000 216.632
42.68000 216.540
42.69000 214.083
42.70000 211.627
42.71000 209.206
42.72000 206.797
42.73000 205.045
42.74000 209.810
42.75000 216.246
42.76000 221.887
42.77000 218.847
42.78000 214.980
42.79000 212.439
42.80000 215.176
42.81000 218.461
42.82000 219.474
42.83000 214.344
42.84000 208.872
42.85000 205.294
42.86000 205.107
42.87000 205.024
42.88000 202.477
42.89000 196.869
42.90000 191.270
42.91000 192.328
42.92000 198.761
42.93000 205.105
42.94000 204.714
42.95000 200.782
42.96000 197.201
42.97000 199.962
42.98000 205.076
42.99000 210.078
43.00000 214.004
43.01000 217.660
43.02000 220.854
43.03000 215.890
43.04000 210.484
43.05000 206.685
43.06000 209.173
43.07000 212.299
43.08000 214.065
43.09000 212.223
43.10000 210.185
43.11000 208.861
43.12000 208.091
43.13000 207.534
43.14000 205.557
43.15000 201.847
43.16000 198.149
43.17000 199.317
43.18000 204.344
43.19000 209.297
43.20000 209.367
43.21000 206.909
43.22000 204.489
43.23000 202.745
43.24000 201.246
43.25000 199.915
43.26000 200.166
43.27000 200.807
43.28000 201.365
43.29000 198.917
43.30000 196.409
43.31000 194.503
43.32000 194.908
43.33000 195.542
43.34000 196.779
43.35000 199.594
43.36000 202.491
43.37000 204.361
43.38000 206.123
43.39000 207.409
43.40000 205.060
43.41000 198.365
43.42000 191.676
43.43000 188.755
43.44000 188.765
43.45000 188.775
43.46000 188.186
43.47000 187.311
43.48000 186.762
43.49000 191.732
43.50000 198.681
43.51000 204.841
43.52000 203.720
43.53000 200.831
43.54000 198.321
43.55000 194.553
43.56000 191.169
43.57000 188.271
43.58000 187.207
43.59000 186.319
43.60000 187.129
43.61000 192.295
43.62000 197.681
43.63000 201.134
43.64000 196.928
43.65000 193.759
43.66000 192.006
43.67000 191.915
43.68000 191.827
43.69000 191.930
43.70000 192.178
43.71000 192.422
43.72000 192.461
43.73000 192.398
43.74000 192.450
43.75000 194.388
43.76000 196.992
43.77000 199.074
43.78000 196.463
43.79000 192.733
43.80000 189.501
43.81000 191.623
43.82000 194.135
43.83000 196.203
43.84000 196.618
43.85000 196.878
43.86000 197.587
43.87000 199.432
43.88000 201.332
43.89000 202.542
43.90000 204.771
43.91000 206.403
43.92000 204.623
43.93000 198.915
43.94000 193.218
43.95000 190.845
43.96000 190.965
43.97000 191.082
43.98000 192.137
43.99000 193.616
44.00000 195.007
44.01000 195.007
44.02000 194.524
44.03000 194.315
44.04000 196.507
44.05000 199.260
44.06000 201.639
44.07000 199.235
44.08000 196.575
44.09000 194.376
44.10000 193.851
44.11000 193.479
44.12000 192.973
44.13000 192.133
44.14000 191.278
44.15000 190.737
44.16000 195.957
44.17000 199.809
44.18000 200.234
44.19000 196.788
44.20000 193.358
44.21000 193.228
44.22000 195.530
44.23000 197.788
44.24000 197.700
44.25000 196.488
44.26000 195.115
44.27000 191.271
44.28000 186.585
44.29000 183.106
44.30000 190.010
44.31000 199.300
44.32000 207.299
44.33000 199.649
44.34000 191.192
44.35000 185.612
44.36000 190.326
44.37000 195.957
44.38000 199.596
44.39000 198.373
44.40000 196.931
44.41000 196.025
44.42000 195.758
44.43000 195.572
44.44000 196.487
44.45000 198.623
44.46000 200.767
44.47000 204.142
44.48000 208.408
44.49000 212.590
44.50000 207.920
44.51000 199.252
44.52000 191.350
44.53000 194.904
44.54000 202.291
44.55000 209.076
44.56000 210.797
44.57000 211.375
44.58000 211.871
44.59000 219.703
44.60000 227.229
44.61000 231.015
44.62000 221.652
44.63000 211.146
44.64000 204.964
44.65000 209.147
44.66000 213.782
44.67000 216.673
44.68000 225.391
44.69000 231.737
44.70000 234.734
44.71000 234.094
44.72000 233.449
44.73000 232.283
44.74000 230.748
44.75000 229.244
44.76000 227.815
44.77000 226.475
44.78000 225.266
44.79000 225.966
44.80000 227.294
44.81000 228.419
44.82000 227.871
44.83000 226.953
44.84000 226.167
44.85000 224.953
44.86000 223.877
44.87000 223.351
44.88000 224.726
44.89000 226.262
44.90000 227.918
44.91000 229.854
44.92000 231.803
44.93000 233.010
44.94000 237.121
44.95000 240.104
44.96000 239.894
44.97000 236.282
44.98000 232.707
44.99000 233.790
45.00000 238.120
45.01000 242.357
45.02000 242.022
45.03000 239.626
45.04000 237.375
45.05000 237.169
45.06000 237.623
45.07000 237.952
45.08000 237.273
45.09000 236.376
45.10000 235.610
45.11000 235.624
45.12000 235.728
45.13000 236.662
45.14000 240.410
45.15000 244.391
45.16000 246.976
45.17000 246.327
45.18000 245.547
45.19000 245.068
45.20000 240.157
45.21000 236.597
45.22000 233.594
45.23000 231.173
45.24000 228.746
45.25000 225.593
45.26000 221.943
45.27000 218.376
45.28000 220.382
45.29000 224.785
45.30000 228.800
45.31000 227.506
45.32000 224.527
45.33000 221.707
45.34000 220.145
45.35000 218.851
45.36000 217.751
45.37000 223.131
45.38000 228.393
45.39000 230.602
45.40000 222.629
45.41000 213.839
45.42000 207.634
45.43000 207.313
45.44000 207.221
45.45000 207.164
45.46000 209.042
45.47000 210.401
45.48000 209.640
45.49000 206.709
45.50000 203.802
45.51000 203.427
45.52000 204.754
45.53000 206.049
45.54000 207.858
45.55000 209.813
45.56000 211.545
45.57000 210.300
45.58000 208.127
45.59000 205.619
45.60000 200.537
45.61000 194.917
45.62000 190.154
45.63000 194.549
45.64000 199.259
45.65000 203.015
45.66000 203.643
45.67000 204.028
45.68000 201.233
45.69000 191.321
45.70000 181.142
45.71000 174.973
45.72000 186.239
45.73000 194.404
45.74000 196.632
45.75000 192.903
45.76000 189.175
45.77000 185.520
45.78000 181.914
45.79000 178.397
45.80000 177.005
45.81000 176.587
45.82000 176.640
45.83000 182.777
45.84000 190.781
45.85000 197.155
45.86000 191.291
45.87000 182.911
45.88000 175.834
45.89000 175.550
45.90000 176.057
45.91000 177.505
45.92000 181.984
45.93000 186.692
45.94000 188.302
45.95000 183.093
45.96000 177.640
45.97000 174.359
45.98000 175.609
45.99000 176.529
46.00000 176.791
46.01000 176.406
46.02000 176.070
46.03000 180.011
46.04000 186.729
46.05000 193.272
46.06000 190.443
46.07000 183.801
46.08000 177.652
46.09000 177.698
46.10000 179.613
46.11000 181.286
46.12000 181.184
46.13000 180.725
46.14000 180.339
46.15000 179.286
46.16000 178.337
46.17000 176.900
46.18000 173.922
46.19000 170.829
46.20000 169.159
46.21000 170.567
46.22000 172.080
46.23000 172.984
46.24000 175.515
46.25000 177.320
46.26000 178.339
46.27000 178.601
46.28000 178.860
46.29000 178.835
46.30000 178.629
46.31000 178.429
46.32000 179.027
46.33000 179.926
46.34000 180.686
46.35000 179.743
46.36000 178.294
46.37000 176.629
46.38000 173.407
46.39000 169.878
46.40000 166.918
46.41000 169.657
46.42000 172.531
46.43000 174.573
46.44000 174.025
46.45000 173.290
46.46000 171.958
46.47000 169.354
46.48000 166.709
46.49000 165.141
46.50000 169.321
46.51000 172.310
46.52000 177.542
46.53000 184.892
46.54000 192.111
46.55000 189.256
46.56000 180.095
46.57000 171.193
46.58000 170.254
46.59000 172.591
46.60000 174.820
46.61000 175.775
46.62000 176.358
46.63000 176.981
46.64000 177.881
46.65000 178.835
46.66000 179.632
46.67000 179.190
46.68000 178.697
46.69000 178.234
46.70000 177.866
46.71000 177.505
46.72000 176.785
46.73000 175.314
46.74000 173.819
46.75000 172.940
46.76000 175.000
46.77000 176.467
46.78000 176.507
46.79000 175.224
46.80000 173.939
46.81000 172.478
46.82000 170.908
46.83000 169.385
46.84000 171.729
46.85000 175.493
46.86000 178.961
46.87000 179.005
46.88000 178.070
46.89000 176.793
46.90000 173.151
46.91000 169.060
46.92000 165.651
46.93000 172.813
46.94000 179.796
46.95000 183.503
46.96000 177.364
46.97000 170.561
46.98000 166.510
46.99000 168.117
47.00000 169.894
47.01000 170.931
47.02000 170.179
47.03000 169.643
47.04000 170.100
47.05000 171.459
47.06000 172.759
47.07000 170.085
47.08000 165.010
47.09000 160.090
47.10000 157.097
47.11000 155.015
47.12000 153.067
47.13000 152.638
47.14000 152.637
47.15000 153.087
47.16000 156.593
47.17000 160.669
47.18000 164.052
47.19000 164.849
47.20000 165.257
47.21000 166.032
47.22000 167.892
47.23000 169.823
47.24000 170.445
47.25000 168.420
47.26000 166.320
47.27000 165.105
47.28000 170.568
47.29000 174.423
47.30000 174.795
47.31000 172.064
47.32000 169.331
47.33000 166.500
47.34000 163.610
47.35000 160.812
47.36000 161.744
47.37000 164.054
47.38000 166.492
47.39000 170.340
47.40000 174.578
47.41000 177.921
47.42000 175.345
47.43000 171.687
47.44000 168.660
47.45000 163.319
47.46000 158.695
47.47000 156.603
47.48000 161.861
47.49000 167.585
47.50000 170.165
47.51000 166.503
47.52000 162.671
47.53000 160.471
47.54000 160.591
47.55000 160.687
47.56000 163.264
47.57000 168.010
47.58000 172.716
47.59000 175.110
47.60000 176.154
47.61000 177.164
47.62000 173.488
47.63000 168.258
47.64000 163.521
47.65000 164.080
47.66000 166.074
47.67000 167.428
47.68000 164.633
47.69000 161.093
47.70000 158.175
47.71000 155.842
47.72000 153.976
47.73000 153.821
47.74000 158.547
47.75000 163.574
47.76000 166.420
47.77000 165.011
47.78000 163.491
47.79000 162.625
47.80000 158.692
47.81000 155.943
47.82000 155.221
47.83000 156.235
47.84000 157.210
47.85000 156.049
47.86000 153.662
47.87000 151.357
47.88000 150.428
47.89000 150.061
47.90000 149.775
47.91000 150.341
47.92000 151.135
47.93000 152.474
47.94000 157.275
47.95000 162.686
47.96000 167.130
47.97000 166.386
47.98000 165.310
47.99000 164.018
48.00000 162.116
48.01000 160.178
48.02000 159.805
48.03000 162.433
48.04000 165.135
48.05000 166.661
48.06000 163.949
48.07000 162.051
48.08000 160.072
48.09000 158.025
48.10000 156.074
48.11000 159.136
48.12000 165.021
48.13000 170.695
48.14000 163.869
48.15000 152.927
48.16000 143.048
48.17000 144.023
48.18000 147.837
48.19000 151.379
48.20000 153.232
48.21000 154.793
48.22000 156.070
48.23000 154.822
48.24000 153.579
48.25000 152.641
48.26000 152.546
48.27000 152.499
48.28000 155.249
48.29000 163.270
48.30000 171.416
48.31000 175.978
48.32000 163.535
48.33000 154.886
48.34000 152.770
48.35000 156.047
48.36000 159.236
48.37000 158.148
48.38000 154.691
48.39000 151.364
48.40000 153.455
48.41000 157.342
48.42000 160.999
48.43000 162.366
48.44000 163.145
48.45000 163.707
48.46000 162.954
48.47000 161.977
48.48000 161.181
48.49000 162.644
48.50000 164.031
48.51000 164.562
48.52000 162.771
48.53000 160.851
48.54000 160.539
48.55000 163.206
48.56000 165.940
48.57000 167.458
48.58000 160.218
48.59000 155.207
48.60000 153.814
48.61000 155.351
48.62000 156.919
48.63000 159.922
48.64000 163.707
48.65000 167.345
48.66000 165.836
48.67000 162.629
48.68000 160.157
48.69000 164.830
48.70000 171.306
48.71000 176.245
48.72000 172.005
48.73000 166.243
48.74000 161.565
48.75000 160.156
48.76000 159.278
48.77000 158.781
48.78000 159.296
48.79000 159.866
48.80000 159.140
48.81000 156.055
48.82000 152.921
48.83000 151.195
48.84000 155.812
48.85000 158.995
48.86000 159.559
48.87000 158.042
48.88000 156.579
48.89000 157.492
48.90000 159.676
48.91000 161.773
48.92000 160.911
48.93000 159.092
48.94000 157.312
48.95000 155.891
48.96000 154.558
48.97000 153.397
48.98000 153.235
48.99000 153.235
49.00000 153.235
49.01000 154.757
49.02000 156.118
49.03000 157.172
49.04000 157.424
49.05000 157.634
49.06000 157.259
49.07000 155.836
49.08000 154.393
49.09000 153.605
49.10000 156.152
49.11000 157.900
49.12000 158.144
49.13000 157.214
49.14000 156.299
49.15000 155.994
49.16000 156.011
49.17000 156.027
49.18000 157.298
49.19000 158.905
49.20000 160.136
49.21000 157.874
49.22000 154.762
49.23000 152.772
49.24000 157.216
49.25000 162.684
49.26000 167.091
49.27000 164.088
49.28000 161.069
49.29000 159.163
49.30000 160.125
49.31000 161.231
49.32000 162.100
49.33000 162.551
49.34000 162.994
49.35000 163.234
49.36000 155.874
49.37000 150.844
49.38000 149.983
49.39000 152.315
49.40000 154.520
49.41000 151.702
49.42000 146.290
49.43000 141.110
49.44000 142.229
49.45000 145.344
49.46000 148.356
49.47000 150.436
49.48000 152.293
49.49000 154.029
49.50000 155.089
49.51000 156.043
49.52000 156.808
49.53000 149.133
49.54000 142.270
49.55000 139.023
49.56000 144.922
49.57000 151.269
49.58000 154.375
49.59000 151.882
49.60000 149.290
49.61000 147.901
49.62000 150.530
49.63000 152.318
49.64000 152.161
49.65000 150.541
49.66000 148.905
49.67000 146.655
49.68000 144.093
49.69000 141.644
49.70000 143.257
49.71000 146.068
49.72000 148.851
49.73000 151.378
49.74000 153.845
49.75000 155.759
49.76000 154.619
49.77000 153.012
49.78000 151.728
49.79000 156.536
49.80000 160.875
49.81000 162.456
49.82000 157.177
49.83000 151.576
49.84000 148.476
49.85000 149.622
49.86000 150.839
49.87000 151.486
49.88000 150.394
49.89000 149.667
49.90000 152.023
49.91000 156.655
49.92000 161.148
49.93000 160.718
49.94000 157.830
49.95000 155.076
49.96000 152.477
49.97000 150.115
49.98000 148.407
49.99000 152.340
50.00000 157.573
50.01000 161.362
50.02000 157.343
50.03000 152.157
50.04000 148.027
50.05000 150.757
50.06000 153.453
50.07000 154.680
50.08000 152.316
50.09000 149.788
50.10000 149.502
50.11000 152.955
50.12000 156.465
50.13000 158.313
50.14000 154.271
50.15000 151.534
50.16000 150.110
50.17000 149.635
50.18000 149.262
50.19000 152.334
50.20000 157.096
50.21000 161.631
50.22000 159.306
50.23000 155.020
50.24000 151.433
50.25000 153.731
50.26000 157.362
50.27000 160.389
50.28000 160.213
50.29000 159.568
50.30000 159.057
50.31000 159.924
50.32000 160.718
50.33000 161.215
50.34000 160.998
50.35000 160.750
50.36000 160.944
50.37000 161.861
50.38000 162.790
50.39000 163.274
50.40000 166.433
50.41000 168.557
50.42000 168.764
50.43000 167.608
50.44000 166.415
50.45000 164.009
50.46000 161.018
50.47000 158.174
50.48000 160.149
50.49000 163.443
50.50000 166.508
50.51000 167.677
50.52000 168.424
50.53000 168.842
50.54000 167.541
50.55000 165.994
50.56000 164.773
50.57000 162.081
50.58000 159.821
50.59000 157.922
50.60000 156.875
50.61000 155.864
50.62000 154.837
50.63000 153.783
50.64000 152.728
50.65000 152.184
50.66000 156.402
50.67000 159.218
50.68000 158.404
50.69000 155.053
50.70000 151.783
50.71000 151.015
50.72000 151.434
50.73000 151.831
50.74000 157.154
50.75000 163.538
50.76000 169.039
50.77000 167.418
50.78000 164.244
50.79000 161.926
50.80000 163.975
50.81000 166.636
50.82000 168.729
50.83000 163.019
50.84000 157.929
50.85000 155.198
50.86000 157.944
50.87000 160.912
50.88000 161.258
50.89000 157.455
50.90000 153.600
50.91000 151.628
50.92000 155.076
50.93000 157.360
50.94000 155.857
50.95000 151.755
50.96000 147.829
50.97000 149.153
50.98000 152.923
50.99000 156.496
51.00000 157.088
51.01000 156.758
51.02000 156.289
51.03000 154.718
51.04000 152.912
51.05000 151.099
51.06000 149.246
51.07000 147.388
51.08000 145.932
51.09000 149.617
51.10000 152.891
51.11000 154.643
51.12000 152.918
51.13000 151.057
51.14000 151.912
51.15000 156.989
51.16000 162.115
51.17000 164.712
51.18000 153.534
51.19000 146.069
51.20000 140.819
51.21000 137.062
51.22000 133.510
51.23000 135.819
51.24000 140.811
51.25000 145.534
51.26000 145.636
51.27000 144.401
51.28000 143.755
51.29000 147.643
51.30000 152.482
51.31000 156.202
51.32000 154.423
51.33000 151.905
51.34000 149.941
51.35000 150.827
51.36000 151.711
51.37000 151.596
51.38000 149.239
51.39000 146.798
51.40000 145.690
51.41000 146.617
51.42000 147.565
51.43000 148.040
51.44000 143.525
51.45000 140.529
51.46000 139.285
51.47000 139.201
51.48000 139.278
51.49000 143.758
51.50000 150.220
51.51000 156.322
51.52000 151.482
51.53000 143.952
51.54000 137.400
51.55000 138.221
51.56000 140.562
51.57000 142.932
51.58000 145.438
51.59000 147.962
51.60000 149.921
51.61000 147.464
51.62000 145.241
51.63000 143.150
51.64000 141.346
51.65000 139.553
51.66000 140.124
51.67000 144.241
51.68000 148.392
51.69000 150.572
51.70000 150.808
51.71000 151.021
51.72000 149.104
51.73000 145.802
51.74000 142.630
51.75000 142.875
51.76000 144.631
51.77000 146.287
51.78000 141.804
51.79000 135.999
51.80000 131.303
51.81000 134.784
51.82000 139.918
51.83000 143.933
51.84000 142.661
51.85000 140.710
51.86000 139.200
51.87000 142.532
51.88000 145.459
51.89000 146.454
51.90000 143.256
51.91000 139.915
51.92000 137.340
51.93000 135.894
51.94000 134.459
51.95000 135.935
51.96000 140.224
51.97000 144.456
51.98000 143.927
51.99000 140.356
52.00000 136.770
52.01000 132.789
52.02000 128.636
52.03000 124.728
52.04000 130.364
52.05000 138.107
52.06000 144.732
52.07000 143.295
52.08000 140.258
52.09000 137.508
52.10000 136.089
52.11000 134.837
52.12000 133.873
52.13000 136.546
52.14000 138.868
52.15000 139.746
52.16000 137.545
52.17000 135.242
52.18000 136.075
52.19000 141.442
52.20000 146.846
52.21000 146.894
52.22000 141.868
52.23000 136.919
52.24000 137.942
52.25000 142.714
52.26000 147.276
52.27000 146.733
52.28000 144.008
52.29000 141.448
52.30000 138.633
52.31000 135.997
52.32000 134.440
52.33000 140.513
52.34000 148.070
52.35000 153.654
52.36000 150.251
52.37000 145.742
52.38000 142.288
52.39000 141.144
52.40000 140.369
52.41000 139.465
52.42000 138.294
52.43000 137.114
52.44000 137.177
52.45000 139.007
52.46000 140.849
52.47000 139.432
52.48000 134.989
52.49000 130.649
52.50000 133.762
52.51000 141.470
52.52000 148.785
52.53000 146.931
52.54000 141.223
52.55000 135.872
52.56000 135.430
52.57000 136.309
52.58000 137.527
52.59000 141.089
52.60000 145.098
52.61000 148.325
52.62000 148.052
52.63000 147.359
52.64000 146.830
52.65000 147.431
52.66000 147.965
52.67000 147.382
52.68000 144.495
52.69000 141.540
52.70000 139.783
52.71000 139.699
52.72000 139.627
52.73000 142.046
52.74000 146.732
52.75000 151.291
52.76000 147.270
52.77000 138.052
52.78000 129.236
52.79000 129.446
52.80000 133.387
52.81000 137.075
52.82000 134.366
52.83000 130.267
52.84000 127.179
52.85000 130.930
52.86000 135.963
52.87000 141.075
52.88000 146.540
52.89000 152.047
52.90000 156.228
52.91000 147.527
52.92000 140.021
52.93000 135.108
52.94000 135.447
52.95000 135.938
52.96000 136.954
52.97000 138.689
52.98000 140.429
52.99000 141.190
53.00000 141.077
53.01000 140.939
53.02000 139.267
53.03000 136.682
53.04000 134.269
53.05000 135.579
53.06000 138.401
53.07000 141.037
53.08000 143.858
53.09000 146.462
53.10000 148.856
53.11000 149.862
53.12000 150.614
53.13000 151.642
53.14000 153.865
53.15000 156.225
53.16000 158.008
53.17000 153.320
53.18000 149.321
53.19000 147.761
53.20000 151.061
53.21000 154.494
53.22000 156.348
53.23000 156.080
53.24000 155.801
53.25000 155.365
53.26000 154.792
53.27000 154.266
53.28000 156.465
53.29000 160.259
53.30000 163.694
53.31000 159.631
53.32000 152.573
53.33000 145.994
53.34000 145.279
53.35000 146.074
53.36000 147.012
53.37000 148.876
53.38000 150.906
53.39000 152.313
53.40000 151.089
53.41000 149.570
53.42000 148.427
53.43000 151.814
53.44000 154.683
53.45000 155.772
53.46000 153.376
53.47000 150.890
53.48000 148.946
53.49000 147.718
53.50000 146.495
53.51000 148.879
53.52000 154.353
53.53000 159.718
53.54000 159.039
53.55000 154.887
53.56000 150.949
53.57000 151.355
53.58000 153.465
53.59000 155.428
53.60000 155.678
53.61000 155.491
53.62000 154.506
53.63000 148.446
53.64000 141.490
53.65000 136.401
53.66000 139.064
53.67000 142.576
53.68000 145.206
53.69000 145.342
53.70000 145.330
53.71000 145.021
53.72000 144.139
53.73000 143.242
53.74000 144.164
53.75000 147.445
53.76000 150.731
53.77000 150.994
53.78000 148.712
53.79000 146.466
53.80000 146.116
53.81000 146.838
53.82000 147.348
53.83000 143.727
53.84000 138.512
53.85000 133.671
53.86000 138.128
53.87000 144.344
53.88000 149.331
53.89000 146.653
53.90000 142.650
53.91000 139.141
53.92000 137.655
53.93000 136.384
53.94000 135.437
53.95000 137.938
53.96000 140.041
53.97000 142.737
53.98000 146.555
53.99000 150.399
54.00000 150.144
54.01000 144.673
54.02000 139.191
54.03000 140.704
54.04000 147.984
54.05000 155.072
54.06000 152.669
54.07000 144.998
54.08000 137.849
54.09000 140.522
54.10000 146.921
54.11000 152.849
54.12000 150.514
54.13000 146.498
54.14000 142.716
54.15000 140.360
54.16000 138.246
54.17000 137.289
54.18000 140.971
54.19000 145.136
54.20000 148.225
54.21000 143.436
54.22000 139.371
54.23000 136.526
54.24000 135.946
54.25000 135.416
54.26000 136.049
54.27000 138.133
54.28000 140.218
54.29000 139.542
54.30000 136.636
54.31000 133.835
54.32000 135.931
54.33000 140.698
54.34000 145.183
54.35000 144.512
54.36000 141.918
54.37000 139.520
54.38000 138.307
54.39000 137.488
54.40000 136.485
54.41000 134.383
54.42000 132.099
54.43000 130.960
54.44000 134.325
54.45000 138.149
54.46000 140.971
54.47000 145.760
54.48000 149.554
54.49000 150.445
54.50000 146.037
54.51000 141.517
54.52000 138.577
54.53000 137.575
54.54000 136.579
54.55000 136.181
54.56000 136.260
54.57000 136.357
54.58000 137.306
54.59000 138.712
54.60000 140.055
54.61000 140.306
54.62000 140.155
54.63000 140.017
54.64000 144.811
54.65000 150.205
54.66000 154.056
54.67000 148.859
54.68000 142.187
54.69000 137.623
54.70000 141.207
54.71000 145.601
54.72000 148.828
54.73000 149.126
54.74000 149.238
54.75000 148.093
54.76000 144.695
54.77000 141.252
54.78000 141.496
54.79000 146.175
54.80000 150.853
54.81000 150.496
54.82000 146.221
54.83000 142.073
54.84000 143.167
54.85000 147.025
54.86000 150.544
54.87000 148.270
54.88000 143.910
54.89000 139.898
54.90000 138.571
54.91000 137.971
54.92000 137.576
54.93000 138.354
54.94000 139.319
54.95000 140.056
54.96000 139.922
54.97000 139.705
54.98000 139.546
54.99000 148.110
55.00000 155.056
55.01000 158.596
55.02000 156.132
55.03000 153.556
55.04000 149.972
55.05000 145.200
55.06000 140.437
55.07000 141.005
55.08000 145.639
55.09000 150.207
55.10000 152.175
55.11000 152.796
55.12000 153.391
55.13000 153.563
55.14000 153.585
55.15000 153.605
55.16000 154.251
55.17000 154.961
55.18000 155.732
55.19000 156.839
55.20000 157.998
55.21000 158.412
55.22000 156.046
55.23000 153.416
55.24000 151.504
55.25000 157.896
55.26000 163.127
55.27000 167.674
55.28000 171.033
55.29000 174.371
55.30000 173.097
55.31000 166.483
55.32000 159.880
55.33000 157.888
55.34000 159.361
55.35000 160.831
55.36000 162.188
55.37000 163.488
55.38000 165.002
55.39000 169.951
55.40000 176.096
55.41000 181.726
55.42000 182.713
55.43000 182.619
55.44000 183.191
55.45000 187.447
55.46000 192.268
55.47000 196.549
55.48000 198.851
55.49000 200.970
55.50000 202.503
55.51000 201.886
55.52000 201.334
55.53000 202.066
55.54000 204.984
55.55000 207.938
55.56000 212.887
55.57000 220.101
55.58000 227.296
55.59000 233.213
55.60000 238.146
55.61000 243.212
55.62000 253.022
55.63000 265.206
55.64000 276.772
55.65000 278.726
55.66000 277.392
55.67000 276.172
55.68000 283.377
55.69000 291.508
55.70000 298.600
55.71000 300.058
55.72000 300.670
55.73000 303.923
55.74000 316.678
55.75000 330.288
55.76000 340.078
55.77000 341.933
55.78000 343.075
55.79000 346.847
55.80000 355.018
55.81000 363.258
55.82000 374.739
55.83000 389.831
55.84000 404.872
55.85000 413.345
55.86000 417.013
55.87000 420.690
55.88000 424.700
55.89000 428.872
55.90000 433.225
55.91000 440.296
55.92000 448.281
55.93000 455.564
55.94000 454.319
55.95000 451.501
55.96000 448.008
55.97000 440.935
55.98000 433.336
55.99000 426.873
56.00000 424.429
56.01000 422.336
56.02000 420.838
56.03000 425.687
56.04000 429.603
56.05000 426.746
56.06000 412.757
56.07000 398.605
56.08000 389.335
56.09000 385.397
56.10000 381.477
56.11000 377.888
56.12000 374.569
56.13000 370.902
56.14000 355.862
56.15000 335.325
56.16000 315.611
56.17000 307.943
56.18000 304.255
56.19000 300.899
56.20000 292.007
56.21000 283.048
56.22000 274.661
56.23000 269.261
56.24000 264.290
56.25000 259.266
56.26000 254.055
56.27000 248.828
56.28000 245.108
56.29000 229.511
56.30000 217.246
56.31000 210.739
56.32000 213.531
56.33000 216.449
56.34000 217.225
56.35000 215.705
56.36000 214.192
56.37000 206.537
56.38000 194.705
56.39000 183.066
56.40000 177.460
56.41000 174.720
56.42000 172.210
56.43000 172.967
56.44000 174.785
56.45000 176.435
56.46000 173.426
56.47000 169.869
56.48000 166.595
56.49000 164.766
56.50000 163.140
56.51000 160.900
56.52000 156.562
56.53000 152.050
56.54000 148.856
56.55000 157.837
56.56000 165.040
56.57000 167.773
56.58000 163.415
56.59000 158.968
56.60000 153.472
56.61000 146.875
56.62000 140.311
56.63000 140.525
56.64000 145.346
56.65000 149.998
56.66000 149.592
56.67000 146.824
56.68000 144.213
56.69000 143.772
56.70000 144.023
56.71000 144.251
56.72000 142.559
56.73000 140.705
56.74000 139.817
56.75000 143.772
56.76000 148.395
56.77000 150.459
56.78000 143.948
56.79000 136.744
56.80000 131.673
56.81000 135.158
56.82000 138.056
56.83000 138.627
56.84000 135.574
56.85000 132.478
56.86000 132.122
56.87000 134.587
56.88000 137.038
56.89000 136.536
56.90000 134.069
56.91000 131.650
56.92000 130.619
56.93000 130.225
56.94000 129.924
56.95000 130.855
56.96000 132.173
56.97000 133.364
56.98000 137.779
56.99000 142.257
57.00000 145.890
57.01000 145.358
57.02000 144.266
57.03000 141.525
57.04000 133.357
57.05000 124.763
57.06000 118.745
57.07000 124.367
57.08000 128.950
57.09000 131.324
57.10000 130.317
57.11000 129.273
57.12000 130.018
57.13000 132.569
57.14000 135.105
57.15000 135.851
57.16000 135.415
57.17000 134.813
57.18000 129.610
57.19000 122.332
57.20000 115.702
57.21000 117.524
57.22000 121.951
57.23000 125.941
57.24000 130.216
57.25000 134.019
57.26000 137.288
57.27000 137.976
57.28000 138.324
57.29000 137.884
57.30000 134.892
57.31000 131.705
57.32000 129.486
57.33000 134.758
57.34000 138.939
57.35000 138.621
57.36000 131.536
57.37000 124.384
57.38000 121.122
57.39000 121.706
57.40000 122.287
57.41000 122.730
57.42000 123.077
57.43000 123.516
57.44000 126.381
57.45000 130.322
57.46000 133.634
57.47000 128.972
57.48000 121.895
57.49000 115.532
57.50000 117.356
57.51000 120.407
57.52000 123.382
57.53000 126.000
57.54000 128.573
57.55000 129.494
57.56000 125.157
57.57000 120.430
57.58000 117.158
57.59000 124.829
57.60000 130.886
57.61000 133.646
57.62000 131.535
57.63000 129.381
57.64000 128.200
57.65000 127.964
57.66000 127.729
57.67000 128.651
57.68000 130.286
57.69000 131.750
57.70000 128.886
57.71000 124.134
57.72000 119.532
57.73000 116.773
57.74000 114.564
57.75000 112.582
57.76000 117.943
57.77000 123.903
57.78000 128.845
57.79000 129.054
57.80000 128.666
57.81000 128.811
57.82000 130.623
57.83000 132.555
57.84000 133.885
57.85000 132.288
57.86000 131.017
57.87000 129.154
57.88000 126.434
57.89000 123.707
57.90000 120.606
57.91000 117.150
57.92000 113.721
57.93000 114.645
57.94000 118.246
57.95000 121.853
57.96000 125.622
57.97000 129.460
57.98000 132.909
57.99000 131.687
58.00000 129.098
58.01000 126.783
58.02000 124.610
58.03000 122.739
58.04000 120.640
58.05000 117.495
58.06000 114.222
58.07000 112.624
58.08000 116.177
58.09000 120.091
58.10000 122.769
58.11000 115.506
58.12000 109.831
58.13000 110.467
58.14000 120.092
58.15000 129.782
58.16000 133.532
58.17000 131.747
58.18000 129.977
58.19000 128.964
58.20000 128.429
58.21000 127.820
58.22000 125.469
58.23000 122.384
58.24000 119.686
58.25000 121.524
58.26000 124.666
58.27000 127.469
58.28000 128.288
58.29000 128.671
58.30000 128.553
58.31000 126.193
58.32000 123.562
58.33000 121.164
58.34000 119.467
58.35000 117.818
58.36000 116.695
58.37000 116.821
58.38000 116.943
58.39000 117.441
58.40000 118.465
58.41000 119.493
58.42000 121.451
58.43000 124.259
58.44000 127.041
58.45000 128.240
58.46000 128.474
58.47000 128.760
58.48000 130.241
58.49000 132.218
58.50000 134.068
58.51000 134.484
58.52000 134.495
58.53000 134.504
58.54000 128.272
58.55000 121.843
58.56000 117.329
58.57000 121.239
58.58000 126.143
58.59000 130.202
58.60000 131.752
58.61000 133.137
58.62000 134.073
58.63000 132.912
58.64000 132.001
58.65000 128.544
58.66000 121.589
58.67000 114.618
58.68000 114.710
58.69000 121.133
58.70000 127.493
58.71000 128.135
58.72000 125.425
58.73000 122.697
58.74000 119.606
58.75000 116.367
58.76000 113.567
58.77000 115.636
58.78000 119.056
58.79000 122.091
58.80000 119.078
58.81000 115.501
58.82000 113.064
58.83000 115.548
58.84000 118.598
58.85000 121.493
58.86000 123.935
58.87000 126.347
58.88000 127.969
58.89000 123.458
58.90000 119.980
58.91000 117.878
58.92000 117.633
58.93000 117.400
58.94000 118.532
58.95000 120.865
58.96000 123.173
58.97000 124.367
58.98000 124.896
58.99000 125.203
59.00000 120.858
59.01000 114.650
59.02000 109.173
59.03000 111.603
59.04000 116.189
59.05000 120.247
59.06000 122.687
59.07000 124.545
59.08000 126.174
59.09000 126.840
59.10000 127.396
59.11000 127.061
59.12000 124.168
59.13000 121.116
59.14000 119.077
59.15000 119.200
59.16000 119.333
59.17000 119.085
59.18000 118.331
59.19000 117.576
59.20000 118.322
59.21000 120.361
59.22000 122.377
59.23000 124.052
59.24000 125.496
59.25000 126.820
59.26000 125.701
59.27000 123.622
59.28000 121.613
59.29000 120.355
59.30000 119.297
59.31000 118.363
59.32000 117.711
59.33000 117.191
59.34000 116.870
59.35000 117.376
59.36000 117.973
59.37000 119.514
59.38000 123.716
59.39000 128.078
59.40000 130.974
59.41000 120.677
59.42000 112.822
59.43000 111.968
59.44000 120.215
59.45000 128.493
59.46000 132.162
59.47000 131.933
59.48000 131.708
59.49000 128.136
59.50000 122.807
59.51000 117.654
59.52000 115.964
59.53000 115.613
59.54000 115.176
59.55000 113.852
59.56000 112.295
59.57000 110.925
59.58000 116.850
59.59000 123.040
59.60000 127.155
59.61000 122.782
59.62000 117.497
59.63000 114.692
59.64000 118.756
59.65000 123.222
59.66000 126.168
59.67000 123.361
59.68000 121.190
59.69000 120.056
59.70000 120.244
59.71000 120.431
59.72000 117.900
59.73000 113.114
59.74000 108.388
59.75000 111.709
59.76000 119.303
59.77000 126.586
59.78000 127.981
59.79000 127.138
59.80000 126.381
59.81000 126.488
59.82000 126.817
59.83000 127.107
59.84000 124.667
59.85000 122.173
59.86000 119.867
59.87000 118.317
59.88000 116.846
59.89000 116.751
59.90000 120.406
59.91000 124.272
59.92000 126.807
59.93000 123.945
59.94000 121.750
59.95000 119.111
59.96000 115.914
59.97000 112.723
59.98000 112.310
59.99000 114.158
60.00000 115.980
60.01000 116.122
60.02000 115.366
60.03000 114.865
60.04000 119.028
60.05000 124.935
60.06000 129.945
60.07000 126.171
60.08000 120.169
60.09000 114.916
60.10000 112.263
60.11000 110.360
60.12000 109.582
60.13000 113.243
60.14000 117.358
60.15000 119.153
60.16000 114.736
60.17000 109.979
60.18000 106.880
60.19000 113.092
60.20000 117.794
60.21000 120.144
60.22000 119.604
60.23000 119.061
60.24000 120.216
60.25000 122.728
60.26000 125.204
60.27000 126.033
60.28000 125.979
60.29000 125.749
60.30000 122.386
60.31000 117.874
60.32000 114.134
60.33000 117.776
60.34000 123.258
60.35000 128.041
60.36000 123.454
60.37000 118.221
60.38000 114.860
60.39000 118.753
60.40000 123.369
60.41000 126.248
60.42000 124.552
60.43000 122.614
60.44000 121.360
60.45000 127.128
60.46000 131.451
60.47000 130.819
60.48000 124.211
60.49000 117.603
60.50000 114.616
60.51000 114.471
60.52000 114.327
60.53000 115.676
60.54000 117.748
60.55000 119.757
60.56000 120.701
60.57000 121.261
60.58000 121.863
60.59000 122.868
60.60000 123.972
60.61000 124.932
60.62000 125.418
60.63000 125.767
60.64000 125.981
60.65000 125.674
60.66000 125.316
60.67000 124.038
60.68000 120.376
60.69000 116.593
60.70000 114.160
60.71000 115.311
60.72000 116.201
60.73000 115.965
60.74000 114.397
60.75000 112.840
60.76000 114.300
60.77000 118.084
60.78000 121.807
60.79000 122.815
60.80000 122.427
60.81000 122.099
60.82000 122.782
60.83000 123.823
60.84000 124.996
60.85000 127.380
60.86000 130.055
60.87000 132.375
60.88000 128.807
60.89000 124.983
60.90000 122.175
60.91000 123.170
60.92000 124.526
60.93000 125.257
60.94000 124.399
60.95000 123.463
60.96000 122.865
60.97000 120.907
60.98000 119.465
60.99000 119.771
61.00000 122.107
61.01000 124.437
61.02000 124.752
61.03000 123.543
61.04000 122.355
61.05000 122.874
61.06000 124.216
61.07000 125.350
61.08000 123.125
61.09000 119.728
61.10000 117.069
61.11000 120.973
61.12000 126.426
61.13000 131.141
61.14000 130.989
61.15000 130.225
61.16000 129.651
61.17000 129.777
61.18000 129.967
61.19000 130.146
61.20000 130.296
61.21000 130.445
61.22000 130.540
61.23000 123.966
61.24000 119.114
61.25000 117.161
61.26000 118.512
61.27000 119.879
61.28000 123.508
61.29000 128.817
61.30000 134.030
61.31000 133.593
61.32000 130.436
61.33000 127.632
61.34000 130.335
61.35000 134.927
61.36000 138.460
61.37000 132.785
61.38000 124.978
61.39000 118.246
61.40000 121.240
61.41000 125.020
61.42000 128.551
61.43000 131.183
61.44000 133.734
61.45000 135.013
61.46000 133.165
61.47000 131.173
61.48000 129.918
61.49000 133.283
61.50000 135.772
61.51000 140.724
61.52000 148.429
61.53000 156.164
61.54000 168.655
61.55000 184.611
61.56000 200.263
61.57000 213.257
61.58000 224.514
61.59000 235.756
61.60000 246.763
61.61000 257.691
61.62000 268.305
61.63000 276.262
61.64000 283.615
61.65000 289.935
61.66000 288.453
61.67000 286.227
61.68000 285.876
61.69000 292.173
61.70000 299.053
61.71000 301.010
61.72000 291.074
61.73000 280.610
61.74000 274.063
61.75000 272.339
61.76000 271.146
61.77000 261.610
61.78000 242.934
61.79000 224.299
61.80000 212.326
61.81000 205.120
61.82000 198.058
61.83000 185.788
61.84000 171.556
61.85000 157.992
61.86000 154.240
61.87000 153.738
61.88000 152.886
61.89000 149.125
61.90000 144.715
61.91000 140.936
61.92000 141.598
61.93000 142.698
61.94000 142.607
61.95000 138.373
61.96000 133.785
61.97000 131.465
61.98000 134.531
61.99000 137.828
62.00000 139.876
62.01000 138.025
62.02000 136.654
62.03000 135.744
62.04000 135.329
62.05000 134.899
62.06000 132.449
62.07000 128.579
62.08000 124.790
62.09000 122.941
62.10000 122.053
62.11000 121.292
62.12000 122.351
62.13000 124.002
62.14000 125.766
62.15000 128.452
62.16000 131.339
62.17000 133.805
62.18000 130.534
62.19000 127.097
62.20000 124.470
62.21000 124.622
62.22000 125.004
62.23000 125.806
62.24000 127.587
62.25000 129.408
62.26000 130.532
62.27000 132.904
62.28000 134.619
62.29000 135.483
62.30000 135.450
62.31000 135.388
62.32000 131.767
62.33000 125.689
62.34000 119.745
62.35000 119.782
62.36000 122.502
62.37000 125.181
62.38000 127.288
62.39000 129.212
62.40000 131.098
62.41000 132.674
62.42000 134.184
62.43000 135.470
62.44000 135.852
62.45000 136.068
62.46000 136.080
62.47000 135.403
62.48000 134.671
62.49000 134.893
62.50000 137.304
62.51000 139.802
62.52000 141.332
62.53000 134.784
62.54000 130.028
62.55000 128.264
62.56000 129.592
62.57000 130.905
62.58000 130.611
62.59000 129.229
62.60000 127.879
62.61000 129.401
62.62000 132.124
62.63000 134.734
62.64000 135.833
62.65000 136.456
62.66000 136.820
62.67000 135.174
62.68000 133.103
62.69000 131.346
62.70000 129.149
62.71000 127.255
62.72000 127.116
62.73000 132.770
62.74000 138.881
62.75000 141.603
62.76000 136.680
62.77000 131.467
62.78000 128.297
62.79000 129.593
62.80000 130.553
62.81000 132.975
62.82000 136.875
62.83000 140.724
62.84000 139.350
62.85000 134.499
62.86000 129.766
62.87000 129.833
62.88000 131.972
62.89000 133.916
62.90000 133.303
62.91000 131.899
62.92000 130.567
62.93000 129.770
62.94000 129.084
62.95000 128.504
62.96000 128.260
62.97000 128.093
62.98000 128.145
62.99000 128.912
63.00000 129.734
63.01000 130.951
63.02000 133.044
63.03000 135.169
63.04000 136.452
63.05000 140.517
63.06000 143.431
63.07000 144.239
63.08000 142.957
63.09000 141.641
63.10000 137.140
63.11000 130.559
63.12000 124.144
63.13000 123.710
63.14000 125.834
63.15000 127.915
63.16000 129.467
63.17000 130.858
63.18000 132.010
63.19000 131.387
63.20000 130.405
63.21000 129.576
63.22000 132.652
63.23000 135.641
63.24000 137.389
63.25000 135.177
63.26000 132.668
63.27000 132.304
63.28000 136.613
63.29000 141.085
63.30000 143.764
63.31000 142.022
63.32000 140.755
63.33000 138.474
63.34000 135.205
63.35000 131.981
63.36000 132.568
63.37000 135.603
63.38000 138.556
63.39000 138.610
63.40000 137.453
63.41000 136.401
63.42000 136.645
63.43000 137.275
63.44000 137.441
63.45000 134.236
63.46000 130.359
63.47000 127.101
63.48000 130.644
63.49000 134.312
63.50000 136.668
63.51000 134.907
63.52000 132.847
63.53000 133.812
63.54000 141.258
63.55000 148.921
63.56000 153.477
63.57000 145.214
63.58000 139.286
63.59000 136.256
63.60000 135.988
63.61000 135.735
63.62000 136.667
63.63000 138.346
63.64000 139.980
63.65000 139.984
63.66000 139.323
63.67000 138.751
63.68000 139.258
63.69000 140.082
63.70000 140.556
63.71000 138.535
63.72000 136.026
63.73000 133.925
63.74000 139.827
63.75000 145.556
63.76000 149.201
63.77000 146.421
63.78000 143.189
63.79000 140.919
63.80000 140.674
63.81000 140.495
63.82000 140.389
63.83000 142.243
63.84000 143.563
63.85000 142.476
63.86000 139.140
63.87000 135.823
63.88000 133.899
63.89000 132.838
63.90000 131.807
63.91000 134.016
63.92000 137.412
63.93000 140.618
63.94000 141.589
63.95000 141.917
63.96000 142.713
63.97000 146.766
63.98000 151.444
63.99000 155.347
64.00000 151.313
64.01000 147.171
64.02000 143.734
64.03000 142.435
64.04000 141.283
64.05000 142.425
64.06000 148.318
64.07000 154.357
64.08000 157.892
64.09000 153.413
64.10000 150.221
64.11000 149.394
64.12000 150.733
64.13000 152.066
64.14000 153.030
64.15000 153.768
64.16000 154.484
64.17000 150.309
64.18000 144.426
64.19000 139.444
64.20000 144.746
64.21000 152.962
64.22000 160.285
64.23000 161.532
64.24000 161.635
64.25000 161.720
64.26000 159.047
64.27000 156.564
64.28000 154.682
64.29000 154.585
64.30000 154.606
64.31000 154.619
64.32000 154.615
64.33000 154.611
64.34000 154.608
64.35000 147.877
64.36000 143.126
64.37000 144.948
64.38000 152.676
64.39000 160.326
64.40000 163.040
64.41000 162.799
64.42000 162.565
64.43000 161.465
64.44000 160.089
64.45000 158.849
64.46000 159.133
64.47000 159.841
64.48000 160.955
64.49000 164.781
64.50000 169.108
64.51000 172.694
64.52000 170.149
64.53000 167.463
64.54000 165.288
64.55000 164.605
64.56000 164.019
64.57000 163.781
64.58000 164.239
64.59000 164.716
64.60000 164.991
64.61000 165.459
64.62000 165.785
64.63000 164.838
64.64000 162.768
64.65000 160.766
64.66000 162.809
64.67000 167.231
64.68000 171.508
64.69000 173.504
64.70000 174.523
64.71000 175.361
64.72000 174.230
64.73000 172.560
64.74000 171.115
64.75000 171.139
64.76000 171.430
64.77000 171.670
64.78000 170.500
64.79000 169.405
64.80000 169.574
64.81000 173.376
64.82000 177.405
64.83000 180.226
64.84000 180.670
64.85000 181.051
64.86000 181.269
64.87000 182.116
64.88000 182.705
64.89000 180.429
64.90000 175.675
64.91000 171.056
64.92000 174.103
64.93000 181.578
64.94000 188.799
64.95000 190.082
64.96000 189.082
64.97000 188.169
64.98000 188.177
64.99000 188.432
65.00000 188.848
65.01000 190.294
65.02000 191.923
65.03000 193.263
65.04000 197.901
65.05000 202.013
65.06000 205.576
65.07000 207.588
65.08000 209.506
65.09000 209.574
65.10000 206.068
65.11000 202.472
65.12000 200.433
65.13000 208.021
65.14000 213.322
65.15000 213.484
65.16000 209.287
65.17000 205.165
65.18000 205.017
65.19000 207.126
65.20000 209.160
65.21000 213.811
65.22000 219.144
65.23000 223.913
65.24000 222.872
65.25000 220.297
65.26000 218.438
65.27000 221.057
65.28000 224.457
65.29000 227.243
65.30000 232.791
65.31000 237.585
65.32000 240.143
65.33000 236.490
65.34000 232.472
65.35000 233.206
65.36000 242.968
65.37000 252.946
65.38000 258.556
65.39000 248.115
65.40000 240.841
65.41000 239.832
65.42000 244.034
65.43000 248.321
65.44000 256.783
65.45000 267.575
65.46000 277.972
65.47000 288.088
65.48000 297.489
65.49000 305.528
65.50000 299.852
65.51000 290.623
65.52000 283.453
65.53000 288.932
65.54000 296.568
65.55000 302.804
65.56000 315.571
65.57000 326.579
65.58000 336.756
65.59000 344.660
65.60000 352.436
65.61000 363.436
65.62000 380.456
65.63000 397.612
65.64000 407.177
65.65000 442.601
65.66000 467.215
65.67000 511.364
65.68000 571.464
65.69000 631.993
65.70000 712.761
65.71000 804.626
65.72000 892.996
65.73000 1006.925
65.74000 1122.727
65.75000 1237.781
65.76000 1345.504
65.77000 1451.362
65.78000 1553.825
65.79000 1635.849
65.80000 1714.454
65.81000 1778.396
65.82000 1833.261
65.83000 1877.293
65.84000 1910.796
65.85000 1916.042
65.86000 1919.734
65.87000 1917.813
65.88000 1905.590
65.89000 1893.146
65.90000 1886.268
65.91000 1839.832
65.92000 1807.673
65.93000 1757.283
65.94000 1692.284
65.95000 1626.064
65.96000 1505.203
65.97000 1354.902
65.98000 1210.529
65.99000 1085.881
66.00000 976.024
66.01000 868.310
66.02000 781.143
66.03000 699.110
66.04000 621.163
66.05000 567.322
66.06000 517.432
66.07000 477.003
66.08000 457.343
66.09000 443.022
66.10000 430.571
66.11000 423.048
66.12000 415.787
66.13000 403.194
66.14000 380.985
66.15000 358.580
66.16000 346.305
66.17000 359.015
66.18000 367.778
66.19000 371.765
66.20000 371.994
66.21000 372.313
66.22000 376.438
66.23000 382.578
66.24000 388.466
66.25000 398.307
66.26000 408.838
66.27000 420.918
66.28000 447.504
66.29000 477.648
66.30000 506.118
66.31000 524.899
66.32000 542.124
66.33000 556.028
66.34000 576.140
66.35000 592.978
66.36000 605.751
66.37000 607.978
66.38000 609.665
66.39000 613.659
66.40000 621.744
66.41000 629.908
66.42000 634.342
66.43000 630.170
66.44000 627.298
66.45000 624.344
66.46000 621.326
66.47000 617.964
66.48000 600.742
66.49000 576.306
66.50000 552.904
66.51000 527.432
66.52000 502.993
66.53000 479.343
66.54000 462.909
66.55000 448.213
66.56000 433.429
66.57000 418.148
66.58000 402.787
66.59000 390.436
66.60000 381.359
66.61000 374.252
66.62000 368.070
66.63000 364.251
66.64000 360.548
66.65000 358.429
66.66000 359.067
66.67000 359.754
66.68000 360.124
66.69000 346.524
66.70000 337.264
66.71000 338.678
66.72000 348.181
66.73000 357.500
66.74000 359.745
66.75000 358.372
66.76000 357.059
66.77000 355.159
66.78000 353.198
66.79000 351.687
66.80000 354.190
66.81000 357.642
66.82000 359.511
66.83000 352.575
66.84000 344.282
66.85000 337.641
66.86000 346.033
66.87000 353.953
66.88000 360.298
66.89000 362.697
66.90000 364.908
66.91000 364.027
66.92000 357.859
66.93000 351.600
66.94000 348.262
66.95000 366.489
66.96000 378.893
66.97000 385.320
66.98000 387.301
66.99000 389.129
67.00000 385.395
67.01000 378.865
67.02000 372.631
67.03000 370.295
67.04000 369.369
67.05000 369.083
67.06000 374.371
67.07000 380.954
67.08000 386.080
67.09000 383.257
67.10000 379.233
67.11000 376.024
67.12000 383.686
67.13000 390.664
67.14000 395.130
67.15000 393.407
67.16000 391.398
67.17000 388.483
67.18000 384.047
67.19000 379.586
67.20000 377.229
67.21000 389.862
67.22000 398.415
67.23000 400.647
67.24000 398.262
67.25000 395.971
67.26000 396.912
67.27000 399.450
67.28000 401.870
67.29000 403.464
67.30000 404.683
67.31000 405.832
67.32000 406.382
67.33000 406.796
67.34000 406.561
67.35000 402.864
67.36000 398.655
67.37000 395.311
67.38000 395.035
67.39000 395.032
67.40000 397.989
67.41000 408.115
67.42000 418.560
67.43000 424.004
67.44000 421.188
67.45000 418.248
67.46000 416.709
67.47000 406.355
67.48000 399.396
67.49000 400.609
67.50000 407.685
67.51000 414.626
67.52000 417.106
67.53000 417.418
67.54000 417.715
67.55000 423.106
67.56000 429.662
67.57000 435.681
67.58000 437.234
67.59000 437.787
67.60000 437.563
67.61000 433.265
67.62000 428.376
67.63000 424.509
67.64000 429.182
67.65000 433.526
67.66000 436.804
67.67000 437.544
67.68000 438.174
67.69000 438.957
67.70000 439.990
67.71000 441.026
67.72000 441.563
67.73000 447.431
67.74000 451.395
67.75000 455.539
67.76000 459.811
67.77000 464.114
67.78000 469.416
67.79000 475.194
67.80000 480.683
67.81000 482.217
67.82000 482.442
67.83000 482.171
67.84000 477.869
67.85000 472.680
67.86000 469.411
67.87000 476.012
67.88000 484.012
67.89000 490.315
67.90000 484.636
67.91000 479.279
67.92000 477.164
67.93000 482.636
67.94000 488.421
67.95000 492.816
67.96000 494.991
67.97000 497.138
67.98000 498.241
67.99000 489.617
68.00000 483.917
68.01000 490.971
68.02000 506.847
68.03000 522.318
68.04000 525.509
68.05000 522.937
68.06000 520.497
68.07000 518.854
68.08000 517.575
68.09000 516.686
68.10000 518.902
68.11000 521.787
68.12000 525.317
68.13000 532.099
68.14000 539.333
68.15000 545.009
68.16000 542.662
68.17000 540.263
68.18000 540.041
68.19000 544.829
68.20000 549.816
68.21000 554.547
68.22000 558.877
68.23000 563.202
68.24000 565.403
68.25000 569.066
68.26000 571.531
68.27000 574.975
68.28000 579.085
68.29000 583.119
68.30000 584.962
68.31000 585.794
68.32000 586.581
68.33000 598.868
68.34000 613.510
68.35000 626.044
68.36000 622.164
68.37000 614.809
68.38000 609.972
68.39000 617.593
68.40000 626.906
68.41000 634.182
68.42000 641.052
68.43000 646.507
68.44000 649.700
68.45000 647.776
68.46000 645.656
68.47000 648.599
68.48000 659.335
68.49000 670.156
68.50000 675.607
68.51000 692.765
68.52000 704.204
68.53000 712.740
68.54000 719.338
68.55000 726.230
68.56000 741.319
68.57000 760.126
68.58000 777.901
68.59000 806.369
68.60000 835.555
68.61000 864.795
68.62000 894.439
68.63000 924.167
68.64000 955.189
68.65000 992.496
68.66000 1030.639
68.67000 1060.314
68.68000 1112.962
68.69000 1156.282
68.70000 1200.687
68.71000 1247.503
68.72000 1294.407
68.73000 1339.829
68.74000 1383.012
68.75000 1426.171
68.76000 1471.944
68.77000 1520.317
68.78000 1568.632
68.79000 1611.454
68.80000 1650.675
68.81000 1690.452
68.82000 1745.077
68.83000 1806.322
68.84000 1864.103
68.85000 1959.003
68.86000 2056.348
68.87000 2159.884
68.88000 2309.526
68.89000 2468.568
68.90000 2686.883
68.91000 3187.703
68.92000 3725.217
68.93000 4141.605
68.94000 5863.180
68.95000 7308.153
68.96000 9169.495
68.97000 11940.744
68.98000 14743.973
68.99000 17820.791
69.00000 21303.828
69.01000 24790.584
69.02000 28005.557
69.03000 30955.350
69.04000 33896.379
69.05000 36077.352
69.06000 37768.961
69.07000 39438.402
69.08000 40539.066
69.09000 41390.441
69.10000 42192.215
69.11000 42873.070
69.12000 43462.820
69.13000 44065.344
69.14000 44760.996
69.15000 45475.277
69.16000 46139.816
69.17000 46571.684
69.18000 46973.996
69.19000 47284.285
69.20000 45644.422
69.21000 44232.516
69.22000 42281.977
69.23000 39174.340
69.24000 36027.738
69.25000 33187.922
69.26000 30795.479
69.27000 28407.002
69.28000 26484.428
69.29000 25007.453
69.30000 23537.250
69.31000 22610.719
69.32000 22028.063
69.33000 21455.449
69.34000 21130.572
69.35000 20912.432
69.36000 20707.381
69.37000 20140.910
69.38000 19526.693
69.39000 18811.801
69.40000 17378.912
69.41000 15805.117
69.42000 14168.285
69.43000 12242.049
69.44000 10279.863
69.45000 8773.227
69.46000 7093.281
69.47000 5755.592
69.48000 4602.568
69.49000 3839.492
69.50000 3088.985
69.51000 2499.802
69.52000 2141.658
69.53000 1785.350
69.54000 1552.555
69.55000 1435.552
69.56000 1319.005
69.57000 1236.488
69.58000 1175.116
69.59000 1113.882
69.60000 1055.930
69.61000 999.369
69.62000 946.300
69.63000 914.572
69.64000 891.279
69.65000 868.653
69.66000 850.685
69.67000 833.615
69.68000 815.228
69.69000 790.908
69.70000 765.867
69.71000 746.726
69.72000 721.621
69.73000 701.499
69.74000 686.853
69.75000 683.571
69.76000 680.640
69.77000 672.454
69.78000 656.878
69.79000 641.253
69.80000 631.516
69.81000 627.191
69.82000 622.769
69.83000 611.535
69.84000 596.143
69.85000 581.035
69.86000 572.421
69.87000 566.511
69.88000 560.976
69.89000 553.636
69.90000 546.495
69.91000 538.523
69.92000 524.873
69.93000 510.150
69.94000 497.939
69.95000 496.833
69.96000 497.046
69.97000 497.208
69.98000 493.054
69.99000 489.559
70.00000 487.929
