20.00000 468.178
20.01000 470.782
20.02000 473.758
20.03000 476.826
20.04000 480.252
20.05000 483.715
20.06000 486.272
20.07000 475.923
20.08000 467.356
20.09000 462.225
20.10000 463.380
20.11000 464.669
20.12000 463.003
20.13000 457.708
20.14000 452.412
20.15000 453.725
20.16000 460.288
20.17000 466.815
20.18000 471.764
20.19000 475.864
20.20000 480.056
20.21000 485.881
20.22000 492.305
20.23000 498.233
20.24000 490.759
20.25000 481.071
20.26000 472.541
20.27000 470.821
20.28000 470.214
20.29000 470.561
20.30000 474.604
20.31000 479.016
20.32000 482.257
20.33000 472.181
20.34000 463.846
20.35000 459.273
20.36000 461.464
20.37000 463.792
20.38000 463.253
20.39000 459.260
20.40000 455.268
20.41000 456.966
20.42000 463.095
20.43000 469.092
20.44000 469.525
20.45000 467.021
20.46000 464.662
20.47000 464.783
20.48000 465.799
20.49000 466.735
20.50000 468.962
20.51000 471.237
20.52000 473.051
20.53000 472.214
20.54000 470.951
20.55000 470.968
20.56000 475.848
20.57000 481.201
20.58000 485.114
20.59000 471.731
20.60000 460.726
20.61000 457.688
20.62000 468.724
20.63000 480.028
20.64000 483.910
20.65000 479.014
20.66000 474.114
20.67000 470.601
20.68000 468.169
20.69000 465.713
20.70000 462.309
20.71000 458.413
20.72000 454.935
20.73000 458.392
20.74000 464.310
20.75000 469.746
20.76000 472.499
20.77000 474.380
20.78000 475.611
20.79000 473.172
20.80000 470.158
20.81000 469.248
20.82000 476.199
20.83000 483.896
20.84000 489.495
20.85000 475.621
20.86000 464.205
20.87000 457.915
20.88000 460.521
20.89000 463.288
20.90000 466.736
20.91000 470.977
20.92000 475.208
20.93000 472.501
20.94000 464.607
20.95000 456.908
20.96000 456.666
20.97000 460.226
20.98000 463.406
20.99000 460.466
21.00000 455.392
21.01000 450.740
21.02000 461.029
21.03000 473.331
21.04000 483.491
21.05000 481.780
21.06000 478.246
21.07000 473.483
21.08000 464.209
21.09000 454.518
21.10000 447.506
21.11000 466.450
21.12000 481.940
21.13000 489.605
21.14000 483.919
21.15000 478.009
21.16000 470.818
21.17000 462.169
21.18000 453.545
21.19000 451.462
21.20000 454.210
21.21000 457.019
21.22000 462.040
21.23000 468.170
21.24000 473.750
21.25000 470.749
21.26000 464.805
21.27000 459.370
21.28000 465.130
21.29000 472.554
21.30000 477.470
21.31000 468.762
21.32000 458.004
21.33000 450.486
21.34000 454.646
21.35000 459.860
21.36000 463.613
21.37000 460.521
21.38000 457.912
21.39000 457.350
21.40000 460.217
21.41000 463.139
21.42000 464.699
21.43000 464.741
21.44000 464.781
21.45000 461.806
21.46000 456.680
21.47000 451.843
21.48000 456.987
21.49000 467.049
21.50000 476.341
21.51000 473.966
21.52000 467.661
21.53000 461.908
21.54000 458.631
21.55000 456.223
21.56000 453.673
21.57000 450.364
21.58000 446.943
21.59000 444.397
21.60000 444.950
21.61000 445.776
21.62000 446.367
21.63000 450.888
21.64000 454.474
21.65000 459.780
21.66000 467.919
21.67000 476.100
21.68000 481.976
21.69000 485.328
21.70000 488.666
21.71000 482.778
21.72000 470.410
21.73000 458.322
21.74000 455.439
21.75000 457.013
21.76000 459.002
21.77000 467.083
21.78000 477.182
21.79000 486.375
21.80000 492.546
21.81000 497.412
21.82000 500.983
21.83000 497.790
21.84000 493.621
21.85000 490.906
21.86000 493.252
21.87000 496.031
21.88000 498.010
21.89000 503.717
21.90000 508.187
21.91000 512.911
21.92000 518.047
21.93000 523.188
21.94000 524.194
21.95000 520.760
21.96000 517.339
21.97000 520.522
21.98000 528.260
21.99000 535.684
22.00000 533.237
22.01000 526.089
22.02000 519.717
22.03000 524.403
22.04000 532.689
22.05000 540.213
22.06000 534.261
22.07000 526.395
22.08000 520.707
22.09000 526.184
22.10000 533.236
22.11000 537.222
22.12000 530.722
22.13000 523.349
22.14000 518.127
22.15000 518.447
22.16000 518.864
22.17000 523.203
22.18000 533.781
22.19000 544.438
22.20000 545.866
22.21000 537.578
22.22000 529.329
22.23000 523.733
22.24000 520.010
22.25000 516.290
22.26000 512.670
22.27000 509.098
22.28000 505.257
22.29000 497.703
22.30000 488.962
22.31000 481.042
22.32000 483.937
22.33000 488.538
22.34000 491.828
22.35000 488.523
22.36000 484.307
22.37000 481.643
22.38000 484.194
22.39000 487.167
22.40000 489.263
22.41000 474.479
22.42000 462.765
22.43000 457.800
22.44000 463.375
22.45000 469.076
22.46000 470.572
22.47000 467.730
22.48000 464.903
22.49000 463.650
22.50000 463.465
22.51000 463.330
22.52000 464.622
22.53000 466.569
22.54000 468.005
22.55000 462.541
22.56000 454.908
22.57000 448.010
22.58000 443.752
22.59000 440.497
22.60000 437.891
22.61000 438.487
22.62000 439.516
22.63000 441.913
22.64000 448.832
22.65000 456.107
22.66000 461.204
22.67000 452.136
22.68000 444.872
22.69000 439.214
22.70000 436.024
22.71000 432.860
22.72000 430.101
22.73000 427.750
22.74000 425.413
22.75000 426.929
22.76000 430.953
22.77000 434.927
22.78000 437.514
22.79000 439.472
22.80000 441.470
22.81000 443.971
22.82000 446.629
22.83000 449.025
22.84000 454.192
22.85000 459.232
22.86000 462.064
22.87000 454.214
22.88000 444.949
22.89000 438.035
22.90000 438.745
22.91000 440.040
22.92000 440.942
22.93000 428.593
22.94000 418.912
22.95000 415.437
22.96000 421.316
22.97000 427.289
22.98000 432.486
22.99000 436.915
23.00000 441.315
23.01000 440.650
23.02000 436.734
23.03000 433.085
23.04000 436.537
23.05000 443.147
23.06000 449.092
23.07000 446.594
23.08000 441.532
23.09000 436.980
23.10000 444.825
23.11000 453.903
23.12000 460.607
23.13000 456.027
23.14000 449.988
23.15000 445.683
23.16000 446.907
23.17000 448.543
23.18000 449.677
23.19000 430.146
23.20000 414.903
23.21000 407.620
23.22000 412.120
23.23000 416.729
23.24000 423.064
23.25000 431.077
23.26000 439.033
23.27000 441.246
23.28000 439.795
23.29000 438.301
23.30000 435.723
23.31000 432.669
23.32000 429.700
23.33000 427.766
23.34000 426.142
23.35000 424.685
23.36000 432.378
23.37000 440.698
23.38000 446.056
23.39000 437.600
23.40000 427.397
23.41000 420.639
23.42000 424.675
23.43000 429.495
23.44000 432.814
23.45000 438.757
23.46000 443.285
23.47000 444.289
23.48000 440.172
23.49000 436.012
23.50000 436.245
23.51000 440.663
23.52000 445.047
23.53000 446.871
23.54000 447.078
23.55000 447.262
23.56000 446.861
23.57000 446.209
23.58000 445.667
23.59000 446.447
23.60000 447.614
23.61000 448.658
23.62000 445.152
23.63000 441.317
23.64000 437.313
23.65000 432.532
23.66000 427.655
23.67000 423.493
23.68000 421.535
23.69000 419.733
23.70000 418.498
23.71000 426.573
23.72000 432.843
23.73000 438.872
23.74000 444.558
23.75000 450.239
23.76000 447.837
23.77000 437.886
23.78000 428.017
23.79000 431.003
23.80000 441.751
23.81000 452.110
23.82000 453.294
23.83000 450.602
23.84000 448.480
23.85000 453.038
23.86000 459.520
23.87000 465.305
23.88000 465.438
23.89000 464.610
23.90000 464.532
23.91000 467.823
23.92000 471.522
23.93000 474.756
23.94000 476.583
23.95000 478.314
23.96000 479.492
23.97000 479.085
23.98000 478.744
23.99000 476.493
24.00000 471.566
24.01000 466.625
24.02000 468.801
24.03000 477.497
24.04000 486.114
24.05000 487.812
24.06000 485.347
24.07000 482.640
24.08000 474.426
24.09000 463.926
24.10000 453.973
24.11000 450.271
24.12000 448.339
24.13000 446.619
24.14000 444.582
24.15000 442.761
24.16000 440.077
24.17000 433.590
24.18000 426.653
24.19000 422.718
24.20000 427.713
24.21000 433.300
24.22000 437.082
24.23000 432.619
24.24000 429.115
24.25000 430.552
24.26000 438.792
24.27000 447.068
24.28000 446.254
24.29000 437.277
24.30000 428.386
24.31000 424.897
24.32000 424.643
24.33000 424.500
24.34000 426.804
24.35000 430.107
24.36000 432.896
24.37000 429.969
24.38000 425.453
24.39000 421.444
24.40000 426.794
24.41000 432.927
24.42000 436.501
24.43000 428.991
24.44000 420.201
24.45000 414.493
24.46000 417.798
24.47000 421.682
24.48000 424.296
24.49000 418.275
24.50000 413.621
24.51000 409.547
24.52000 406.255
24.53000 402.970
24.54000 403.589
24.55000 407.646
24.56000 411.661
24.57000 410.273
24.58000 405.809
24.59000 401.812
24.60000 407.668
24.61000 417.476
24.62000 426.686
24.63000 429.409
24.64000 430.360
24.65000 431.201
24.66000 426.423
24.67000 421.410
24.68000 416.852
24.69000 414.223
24.70000 411.811
24.71000 413.278
24.72000 425.891
24.73000 439.201
24.74000 448.099
24.75000 429.582
24.76000 415.315
24.77000 406.375
24.78000 404.502
24.79000 402.667
24.80000 403.300
24.81000 406.065
24.82000 408.800
24.83000 409.028
24.84000 407.838
24.85000 406.851
24.86000 409.994
24.87000 414.766
24.88000 418.819
24.89000 415.272
24.90000 409.686
24.91000 404.754
24.92000 403.922
24.93000 403.833
24.94000 404.634
24.95000 409.150
24.96000 414.076
24.97000 416.339
24.98000 411.080
24.99000 405.366
25.00000 401.569
25.01000 407.245
25.02000 411.619
25.03000 406.470
25.04000 388.913
25.05000 371.337
25.06000 373.138
25.07000 391.369
25.08000 409.383
25.09000 412.729
25.10000 407.876
25.11000 403.308
25.12000 404.341
25.13000 407.546
25.14000 410.670
25.15000 412.962
25.16000 415.035
25.17000 416.860
25.18000 410.007
25.19000 402.805
25.20000 398.341
25.21000 405.096
25.22000 413.059
25.23000 417.366
25.24000 411.520
25.25000 405.078
25.26000 400.825
25.27000 392.301
25.28000 385.940
25.29000 387.351
25.30000 398.700
25.31000 410.072
25.32000 414.419
25.33000 412.923
25.34000 411.446
25.35000 410.009
25.36000 408.631
25.37000 407.273
25.38000 406.283
25.39000 405.433
25.40000 404.829
25.41000 406.709
25.42000 409.231
25.43000 411.446
25.44000 409.284
25.45000 406.784
25.46000 404.854
25.47000 405.214
25.48000 405.815
25.49000 404.739
25.50000 399.088
25.51000 393.178
25.52000 389.299
25.53000 393.436
25.54000 396.612
25.55000 401.969
25.56000 410.063
25.57000 418.149
25.58000 419.720
25.59000 415.973
25.60000 412.277
25.61000 412.174
25.62000 413.989
25.63000 415.192
25.64000 405.128
25.65000 390.843
25.66000 378.203
25.67000 381.702
25.68000 389.305
25.69000 395.960
25.70000 398.566
25.71000 400.219
25.72000 400.588
25.73000 395.879
25.74000 390.649
25.75000 386.152
25.76000 383.623
25.77000 381.202
25.78000 379.624
25.79000 388.795
25.80000 395.693
25.81000 397.748
25.82000 393.838
25.83000 389.922
25.84000 389.542
25.85000 391.993
25.86000 394.410
25.87000 392.123
25.88000 387.442
25.89000 383.027
25.90000 383.352
25.91000 385.421
25.92000 387.595
25.93000 390.774
25.94000 394.203
25.95000 397.197
25.96000 398.471
25.97000 399.321
25.98000 400.055
25.99000 400.345
26.00000 400.590
26.01000 401.378
26.02000 403.599
26.03000 405.895
26.04000 407.382
26.05000 390.306
26.06000 377.533
26.07000 373.368
26.08000 379.607
26.09000 385.862
26.10000 390.080
26.11000 392.698
26.12000 395.276
26.13000 397.737
26.14000 400.062
26.15000 401.939
26.16000 396.093
26.17000 387.451
26.18000 379.934
26.19000 382.940
26.20000 388.528
26.21000 393.391
26.22000 403.574
26.23000 412.996
26.24000 418.498
26.25000 409.051
26.26000 398.143
26.27000 389.008
26.28000 384.467
26.29000 380.161
26.30000 377.390
26.31000 384.278
26.32000 389.440
26.33000 391.284
26.34000 389.190
26.35000 387.095
26.36000 386.359
26.37000 386.671
26.38000 386.978
26.39000 390.658
26.40000 395.920
26.41000 400.351
26.42000 390.917
26.43000 376.550
26.44000 363.781
26.45000 365.607
26.46000 370.949
26.47000 375.584
26.48000 377.709
26.49000 379.184
26.50000 380.466
26.51000 381.028
26.52000 381.521
26.53000 381.505
26.54000 380.192
26.55000 378.814
26.56000 377.933
26.57000 375.427
26.58000 373.582
26.59000 373.218
26.60000 374.575
26.61000 375.957
26.62000 381.977
26.63000 391.511
26.64000 400.882
26.65000 396.639
26.66000 385.806
26.67000 375.600
26.68000 375.515
26.69000 378.969
26.70000 381.958
26.71000 380.805
26.72000 378.671
26.73000 376.825
26.74000 380.960
26.75000 385.259
26.76000 388.239
26.77000 386.366
26.78000 384.043
26.79000 381.870
26.80000 380.073
26.81000 378.293
26.82000 377.163
26.83000 381.981
26.84000 385.552
26.85000 385.210
26.86000 380.404
26.87000 375.615
26.88000 374.993
26.89000 377.470
26.90000 379.904
26.91000 380.112
26.92000 379.233
26.93000 378.271
26.94000 375.996
26.95000 373.270
26.96000 370.323
26.97000 365.449
26.98000 360.129
26.99000 355.540
27.00000 365.944
27.01000 376.687
27.02000 386.536
27.03000 393.152
27.04000 399.476
27.05000 401.922
27.06000 394.816
27.07000 387.269
27.08000 382.510
27.09000 378.462
27.10000 375.540
27.11000 372.431
27.12000 369.113
27.13000 365.831
27.14000 368.734
27.15000 376.154
27.16000 383.433
27.17000 384.232
27.18000 381.917
27.19000 379.637
27.20000 377.886
27.21000 376.314
27.22000 375.417
27.23000 380.270
27.24000 386.434
27.25000 391.735
27.26000 388.908
27.27000 385.500
27.28000 382.310
27.29000 379.892
27.30000 377.542
27.31000 374.887
27.32000 371.494
27.33000 368.068
27.34000 365.922
27.35000 370.716
27.36000 374.252
27.37000 378.488
27.38000 383.493
27.39000 388.445
27.40000 385.502
27.41000 376.896
27.42000 368.461
27.43000 368.238
27.44000 371.861
27.45000 375.355
27.46000 376.939
27.47000 377.889
27.48000 378.973
27.49000 381.166
27.50000 383.608
27.51000 385.701
27.52000 382.841
27.53000 379.820
27.54000 379.346
27.55000 387.762
27.56000 396.941
27.57000 399.895
27.58000 388.036
27.59000 375.541
27.60000 367.770
27.61000 364.894
27.62000 362.871
27.63000 359.964
27.64000 356.104
27.65000 352.298
27.66000 355.759
27.67000 364.338
27.68000 372.737
27.69000 371.475
27.70000 365.831
27.71000 360.763
27.72000 363.921
27.73000 369.764
27.74000 374.450
27.75000 369.722
27.76000 362.925
27.77000 357.117
27.78000 359.412
27.79000 362.313
27.80000 364.355
27.81000 363.456
27.82000 362.311
27.83000 362.760
27.84000 366.938
27.85000 371.270
27.86000 373.945
27.87000 375.664
27.88000 376.890
27.89000 376.252
27.90000 373.645
27.91000 371.071
27.92000 372.571
27.93000 376.888
27.94000 381.111
27.95000 378.854
27.96000 373.773
27.97000 368.892
27.98000 366.785
27.99000 365.568
28.00000 364.639
28.01000 366.005
28.02000 367.867
28.03000 369.452
28.04000 366.955
28.05000 364.380
28.06000 363.748
28.07000 369.661
28.08000 376.107
28.09000 379.586
28.10000 376.243
28.11000 372.629
28.12000 370.413
28.13000 368.260
28.14000 366.718
28.15000 365.176
28.16000 363.633
28.17000 362.110
28.18000 362.795
28.19000 364.977
28.20000 367.110
28.21000 366.315
28.22000 364.260
28.23000 362.495
28.24000 364.655
28.25000 368.052
28.26000 370.304
28.27000 363.655
28.28000 355.123
28.29000 347.880
28.30000 357.586
28.31000 367.658
28.32000 374.018
28.33000 368.092
28.34000 361.194
28.35000 357.017
28.36000 358.996
28.37000 361.208
28.38000 362.555
28.39000 363.824
28.40000 364.729
28.41000 365.525
28.42000 366.209
28.43000 366.901
28.44000 368.353
28.45000 370.312
28.46000 372.223
28.47000 370.977
28.48000 368.418
28.49000 365.851
28.50000 363.177
28.51000 360.470
28.52000 357.393
28.53000 351.508
28.54000 345.040
28.55000 339.567
28.56000 342.318
28.57000 345.533
28.58000 349.094
28.59000 353.779
28.60000 358.551
28.61000 362.148
28.62000 363.131
28.63000 364.018
28.64000 364.554
28.65000 363.029
28.66000 361.928
28.67000 360.270
28.68000 358.058
28.69000 355.830
28.70000 352.019
28.71000 347.173
28.72000 342.449
28.73000 345.090
28.74000 350.743
28.75000 355.896
28.76000 354.659
28.77000 351.477
28.78000 348.352
28.79000 345.657
28.80000 343.049
28.81000 340.850
28.82000 342.229
28.83000 343.768
28.84000 345.974
28.85000 350.308
28.86000 354.802
28.87000 356.528
28.88000 352.209
28.89000 347.679
28.90000 344.962
28.91000 340.105
28.92000 336.641
28.93000 334.864
28.94000 334.730
28.95000 334.636
28.96000 337.972
28.97000 343.516
28.98000 348.913
28.99000 345.624
29.00000 338.864
29.01000 333.055
29.02000 339.075
29.03000 348.632
29.04000 356.533
29.05000 352.372
29.06000 345.799
29.07000 340.274
29.08000 345.628
29.09000 351.241
29.10000 354.643
29.11000 351.103
29.12000 347.056
29.13000 344.459
29.14000 344.974
29.15000 345.594
29.16000 345.962
29.17000 353.955
29.18000 359.663
29.19000 362.064
29.20000 361.306
29.21000 360.494
29.22000 355.418
29.23000 347.645
29.24000 340.086
29.25000 340.287
29.26000 343.657
29.27000 346.650
29.28000 345.081
29.29000 342.172
29.30000 340.327
29.31000 346.070
29.32000 353.302
29.33000 359.360
29.34000 358.002
29.35000 356.107
29.36000 353.573
29.37000 349.065
29.38000 344.417
29.39000 341.507
29.40000 342.269
29.41000 343.148
29.42000 343.668
29.43000 334.932
29.44000 328.713
29.45000 329.680
29.46000 337.379
29.47000 345.030
29.48000 349.041
29.49000 350.793
29.50000 352.494
29.51000 354.493
29.52000 356.511
29.53000 357.821
29.54000 350.795
29.55000 341.361
29.56000 333.111
29.57000 333.119
29.58000 334.716
29.59000 336.049
29.60000 339.375
29.61000 342.336
29.62000 345.888
29.63000 351.235
29.64000 356.706
29.65000 359.024
29.66000 354.803
29.67000 350.380
29.68000 347.788
29.69000 355.657
29.70000 361.248
29.71000 362.707
29.72000 360.368
29.73000 358.041
29.74000 356.561
29.75000 355.598
29.76000 354.663
29.77000 356.688
29.78000 359.776
29.79000 362.652
29.80000 363.116
29.81000 362.895
29.82000 363.712
29.83000 371.623
29.84000 380.873
29.85000 388.568
29.86000 383.916
29.87000 378.853
29.88000 376.792
29.89000 383.682
29.90000 391.169
29.91000 395.660
29.92000 394.038
29.93000 392.237
29.94000 391.190
29.95000 387.958
29.96000 385.680
29.97000 386.473
29.98000 390.031
29.99000 393.568
30.00000 395.669
30.01000 396.910
30.02000 398.113
30.03000 397.498
30.04000 396.211
30.05000 394.800
30.06000 391.984
30.07000 388.778
30.08000 385.749
30.09000 383.907
30.10000 382.285
30.11000 380.941
30.12000 378.685
30.13000 376.734
30.14000 374.233
30.15000 370.121
30.16000 365.904
30.17000 365.331
30.18000 372.062
30.19000 378.998
30.20000 382.999
30.21000 371.734
30.22000 363.789
30.23000 359.171
30.24000 357.492
30.25000 355.949
30.26000 362.706
30.27000 374.351
30.28000 385.618
30.29000 378.254
30.30000 364.219
30.31000 351.307
30.32000 350.623
30.33000 353.287
30.34000 355.946
30.35000 358.572
30.36000 361.192
30.37000 363.356
30.38000 359.038
30.39000 354.876
30.40000 352.595
30.41000 355.737
30.42000 359.218
30.43000 362.228
30.44000 364.307
30.45000 366.362
30.46000 367.537
30.47000 361.796
30.48000 357.771
30.49000 360.467
30.50000 368.987
30.51000 377.402
30.52000 379.844
30.53000 378.828
30.54000 377.846
30.55000 371.650
30.56000 363.864
30.57000 356.750
30.58000 356.771
30.59000 358.712
30.60000 360.276
30.61000 359.419
30.62000 358.131
30.63000 357.071
30.64000 353.713
30.65000 350.742
30.66000 349.040
30.67000 350.929
30.68000 353.037
30.69000 355.968
30.70000 360.490
30.71000 365.054
30.72000 367.643
30.73000 373.917
30.74000 378.291
30.75000 379.889
30.76000 379.125
30.77000 378.335
30.78000 376.141
30.79000 373.149
30.80000 370.261
30.81000 371.460
30.82000 374.082
30.83000 377.229
30.84000 385.798
30.85000 395.801
30.86000 405.432
30.87000 412.732
30.88000 419.626
30.89000 425.278
30.90000 421.417
30.91000 417.406
30.92000 416.137
30.93000 422.499
30.94000 429.311
30.95000 433.314
30.96000 431.969
30.97000 430.495
30.98000 429.666
30.99000 455.827
31.00000 474.053
31.01000 489.893
31.02000 503.742
31.03000 517.606
31.04000 532.201
31.05000 547.204
31.06000 561.661
31.07000 583.161
31.08000 605.889
31.09000 628.611
31.10000 651.268
31.11000 673.908
31.12000 697.815
31.13000 729.519
31.14000 762.557
31.15000 789.546
31.16000 829.686
31.17000 863.677
31.18000 899.129
31.19000 938.581
31.20000 978.260
31.21000 1020.574
31.22000 1067.817
31.23000 1115.173
31.24000 1141.600
31.25000 1195.316
31.26000 1232.531
31.27000 1259.839
31.28000 1279.038
31.29000 1298.248
31.30000 1317.997
31.31000 1338.042
31.32000 1357.328
31.33000 1377.750
31.34000 1397.302
31.35000 1414.662
31.36000 1410.432
31.37000 1400.698
31.38000 1390.116
31.39000 1374.427
31.40000 1357.881
31.41000 1344.416
31.42000 1326.793
31.43000 1312.051
31.44000 1289.962
31.45000 1248.109
31.46000 1205.166
31.47000 1165.796
31.48000 1132.996
31.49000 1100.338
31.50000 1082.269
31.51000 1022.307
31.52000 980.833
31.53000 933.357
31.54000 881.060
31.55000 829.156
31.56000 794.922
31.57000 770.229
31.58000 746.506
31.59000 709.365
31.60000 669.961
31.61000 631.513
31.62000 602.272
31.63000 575.336
31.64000 550.491
31.65000 538.017
31.66000 527.576
31.67000 519.112
31.68000 494.958
31.69000 473.994
31.70000 455.575
31.71000 443.885
31.72000 432.554
31.73000 426.273
31.74000 429.117
31.75000 432.149
31.76000 433.811
31.77000 409.197
31.78000 392.270
31.79000 389.313
31.80000 397.369
31.81000 405.258
31.82000 405.988
31.83000 402.920
31.84000 399.976
31.85000 391.986
31.86000 382.808
31.87000 374.101
31.88000 369.819
31.89000 366.625
31.90000 363.891
31.91000 363.819
31.92000 364.177
31.93000 364.465
31.94000 352.907
31.95000 342.567
31.96000 337.370
31.97000 345.544
31.98000 354.406
31.99000 360.105
32.00000 360.184
32.01000 360.155
32.02000 360.138
32.03000 354.419
32.04000 350.500
32.05000 349.470
32.06000 350.675
32.07000 351.759
32.08000 347.907
32.09000 341.483
32.10000 335.329
32.11000 332.245
32.12000 330.390
32.13000 329.024
32.14000 332.135
32.15000 336.327
32.16000 339.367
32.17000 335.862
32.18000 331.325
32.19000 327.675
32.20000 327.987
32.21000 328.547
32.22000 328.652
32.23000 327.596
32.24000 326.482
32.25000 326.531
32.26000 328.608
32.27000 330.722
32.28000 331.861
32.29000 331.830
32.30000 331.809
32.31000 332.027
32.32000 332.428
32.33000 332.843
32.34000 333.788
32.35000 335.006
32.36000 336.171
32.37000 334.303
32.38000 331.576
32.39000 328.750
32.40000 325.043
32.41000 321.128
32.42000 317.743
32.43000 317.313
32.44000 317.338
32.45000 317.358
32.46000 319.053
32.47000 320.551
32.48000 321.353
32.49000 320.405
32.50000 319.373
32.51000 317.909
32.52000 315.702
32.53000 313.483
32.54000 312.298
32.55000 308.593
32.56000 306.086
32.57000 307.461
32.58000 311.730
32.59000 315.994
32.60000 320.088
32.61000 324.097
32.62000 327.926
32.63000 323.856
32.64000 317.547
32.65000 311.299
32.66000 305.588
32.67000 300.002
32.68000 296.125
32.69000 301.585
32.70000 308.458
32.71000 313.943
32.72000 316.733
32.73000 318.788
32.74000 318.734
32.75000 313.472
32.76000 307.969
32.77000 305.541
32.78000 308.293
32.79000 311.128
32.80000 312.628
32.81000 321.444
32.82000 327.412
32.83000 328.967
32.84000 327.290
32.85000 325.634
32.86000 324.727
32.87000 324.191
32.88000 323.680
32.89000 327.630
32.90000 332.695
32.91000 336.497
32.92000 329.510
32.93000 320.058
32.94000 312.161
32.95000 312.596
32.96000 314.267
32.97000 315.595
32.98000 311.146
32.99000 307.149
33.00000 306.427
33.01000 313.652
33.02000 321.233
33.03000 323.084
33.04000 315.451
33.05000 307.675
33.06000 303.599
33.07000 307.322
33.08000 309.841
33.09000 311.544
33.10000 312.661
33.11000 313.651
33.12000 310.384
33.13000 305.045
33.14000 299.963
33.15000 299.854
33.16000 301.285
33.17000 302.615
33.18000 303.094
33.19000 303.383
33.20000 303.805
33.21000 304.932
33.22000 306.161
33.23000 307.135
33.24000 310.684
33.25000 313.715
33.26000 314.603
33.27000 310.381
33.28000 305.938
33.29000 302.530
33.30000 300.807
33.31000 299.107
33.32000 298.224
33.33000 302.846
33.34000 305.955
33.35000 307.335
33.36000 307.493
33.37000 307.530
33.38000 303.696
33.39000 298.010
33.40000 292.608
33.41000 295.141
33.42000 299.880
33.43000 303.936
33.44000 302.418
33.45000 299.672
33.46000 297.234
33.47000 296.382
33.48000 295.757
33.49000 295.263
33.50000 298.508
33.51000 301.361
33.52000 301.557
33.53000 295.518
33.54000 289.221
33.55000 288.219
33.56000 295.680
33.57000 303.251
33.58000 307.146
33.59000 305.120
33.60000 303.763
33.61000 303.182
33.62000 303.140
33.63000 303.044
33.64000 301.322
33.65000 298.836
33.66000 296.477
33.67000 294.379
33.68000 292.521
33.69000 291.084
33.70000 293.005
33.71000 295.652
33.72000 297.527
33.73000 295.505
33.74000 292.940
33.75000 290.926
33.76000 292.814
33.77000 294.580
33.78000 296.923
33.79000 300.599
33.80000 304.327
33.81000 304.484
33.82000 299.033
33.83000 293.514
33.84000 290.703
33.85000 291.617
33.86000 292.233
33.87000 293.125
33.88000 294.206
33.89000 295.503
33.90000 303.101
33.91000 313.613
33.92000 323.568
33.93000 319.524
33.94000 311.730
33.95000 305.022
33.96000 306.792
33.97000 310.361
33.98000 313.567
33.99000 314.970
34.00000 316.129
34.01000 317.035
34.02000 326.533
34.03000 334.659
34.04000 338.571
34.05000 332.934
34.06000 326.930
34.07000 321.191
34.08000 315.858
34.09000 310.529
34.10000 307.842
34.11000 317.901
34.12000 324.582
34.13000 326.670
34.14000 325.685
34.15000 324.800
34.16000 326.670
34.17000 329.794
34.18000 332.747
34.19000 335.667
34.20000 338.339
34.21000 341.058
34.22000 344.140
34.23000 347.298
34.24000 349.684
34.25000 348.314
34.26000 346.443
34.27000 344.987
34.28000 339.304
34.29000 334.519
34.30000 331.656
34.31000 333.078
34.32000 334.657
34.33000 336.817
34.34000 339.856
34.35000 342.904
34.36000 346.040
34.37000 349.264
34.38000 352.432
34.39000 350.129
34.40000 344.233
34.41000 338.495
34.42000 336.990
34.43000 337.376
34.44000 337.740
34.45000 339.119
34.46000 340.667
34.47000 342.168
34.48000 343.319
34.49000 344.398
34.50000 344.871
34.51000 342.447
34.52000 339.647
34.53000 337.477
34.54000 345.468
34.55000 352.423
34.56000 354.849
34.57000 347.355
34.58000 339.511
34.59000 332.500
34.60000 326.728
34.61000 320.968
34.62000 316.167
34.63000 312.305
34.64000 308.463
34.65000 306.304
34.66000 305.231
34.67000 303.964
34.68000 297.689
34.69000 289.215
34.70000 281.232
34.71000 290.657
34.72000 304.057
34.73000 315.657
34.74000 314.099
34.75000 309.902
34.76000 305.775
34.77000 301.975
34.78000 298.217
34.79000 295.317
34.80000 292.173
34.81000 289.667
34.82000 288.925
34.83000 291.980
34.84000 295.163
34.85000 297.087
34.86000 297.170
34.87000 297.237
34.88000 296.744
34.89000 295.716
34.90000 294.707
34.91000 295.257
34.92000 296.795
34.93000 298.002
34.94000 290.995
34.95000 280.442
34.96000 270.519
34.97000 269.539
34.98000 271.050
34.99000 273.200
35.00000 279.914
35.01000 287.526
35.02000 293.411
35.03000 291.345
35.04000 288.289
35.05000 285.942
35.06000 284.843
35.07000 284.044
35.08000 281.169
35.09000 273.900
35.10000 266.488
35.11000 262.447
35.12000 263.243
35.13000 264.076
35.14000 265.782
35.15000 268.307
35.16000 270.788
35.17000 270.014
35.18000 267.213
35.19000 264.469
35.20000 263.108
35.21000 262.334
35.22000 261.607
35.23000 269.755
35.24000 279.524
35.25000 287.785
35.26000 285.486
35.27000 281.149
35.28000 277.621
35.29000 277.751
35.30000 278.327
35.31000 278.767
35.32000 275.674
35.33000 273.041
35.34000 270.579
35.35000 268.471
35.36000 266.373
35.37000 264.053
35.38000 261.419
35.39000 258.783
35.40000 261.907
35.41000 270.330
35.42000 278.629
35.43000 278.164
35.44000 272.338
35.45000 266.602
35.46000 262.934
35.47000 260.130
35.48000 257.503
35.49000 260.132
35.50000 263.883
35.51000 267.639
35.52000 271.434
35.53000 275.236
35.54000 277.917
35.55000 275.623
35.56000 272.736
35.57000 270.539
35.58000 267.913
35.59000 265.824
35.60000 265.066
35.61000 267.029
35.62000 269.072
35.63000 268.927
35.64000 265.753
35.65000 262.561
35.66000 263.421
35.67000 267.937
35.68000 272.373
35.69000 271.611
35.70000 267.725
35.71000 264.242
35.72000 269.705
35.73000 278.836
35.74000 287.373
35.75000 279.677
35.76000 268.572
35.77000 259.095
35.78000 260.542
35.79000 264.018
35.80000 266.865
35.81000 266.972
35.82000 266.761
35.83000 266.601
35.84000 268.960
35.85000 270.941
35.86000 270.322
35.87000 264.478
35.88000 258.486
35.89000 256.007
35.90000 258.301
35.91000 260.622
35.92000 260.717
35.93000 258.841
35.94000 256.982
35.95000 256.065
35.96000 255.706
35.97000 255.305
35.98000 254.001
35.99000 252.332
36.00000 250.776
36.01000 254.417
36.02000 259.008
36.03000 263.044
36.04000 263.433
36.05000 263.158
36.06000 263.167
36.07000 264.388
36.08000 265.747
36.09000 266.772
36.10000 262.245
36.11000 258.424
36.12000 255.759
36.13000 255.376
36.14000 255.054
36.15000 255.180
36.16000 255.902
36.17000 256.628
36.18000 255.230
36.19000 251.994
36.20000 248.849
36.21000 250.927
36.22000 256.035
36.23000 261.019
36.24000 263.433
36.25000 264.828
36.26000 266.128
36.27000 263.108
36.28000 259.324
36.29000 256.146
36.30000 256.866
36.31000 258.282
36.32000 260.522
36.33000 266.221
36.34000 272.304
36.35000 276.871
36.36000 265.027
36.37000 254.989
36.38000 250.999
36.39000 258.750
36.40000 266.803
36.41000 268.201
36.42000 260.882
36.43000 253.531
36.44000 250.820
36.45000 252.063
36.46000 253.285
36.47000 253.362
36.48000 252.785
36.49000 252.017
36.50000 247.434
36.51000 241.365
36.52000 235.726
36.53000 238.612
36.54000 243.254
36.55000 247.421
36.56000 248.586
36.57000 249.226
36.58000 250.238
36.59000 252.784
36.60000 255.496
36.61000 257.523
36.62000 255.033
36.63000 252.883
36.64000 252.137
36.65000 254.072
36.66000 256.072
36.67000 258.824
36.68000 262.543
36.69000 266.262
36.70000 267.076
36.71000 265.464
36.72000 263.861
36.73000 262.655
36.74000 261.673
36.75000 261.031
36.76000 266.920
36.77000 275.311
36.78000 283.092
36.79000 281.814
36.80000 278.539
36.81000 275.644
36.82000 275.094
36.83000 274.947
36.84000 274.637
36.85000 273.666
36.86000 272.625
36.87000 271.851
36.88000 283.518
36.89000 293.146
36.90000 297.231
36.91000 290.919
36.92000 284.366
36.93000 282.273
36.94000 285.807
36.95000 289.356
36.96000 290.479
36.97000 289.617
36.98000 288.813
36.99000 290.852
37.00000 294.457
37.01000 297.695
37.02000 294.110
37.03000 287.955
37.04000 282.260
37.05000 284.507
37.06000 288.352
37.07000 291.051
37.08000 286.817
37.09000 281.416
37.10000 278.179
37.11000 283.540
37.12000 289.789
37.13000 294.413
37.14000 290.783
37.15000 287.612
37.16000 284.644
37.17000 282.051
37.18000 279.467
37.19000 280.858
37.20000 287.174
37.21000 293.493
37.22000 290.024
37.23000 278.718
37.24000 267.573
37.25000 263.766
37.26000 263.931
37.27000 264.158
37.28000 265.490
37.29000 267.231
37.30000 268.838
37.31000 270.027
37.32000 270.999
37.33000 272.020
37.34000 273.335
37.35000 274.698
37.36000 274.937
37.37000 270.790
37.38000 266.200
37.39000 262.821
37.40000 272.064
37.41000 279.742
37.42000 281.770
37.43000 273.562
37.44000 265.142
37.45000 258.924
37.46000 255.381
37.47000 251.852
37.48000 252.068
37.49000 255.231
37.50000 258.281
37.51000 256.522
37.52000 252.205
37.53000 248.380
37.54000 253.113
37.55000 260.961
37.56000 268.192
37.57000 264.033
37.58000 257.797
37.59000 252.655
37.60000 253.885
37.61000 256.144
37.62000 257.576
37.63000 255.839
37.64000 253.791
37.65000 252.291
37.66000 252.290
37.67000 252.349
37.68000 253.201
37.69000 255.462
37.70000 257.751
37.71000 258.906
37.72000 258.707
37.73000 258.507
37.74000 258.308
37.75000 258.111
37.76000 257.995
37.77000 261.197
37.78000 266.134
37.79000 270.706
37.80000 269.125
37.81000 265.344
37.82000 261.868
37.83000 259.542
37.84000 257.713
37.85000 255.771
37.86000 253.189
37.87000 250.506
37.88000 248.761
37.89000 250.550
37.90000 252.677
37.91000 254.228
37.92000 257.382
37.93000 259.873
37.94000 260.497
37.95000 257.851
37.96000 255.146
37.97000 254.588
37.98000 256.541
37.99000 258.493
38.00000 260.832
38.01000 263.449
38.02000 265.929
38.03000 263.094
38.04000 257.528
38.05000 252.361
38.06000 253.698
38.07000 257.321
38.08000 260.646
38.09000 268.916
38.10000 277.337
38.11000 284.135
38.12000 281.862
38.13000 278.183
38.14000 274.946
38.15000 273.345
38.16000 271.896
38.17000 270.846
38.18000 272.498
38.19000 273.868
38.20000 277.114
38.21000 283.584
38.22000 290.110
38.23000 291.691
38.24000 287.595
38.25000 283.505
38.26000 288.096
38.27000 299.100
38.28000 309.883
38.29000 312.548
38.30000 311.113
38.31000 310.498
38.32000 322.852
38.33000 339.687
38.34000 355.097
38.35000 368.600
38.36000 380.216
38.37000 391.821
38.38000 403.371
38.39000 414.912
38.40000 430.913
38.41000 463.125
38.42000 496.814
38.43000 521.121
38.44000 532.316
38.45000 540.428
38.46000 556.198
38.47000 584.902
38.48000 613.815
38.49000 644.509
38.50000 677.206
38.51000 709.797
38.52000 747.105
38.53000 787.546
38.54000 828.016
38.55000 869.462
38.56000 911.393
38.57000 952.095
38.58000 973.966
38.59000 989.441
38.60000 1003.575
38.61000 1039.800
38.62000 1076.455
38.63000 1111.426
38.64000 1137.347
38.65000 1161.924
38.66000 1184.556
38.67000 1200.249
38.68000 1215.324
38.69000 1226.144
38.70000 1221.297
38.71000 1217.051
38.72000 1205.693
38.73000 1182.531
38.74000 1159.190
38.75000 1145.050
38.76000 1141.069
38.77000 1137.110
38.78000 1123.464
38.79000 1103.022
38.80000 1082.338
38.81000 1053.510
38.82000 1020.707
38.83000 987.540
38.84000 948.945
38.85000 908.538
38.86000 871.720
38.87000 828.192
38.88000 788.292
38.89000 749.320
38.90000 715.232
38.91000 681.855
38.92000 647.785
38.93000 611.280
38.94000 574.564
38.95000 548.352
38.96000 519.030
38.97000 496.559
38.98000 472.662
38.99000 446.439
39.00000 420.184
39.01000 400.437
39.02000 387.739
39.03000 375.097
39.04000 358.180
39.05000 338.437
39.06000 318.968
39.07000 308.308
39.08000 301.874
39.09000 295.428
39.10000 288.825
39.11000 282.170
39.12000 276.120
39.13000 274.252
39.14000 273.417
39.15000 272.671
39.16000 272.379
39.17000 272.152
39.18000 269.996
39.19000 261.195
39.20000 251.833
39.21000 245.186
39.22000 251.707
39.23000 257.088
39.24000 259.644
39.25000 257.675
39.26000 255.647
39.27000 249.242
39.28000 238.188
39.29000 227.186
39.30000 225.927
39.31000 231.382
39.32000 236.637
39.33000 235.770
39.34000 232.016
39.35000 228.677
39.36000 231.158
39.37000 235.515
39.38000 239.467
39.39000 234.957
39.40000 229.359
39.41000 224.665
39.42000 224.561
39.43000 225.096
39.44000 226.023
39.45000 228.276
39.46000 230.637
39.47000 232.305
39.48000 231.736
39.49000 231.236
39.50000 230.831
39.51000 230.577
39.52000 230.325
39.53000 228.682
39.54000 225.591
39.55000 222.516
39.56000 223.469
39.57000 227.128
39.58000 230.693
39.59000 231.502
39.60000 231.033
39.61000 230.675
39.62000 231.824
39.63000 233.451
39.64000 234.923
39.65000 232.927
39.66000 230.519
39.67000 228.698
39.68000 229.794
39.69000 231.287
39.70000 232.119
39.71000 230.750
39.72000 229.206
39.73000 228.121
39.74000 227.748
39.75000 227.486
39.76000 227.606
39.77000 228.314
39.78000 229.029
39.79000 229.247
39.80000 228.958
39.81000 228.670
39.82000 227.253
39.83000 225.108
39.84000 222.928
39.85000 219.768
39.86000 216.163
39.87000 213.172
39.88000 218.328
39.89000 226.020
39.90000 232.962
39.91000 237.758
39.92000 241.577
39.93000 244.057
39.94000 240.004
39.95000 235.077
39.96000 230.391
39.97000 226.490
39.98000 222.650
39.99000 219.968
40.00000 223.307
40.01000 225.999
40.02000 229.284
40.03000 233.470
40.04000 237.666
40.05000 235.904
40.06000 228.184
40.07000 220.512
40.08000 218.947
40.09000 221.371
40.10000 223.704
40.11000 223.574
40.12000 222.342
40.13000 221.716
40.14000 228.889
40.15000 238.449
40.16000 247.056
40.17000 241.254
40.18000 233.578
40.19000 226.924
40.20000 225.161
40.21000 224.037
40.22000 222.268
40.23000 218.425
40.24000 214.426
40.25000 211.648
40.26000 219.008
40.27000 224.825
40.28000 226.888
40.29000 223.348
40.30000 219.755
40.31000 217.411
40.32000 216.293
40.33000 215.182
40.34000 216.998
40.35000 220.651
40.36000 224.198
40.37000 225.002
40.38000 224.599
40.39000 224.364
40.40000 226.237
40.41000 228.744
40.42000 230.996
40.43000 225.038
40.44000 218.383
40.45000 212.726
40.46000 211.766
40.47000 211.406
40.48000 211.367
40.49000 212.339
40.50000 213.384
40.51000 214.106
40.52000 210.807
40.53000 208.225
40.54000 208.931
40.55000 214.454
40.56000 220.020
40.57000 223.015
40.58000 223.540
40.59000 224.061
40.60000 226.541
40.61000 230.205
40.62000 233.659
40.63000 231.885
40.64000 227.848
40.65000 224.001
40.66000 222.474
40.67000 221.633
40.68000 220.879
40.69000 217.697
40.70000 214.501
40.71000 213.008
40.72000 219.373
40.73000 226.719
40.74000 230.935
40.75000 225.436
40.76000 219.244
40.77000 214.992
40.78000 213.077
40.79000 211.698
40.80000 209.648
40.81000 206.633
40.82000 203.611
40.83000 204.089
40.84000 207.864
40.85000 211.609
40.86000 215.962
40.87000 220.609
40.88000 224.829
40.89000 218.793
40.90000 208.394
40.91000 199.168
40.92000 203.872
40.93000 212.620
40.94000 220.435
40.95000 214.936
40.96000 207.900
40.97000 203.113
40.98000 208.515
40.99000 215.161
41.00000 218.797
41.01000 213.255
41.02000 207.078
41.03000 202.861
41.04000 203.180
41.05000 203.525
41.06000 206.892
41.07000 214.530
41.08000 222.196
41.09000 222.517
41.10000 216.053
41.11000 209.644
41.12000 212.284
41.13000 220.319
41.14000 227.813
41.15000 222.814
41.16000 212.589
41.17000 203.213
41.18000 203.647
41.19000 206.878
41.20000 209.758
41.21000 206.470
41.22000 202.593
41.23000 200.319
41.24000 205.170
41.25000 210.871
41.26000 215.105
41.27000 214.942
41.28000 214.484
41.29000 214.173
41.30000 216.221
41.31000 217.801
41.32000 217.042
41.33000 213.038
41.34000 209.015
41.35000 208.281
41.36000 210.526
41.37000 212.750
41.38000 213.210
41.39000 212.620
41.40000 212.130
41.41000 213.849
41.42000 216.477
41.43000 218.653
41.44000 215.741
41.45000 211.404
41.46000 207.550
41.47000 206.593
41.48000 206.230
41.49000 206.385
41.50000 208.798
41.51000 211.475
41.52000 212.783
41.53000 210.058
41.54000 207.069
41.55000 205.053
41.56000 208.843
41.57000 211.786
41.58000 210.308
41.59000 202.807
41.60000 195.280
41.61000 198.055
41.62000 209.982
41.63000 221.788
41.64000 221.981
41.65000 215.440
41.66000 209.001
41.67000 204.754
41.68000 201.394
41.69000 198.558
41.70000 201.479
41.71000 205.984
41.72000 209.977
41.73000 203.875
41.74000 196.997
41.75000 192.270
41.76000 196.752
41.77000 202.286
41.78000 206.586
41.79000 207.313
41.80000 207.814
41.81000 208.150
41.82000 216.106
41.83000 222.164
41.84000 221.858
41.85000 213.041
41.86000 204.187
41.87000 201.474
41.88000 204.113
41.89000 206.724
41.90000 210.916
41.91000 215.911
41.92000 220.676
41.93000 220.684
41.94000 218.802
41.95000 217.087
41.96000 217.172
41.97000 217.742
41.98000 218.247
41.99000 217.022
42.00000 215.697
42.01000 214.996
42.02000 216.922
42.03000 219.140
42.04000 219.039
42.05000 212.340
42.06000 205.236
42.07000 200.502
42.08000 200.850
42.09000 201.205
42.10000 201.863
42.11000 202.917
42.12000 203.971
42.13000 203.593
42.14000 201.990
42.15000 200.406
42.16000 205.280
42.17000 213.640
42.18000 221.409
42.19000 217.369
42.20000 208.716
42.21000 200.688
42.22000 199.186
42.23000 199.417
42.24000 199.620
42.25000 198.350
42.26000 197.033
42.27000 197.052
42.28000 202.595
42.29000 208.739
42.30000 212.845
42.31000 211.254
42.32000 209.324
42.33000 208.046
42.34000 213.916
42.35000 218.380
42.36000 217.845
42.37000 210.864
42.38000 203.869
42.39000 202.335
42.40000 205.383
42.41000 208.393
42.42000 208.103
42.43000 206.014
42.44000 204.043
42.45000 204.344
42.46000 205.518
42.47000 206.909
42.48000 210.518
42.49000 214.704
42.50000 218.384
42.51000 209.607
42.52000 200.214
42.53000 193.603
42.54000 198.278
42.55000 204.151
42.56000 207.920
42.57000 205.902
42.58000 203.550
42.59000 202.003
42.60000 203.469
42.61000 204.600
42.62000 204.854
42.63000 203.998
42.64000 203.142
42.65000 203.581
42.66000 205.087
42.67000 206.574
42.68000 205.017
42.69000 201.866
42.70000 198.996
42.71000 201.346
42.72000 205.667
42.73000 209.453
42.74000 207.934
42.75000 205.056
42.76000 202.534
42.77000 203.507
42.78000 204.849
42.79000 205.955
42.80000 206.124
42.81000 206.195
42.82000 206.189
42.83000 205.972
42.84000 205.744
42.85000 205.595
42.86000 208.193
42.87000 210.145
42.88000 212.319
42.89000 214.766
42.90000 217.209
42.91000 217.780
42.92000 216.839
42.93000 215.911
42.94000 214.011
42.95000 211.651
42.96000 209.149
42.97000 204.079
42.98000 198.056
42.99000 192.245
43.00000 188.476
43.01000 185.222
43.02000 182.379
43.03000 188.440
43.04000 194.891
43.05000 199.253
43.06000 195.443
43.07000 190.806
43.08000 189.831
43.09000 198.587
43.10000 207.868
43.11000 213.897
43.12000 210.684
43.13000 208.190
43.14000 206.290
43.15000 205.116
43.16000 203.941
43.17000 202.081
43.18000 199.679
43.19000 197.312
43.20000 196.911
43.21000 197.541
43.22000 198.141
43.23000 198.236
43.24000 198.146
43.25000 197.801
43.26000 195.034
43.27000 191.670
43.28000 188.738
43.29000 187.341
43.30000 186.359
43.31000 187.184
43.32000 194.951
43.33000 203.404
43.34000 206.907
43.35000 197.481
43.36000 187.381
43.37000 180.862
43.38000 188.633
43.39000 194.517
43.40000 200.012
43.41000 205.044
43.42000 210.041
43.43000 206.350
43.44000 195.900
43.45000 185.614
43.46000 187.971
43.47000 196.675
43.48000 204.946
43.49000 205.884
43.50000 204.192
43.51000 202.310
43.52000 198.665
43.53000 194.592
43.54000 191.053
43.55000 190.614
43.56000 190.659
43.57000 190.385
43.58000 188.908
43.59000 187.314
43.60000 187.781
43.61000 193.539
43.62000 199.563
43.63000 203.425
43.64000 199.319
43.65000 196.220
43.66000 195.222
43.67000 196.689
43.68000 198.155
43.69000 198.299
43.70000 197.435
43.71000 196.585
43.72000 194.159
43.73000 191.027
43.74000 188.229
43.75000 190.920
43.76000 195.545
43.77000 199.841
43.78000 201.171
43.79000 201.792
43.80000 202.331
43.81000 202.557
43.82000 202.708
43.83000 202.265
43.84000 199.619
43.85000 196.767
43.86000 192.534
43.87000 184.816
43.88000 176.928
43.89000 171.905
43.90000 173.147
43.91000 174.130
43.92000 177.881
43.93000 184.819
43.94000 191.750
43.95000 196.425
43.96000 199.408
43.97000 202.339
43.98000 204.247
43.99000 205.588
44.00000 206.783
44.01000 205.631
44.02000 203.666
44.03000 201.372
44.04000 196.171
44.05000 190.290
44.06000 185.211
44.07000 190.169
44.08000 195.676
44.09000 199.749
44.10000 198.598
44.11000 196.970
44.12000 195.519
44.13000 194.507
44.14000 193.516
44.15000 192.889
44.16000 190.928
44.17000 189.491
44.18000 190.007
44.19000 192.729
44.20000 195.431
44.21000 194.457
44.22000 190.778
44.23000 187.167
44.24000 189.363
44.25000 194.268
44.26000 198.880
44.27000 198.959
44.28000 197.495
44.29000 196.089
44.30000 195.184
44.31000 194.394
44.32000 193.714
44.33000 197.863
44.34000 201.988
44.35000 205.096
44.36000 204.566
44.37000 203.712
44.38000 203.341
44.39000 204.152
44.40000 205.016
44.41000 205.559
44.42000 206.399
44.43000 207.010
44.44000 208.408
44.45000 210.679
44.46000 212.916
44.47000 209.891
44.48000 203.063
44.49000 196.367
44.50000 198.431
44.51000 204.544
44.52000 210.491
44.53000 213.941
44.54000 216.555
44.55000 219.189
44.56000 221.986
44.57000 224.819
44.58000 227.250
44.59000 221.861
44.60000 216.341
44.61000 211.973
44.62000 211.658
44.63000 211.695
44.64000 213.294
44.65000 218.635
44.66000 224.140
44.67000 227.574
44.68000 219.164
44.69000 212.978
44.70000 211.329
44.71000 214.607
44.72000 217.883
44.73000 220.647
44.74000 223.049
44.75000 225.402
44.76000 226.661
44.77000 227.367
44.78000 228.445
44.79000 234.923
44.80000 243.178
44.81000 249.772
44.82000 242.732
44.83000 232.671
44.84000 224.063
44.85000 236.244
44.86000 249.022
44.87000 258.631
44.88000 257.285
44.89000 255.013
44.90000 254.685
44.91000 258.936
44.92000 263.380
44.93000 266.133
44.94000 265.510
44.95000 265.030
44.96000 263.687
44.97000 261.423
44.98000 259.195
44.99000 261.430
45.00000 266.776
45.01000 272.008
45.02000 270.529
45.03000 266.065
45.04000 262.129
45.05000 265.621
45.06000 271.515
45.07000 276.273
45.08000 271.909
45.09000 265.563
45.10000 260.150
45.11000 263.315
45.12000 266.990
45.13000 269.273
45.14000 266.837
45.15000 264.011
45.16000 259.805
45.17000 252.399
45.18000 244.864
45.19000 240.230
45.20000 244.367
45.21000 247.411
45.22000 248.907
45.23000 248.785
45.24000 248.655
45.25000 247.655
45.26000 246.059
45.27000 244.499
45.28000 244.335
45.29000 244.800
45.30000 245.028
45.31000 242.023
45.32000 237.991
45.33000 234.189
45.34000 232.196
45.35000 230.589
45.36000 229.223
45.37000 231.018
45.38000 232.888
45.39000 235.186
45.40000 238.912
45.41000 242.752
45.42000 242.990
45.43000 235.021
45.44000 226.734
45.45000 221.674
45.46000 217.625
45.47000 214.738
45.48000 212.907
45.49000 212.156
45.50000 211.371
45.51000 206.802
45.52000 199.690
45.53000 192.747
45.54000 193.267
45.55000 197.027
45.56000 200.717
45.57000 203.493
45.58000 205.983
45.59000 207.915
45.60000 205.550
45.61000 202.287
45.62000 199.521
45.63000 199.992
45.64000 200.749
45.65000 201.567
45.66000 202.585
45.67000 203.619
45.68000 204.707
45.69000 205.913
45.70000 207.123
45.71000 207.857
45.72000 205.731
45.73000 204.194
45.74000 203.952
45.75000 205.009
45.76000 206.067
45.77000 207.231
45.78000 208.464
45.79000 209.666
45.80000 207.573
45.81000 204.159
45.82000 201.013
45.83000 201.308
45.84000 202.660
45.85000 203.089
45.86000 196.579
45.87000 188.644
45.88000 181.941
45.89000 180.398
45.90000 179.674
45.91000 179.627
45.92000 181.766
45.93000 184.071
45.94000 184.571
45.95000 181.102
45.96000 177.491
45.97000 175.319
45.98000 185.303
45.99000 192.487
46.00000 194.018
46.01000 189.989
46.02000 185.997
46.03000 185.292
46.04000 186.719
46.05000 188.109
46.06000 184.678
46.07000 179.377
46.08000 174.432
46.09000 173.959
46.10000 174.834
46.11000 175.502
46.12000 174.655
46.13000 173.503
46.14000 172.532
46.15000 179.289
46.16000 185.752
46.17000 189.217
46.18000 183.191
46.19000 176.465
46.20000 172.078
46.21000 172.750
46.22000 173.596
46.23000 174.101
46.24000 175.253
46.25000 176.074
46.26000 175.345
46.27000 173.122
46.28000 170.923
46.29000 170.776
46.30000 171.935
46.31000 173.063
46.32000 174.867
46.33000 176.862
46.34000 178.493
46.35000 175.653
46.36000 171.490
46.37000 168.067
46.38000 169.976
46.39000 172.940
46.40000 175.426
46.41000 173.936
46.42000 172.281
46.43000 171.375
46.44000 172.795
46.45000 174.381
46.46000 175.776
46.47000 176.764
46.48000 177.739
46.49000 178.317
46.50000 175.624
46.51000 173.701
46.52000 174.458
46.53000 177.748
46.54000 181.008
46.55000 182.015
46.56000 181.612
46.57000 181.220
46.58000 184.978
46.59000 190.231
46.60000 194.567
46.61000 187.971
46.62000 178.194
46.63000 170.134
46.64000 174.164
46.65000 180.541
46.66000 185.872
46.67000 179.466
46.68000 172.951
46.69000 168.010
46.70000 167.879
46.71000 168.083
46.72000 168.916
46.73000 171.063
46.74000 173.252
46.75000 174.539
46.76000 178.695
46.77000 181.639
46.78000 178.032
46.79000 168.356
46.80000 158.841
46.81000 160.857
46.82000 169.965
46.83000 178.803
46.84000 179.276
46.85000 176.397
46.86000 173.945
46.87000 176.453
46.88000 180.379
46.89000 183.454
46.90000 180.661
46.91000 176.752
46.92000 173.495
46.93000 171.879
46.94000 170.703
46.95000 169.980
46.96000 170.613
46.97000 171.337
46.98000 172.752
46.99000 175.585
47.00000 178.460
47.01000 180.137
47.02000 177.643
47.03000 175.869
47.04000 171.559
47.05000 164.943
47.06000 158.406
47.07000 157.103
47.08000 158.962
47.09000 160.763
47.10000 165.909
47.11000 172.088
47.12000 177.906
47.13000 179.645
47.14000 180.238
47.15000 179.835
47.16000 172.705
47.17000 164.319
47.18000 157.357
47.19000 157.582
47.20000 158.465
47.21000 160.262
47.22000 164.761
47.23000 169.437
47.24000 171.061
47.25000 166.520
47.26000 161.803
47.27000 159.072
47.28000 158.478
47.29000 158.073
47.30000 160.672
47.31000 165.949
47.32000 171.157
47.33000 172.101
47.34000 170.514
47.35000 168.978
47.36000 165.230
47.37000 160.839
47.38000 156.881
47.39000 157.693
47.40000 159.821
47.41000 161.735
47.42000 162.225
47.43000 162.454
47.44000 162.644
47.45000 162.430
47.46000 162.215
47.47000 161.416
47.48000 158.922
47.49000 156.320
47.50000 154.202
47.51000 153.046
47.52000 151.916
47.53000 151.267
47.54000 158.426
47.55000 163.456
47.56000 164.703
47.57000 162.645
47.58000 160.603
47.59000 159.513
47.60000 158.979
47.61000 158.463
47.62000 159.413
47.63000 160.860
47.64000 162.379
47.65000 164.666
47.66000 167.161
47.67000 169.519
47.68000 170.985
47.69000 172.291
47.70000 173.367
47.71000 169.821
47.72000 166.478
47.73000 163.416
47.74000 161.155
47.75000 158.943
47.76000 158.619
47.77000 161.980
47.78000 165.436
47.79000 167.404
47.80000 166.463
47.81000 165.797
47.82000 164.476
47.83000 162.592
47.84000 160.766
47.85000 162.127
47.86000 165.316
47.87000 168.394
47.88000 166.515
47.89000 162.918
47.90000 160.089
47.91000 165.302
47.92000 172.656
47.93000 178.497
47.94000 174.731
47.95000 169.274
47.96000 164.792
47.97000 161.415
47.98000 158.742
47.99000 157.089
48.00000 158.300
48.01000 159.683
48.02000 159.929
48.03000 157.997
48.04000 156.012
48.05000 154.890
48.06000 162.577
48.07000 167.930
48.08000 165.430
48.09000 156.326
48.10000 147.417
48.11000 148.616
48.12000 155.508
48.13000 162.152
48.14000 163.917
48.15000 163.809
48.16000 163.956
48.17000 166.697
48.18000 170.117
48.19000 172.010
48.20000 164.416
48.21000 155.186
48.22000 147.634
48.23000 154.936
48.24000 162.216
48.25000 167.784
48.26000 168.630
48.27000 169.203
48.28000 168.782
48.29000 166.487
48.30000 164.148
48.31000 162.837
48.32000 163.511
48.33000 163.983
48.34000 164.502
48.35000 165.060
48.36000 165.601
48.37000 165.257
48.38000 164.425
48.39000 163.623
48.40000 161.201
48.41000 158.353
48.42000 155.913
48.43000 157.542
48.44000 160.216
48.45000 162.372
48.46000 161.368
48.47000 159.830
48.48000 158.576
48.49000 159.122
48.50000 159.722
48.51000 159.605
48.52000 157.547
48.53000 155.381
48.54000 155.513
48.55000 159.904
48.56000 164.390
48.57000 166.881
48.58000 158.455
48.59000 152.624
48.60000 151.651
48.61000 154.614
48.62000 157.553
48.63000 159.421
48.64000 160.706
48.65000 161.941
48.66000 159.128
48.67000 155.082
48.68000 151.740
48.69000 155.240
48.70000 160.468
48.71000 164.670
48.72000 162.748
48.73000 159.812
48.74000 157.427
48.75000 154.726
48.76000 152.496
48.77000 151.133
48.78000 152.076
48.79000 153.144
48.80000 155.061
48.81000 158.523
48.82000 162.018
48.83000 163.942
48.84000 161.881
48.85000 160.451
48.86000 158.049
48.87000 154.874
48.88000 151.755
48.89000 151.060
48.90000 151.663
48.91000 152.241
48.92000 150.606
48.93000 148.321
48.94000 146.665
48.95000 150.984
48.96000 156.784
48.97000 161.517
48.98000 160.006
48.99000 157.480
49.00000 155.437
49.01000 148.886
49.02000 143.191
49.03000 140.743
49.04000 146.799
49.05000 153.300
49.06000 157.429
49.07000 157.313
49.08000 157.112
49.09000 157.003
49.10000 158.495
49.11000 159.525
49.12000 161.437
49.13000 164.035
49.14000 166.559
49.15000 165.987
49.16000 163.788
49.17000 161.681
49.18000 160.604
49.19000 159.944
49.20000 159.262
49.21000 158.369
49.22000 157.425
49.23000 155.830
49.24000 150.502
49.25000 144.579
49.26000 139.806
49.27000 144.371
49.28000 148.810
49.29000 152.903
49.30000 156.105
49.31000 159.261
49.32000 161.051
49.33000 160.437
49.34000 159.778
49.35000 159.421
49.36000 155.360
49.37000 152.581
49.38000 150.944
49.39000 150.181
49.40000 149.428
49.41000 149.044
49.42000 148.851
49.43000 148.666
49.44000 151.139
49.45000 154.318
49.46000 157.440
49.47000 160.057
49.48000 162.552
49.49000 164.539
49.50000 163.667
49.51000 162.350
49.52000 161.293
49.53000 159.612
49.54000 158.203
49.55000 157.105
49.56000 156.790
49.57000 156.514
49.58000 157.180
49.59000 159.473
49.60000 161.795
49.61000 163.040
49.62000 163.502
49.63000 163.792
49.64000 158.917
49.65000 150.159
49.66000 141.677
49.67000 143.523
49.68000 150.613
49.69000 157.387
49.70000 155.653
49.71000 151.292
49.72000 147.633
49.73000 150.169
49.74000 154.160
49.75000 157.683
49.76000 158.631
49.77000 159.186
49.78000 159.630
49.79000 154.500
49.80000 149.940
49.81000 148.427
49.82000 154.491
49.83000 160.913
49.84000 163.020
49.85000 157.802
49.86000 152.462
49.87000 149.625
49.88000 155.674
49.89000 159.761
49.90000 157.764
49.91000 151.275
49.92000 144.952
49.93000 144.558
49.94000 147.122
49.95000 149.568
49.96000 148.648
49.97000 146.728
49.98000 145.234
49.99000 147.408
50.00000 150.427
50.01000 153.275
50.02000 155.198
50.03000 156.983
50.04000 158.405
50.05000 158.909
50.06000 159.249
50.07000 158.495
50.08000 155.064
50.09000 151.512
50.10000 150.018
50.11000 151.959
50.12000 153.953
50.13000 155.003
50.14000 156.602
50.15000 157.685
50.16000 158.477
50.17000 159.057
50.18000 159.637
50.19000 160.230
50.20000 160.829
50.21000 161.400
50.22000 155.947
50.23000 149.023
50.24000 143.246
50.25000 147.141
50.26000 153.224
50.27000 158.517
50.28000 159.629
50.29000 160.128
50.30000 160.523
50.31000 164.921
50.32000 168.741
50.33000 170.255
50.34000 166.230
50.35000 161.962
50.36000 158.834
50.37000 157.574
50.38000 156.342
50.39000 155.699
50.40000 165.782
50.41000 172.567
50.42000 174.119
50.43000 171.947
50.44000 169.950
50.45000 173.651
50.46000 180.099
50.47000 186.230
50.48000 184.776
50.49000 181.120
50.50000 178.056
50.51000 179.880
50.52000 182.789
50.53000 184.791
50.54000 182.080
50.55000 178.692
50.56000 176.016
50.57000 182.219
50.58000 187.802
50.59000 190.987
50.60000 188.502
50.61000 185.778
50.62000 185.649
50.63000 189.700
50.64000 193.807
50.65000 195.928
50.66000 187.848
50.67000 182.434
50.68000 181.500
50.69000 183.696
50.70000 185.833
50.71000 186.146
50.72000 185.594
50.73000 185.070
50.74000 179.976
50.75000 173.909
50.76000 168.685
50.77000 170.255
50.78000 173.307
50.79000 175.759
50.80000 175.152
50.81000 174.116
50.82000 173.301
50.83000 173.919
50.84000 174.510
50.85000 175.434
50.86000 177.132
50.87000 178.861
50.88000 179.325
50.89000 177.789
50.90000 176.227
50.91000 175.428
50.92000 167.150
50.93000 161.633
50.94000 161.314
50.95000 164.562
50.96000 167.651
50.97000 165.984
50.98000 162.102
50.99000 158.423
51.00000 157.680
51.01000 157.857
51.02000 158.247
51.03000 160.314
51.04000 162.739
51.05000 164.277
51.06000 161.374
51.07000 157.860
51.08000 155.109
51.09000 153.546
51.10000 152.374
51.11000 151.341
51.12000 150.629
51.13000 149.929
51.14000 149.051
51.15000 147.896
51.16000 146.738
51.17000 146.151
51.18000 146.217
51.19000 146.306
51.20000 151.129
51.21000 159.144
51.22000 166.776
51.23000 163.514
51.24000 155.263
51.25000 147.457
51.26000 147.463
51.27000 149.715
51.28000 151.456
51.29000 149.259
51.30000 146.235
51.31000 144.233
51.32000 147.252
51.33000 150.945
51.34000 153.826
51.35000 156.334
51.36000 158.311
51.37000 158.651
51.38000 155.321
51.39000 151.853
51.40000 149.433
51.41000 148.614
51.42000 147.812
51.43000 147.410
51.44000 145.594
51.45000 144.401
51.46000 145.080
51.47000 146.998
51.48000 148.834
51.49000 148.450
51.50000 147.067
51.51000 145.761
51.52000 144.092
51.53000 142.457
51.54000 140.725
51.55000 138.258
51.56000 135.640
51.57000 134.189
51.58000 138.364
51.59000 143.280
51.60000 147.096
51.61000 147.052
51.62000 146.783
51.63000 146.437
51.64000 145.919
51.65000 145.395
51.66000 145.626
51.67000 146.991
51.68000 148.367
51.69000 146.435
51.70000 141.243
51.71000 136.133
51.72000 138.495
51.73000 145.716
51.74000 152.606
51.75000 150.804
51.76000 145.155
51.77000 139.830
51.78000 140.394
51.79000 142.541
51.80000 143.898
51.81000 139.423
51.82000 133.769
51.83000 129.331
51.84000 130.644
51.85000 132.696
51.86000 134.283
51.87000 139.054
51.88000 143.027
51.89000 143.715
51.90000 137.280
51.91000 130.599
51.92000 127.760
51.93000 130.579
51.94000 133.449
51.95000 137.558
51.96000 142.864
51.97000 148.128
51.98000 149.839
51.99000 149.281
52.00000 148.775
52.01000 149.574
52.02000 150.942
52.03000 152.228
52.04000 149.116
52.05000 145.076
52.06000 141.609
52.07000 142.272
52.08000 143.755
52.09000 144.206
52.10000 139.876
52.11000 134.944
52.12000 131.148
52.13000 133.196
52.14000 135.149
52.15000 137.300
52.16000 139.872
52.17000 142.457
52.18000 142.573
52.19000 139.114
52.20000 135.627
52.21000 136.798
52.22000 142.381
52.23000 147.920
52.24000 149.962
52.25000 149.808
52.26000 149.574
52.27000 147.388
52.28000 144.366
52.29000 141.528
52.30000 140.810
52.31000 140.720
52.32000 140.675
52.33000 140.956
52.34000 141.299
52.35000 142.752
52.36000 149.255
52.37000 156.379
52.38000 161.838
52.39000 152.436
52.40000 144.191
52.41000 139.156
52.42000 140.849
52.43000 142.755
52.44000 143.398
52.45000 142.247
52.46000 141.083
52.47000 140.808
52.48000 141.358
52.49000 141.886
52.50000 140.779
52.51000 138.664
52.52000 136.687
52.53000 137.938
52.54000 140.546
52.55000 142.990
52.56000 141.510
52.57000 139.137
52.58000 137.506
52.59000 140.999
52.60000 145.470
52.61000 148.917
52.62000 147.784
52.63000 146.101
52.64000 144.818
52.65000 141.296
52.66000 138.402
52.67000 136.994
52.68000 138.646
52.69000 140.391
52.70000 140.998
52.71000 140.018
52.72000 139.028
52.73000 137.541
52.74000 135.603
52.75000 133.695
52.76000 133.755
52.77000 135.008
52.78000 136.433
52.79000 141.728
52.80000 148.622
52.81000 155.073
52.82000 151.634
52.83000 145.979
52.84000 141.288
52.85000 143.135
52.86000 146.206
52.87000 147.612
52.88000 141.715
52.89000 134.960
52.90000 129.830
52.91000 135.316
52.92000 140.177
52.93000 142.910
52.94000 141.331
52.95000 139.629
52.96000 138.388
52.97000 137.779
52.98000 137.174
52.99000 139.688
53.00000 144.982
53.01000 150.177
53.02000 149.146
53.03000 144.408
53.04000 139.828
53.05000 138.678
53.06000 138.920
53.07000 139.146
53.08000 141.008
53.09000 143.107
53.10000 145.043
53.11000 145.897
53.12000 146.552
53.13000 147.288
53.14000 148.369
53.15000 149.491
53.16000 150.338
53.17000 150.950
53.18000 151.418
53.19000 153.139
53.20000 157.356
53.21000 161.642
53.22000 162.522
53.23000 158.820
53.24000 155.097
53.25000 153.014
53.26000 152.371
53.27000 151.721
53.28000 150.641
53.29000 149.309
53.30000 148.213
53.31000 152.045
53.32000 157.844
53.33000 163.249
53.34000 162.759
53.35000 160.866
53.36000 159.485
53.37000 161.438
53.38000 163.990
53.39000 165.403
53.40000 161.994
53.41000 158.044
53.42000 155.073
53.43000 157.193
53.44000 159.099
53.45000 158.995
53.46000 154.960
53.47000 150.823
53.48000 149.676
53.49000 152.478
53.50000 155.297
53.51000 155.948
53.52000 154.738
53.53000 153.574
53.54000 154.922
53.55000 157.716
53.56000 160.424
53.57000 161.418
53.58000 161.739
53.59000 162.038
53.60000 156.607
53.61000 150.319
53.62000 144.554
53.63000 142.118
53.64000 140.269
53.65000 140.544
53.66000 149.641
53.67000 159.704
53.68000 167.239
53.69000 156.380
53.70000 147.044
53.71000 142.210
53.72000 146.033
53.73000 150.071
53.74000 152.358
53.75000 152.375
53.76000 152.382
53.77000 151.611
53.78000 150.186
53.79000 148.742
53.80000 146.307
53.81000 143.312
53.82000 140.552
53.83000 142.383
53.84000 145.986
53.85000 149.330
53.86000 145.693
53.87000 140.763
53.88000 136.943
53.89000 140.036
53.90000 144.326
53.91000 147.211
53.92000 144.362
53.93000 140.900
53.94000 138.320
53.95000 142.021
53.96000 145.187
53.97000 147.072
53.98000 146.539
53.99000 145.948
54.00000 146.266
54.01000 147.740
54.02000 149.216
54.03000 147.192
54.04000 142.288
54.05000 137.528
54.06000 139.828
54.07000 146.046
54.08000 151.897
54.09000 150.802
54.10000 147.073
54.11000 143.618
54.12000 142.740
54.13000 142.548
54.14000 142.088
54.15000 139.995
54.16000 137.626
54.17000 136.102
54.18000 137.968
54.19000 140.188
54.20000 141.834
54.21000 142.650
54.22000 143.247
54.23000 142.794
54.24000 140.391
54.25000 137.943
54.26000 137.904
54.27000 140.870
54.28000 143.841
54.29000 149.369
54.30000 156.944
54.31000 164.364
54.32000 164.583
54.33000 160.875
54.34000 157.035
54.35000 150.784
54.36000 143.634
54.37000 137.025
54.38000 135.956
54.39000 136.255
54.40000 136.260
54.41000 134.509
54.42000 132.466
54.43000 131.089
54.44000 132.334
54.45000 133.846
54.46000 134.962
54.47000 137.634
54.48000 139.769
54.49000 141.654
54.50000 143.079
54.51000 144.495
54.52000 144.152
54.53000 141.654
54.54000 139.156
54.55000 139.649
54.56000 142.515
54.57000 145.376
54.58000 148.022
54.59000 150.553
54.60000 152.986
54.61000 153.708
54.62000 153.802
54.63000 153.889
54.64000 151.173
54.65000 148.116
54.66000 145.734
54.67000 147.313
54.68000 149.536
54.69000 150.186
54.70000 144.752
54.71000 138.714
54.72000 134.281
54.73000 136.515
54.74000 138.513
54.75000 139.691
54.76000 139.396
54.77000 139.072
54.78000 139.421
54.79000 140.579
54.80000 141.736
54.81000 141.407
54.82000 139.923
54.83000 138.521
54.84000 140.556
54.85000 144.402
54.86000 148.057
54.87000 148.468
54.88000 147.710
54.89000 147.012
54.90000 147.208
54.91000 147.577
54.92000 147.937
54.93000 148.240
54.94000 148.534
54.95000 148.506
54.96000 147.257
54.97000 145.891
54.98000 144.892
54.99000 144.591
55.00000 144.386
55.01000 144.738
55.02000 146.073
55.03000 147.427
55.04000 147.720
55.05000 146.760
55.06000 145.801
55.07000 145.721
55.08000 146.313
55.09000 146.880
55.10000 146.465
55.11000 145.540
55.12000 144.749
55.13000 146.157
55.14000 148.345
55.15000 150.354
55.16000 151.126
55.17000 151.549
55.18000 152.228
55.19000 154.348
55.20000 156.692
55.21000 158.755
55.22000 159.764
55.23000 160.673
55.24000 161.335
55.25000 154.435
55.26000 148.841
55.27000 148.091
55.28000 155.734
55.29000 163.525
55.30000 169.314
55.31000 172.785
55.32000 176.243
55.33000 176.556
55.34000 174.512
55.35000 172.588
55.36000 175.214
55.37000 180.155
55.38000 185.182
55.39000 191.578
55.40000 198.451
55.41000 204.749
55.42000 205.789
55.43000 205.613
55.44000 206.943
55.45000 216.597
55.46000 227.526
55.47000 236.586
55.48000 238.798
55.49000 240.378
55.50000 241.521
55.51000 260.083
55.52000 274.961
55.53000 285.461
55.54000 288.508
55.55000 291.432
55.56000 293.877
55.57000 295.781
55.58000 297.678
55.59000 313.864
55.60000 340.421
55.61000 366.513
55.62000 375.947
55.63000 377.047
55.64000 379.275
55.65000 399.027
55.66000 424.774
55.67000 448.313
55.68000 469.265
55.69000 487.352
55.70000 505.738
55.71000 525.753
55.72000 546.011
55.73000 562.930
55.74000 567.836
55.75000 571.663
55.76000 574.415
55.77000 595.661
55.78000 612.572
55.79000 627.331
55.80000 638.487
55.81000 649.588
55.82000 664.229
55.83000 682.813
55.84000 701.335
55.85000 708.217
55.86000 706.655
55.87000 705.205
55.88000 707.606
55.89000 711.900
55.90000 716.092
55.91000 718.745
55.92000 720.880
55.93000 722.828
55.94000 720.802
55.95000 718.205
55.96000 713.332
55.97000 696.350
55.98000 677.590
55.99000 658.987
56.00000 640.938
56.01000 622.937
56.02000 610.057
56.03000 606.984
56.04000 604.968
56.05000 596.887
56.06000 578.838
56.07000 560.644
56.08000 544.890
56.09000 531.803
56.10000 518.768
56.11000 506.826
56.12000 495.770
56.13000 484.596
56.14000 469.558
56.15000 452.653
56.16000 435.511
56.17000 414.900
56.18000 393.142
56.19000 373.343
56.20000 358.616
56.21000 346.583
56.22000 334.387
56.23000 321.335
56.24000 308.161
56.25000 294.947
56.26000 281.595
56.27000 268.231
56.28000 258.719
56.29000 256.231
56.30000 254.563
56.31000 249.886
56.32000 240.353
56.33000 230.754
56.34000 221.029
56.35000 211.169
56.36000 201.354
56.37000 196.843
56.38000 196.056
56.39000 195.164
56.40000 190.936
56.41000 185.124
56.42000 179.706
56.43000 179.887
56.44000 181.887
56.45000 183.702
56.46000 176.099
56.47000 167.567
56.48000 161.107
56.49000 165.247
56.50000 170.879
56.51000 174.201
56.52000 169.645
56.53000 164.434
56.54000 160.745
56.55000 151.598
56.56000 144.477
56.57000 141.316
56.58000 144.438
56.59000 147.638
56.60000 147.050
56.61000 142.483
56.62000 137.938
56.63000 138.095
56.64000 141.449
56.65000 144.624
56.66000 142.465
56.67000 137.814
56.68000 133.530
56.69000 134.309
56.70000 136.703
56.71000 138.871
56.72000 141.103
56.73000 143.082
56.74000 144.562
56.75000 143.546
56.76000 142.185
56.77000 140.866
56.78000 139.684
56.79000 138.513
56.80000 137.689
56.81000 140.035
56.82000 141.909
56.83000 142.342
56.84000 140.532
56.85000 138.696
56.86000 137.887
56.87000 138.134
56.88000 138.380
56.89000 136.068
56.90000 132.076
56.91000 128.236
56.92000 128.733
56.93000 131.220
56.94000 133.779
56.95000 137.292
56.96000 141.106
56.97000 144.551
56.98000 141.693
56.99000 138.011
57.00000 134.829
57.01000 134.105
57.02000 133.711
57.03000 133.266
57.04000 132.652
57.05000 132.024
57.06000 131.585
57.07000 131.798
57.08000 131.977
57.09000 132.238
57.10000 132.621
57.11000 133.006
57.12000 132.533
57.13000 131.195
57.14000 129.864
57.15000 128.636
57.16000 127.492
57.17000 126.341
57.18000 125.003
57.19000 123.581
57.20000 122.197
57.21000 121.302
57.22000 120.557
57.23000 119.886
57.24000 119.611
57.25000 119.441
57.26000 120.231
57.27000 125.656
57.28000 131.692
57.29000 135.550
57.30000 132.360
57.31000 128.630
57.32000 126.033
57.33000 126.295
57.34000 126.570
57.35000 127.424
57.36000 129.149
57.37000 130.883
57.38000 131.057
57.39000 129.690
57.40000 128.331
57.41000 127.848
57.42000 127.933
57.43000 127.981
57.44000 127.028
57.45000 125.630
57.46000 124.290
57.47000 123.678
57.48000 123.286
57.49000 122.934
57.50000 124.895
57.51000 127.023
57.52000 128.757
57.53000 128.618
57.54000 128.237
57.55000 128.271
57.56000 129.627
57.57000 131.081
57.58000 132.087
57.59000 127.874
57.60000 124.568
57.61000 122.839
57.62000 123.437
57.63000 124.057
57.64000 124.761
57.65000 125.548
57.66000 126.329
57.67000 127.256
57.68000 128.261
57.69000 129.260
57.70000 130.106
57.71000 130.884
57.72000 131.574
57.73000 131.183
57.74000 130.469
57.75000 129.828
57.76000 128.549
57.77000 127.319
57.78000 126.299
57.79000 126.256
57.80000 126.336
57.81000 126.202
57.82000 125.397
57.83000 124.544
57.84000 123.956
57.85000 119.736
57.86000 116.478
57.87000 114.908
57.88000 115.787
57.89000 116.687
57.90000 119.063
57.91000 122.843
57.92000 126.593
57.93000 123.786
57.94000 116.973
57.95000 110.434
57.96000 110.604
57.97000 113.650
57.98000 116.776
57.99000 120.860
58.00000 125.224
58.01000 129.127
58.02000 124.494
58.03000 119.001
58.04000 115.165
58.05000 118.895
58.06000 123.559
58.07000 126.835
58.08000 125.848
58.09000 124.561
58.10000 123.680
58.11000 117.753
58.12000 113.195
58.13000 111.592
58.14000 114.196
58.15000 116.832
58.16000 119.529
58.17000 122.282
58.18000 125.013
58.19000 127.334
58.20000 129.363
58.21000 131.204
58.22000 128.622
58.23000 124.174
58.24000 119.984
58.25000 118.795
58.26000 118.470
58.27000 118.179
58.28000 120.089
58.29000 122.118
58.30000 123.586
58.31000 122.539
58.32000 121.189
58.33000 120.457
58.34000 121.590
58.35000 122.849
58.36000 123.706
58.37000 120.485
58.38000 117.987
58.39000 116.487
58.40000 116.381
58.41000 116.286
58.42000 118.041
58.43000 121.486
58.44000 124.900
58.45000 125.570
58.46000 124.592
58.47000 123.625
58.48000 122.899
58.49000 122.273
58.50000 121.608
58.51000 120.504
58.52000 119.276
58.53000 118.184
58.54000 118.785
58.55000 119.583
58.56000 120.514
58.57000 122.033
58.58000 123.620
58.59000 124.919
58.60000 125.360
58.61000 125.744
58.62000 126.004
58.63000 128.773
58.64000 130.890
58.65000 130.455
58.66000 126.515
58.67000 122.555
58.68000 121.543
58.69000 123.173
58.70000 124.786
58.71000 122.914
58.72000 119.043
58.73000 115.394
58.74000 116.576
58.75000 119.727
58.76000 122.609
58.77000 122.521
58.78000 121.609
58.79000 120.799
58.80000 126.483
58.81000 132.444
58.82000 136.073
58.83000 129.626
58.84000 122.019
58.85000 117.347
58.86000 121.241
58.87000 125.684
58.88000 128.670
58.89000 122.394
58.90000 117.541
58.91000 118.048
58.92000 125.783
58.93000 133.548
58.94000 132.219
58.95000 122.898
58.96000 113.675
58.97000 111.733
58.98000 114.010
58.99000 116.222
59.00000 117.085
59.01000 117.408
59.02000 117.780
59.03000 118.687
59.04000 119.740
59.05000 120.672
59.06000 121.809
59.07000 122.823
59.08000 123.530
59.09000 122.928
59.10000 122.180
59.11000 121.653
59.12000 121.761
59.13000 121.908
59.14000 122.007
59.15000 121.570
59.16000 121.235
59.17000 122.014
59.18000 124.267
59.19000 126.524
59.20000 126.256
59.21000 123.812
59.22000 121.395
59.23000 120.291
59.24000 119.951
59.25000 119.497
59.26000 116.731
59.27000 113.054
59.28000 109.904
59.29000 112.305
59.30000 116.191
59.31000 119.621
59.32000 119.121
59.33000 118.089
59.34000 116.828
59.35000 114.613
59.36000 112.292
59.37000 111.778
59.38000 116.358
59.39000 121.245
59.40000 124.490
59.41000 120.788
59.42000 117.922
59.43000 115.808
59.44000 114.672
59.45000 113.543
59.46000 114.018
59.47000 115.851
59.48000 117.662
59.49000 117.704
59.50000 116.767
59.51000 115.886
59.52000 116.100
59.53000 116.738
59.54000 117.185
59.55000 115.671
59.56000 113.641
59.57000 111.854
59.58000 114.456
59.59000 117.351
59.60000 119.274
59.61000 117.223
59.62000 114.745
59.63000 113.607
59.64000 116.181
59.65000 118.971
59.66000 120.812
59.67000 123.360
59.68000 125.251
59.69000 124.861
59.70000 121.561
59.71000 118.254
59.72000 116.370
59.73000 115.667
59.74000 114.974
59.75000 116.541
59.76000 119.291
59.77000 121.815
59.78000 120.036
59.79000 116.622
59.80000 113.908
59.81000 118.226
59.82000 124.361
59.83000 129.745
59.84000 122.754
59.85000 114.941
59.86000 109.386
59.87000 112.905
59.88000 117.374
59.89000 119.766
59.90000 116.499
59.91000 112.911
59.92000 110.559
59.93000 110.964
59.94000 111.308
59.95000 110.742
59.96000 109.038
59.97000 107.332
59.98000 106.438
59.99000 106.206
60.00000 105.976
60.01000 108.492
60.02000 112.397
60.03000 116.110
60.04000 116.303
60.05000 115.182
60.06000 114.291
60.07000 115.666
60.08000 117.615
60.09000 119.321
60.10000 115.137
60.11000 110.708
60.12000 108.077
60.13000 112.535
60.14000 117.719
60.15000 120.796
60.16000 118.236
60.17000 115.368
60.18000 113.499
60.19000 114.535
60.20000 115.340
60.21000 116.494
60.22000 118.076
60.23000 119.655
60.24000 119.907
60.25000 119.099
60.26000 118.303
60.27000 116.653
60.28000 114.606
60.29000 112.619
60.30000 111.707
60.31000 111.190
60.32000 111.281
60.33000 117.180
60.34000 124.527
60.35000 130.937
60.36000 131.487
60.37000 131.139
60.38000 129.566
60.39000 123.246
60.40000 116.453
60.41000 112.111
60.42000 114.218
60.43000 116.666
60.44000 118.250
60.45000 116.632
60.46000 115.402
60.47000 116.523
60.48000 120.481
60.49000 124.431
60.50000 124.391
60.51000 121.220
60.52000 118.098
60.53000 116.729
60.54000 116.300
60.55000 115.794
60.56000 113.957
60.57000 111.638
60.58000 109.803
60.59000 112.469
60.60000 116.237
60.61000 119.515
60.62000 117.015
60.63000 114.092
60.64000 111.954
60.65000 112.799
60.66000 113.935
60.67000 114.819
60.68000 115.051
60.69000 115.249
60.70000 115.377
60.71000 123.404
60.72000 129.370
60.73000 130.591
60.74000 126.198
60.75000 121.806
60.76000 120.268
60.77000 120.926
60.78000 121.574
60.79000 121.652
60.80000 121.441
60.81000 121.401
60.82000 124.196
60.83000 127.997
60.84000 131.030
60.85000 127.067
60.86000 121.424
60.87000 116.529
60.88000 117.111
60.89000 118.338
60.90000 119.545
60.91000 120.672
60.92000 121.791
60.93000 122.972
60.94000 124.311
60.95000 125.657
60.96000 126.517
60.97000 126.605
60.98000 126.660
60.99000 125.967
61.00000 124.406
61.01000 122.855
61.02000 123.643
61.03000 126.198
61.04000 128.710
61.05000 127.659
61.06000 124.885
61.07000 122.304
61.08000 122.831
61.09000 124.443
61.10000 125.924
61.11000 126.245
61.12000 126.291
61.13000 126.332
61.14000 125.050
61.15000 123.788
61.16000 122.248
61.17000 119.684
61.18000 117.027
61.19000 117.100
61.20000 124.003
61.21000 131.230
61.22000 135.816
61.23000 126.713
61.24000 119.939
61.25000 118.302
61.26000 122.515
61.27000 126.718
61.28000 128.099
61.29000 127.385
61.30000 126.685
61.31000 125.935
61.32000 125.188
61.33000 124.470
61.34000 124.200
61.35000 124.084
61.36000 123.899
61.37000 123.125
61.38000 122.213
61.39000 121.428
61.40000 120.261
61.41000 119.224
61.42000 119.351
61.43000 123.681
61.44000 128.389
61.45000 131.103
61.46000 128.913
61.47000 126.497
61.48000 124.975
61.49000 131.130
61.50000 135.672
61.51000 142.255
61.52000 151.118
61.53000 159.992
61.54000 170.411
61.55000 181.955
61.56000 193.280
61.57000 207.060
61.58000 221.505
61.59000 235.603
61.60000 244.463
61.61000 251.556
61.62000 258.830
61.63000 267.630
61.64000 276.778
61.65000 284.640
61.66000 287.316
61.67000 288.932
61.68000 290.452
61.69000 291.627
61.70000 292.773
61.71000 295.120
61.72000 300.369
61.73000 305.746
61.74000 309.111
61.75000 295.749
61.76000 285.924
61.77000 277.483
61.78000 270.557
61.79000 263.576
61.80000 248.261
61.81000 226.985
61.82000 206.135
61.83000 194.243
61.84000 186.980
61.85000 179.676
61.86000 171.784
61.87000 163.698
61.88000 155.943
61.89000 150.934
61.90000 146.538
61.91000 142.772
61.92000 140.957
61.93000 139.663
61.94000 139.031
61.95000 140.705
61.96000 142.576
61.97000 141.639
61.98000 134.035
61.99000 126.147
62.00000 121.245
62.01000 122.906
62.02000 124.166
62.03000 127.200
62.04000 132.138
62.05000 137.040
62.06000 137.011
62.07000 133.518
62.08000 130.099
62.09000 129.023
62.10000 129.061
62.11000 129.080
62.12000 128.813
62.13000 128.454
62.14000 128.154
62.15000 128.337
62.16000 128.627
62.17000 128.874
62.18000 132.001
62.19000 134.977
62.20000 136.816
62.21000 134.766
62.22000 132.391
62.23000 131.374
62.24000 133.527
62.25000 135.810
62.26000 137.218
62.27000 133.521
62.28000 130.819
62.29000 128.563
62.30000 126.776
62.31000 125.008
62.32000 125.471
62.33000 127.473
62.34000 129.432
62.35000 129.452
62.36000 128.603
62.37000 127.765
62.38000 127.092
62.39000 126.471
62.40000 125.886
62.41000 125.582
62.42000 125.337
62.43000 125.129
62.44000 126.158
62.45000 127.167
62.46000 127.501
62.47000 125.567
62.48000 123.449
62.49000 122.282
62.50000 123.297
62.51000 124.399
62.52000 125.074
62.53000 128.992
62.54000 131.825
62.55000 132.720
62.56000 131.613
62.57000 130.532
62.58000 132.307
62.59000 136.018
62.60000 139.642
62.61000 139.884
62.62000 138.624
62.63000 137.214
62.64000 133.761
62.65000 129.666
62.66000 125.772
62.67000 123.440
62.68000 121.438
62.69000 119.739
62.70000 123.242
62.71000 126.771
62.72000 129.531
62.73000 129.753
62.74000 129.774
62.75000 130.343
62.76000 132.145
62.77000 133.994
62.78000 135.118
62.79000 134.482
62.80000 134.015
62.81000 134.640
62.82000 136.372
62.83000 138.051
62.84000 134.419
62.85000 127.252
62.86000 120.259
62.87000 121.825
62.88000 127.022
62.89000 132.087
62.90000 135.415
62.91000 138.205
62.92000 140.123
62.93000 135.420
62.94000 129.344
62.95000 124.205
62.96000 129.946
62.97000 135.954
62.98000 140.066
62.99000 138.026
63.00000 135.513
63.01000 131.971
63.02000 126.145
63.03000 120.236
63.04000 116.669
63.05000 130.741
63.06000 140.888
63.07000 142.729
63.08000 136.332
63.09000 130.000
63.10000 129.790
63.11000 133.583
63.12000 137.280
63.13000 136.146
63.14000 133.015
63.15000 130.243
63.16000 132.046
63.17000 135.239
63.18000 137.676
63.19000 134.499
63.20000 130.181
63.21000 126.540
63.22000 130.481
63.23000 134.591
63.24000 138.078
63.25000 139.577
63.26000 140.928
63.27000 140.340
63.28000 135.525
63.29000 130.563
63.30000 127.590
63.31000 127.181
63.32000 126.907
63.33000 128.451
63.34000 131.761
63.35000 135.032
63.36000 134.951
63.37000 132.716
63.38000 130.540
63.39000 133.390
63.40000 138.198
63.41000 142.498
63.42000 140.504
63.43000 136.633
63.44000 133.214
63.45000 133.083
63.46000 133.608
63.47000 134.049
63.48000 133.973
63.49000 133.855
63.50000 134.712
63.51000 138.626
63.52000 142.761
63.53000 144.674
63.54000 141.827
63.55000 138.820
63.56000 137.033
63.57000 136.374
63.58000 135.913
63.59000 133.244
63.60000 128.469
63.61000 123.805
63.62000 127.882
63.63000 137.475
63.64000 146.801
63.65000 143.833
63.66000 135.986
63.67000 128.729
63.68000 128.596
63.69000 130.553
63.70000 132.597
63.71000 135.261
63.72000 138.046
63.73000 140.378
63.74000 140.408
63.75000 140.195
63.76000 140.419
63.77000 141.985
63.78000 143.646
63.79000 143.575
63.80000 139.854
63.81000 136.016
63.82000 133.752
63.83000 134.542
63.84000 135.117
63.85000 137.363
63.86000 141.171
63.87000 144.910
63.88000 143.570
63.89000 139.080
63.90000 134.721
63.91000 134.683
63.92000 136.379
63.93000 138.108
63.94000 140.212
63.95000 142.426
63.96000 144.252
63.97000 143.385
63.98000 142.002
63.99000 140.848
64.00000 144.413
64.01000 147.843
64.02000 149.793
64.03000 147.265
64.04000 144.430
64.05000 141.980
64.06000 140.328
64.07000 138.700
64.08000 137.747
64.09000 139.431
64.10000 140.630
64.11000 143.026
64.12000 146.519
64.13000 149.984
64.14000 151.498
64.15000 151.826
64.16000 152.143
64.17000 151.766
64.18000 151.136
64.19000 150.569
64.20000 150.735
64.21000 151.108
64.22000 151.467
64.23000 151.733
64.24000 151.981
64.25000 152.188
64.26000 151.196
64.27000 150.259
64.28000 149.470
64.29000 149.122
64.30000 148.803
64.31000 150.281
64.32000 155.413
64.33000 160.653
64.34000 163.696
64.35000 158.005
64.36000 153.975
64.37000 154.147
64.38000 158.096
64.39000 161.993
64.40000 162.590
64.41000 161.213
64.42000 159.879
64.43000 162.780
64.44000 167.159
64.45000 171.023
64.46000 169.139
64.47000 165.657
64.48000 162.070
64.49000 157.788
64.50000 153.377
64.51000 149.723
64.52000 151.668
64.53000 153.808
64.54000 155.864
64.55000 157.670
64.56000 159.461
64.57000 162.220
64.58000 166.914
64.59000 171.662
64.60000 174.397
64.61000 168.266
64.62000 163.942
64.63000 162.615
64.64000 163.929
64.65000 165.185
64.66000 162.976
64.67000 158.729
64.68000 154.622
64.69000 154.826
64.70000 156.654
64.71000 158.234
64.72000 157.137
64.73000 155.307
64.74000 154.426
64.75000 159.743
64.76000 166.183
64.77000 171.500
64.78000 174.799
64.79000 177.329
64.80000 178.973
64.81000 178.070
64.82000 177.008
64.83000 177.973
64.84000 182.924
64.85000 187.981
64.86000 190.871
64.87000 181.845
64.88000 175.511
64.89000 173.546
64.90000 175.360
64.91000 177.141
64.92000 177.098
64.93000 176.002
64.94000 174.943
64.95000 178.912
64.96000 184.523
64.97000 189.804
64.98000 191.590
64.99000 192.438
65.00000 192.758
65.01000 189.708
65.02000 186.059
65.03000 183.058
65.04000 191.818
65.05000 200.084
65.06000 205.922
65.07000 204.894
65.08000 203.451
65.09000 202.926
65.10000 204.175
65.11000 205.469
65.12000 206.202
65.13000 212.253
65.14000 216.476
65.15000 217.931
65.16000 217.038
65.17000 216.153
65.18000 215.687
65.19000 215.459
65.20000 215.239
65.21000 217.718
65.22000 221.035
65.23000 224.364
65.24000 227.810
65.25000 231.287
65.26000 234.640
65.27000 237.219
65.28000 239.663
65.29000 241.666
65.30000 247.132
65.31000 251.921
65.32000 255.320
65.33000 254.859
65.34000 254.172
65.35000 252.584
65.36000 249.287
65.37000 245.949
65.38000 244.073
65.39000 262.279
65.40000 274.952
65.41000 281.196
65.42000 282.091
65.43000 282.990
65.44000 284.148
65.45000 285.450
65.46000 286.704
65.47000 295.035
65.48000 305.396
65.49000 314.613
65.50000 312.323
65.51000 307.052
65.52000 304.118
65.53000 315.535
65.54000 329.400
65.55000 340.722
65.56000 344.620
65.57000 347.171
65.58000 350.993
65.59000 358.286
65.60000 365.777
65.61000 374.633
65.62000 386.035
65.63000 397.496
65.64000 403.885
65.65000 439.328
65.66000 463.948
65.67000 502.576
65.68000 552.643
65.69000 603.223
65.70000 678.127
65.71000 766.365
65.72000 851.247
65.73000 958.372
65.74000 1066.629
65.75000 1177.456
65.76000 1313.530
65.77000 1456.026
65.78000 1591.480
65.79000 1684.532
65.80000 1770.494
65.81000 1840.420
65.82000 1897.881
65.83000 1943.749
65.84000 1982.881
65.85000 2003.933
65.86000 2023.992
65.87000 2038.820
65.88000 2044.048
65.89000 2049.070
65.90000 2051.846
65.91000 1992.629
65.92000 1951.620
65.93000 1894.740
65.94000 1825.142
65.95000 1754.758
65.96000 1649.194
65.97000 1524.676
65.98000 1405.069
65.99000 1282.135
66.00000 1165.935
66.01000 1049.939
66.02000 935.899
66.03000 822.348
66.04000 716.080
66.05000 652.786
66.06000 596.536
66.07000 550.954
66.08000 512.600
66.09000 481.949
66.10000 452.962
66.11000 428.366
66.12000 404.003
66.13000 387.113
66.14000 383.698
66.15000 380.556
66.16000 378.835
66.17000 367.390
66.18000 359.530
66.19000 359.088
66.20000 364.481
66.21000 369.891
66.22000 376.049
66.23000 382.603
66.24000 388.889
66.25000 402.105
66.26000 416.794
66.27000 431.372
66.28000 444.910
66.29000 458.194
66.30000 472.938
66.31000 496.132
66.32000 520.682
66.33000 540.499
66.34000 574.616
66.35000 603.479
66.36000 623.999
66.37000 622.885
66.38000 620.659
66.39000 619.980
66.40000 622.042
66.41000 624.156
66.42000 625.304
66.43000 637.600
66.44000 646.018
66.45000 647.992
66.46000 644.992
66.47000 641.715
66.48000 627.268
66.49000 607.007
66.50000 587.604
66.51000 569.984
66.52000 554.148
66.53000 537.275
66.54000 510.932
66.55000 482.307
66.56000 454.922
66.57000 434.568
66.58000 415.320
66.59000 399.843
66.60000 398.331
66.61000 398.184
66.62000 396.073
66.63000 388.959
66.64000 381.596
66.65000 376.860
66.66000 376.699
66.67000 376.620
66.68000 376.578
66.69000 359.254
66.70000 347.441
66.71000 345.236
66.72000 350.311
66.73000 355.326
66.74000 357.999
66.75000 359.474
66.76000 360.885
66.77000 357.147
66.78000 351.992
66.79000 347.257
66.80000 346.278
66.81000 346.187
66.82000 346.315
66.83000 347.656
66.84000 349.185
66.85000 350.409
66.86000 352.050
66.87000 353.410
66.88000 353.720
66.89000 351.400
66.90000 348.954
66.91000 348.498
66.92000 351.447
66.93000 354.454
66.94000 356.058
66.95000 356.077
66.96000 356.088
66.97000 355.919
66.98000 355.617
66.99000 355.428
67.00000 359.395
67.01000 365.453
67.02000 371.235
67.03000 363.824
67.04000 352.724
67.05000 343.703
67.06000 352.809
67.07000 366.126
67.08000 376.632
67.09000 371.813
67.10000 364.682
67.11000 358.993
67.12000 378.900
67.13000 396.839
67.14000 406.105
67.15000 394.003
67.16000 380.914
67.17000 375.233
67.18000 382.009
67.19000 388.983
67.20000 392.669
67.21000 391.198
67.22000 390.212
67.23000 391.885
67.24000 395.500
67.25000 399.081
67.26000 401.476
67.27000 403.285
67.28000 405.010
67.29000 404.309
67.30000 402.900
67.31000 401.478
67.32000 399.954
67.33000 398.407
67.34000 396.949
67.35000 395.964
67.36000 395.050
67.37000 394.323
67.38000 388.758
67.39000 383.932
67.40000 382.068
67.41000 387.378
67.42000 393.007
67.43000 395.374
67.44000 392.352
67.45000 389.250
67.46000 387.625
67.47000 402.943
67.48000 413.274
67.49000 416.604
67.50000 414.912
67.51000 413.437
67.52000 419.166
67.53000 428.395
67.54000 437.177
67.55000 440.928
67.56000 442.852
67.57000 444.332
67.58000 442.112
67.59000 439.063
67.60000 436.485
67.61000 436.374
67.62000 436.620
67.63000 436.815
67.64000 437.889
67.65000 438.812
67.66000 439.134
67.67000 438.021
67.68000 436.847
67.69000 438.601
67.70000 445.106
67.71000 451.677
67.72000 455.086
67.73000 443.093
67.74000 435.064
67.75000 436.499
67.76000 444.598
67.77000 452.597
67.78000 457.410
67.79000 460.703
67.80000 463.831
67.81000 464.950
67.82000 465.378
67.83000 465.498
67.84000 463.108
67.85000 460.166
67.86000 457.907
67.87000 459.165
67.88000 460.920
67.89000 462.303
67.90000 473.544
67.91000 483.216
67.92000 488.957
67.93000 485.500
67.94000 481.663
67.95000 481.907
67.96000 488.661
67.97000 495.499
67.98000 499.012
67.99000 489.749
68.00000 483.578
68.01000 484.932
68.02000 491.490
68.03000 497.990
68.04000 502.695
68.05000 506.558
68.06000 510.222
68.07000 516.259
68.08000 522.526
68.09000 528.035
68.10000 527.509
68.11000 525.681
68.12000 523.971
68.13000 522.858
68.14000 521.828
68.15000 521.020
68.16000 520.205
68.17000 519.552
68.18000 520.023
68.19000 523.080
68.20000 526.240
68.21000 530.581
68.22000 536.773
68.23000 542.986
68.24000 546.147
68.25000 573.053
68.26000 590.946
68.27000 592.123
68.28000 581.944
68.29000 572.069
68.30000 571.005
68.31000 574.008
68.32000 576.851
68.33000 573.743
68.34000 569.156
68.35000 566.477
68.36000 578.638
68.37000 593.942
68.38000 608.177
68.39000 617.125
68.40000 625.355
68.41000 631.786
68.42000 631.885
68.43000 631.564
68.44000 631.564
68.45000 632.291
68.46000 633.046
68.47000 638.275
68.48000 650.387
68.49000 662.575
68.50000 668.715
68.51000 696.146
68.52000 714.338
68.53000 718.118
68.54000 712.280
68.55000 707.052
68.56000 718.813
68.57000 738.280
68.58000 756.679
68.59000 793.261
68.60000 832.031
68.61000 868.454
68.62000 887.009
68.63000 901.852
68.64000 921.249
68.65000 962.771
68.66000 1007.230
68.67000 1041.820
68.68000 1111.940
68.69000 1169.939
68.70000 1224.265
68.71000 1270.424
68.72000 1316.284
68.73000 1353.857
68.74000 1378.903
68.75000 1403.822
68.76000 1441.651
68.77000 1492.324
68.78000 1543.012
68.79000 1595.094
68.80000 1648.091
68.81000 1701.060
68.82000 1753.302
68.83000 1805.218
68.84000 1854.199
68.85000 1928.535
68.86000 2003.747
68.87000 2088.798
68.88000 2247.113
68.89000 2420.365
68.90000 2628.502
68.91000 3002.904
68.92000 3398.901
68.93000 3705.663
68.94000 5156.362
68.95000 6376.607
68.96000 8003.236
68.97000 10517.956
68.98000 13063.888
68.99000 16041.523
69.00000 19660.139
69.01000 23284.662
69.02000 26819.006
69.03000 30265.217
69.04000 33703.148
69.05000 36423.129
69.06000 38680.844
69.07000 40902.730
69.08000 42205.145
69.09000 43104.563
69.10000 43951.582
69.11000 44693.430
69.12000 45343.289
69.13000 46005.531
69.14000 46758.039
69.15000 47528.602
69.16000 48269.988
69.17000 48874.910
69.18000 49462.496
69.19000 49915.676
69.20000 48690.973
69.21000 47623.730
69.22000 46033.168
69.23000 43318.406
69.24000 40565.785
69.25000 37814.156
69.26000 35063.977
69.27000 32313.984
69.28000 30008.141
69.29000 28127.182
69.30000 26253.514
69.31000 24965.266
69.32000 24047.303
69.33000 23147.887
69.34000 22706.035
69.35000 22461.328
69.36000 22231.301
69.37000 21669.887
69.38000 21068.346
69.39000 20385.299
69.40000 19120.959
69.41000 17742.539
69.42000 16267.043
69.43000 14345.862
69.44000 12369.319
69.45000 10851.660
69.46000 8850.225
69.47000 7241.030
69.48000 5833.155
69.49000 4850.396
69.50000 3881.341
69.51000 3115.033
69.52000 2639.092
69.53000 2165.461
69.54000 1846.826
69.55000 1673.509
69.56000 1500.796
69.57000 1373.073
69.58000 1273.307
69.59000 1174.893
69.60000 1108.564
69.61000 1055.823
69.62000 1006.340
69.63000 973.983
69.64000 949.008
69.65000 923.958
69.66000 898.377
69.67000 872.694
69.68000 846.638
69.69000 818.896
69.70000 790.950
69.71000 769.588
69.72000 755.509
69.73000 744.801
69.74000 734.243
69.75000 723.996
69.76000 713.758
69.77000 697.386
69.78000 672.387
69.79000 647.333
69.80000 637.838
69.81000 642.637
69.82000 647.282
69.83000 641.237
69.84000 628.667
69.85000 616.067
69.86000 602.800
69.87000 589.256
69.88000 576.572
69.89000 571.149
69.90000 568.091
69.91000 564.594
69.92000 558.091
69.93000 551.020
69.94000 543.694
69.95000 535.237
69.96000 526.646
69.97000 520.109
69.98000 512.239
69.99000 505.977
70.00000 500.799
