20.00000 500.496
20.01000 491.852
20.02000 481.974
20.03000 473.917
20.04000 473.043
20.05000 472.904
20.06000 472.801
20.07000 464.563
20.08000 457.834
20.09000 457.900
20.10000 470.394
20.11000 483.154
20.12000 486.542
20.13000 478.418
20.14000 470.277
20.15000 464.023
20.16000 459.294
20.17000 454.654
20.18000 453.906
20.19000 455.250
20.20000 456.587
20.21000 457.825
20.22000 459.027
20.23000 460.135
20.24000 465.737
20.25000 471.759
20.26000 476.197
20.27000 471.315
20.28000 464.911
20.29000 460.557
20.30000 464.144
20.31000 468.523
20.32000 471.740
20.33000 476.990
20.34000 481.132
20.35000 483.102
20.36000 481.166
20.37000 479.151
20.38000 474.943
20.39000 468.091
20.40000 461.246
20.41000 461.446
20.42000 467.139
20.43000 472.787
20.44000 476.490
20.45000 479.167
20.46000 481.438
20.47000 476.759
20.48000 469.571
20.49000 462.953
20.50000 459.566
20.51000 457.244
20.52000 456.292
20.53000 463.234
20.54000 471.439
20.55000 479.614
20.56000 487.676
20.57000 495.726
20.58000 501.612
20.59000 487.463
20.60000 475.759
20.61000 469.196
20.62000 471.715
20.63000 474.406
20.64000 474.523
20.65000 471.596
20.66000 468.670
20.67000 460.241
20.68000 447.651
20.69000 435.324
20.70000 433.470
20.71000 437.052
20.72000 440.679
20.73000 445.065
20.74000 449.720
20.75000 453.996
20.76000 461.214
20.77000 468.287
20.78000 474.214
20.79000 473.669
20.80000 472.109
20.81000 471.779
20.82000 476.041
20.83000 480.740
20.84000 484.157
20.85000 473.738
20.86000 465.196
20.87000 463.627
20.88000 474.164
20.89000 484.918
20.90000 489.848
20.91000 488.020
20.92000 486.187
20.93000 487.722
20.94000 491.774
20.95000 495.531
20.96000 488.073
20.97000 474.897
20.98000 462.079
20.99000 455.050
21.00000 450.039
21.01000 445.446
21.02000 447.834
21.03000 451.428
21.04000 455.101
21.05000 459.216
21.06000 463.398
21.07000 468.329
21.08000 476.005
21.09000 483.935
21.10000 489.672
21.11000 466.127
21.12000 446.982
21.13000 438.298
21.14000 447.459
21.15000 456.921
21.16000 461.088
21.17000 459.230
21.18000 457.371
21.19000 459.292
21.20000 463.981
21.21000 468.539
21.22000 468.333
21.23000 465.738
21.24000 463.178
21.25000 461.159
21.26000 459.325
21.27000 457.648
21.28000 466.144
21.29000 475.789
21.30000 482.347
21.31000 472.132
21.32000 459.395
21.33000 450.412
21.34000 454.962
21.35000 460.733
21.36000 464.887
21.37000 458.305
21.38000 452.888
21.39000 450.083
21.40000 451.658
21.41000 453.301
21.42000 452.176
21.43000 447.962
21.44000 443.759
21.45000 447.508
21.46000 456.968
21.47000 466.179
21.48000 466.827
21.49000 463.255
21.50000 459.800
21.51000 458.125
21.52000 457.049
21.53000 456.068
21.54000 454.892
21.55000 453.810
21.56000 454.585
21.57000 465.258
21.58000 477.388
21.59000 484.922
21.60000 476.175
21.61000 465.998
21.62000 458.711
21.63000 447.664
21.64000 439.099
21.65000 436.222
21.66000 442.714
21.67000 449.344
21.68000 460.726
21.69000 477.312
21.70000 493.835
21.71000 495.500
21.72000 486.625
21.73000 477.832
21.74000 471.777
21.75000 467.048
21.76000 463.096
21.77000 470.566
21.78000 481.818
21.79000 492.060
21.80000 483.657
21.81000 472.537
21.82000 464.984
21.83000 476.080
21.84000 489.865
21.85000 499.496
21.86000 494.672
21.87000 488.610
21.88000 484.293
21.89000 493.421
21.90000 500.814
21.91000 506.025
21.92000 507.705
21.93000 509.336
21.94000 511.873
21.95000 515.381
21.96000 518.873
21.97000 523.476
21.98000 528.803
21.99000 534.065
22.00000 537.318
22.01000 539.614
22.02000 541.887
22.03000 543.845
22.04000 545.699
22.05000 547.383
22.06000 554.246
22.07000 561.311
22.08000 567.060
22.09000 566.066
22.10000 564.120
22.11000 560.372
22.12000 550.464
22.13000 540.042
22.14000 532.659
22.15000 523.242
22.16000 516.019
22.17000 517.178
22.18000 531.660
22.19000 546.313
22.20000 548.545
22.21000 537.702
22.22000 526.909
22.23000 519.616
22.24000 514.794
22.25000 509.935
22.26000 504.005
22.27000 497.574
22.28000 491.419
22.29000 489.089
22.30000 487.983
22.31000 486.981
22.32000 491.332
22.33000 496.182
22.34000 498.411
22.35000 487.460
22.36000 474.688
22.37000 465.566
22.38000 468.710
22.39000 472.848
22.40000 475.764
22.41000 475.902
22.42000 475.923
22.43000 476.266
22.44000 477.112
22.45000 477.965
22.46000 473.854
22.47000 464.620
22.48000 455.436
22.49000 453.016
22.50000 455.150
22.51000 457.177
22.52000 456.090
22.53000 453.571
22.54000 451.264
22.55000 451.812
22.56000 453.257
22.57000 454.564
22.58000 446.937
22.59000 438.570
22.60000 431.187
22.61000 428.658
22.62000 426.785
22.63000 426.331
22.64000 430.560
22.65000 435.158
22.66000 438.380
22.67000 440.648
22.68000 442.336
22.69000 444.302
22.70000 446.694
22.71000 449.091
22.72000 448.004
22.73000 443.391
22.74000 438.806
22.75000 442.072
22.76000 450.446
22.77000 458.445
22.78000 456.049
22.79000 448.952
22.80000 442.214
22.81000 440.163
22.82000 439.560
22.83000 439.017
22.84000 434.233
22.85000 429.264
22.86000 426.617
22.87000 435.218
22.88000 445.308
22.89000 451.080
22.90000 442.845
22.91000 433.536
22.92000 427.050
22.93000 430.354
22.94000 433.115
22.95000 437.291
22.96000 443.600
22.97000 449.929
22.98000 447.802
22.99000 437.290
23.00000 426.847
23.01000 429.500
23.02000 440.545
23.03000 451.193
23.04000 451.300
23.05000 446.720
23.06000 442.106
23.07000 437.061
23.08000 431.886
23.09000 427.231
23.10000 426.160
23.11000 425.860
23.12000 426.284
23.13000 430.151
23.14000 434.463
23.15000 436.941
23.16000 433.568
23.17000 429.760
23.18000 427.121
23.19000 436.132
23.20000 443.219
23.21000 445.141
23.22000 439.417
23.23000 433.623
23.24000 432.970
23.25000 437.313
23.26000 441.625
23.27000 443.151
23.28000 442.893
23.29000 442.599
23.30000 441.416
23.31000 439.844
23.32000 438.255
23.33000 436.457
23.34000 434.597
23.35000 432.928
23.36000 437.646
23.37000 442.883
23.38000 446.769
23.39000 444.357
23.40000 441.148
23.41000 438.610
23.42000 438.174
23.43000 437.890
23.44000 437.694
23.45000 440.875
23.46000 443.348
23.47000 440.347
23.48000 429.390
23.49000 418.366
23.50000 411.482
23.51000 408.541
23.52000 405.624
23.53000 407.471
23.54000 412.241
23.55000 416.994
23.56000 421.320
23.57000 425.463
23.58000 429.598
23.59000 433.627
23.60000 437.624
23.61000 441.201
23.62000 443.741
23.63000 445.779
23.64000 445.597
23.65000 435.250
23.66000 423.645
23.67000 417.426
23.68000 427.792
23.69000 439.327
23.70000 447.226
23.71000 437.835
23.72000 430.388
23.73000 428.538
23.74000 434.678
23.75000 440.879
23.76000 444.135
23.77000 444.640
23.78000 445.142
23.79000 445.958
23.80000 446.951
23.81000 448.138
23.82000 453.871
23.83000 461.525
23.84000 468.644
23.85000 469.498
23.86000 468.548
23.87000 467.700
23.88000 475.644
23.89000 484.027
23.90000 491.349
23.91000 493.907
23.92000 495.888
23.93000 496.453
23.94000 492.733
23.95000 488.720
23.96000 485.988
23.97000 486.016
23.98000 486.100
23.99000 484.558
24.00000 480.739
24.01000 476.905
24.02000 476.782
24.03000 480.058
24.04000 483.304
24.05000 484.432
24.06000 484.275
24.07000 484.129
24.08000 484.259
24.09000 484.504
24.10000 483.974
24.11000 474.585
24.12000 462.688
24.13000 452.101
24.14000 455.341
24.15000 460.416
24.16000 465.349
24.17000 469.659
24.18000 473.896
24.19000 474.533
24.20000 464.461
24.21000 453.678
24.22000 446.380
24.23000 452.009
24.24000 456.483
24.25000 458.355
24.26000 456.642
24.27000 454.904
24.28000 449.692
24.29000 441.361
24.30000 433.110
24.31000 432.333
24.32000 435.951
24.33000 439.503
24.34000 441.621
24.35000 443.154
24.36000 444.332
24.37000 441.551
24.38000 437.670
24.39000 434.225
24.40000 440.271
24.41000 447.029
24.42000 450.477
24.43000 439.592
24.44000 427.051
24.45000 417.655
24.46000 417.454
24.47000 417.845
24.48000 418.108
24.49000 414.944
24.50000 412.522
24.51000 409.438
24.52000 405.461
24.53000 401.485
24.54000 403.184
24.55000 409.881
24.56000 416.510
24.57000 417.901
24.58000 416.251
24.59000 414.590
24.60000 412.685
24.61000 410.681
24.62000 408.666
24.63000 406.532
24.64000 404.366
24.65000 402.448
24.66000 406.225
24.67000 410.383
24.68000 412.203
24.69000 404.082
24.70000 394.839
24.71000 389.817
24.72000 396.928
24.73000 404.797
24.74000 410.058
24.75000 409.985
24.76000 409.826
24.77000 410.965
24.78000 413.825
24.79000 416.693
24.80000 418.606
24.81000 419.695
24.82000 420.771
24.83000 420.008
24.84000 418.225
24.85000 416.555
24.86000 417.199
24.87000 418.757
24.88000 419.350
24.89000 409.746
24.90000 397.407
24.91000 386.513
24.92000 392.859
24.93000 400.974
24.94000 407.980
24.95000 410.349
24.96000 412.206
24.97000 410.862
24.98000 400.472
24.99000 389.535
25.00000 382.267
25.01000 385.307
25.02000 387.747
25.03000 389.244
25.04000 389.514
25.05000 389.783
25.06000 392.876
25.07000 398.363
25.08000 403.785
25.09000 400.453
25.10000 392.359
25.11000 384.863
25.12000 389.128
25.13000 397.954
25.14000 405.385
25.15000 398.438
25.16000 387.702
25.17000 378.249
25.18000 384.869
25.19000 392.977
25.20000 400.204
25.21000 403.817
25.22000 407.041
25.23000 407.722
25.24000 401.342
25.25000 394.548
25.26000 390.061
25.27000 398.591
25.28000 405.112
25.29000 405.003
25.30000 396.416
25.31000 387.813
25.32000 386.693
25.33000 391.797
25.34000 396.836
25.35000 393.965
25.36000 386.872
25.37000 380.365
25.38000 384.993
25.39000 393.864
25.40000 401.478
25.41000 396.444
25.42000 388.135
25.43000 380.840
25.44000 380.125
25.45000 380.475
25.46000 379.919
25.47000 375.723
25.48000 371.144
25.49000 369.901
25.50000 377.764
25.51000 386.143
25.52000 391.641
25.53000 391.593
25.54000 391.464
25.55000 391.121
25.56000 390.508
25.57000 389.886
25.58000 385.852
25.59000 379.033
25.60000 372.307
25.61000 372.976
25.62000 377.567
25.63000 382.270
25.64000 389.007
25.65000 396.507
25.66000 403.091
25.67000 400.688
25.68000 395.999
25.69000 391.894
25.70000 390.901
25.71000 390.495
25.72000 390.227
25.73000 390.503
25.74000 390.835
25.75000 389.372
25.76000 383.093
25.77000 376.550
25.78000 372.284
25.79000 392.172
25.80000 407.145
25.81000 412.617
25.82000 406.385
25.83000 400.123
25.84000 394.410
25.85000 389.137
25.86000 383.939
25.87000 387.008
25.88000 394.311
25.89000 400.974
25.90000 396.230
25.91000 387.286
25.92000 379.985
25.93000 388.420
25.94000 400.786
25.95000 411.579
25.96000 403.513
25.97000 393.970
25.98000 387.092
25.99000 390.564
26.00000 395.072
26.01000 395.638
26.02000 385.811
26.03000 375.431
26.04000 368.708
26.05000 378.181
26.06000 385.353
26.07000 386.588
26.08000 380.645
26.09000 374.702
26.10000 373.049
26.11000 374.768
26.12000 376.462
26.13000 379.241
26.14000 382.492
26.15000 385.857
26.16000 391.186
26.17000 397.227
26.18000 402.592
26.19000 401.633
26.20000 399.122
26.21000 396.937
26.22000 393.380
26.23000 390.155
26.24000 388.561
26.25000 393.186
26.26000 398.419
26.27000 400.825
26.28000 395.905
26.29000 390.608
26.30000 387.199
26.31000 387.021
26.32000 386.937
26.33000 387.272
26.34000 388.107
26.35000 388.937
26.36000 388.590
26.37000 387.336
26.38000 386.101
26.39000 380.867
26.40000 373.785
26.41000 367.330
26.42000 371.334
26.43000 379.061
26.44000 386.118
26.45000 387.071
26.46000 386.554
26.47000 386.105
26.48000 383.745
26.49000 381.478
26.50000 379.517
26.51000 378.699
26.52000 377.990
26.53000 377.967
26.54000 379.695
26.55000 381.509
26.56000 382.669
26.57000 385.220
26.58000 387.096
26.59000 385.064
26.60000 378.487
26.61000 371.925
26.62000 370.101
26.63000 371.866
26.64000 373.601
26.65000 377.276
26.66000 381.789
26.67000 385.799
26.68000 381.682
26.69000 374.722
26.70000 368.715
26.71000 371.195
26.72000 375.683
26.73000 379.565
26.74000 376.963
26.75000 373.902
26.76000 370.146
26.77000 363.837
26.78000 357.290
26.79000 353.496
26.80000 356.597
26.81000 360.029
26.82000 362.208
26.83000 371.831
26.84000 378.909
26.85000 380.744
26.86000 376.593
26.87000 372.474
26.88000 375.477
26.89000 383.778
26.90000 391.931
26.91000 393.225
26.92000 391.147
26.93000 389.269
26.94000 390.533
26.95000 392.877
26.96000 394.249
26.97000 387.165
26.98000 378.117
26.99000 370.313
27.00000 373.539
27.01000 377.686
27.02000 381.000
27.03000 381.301
27.04000 381.328
27.05000 381.378
27.06000 381.480
27.07000 381.585
27.08000 381.651
27.09000 383.461
27.10000 384.791
27.11000 384.440
27.12000 382.207
27.13000 379.967
27.14000 376.974
27.15000 373.430
27.16000 369.953
27.17000 369.031
27.18000 369.358
27.19000 369.991
27.20000 375.269
27.21000 382.116
27.22000 388.212
27.23000 387.909
27.24000 386.147
27.25000 384.632
27.26000 382.218
27.27000 380.062
27.28000 377.781
27.29000 375.051
27.30000 372.282
27.31000 370.328
27.32000 370.347
27.33000 370.455
27.34000 370.523
27.35000 371.199
27.36000 371.694
27.37000 371.613
27.38000 370.898
27.39000 370.190
27.40000 370.665
27.41000 371.988
27.42000 373.284
27.43000 377.999
27.44000 384.133
27.45000 389.475
27.46000 383.142
27.47000 372.931
27.48000 363.587
27.49000 361.458
27.50000 360.942
27.51000 360.501
27.52000 369.416
27.53000 378.088
27.54000 384.388
27.55000 382.409
27.56000 379.720
27.57000 376.140
27.58000 370.441
27.59000 364.650
27.60000 361.049
27.61000 369.758
27.62000 376.153
27.63000 381.382
27.64000 385.353
27.65000 389.286
27.66000 388.007
27.67000 383.058
27.68000 378.213
27.69000 372.860
27.70000 367.485
27.71000 362.552
27.72000 363.933
27.73000 367.376
27.74000 370.732
27.75000 373.380
27.76000 375.872
27.77000 378.002
27.78000 377.937
27.79000 377.620
27.80000 377.526
27.81000 378.199
27.82000 378.935
27.83000 377.955
27.84000 372.959
27.85000 367.797
27.86000 364.609
27.87000 359.407
27.88000 355.652
27.89000 355.550
27.90000 359.305
27.91000 363.048
27.92000 365.362
27.93000 366.688
27.94000 367.984
27.95000 366.342
27.96000 363.445
27.97000 360.508
27.98000 357.021
27.99000 353.358
28.00000 351.251
28.01000 361.528
28.02000 374.474
28.03000 385.500
28.04000 379.532
28.05000 372.535
28.06000 366.505
28.07000 363.739
28.08000 361.238
28.09000 359.499
28.10000 359.516
28.11000 359.602
28.12000 359.654
28.13000 352.656
28.14000 347.584
28.15000 350.508
28.16000 361.709
28.17000 372.855
28.18000 377.675
28.19000 378.201
28.20000 378.714
28.21000 375.379
28.22000 370.485
28.23000 365.572
28.24000 360.403
28.25000 355.155
28.26000 351.150
28.27000 356.824
28.28000 364.546
28.29000 371.102
28.30000 364.706
28.31000 357.868
28.32000 353.685
28.33000 358.295
28.34000 363.601
28.35000 368.087
28.36000 370.720
28.37000 373.283
28.38000 374.842
28.39000 371.799
28.40000 369.589
28.41000 364.892
28.42000 357.670
28.43000 350.504
28.44000 348.998
28.45000 351.266
28.46000 353.480
28.47000 352.203
28.48000 349.468
28.49000 347.191
28.50000 350.920
28.51000 356.510
28.52000 361.135
28.53000 358.412
28.54000 354.163
28.55000 350.568
28.56000 346.683
28.57000 343.400
28.58000 340.433
28.59000 338.497
28.60000 336.640
28.61000 339.283
28.62000 351.924
28.63000 364.932
28.64000 372.791
28.65000 367.699
28.66000 363.979
28.67000 361.317
28.68000 359.708
28.69000 358.083
28.70000 354.878
28.71000 350.639
28.72000 346.507
28.73000 352.680
28.74000 362.954
28.75000 372.196
28.76000 368.236
28.77000 360.258
28.78000 352.359
28.79000 345.048
28.80000 337.856
28.81000 331.792
28.82000 336.426
28.83000 341.456
28.84000 346.100
28.85000 349.512
28.86000 352.831
28.87000 355.051
28.88000 354.868
28.89000 354.602
28.90000 354.442
28.91000 360.476
28.92000 364.804
28.93000 364.649
28.94000 360.126
28.95000 355.657
28.96000 355.859
28.97000 359.067
28.98000 362.191
28.99000 358.890
29.00000 353.063
29.01000 347.792
29.02000 349.440
29.03000 353.157
29.04000 356.381
29.05000 356.008
29.06000 354.915
29.07000 353.997
29.08000 354.459
29.09000 354.989
29.10000 355.613
29.11000 356.529
29.12000 357.466
29.13000 356.798
29.14000 352.681
29.15000 348.449
29.16000 345.931
29.17000 344.412
29.18000 343.342
29.19000 346.413
29.20000 353.441
29.21000 360.323
29.22000 355.458
29.23000 343.166
29.24000 331.213
29.25000 334.774
29.26000 344.517
29.27000 353.075
29.28000 347.299
29.29000 337.310
29.30000 329.364
29.31000 335.982
29.32000 345.457
29.33000 353.393
29.34000 353.639
29.35000 353.049
29.36000 352.376
29.37000 351.447
29.38000 350.500
29.39000 350.213
29.40000 351.320
29.41000 352.471
29.42000 353.152
29.43000 345.888
29.44000 340.716
29.45000 339.967
29.46000 343.361
29.47000 346.707
29.48000 346.471
29.49000 344.010
29.50000 341.620
29.51000 343.090
29.52000 346.037
29.53000 348.930
29.54000 351.182
29.55000 353.248
29.56000 354.934
29.57000 353.959
29.58000 352.473
29.59000 351.233
29.60000 347.120
29.61000 343.419
29.62000 342.552
29.63000 350.283
29.64000 358.604
29.65000 363.562
29.66000 361.541
29.67000 359.306
29.68000 357.996
29.69000 350.469
29.70000 345.139
29.71000 344.388
29.72000 347.844
29.73000 351.262
29.74000 352.097
29.75000 351.356
29.76000 350.636
29.77000 353.986
29.78000 358.766
29.79000 363.003
29.80000 361.008
29.81000 357.244
29.82000 354.304
29.83000 356.991
29.84000 360.740
29.85000 363.858
29.86000 362.679
29.87000 361.281
29.88000 361.616
29.89000 367.117
29.90000 372.963
29.91000 377.525
29.92000 379.466
29.93000 381.330
29.94000 382.413
29.95000 375.671
29.96000 370.903
29.97000 370.004
29.98000 372.590
29.99000 375.174
30.00000 377.695
30.01000 380.177
30.02000 382.582
30.03000 381.708
30.04000 379.613
30.05000 377.642
30.06000 377.068
30.07000 376.882
30.08000 375.749
30.09000 368.277
30.10000 359.632
30.11000 352.466
30.12000 356.591
30.13000 361.079
30.14000 363.878
30.15000 361.726
30.16000 359.253
30.17000 357.782
30.18000 358.319
30.19000 358.912
30.20000 359.255
30.21000 353.601
30.22000 349.622
30.23000 350.073
30.24000 354.437
30.25000 358.706
30.26000 357.188
30.27000 352.259
30.28000 347.491
30.29000 345.704
30.30000 345.148
30.31000 344.793
30.32000 346.629
30.33000 349.065
30.34000 352.221
30.35000 360.100
30.36000 368.835
30.37000 376.050
30.38000 362.981
30.39000 350.319
30.40000 342.127
30.41000 346.817
30.42000 352.314
30.43000 352.539
30.44000 342.377
30.45000 331.937
30.46000 325.964
30.47000 345.679
30.48000 359.521
30.49000 363.003
30.50000 357.509
30.51000 352.153
30.52000 354.699
30.53000 361.820
30.54000 368.700
30.55000 362.694
30.56000 352.227
30.57000 342.955
30.58000 346.379
30.59000 353.218
30.60000 359.317
30.61000 360.675
30.62000 361.189
30.63000 361.612
30.64000 357.932
30.65000 354.532
30.66000 352.220
30.67000 352.987
30.68000 353.941
30.69000 352.432
30.70000 346.153
30.71000 339.752
30.72000 336.120
30.73000 337.666
30.74000 338.766
30.75000 345.351
30.76000 356.598
30.77000 367.592
30.78000 365.091
30.79000 354.912
30.80000 345.090
30.81000 346.684
30.82000 352.361
30.83000 358.430
30.84000 368.569
30.85000 379.785
30.86000 388.744
30.87000 383.521
30.88000 375.824
30.89000 369.513
30.90000 371.624
30.91000 374.102
30.92000 378.411
30.93000 387.814
30.94000 397.518
30.95000 402.753
30.96000 399.485
30.97000 396.011
30.98000 394.056
30.99000 412.617
31.00000 425.538
31.01000 429.546
31.02000 426.120
31.03000 422.911
31.04000 430.645
31.05000 444.497
31.06000 457.843
31.07000 471.258
31.08000 483.885
31.09000 496.655
31.10000 510.860
31.11000 525.439
31.12000 540.006
31.13000 554.501
31.14000 568.985
31.15000 580.816
31.16000 608.643
31.17000 632.801
31.18000 655.096
31.19000 672.293
31.20000 689.200
31.21000 712.962
31.22000 749.549
31.23000 786.430
31.24000 807.011
31.25000 843.547
31.26000 868.871
31.27000 894.331
31.28000 919.902
31.29000 945.350
31.30000 964.913
31.31000 981.243
31.32000 996.955
31.33000 1013.654
31.34000 1029.662
31.35000 1045.050
31.36000 1054.319
31.37000 1062.029
31.38000 1069.366
31.39000 1074.455
31.40000 1079.167
31.41000 1083.001
31.42000 1083.108
31.43000 1082.881
31.44000 1078.103
31.45000 1061.084
31.46000 1043.390
31.47000 1021.746
31.48000 992.842
31.49000 963.781
31.50000 947.701
31.51000 900.904
31.52000 868.586
31.53000 847.370
31.54000 835.071
31.55000 822.487
31.56000 796.992
31.57000 764.525
31.58000 733.334
31.59000 697.061
31.60000 661.351
31.61000 627.368
31.62000 610.003
31.63000 596.799
31.64000 582.394
31.65000 560.880
31.66000 538.199
31.67000 519.810
31.68000 507.093
31.69000 497.195
31.70000 484.643
31.71000 465.073
31.72000 445.129
31.73000 430.942
31.74000 427.159
31.75000 423.589
31.76000 421.631
31.77000 414.061
31.78000 408.853
31.79000 406.200
31.80000 405.560
31.81000 404.738
31.82000 396.095
31.83000 383.302
31.84000 371.029
31.85000 375.589
31.86000 385.557
31.87000 393.427
31.88000 381.597
31.89000 364.922
31.90000 351.954
31.91000 360.477
31.92000 372.460
31.93000 382.138
31.94000 374.978
31.95000 367.815
31.96000 361.742
31.97000 358.501
31.98000 355.405
31.99000 352.425
32.00000 349.652
32.01000 346.882
32.02000 345.376
32.03000 349.430
32.04000 352.198
32.05000 350.172
32.06000 344.438
32.07000 338.737
32.08000 334.378
32.09000 330.720
32.10000 327.216
32.11000 326.695
32.12000 327.202
32.13000 327.941
32.14000 330.816
32.15000 334.207
32.16000 336.781
32.17000 334.710
32.18000 331.907
32.19000 329.651
32.20000 325.010
32.21000 321.061
32.22000 317.640
32.23000 315.570
32.24000 313.568
32.25000 315.532
32.26000 324.419
32.27000 333.432
32.28000 338.288
32.29000 336.193
32.30000 334.744
32.31000 331.241
32.32000 326.177
32.33000 321.223
32.34000 320.515
32.35000 321.984
32.36000 323.388
32.37000 323.329
32.38000 322.795
32.39000 321.949
32.40000 318.312
32.41000 314.013
32.42000 311.267
32.43000 317.181
32.44000 324.432
32.45000 330.242
32.46000 324.978
32.47000 319.882
32.48000 315.668
32.49000 313.666
32.50000 311.771
32.51000 312.394
32.52000 317.337
32.53000 322.353
32.54000 325.032
32.55000 321.385
32.56000 318.895
32.57000 316.533
32.58000 314.267
32.59000 312.125
32.60000 314.539
32.61000 319.249
32.62000 323.746
32.63000 319.065
32.64000 311.777
32.65000 304.904
32.66000 301.654
32.67000 299.247
32.68000 297.837
32.69000 301.872
32.70000 306.730
32.71000 310.608
32.72000 310.626
32.73000 310.357
32.74000 310.857
32.75000 313.253
32.76000 315.738
32.77000 316.379
32.78000 313.915
32.79000 311.401
32.80000 310.070
32.81000 311.529
32.82000 312.527
32.83000 314.427
32.84000 316.988
32.85000 319.455
32.86000 318.672
32.87000 316.279
32.88000 313.998
32.89000 307.151
32.90000 299.366
32.91000 293.121
32.92000 300.024
32.93000 309.933
32.94000 318.223
32.95000 317.843
32.96000 316.178
32.97000 314.854
32.98000 324.700
32.99000 333.428
33.00000 337.063
33.01000 328.336
33.02000 319.055
33.03000 313.440
33.04000 313.893
33.05000 314.437
33.06000 314.723
33.07000 302.701
33.08000 294.612
33.09000 295.546
33.10000 302.966
33.11000 310.164
33.12000 309.897
33.13000 305.996
33.14000 302.283
33.15000 301.392
33.16000 301.436
33.17000 301.006
33.18000 296.614
33.19000 291.333
33.20000 287.586
33.21000 291.901
33.22000 297.386
33.23000 301.728
33.24000 298.306
33.25000 295.018
33.26000 291.846
33.27000 288.950
33.28000 286.066
33.29000 284.842
33.30000 286.319
33.31000 287.833
33.32000 288.620
33.33000 290.501
33.34000 291.792
33.35000 295.817
33.36000 301.773
33.37000 307.418
33.38000 303.118
33.39000 294.061
33.40000 285.454
33.41000 283.870
33.42000 284.529
33.43000 284.643
33.44000 280.319
33.45000 275.016
33.46000 272.222
33.47000 282.365
33.48000 294.346
33.49000 303.792
33.50000 298.252
33.51000 292.802
33.52000 290.230
33.53000 294.411
33.54000 298.871
33.55000 301.900
33.56000 302.641
33.57000 303.352
33.58000 303.717
33.59000 286.303
33.60000 274.688
33.61000 276.380
33.62000 287.297
33.63000 297.928
33.64000 299.800
33.65000 297.553
33.66000 295.421
33.67000 296.394
33.68000 298.211
33.69000 299.499
33.70000 296.559
33.71000 292.705
33.72000 290.302
33.73000 295.240
33.74000 301.199
33.75000 305.878
33.76000 297.215
33.77000 289.412
33.78000 287.366
33.79000 298.591
33.80000 310.346
33.81000 316.737
33.82000 314.709
33.83000 312.579
33.84000 311.494
33.85000 304.043
33.86000 299.084
33.87000 298.598
33.88000 301.158
33.89000 303.618
33.90000 303.190
33.91000 301.425
33.92000 299.753
33.93000 299.970
33.94000 300.719
33.95000 302.071
33.96000 308.124
33.97000 315.175
33.98000 320.834
33.99000 319.585
34.00000 317.395
34.01000 315.683
34.02000 314.123
34.03000 312.888
34.04000 313.224
34.05000 317.122
34.06000 321.157
34.07000 323.263
34.08000 322.394
34.09000 321.493
34.10000 321.038
34.11000 317.192
34.12000 314.677
34.13000 317.923
34.14000 325.021
34.15000 331.768
34.16000 328.685
34.17000 321.133
34.18000 313.993
34.19000 316.079
34.20000 320.627
34.21000 325.074
34.22000 328.759
34.23000 332.284
34.24000 336.157
34.25000 341.722
34.26000 347.512
34.27000 352.019
34.28000 352.757
34.29000 353.112
34.30000 352.120
34.31000 348.127
34.32000 344.024
34.33000 344.887
34.34000 353.274
34.35000 361.739
34.36000 358.052
34.37000 342.245
34.38000 326.588
34.39000 325.119
34.40000 332.971
34.41000 340.547
34.42000 340.704
34.43000 337.547
34.44000 334.567
34.45000 332.797
34.46000 331.513
34.47000 330.089
34.48000 327.622
34.49000 324.943
34.50000 323.702
34.51000 329.333
34.52000 335.859
34.53000 340.917
34.54000 340.996
34.55000 340.761
34.56000 339.181
34.57000 334.656
34.58000 330.026
34.59000 327.189
34.60000 327.020
34.61000 326.876
34.62000 326.620
34.63000 326.254
34.64000 325.798
34.65000 317.418
34.66000 303.924
34.67000 290.861
34.68000 288.875
34.69000 291.756
34.70000 294.470
34.71000 295.679
34.72000 296.373
34.73000 296.452
34.74000 292.034
34.75000 286.714
34.76000 283.339
34.77000 289.078
34.78000 295.979
34.79000 301.304
34.80000 300.414
34.81000 299.348
34.82000 297.883
34.83000 295.558
34.84000 293.203
34.85000 291.203
34.86000 289.719
34.87000 288.240
34.88000 287.586
34.89000 287.724
34.90000 287.870
34.91000 288.749
34.92000 290.092
34.93000 291.338
34.94000 290.169
34.95000 287.958
34.96000 285.880
34.97000 284.757
34.98000 283.990
34.99000 283.353
35.00000 283.656
35.01000 284.144
35.02000 283.951
35.03000 280.632
35.04000 276.923
35.05000 274.074
35.06000 268.711
35.07000 264.329
35.08000 262.322
35.09000 265.337
35.10000 268.515
35.11000 270.391
35.12000 270.397
35.13000 270.388
35.14000 268.600
35.15000 265.141
35.16000 261.763
35.17000 264.488
35.18000 271.013
35.19000 277.354
35.20000 279.275
35.21000 279.321
35.22000 279.364
35.23000 274.914
35.24000 269.673
35.25000 265.828
35.26000 271.754
35.27000 279.566
35.28000 285.174
35.29000 280.824
35.30000 275.261
35.31000 271.006
35.32000 265.420
35.33000 260.940
35.34000 257.678
35.35000 256.949
35.36000 256.297
35.37000 261.234
35.38000 274.048
35.39000 286.915
35.40000 288.206
35.41000 278.840
35.42000 269.555
35.43000 265.917
35.44000 265.735
35.45000 265.532
35.46000 264.825
35.47000 263.909
35.48000 263.051
35.49000 265.171
35.50000 267.869
35.51000 269.851
35.52000 266.929
35.53000 263.080
35.54000 259.847
35.55000 259.354
35.56000 259.187
35.57000 259.059
35.58000 255.006
35.59000 251.609
35.60000 250.771
35.61000 255.166
35.62000 259.715
35.63000 264.514
35.64000 269.657
35.65000 274.801
35.66000 277.059
35.67000 276.711
35.68000 276.308
35.69000 272.269
35.70000 266.046
35.71000 259.945
35.72000 256.557
35.73000 254.282
35.74000 252.155
35.75000 253.575
35.76000 255.764
35.77000 257.776
35.78000 258.600
35.79000 259.204
35.80000 260.537
35.81000 265.045
35.82000 269.922
35.83000 273.618
35.84000 264.471
35.85000 256.634
35.86000 251.694
35.87000 252.580
35.88000 253.629
35.89000 255.731
35.90000 259.262
35.91000 262.799
35.92000 264.328
35.93000 264.077
35.94000 263.848
35.95000 264.940
35.96000 266.813
35.97000 268.575
35.98000 267.955
35.99000 266.374
36.00000 264.900
36.01000 262.347
36.02000 259.766
36.03000 257.517
36.04000 257.460
36.05000 257.801
36.06000 258.404
36.07000 260.131
36.08000 261.985
36.09000 263.384
36.10000 254.160
36.11000 246.411
36.12000 241.584
36.13000 242.528
36.14000 243.628
36.15000 245.479
36.16000 248.335
36.17000 251.194
36.18000 253.041
36.19000 254.007
36.20000 254.938
36.21000 253.885
36.22000 251.681
36.23000 249.854
36.24000 255.791
36.25000 264.806
36.26000 273.200
36.27000 268.836
36.28000 261.778
36.29000 255.991
36.30000 258.381
36.31000 262.231
36.32000 264.279
36.33000 258.763
36.34000 252.407
36.35000 247.635
36.36000 244.340
36.37000 241.835
36.38000 241.096
36.39000 243.784
36.40000 246.559
36.41000 248.152
36.42000 248.197
36.43000 248.236
36.44000 252.562
36.45000 260.527
36.46000 268.325
36.47000 267.077
36.48000 260.670
36.49000 254.583
36.50000 254.847
36.51000 257.586
36.52000 260.130
36.53000 261.629
36.54000 262.731
36.55000 263.317
36.56000 260.655
36.57000 257.424
36.58000 254.937
36.59000 255.516
36.60000 256.426
36.61000 257.107
36.62000 259.896
36.63000 262.167
36.64000 262.713
36.65000 259.966
36.66000 257.139
36.67000 256.764
36.68000 259.544
36.69000 262.333
36.70000 262.632
36.71000 260.855
36.72000 259.074
36.73000 257.064
36.74000 254.926
36.75000 253.324
36.76000 262.007
36.77000 274.628
36.78000 286.333
36.79000 280.706
36.80000 271.576
36.81000 264.305
36.82000 268.518
36.83000 274.701
36.84000 279.621
36.85000 279.431
36.86000 278.701
36.87000 278.158
36.88000 274.686
36.89000 271.856
36.90000 271.141
36.91000 274.392
36.92000 277.736
36.93000 278.594
36.94000 276.316
36.95000 274.030
36.96000 277.246
36.97000 284.950
36.98000 292.521
36.99000 293.668
37.00000 291.279
37.01000 288.905
37.02000 286.827
37.03000 284.861
37.04000 283.042
37.05000 279.903
37.06000 276.779
37.07000 274.576
37.08000 277.957
37.09000 282.276
37.10000 286.478
37.11000 290.212
37.12000 293.898
37.13000 296.626
37.14000 291.941
37.15000 287.987
37.16000 283.775
37.17000 279.087
37.18000 274.389
37.19000 268.964
37.20000 262.639
37.21000 256.321
37.22000 254.480
37.23000 256.238
37.24000 257.955
37.25000 257.777
37.26000 256.575
37.27000 255.659
37.28000 259.880
37.29000 266.004
37.30000 271.658
37.31000 267.091
37.32000 260.692
37.33000 255.149
37.34000 254.690
37.35000 255.068
37.36000 255.919
37.37000 258.620
37.38000 261.507
37.39000 263.633
37.40000 262.982
37.41000 262.363
37.42000 261.145
37.43000 258.841
37.44000 256.514
37.45000 256.755
37.46000 260.116
37.47000 263.478
37.48000 261.370
37.49000 254.968
37.50000 248.676
37.51000 247.073
37.52000 247.966
37.53000 248.945
37.54000 251.418
37.55000 254.436
37.56000 257.216
37.57000 258.141
37.58000 258.559
37.59000 258.893
37.60000 258.739
37.61000 258.506
37.62000 257.837
37.63000 255.499
37.64000 252.997
37.65000 251.164
37.66000 249.886
37.67000 248.921
37.68000 249.946
37.69000 254.513
37.70000 259.149
37.71000 259.817
37.72000 255.752
37.73000 251.687
37.74000 251.315
37.75000 253.795
37.76000 256.249
37.77000 257.660
37.78000 258.526
37.79000 259.227
37.80000 257.155
37.81000 254.091
37.82000 251.273
37.83000 253.889
37.84000 257.402
37.85000 259.718
37.86000 255.213
37.87000 249.628
37.88000 246.909
37.89000 254.977
37.90000 264.080
37.91000 270.716
37.92000 265.863
37.93000 261.682
37.94000 257.168
37.95000 252.073
37.96000 246.968
37.97000 247.712
37.98000 255.303
37.99000 262.885
38.00000 264.829
38.01000 262.495
38.02000 260.180
38.03000 258.623
38.04000 257.455
38.05000 256.428
38.06000 257.687
38.07000 259.748
38.08000 261.640
38.09000 258.310
38.10000 254.235
38.11000 251.187
38.12000 253.886
38.13000 257.474
38.14000 260.932
38.15000 263.908
38.16000 266.838
38.17000 268.964
38.18000 266.246
38.19000 263.977
38.20000 262.997
38.21000 264.231
38.22000 265.503
38.23000 267.329
38.24000 269.790
38.25000 272.244
38.26000 274.326
38.27000 276.117
38.28000 277.966
38.29000 282.000
38.30000 287.138
38.31000 292.208
38.32000 296.231
38.33000 299.890
38.34000 303.241
38.35000 317.157
38.36000 331.731
38.37000 344.972
38.38000 350.904
38.39000 355.727
38.40000 362.736
38.41000 377.691
38.42000 393.369
38.43000 404.681
38.44000 424.988
38.45000 440.876
38.46000 458.455
38.47000 478.891
38.48000 499.374
38.49000 523.665
38.50000 552.245
38.51000 580.735
38.52000 614.643
38.53000 652.221
38.54000 689.524
38.55000 717.108
38.56000 739.868
38.57000 763.755
38.58000 804.926
38.59000 851.968
38.60000 894.931
38.61000 914.535
38.62000 927.186
38.63000 943.118
38.64000 976.686
38.65000 1012.875
38.66000 1045.706
38.67000 1066.544
38.68000 1086.316
38.69000 1100.507
38.70000 1117.868
38.71000 1131.253
38.72000 1140.018
38.73000 1141.115
38.74000 1142.095
38.75000 1134.039
38.76000 1116.003
38.77000 1098.029
38.78000 1089.846
38.79000 1088.732
38.80000 1087.118
38.81000 1068.738
38.82000 1042.176
38.83000 1014.806
38.84000 975.409
38.85000 931.999
38.86000 892.443
38.87000 853.805
38.88000 819.757
38.89000 785.919
38.90000 753.182
38.91000 720.607
38.92000 687.971
38.93000 655.126
38.94000 622.262
38.95000 598.800
38.96000 559.665
38.97000 529.293
38.98000 497.903
38.99000 464.851
39.00000 431.776
39.01000 407.998
39.02000 394.288
39.03000 380.640
39.04000 367.489
39.05000 354.818
39.06000 342.188
39.07000 330.901
39.08000 320.258
39.09000 309.617
39.10000 299.006
39.11000 288.404
39.12000 278.766
39.13000 272.348
39.14000 267.302
39.15000 263.049
39.16000 262.894
39.17000 263.324
39.18000 262.232
39.19000 255.897
39.20000 249.119
39.21000 244.306
39.22000 241.653
39.23000 239.702
39.24000 237.353
39.25000 234.367
39.26000 231.372
39.27000 233.834
39.28000 242.090
39.29000 250.308
39.30000 249.941
39.31000 243.675
39.32000 237.659
39.33000 239.339
39.34000 244.647
39.35000 249.174
39.36000 242.739
39.37000 232.769
39.38000 223.728
39.39000 227.888
39.40000 234.084
39.41000 238.757
39.42000 235.705
39.43000 231.575
39.44000 229.443
39.45000 234.071
39.46000 239.254
39.47000 242.914
39.48000 235.340
39.49000 229.249
39.50000 228.937
39.51000 237.723
39.52000 246.620
39.53000 249.999
39.54000 247.633
39.55000 245.279
39.56000 240.925
39.57000 235.275
39.58000 229.884
39.59000 232.123
39.60000 237.897
39.61000 243.351
39.62000 244.429
39.63000 244.121
39.64000 243.842
39.65000 241.230
39.66000 238.493
39.67000 235.887
39.68000 233.929
39.69000 232.061
39.70000 230.457
39.71000 229.735
39.72000 229.084
39.73000 228.626
39.74000 226.631
39.75000 225.076
39.76000 222.841
39.77000 219.553
39.78000 216.254
39.79000 219.845
39.80000 230.467
39.81000 241.030
39.82000 242.398
39.83000 237.666
39.84000 233.098
39.85000 233.176
39.86000 235.372
39.87000 237.507
39.88000 238.850
39.89000 239.945
39.90000 240.934
39.91000 234.209
39.92000 226.886
39.93000 220.723
39.94000 220.229
39.95000 220.492
39.96000 221.225
39.97000 223.496
39.98000 225.886
39.99000 227.555
40.00000 223.551
40.01000 220.368
40.02000 219.436
40.03000 221.923
40.04000 224.447
40.05000 227.451
40.06000 230.935
40.07000 234.398
40.08000 233.482
40.09000 229.735
40.10000 225.974
40.11000 221.845
40.12000 217.550
40.13000 213.944
40.14000 219.194
40.15000 227.155
40.16000 234.321
40.17000 231.700
40.18000 227.644
40.19000 224.168
40.20000 223.474
40.21000 223.143
40.22000 224.181
40.23000 229.620
40.24000 235.391
40.25000 239.400
40.26000 232.463
40.27000 226.944
40.28000 223.834
40.29000 224.319
40.30000 224.838
40.31000 225.189
40.32000 225.375
40.33000 225.560
40.34000 223.113
40.35000 219.028
40.36000 215.080
40.37000 214.697
40.38000 215.882
40.39000 216.934
40.40000 216.305
40.41000 215.169
40.42000 214.150
40.43000 215.579
40.44000 217.260
40.45000 218.837
40.46000 219.925
40.47000 220.950
40.48000 221.768
40.49000 221.931
40.50000 222.045
40.51000 222.124
40.52000 221.799
40.53000 221.544
40.54000 219.670
40.55000 215.424
40.56000 211.158
40.57000 211.634
40.58000 216.669
40.59000 221.667
40.60000 223.240
40.61000 222.646
40.62000 222.024
40.63000 220.712
40.64000 219.101
40.65000 217.020
40.66000 209.193
40.67000 199.668
40.68000 191.137
40.69000 200.676
40.70000 212.115
40.71000 221.579
40.72000 221.925
40.73000 221.131
40.74000 219.798
40.75000 216.791
40.76000 213.664
40.77000 211.517
40.78000 215.614
40.79000 218.838
40.80000 220.664
40.81000 220.477
40.82000 220.273
40.83000 217.526
40.84000 212.382
40.85000 207.279
40.86000 208.396
40.87000 213.308
40.88000 217.844
40.89000 213.369
40.90000 205.060
40.91000 197.704
40.92000 201.657
40.93000 208.892
40.94000 215.357
40.95000 216.511
40.96000 216.621
40.97000 216.513
40.98000 215.416
40.99000 214.198
41.00000 213.392
41.01000 213.842
41.02000 214.379
41.03000 214.746
41.04000 212.535
41.05000 210.821
41.06000 210.972
41.07000 213.756
41.08000 216.557
41.09000 214.350
41.10000 207.516
41.11000 200.741
41.12000 202.970
41.13000 210.574
41.14000 217.762
41.15000 215.358
41.16000 208.941
41.17000 202.857
41.18000 200.635
41.19000 199.515
41.20000 198.516
41.21000 203.738
41.22000 209.304
41.23000 213.922
41.24000 214.327
41.25000 214.229
41.26000 214.135
41.27000 214.051
41.28000 213.969
41.29000 213.912
41.30000 214.628
41.31000 215.180
41.32000 215.266
41.33000 214.705
41.34000 214.138
41.35000 210.039
41.36000 202.743
41.37000 195.514
41.38000 193.207
41.39000 193.854
41.40000 194.554
41.41000 196.437
41.42000 198.806
41.43000 201.077
41.44000 202.235
41.45000 203.080
41.46000 203.831
41.47000 206.350
41.48000 208.820
41.49000 211.086
41.50000 212.460
41.51000 213.730
41.52000 213.700
41.53000 209.843
41.54000 205.737
41.55000 202.967
41.56000 209.554
41.57000 214.653
41.58000 214.424
41.59000 206.935
41.60000 199.410
41.61000 199.062
41.62000 205.092
41.63000 211.061
41.64000 212.682
41.65000 211.749
41.66000 210.705
41.67000 207.279
41.68000 202.891
41.69000 198.843
41.70000 198.530
41.71000 199.246
41.72000 199.880
41.73000 205.127
41.74000 210.398
41.75000 214.586
41.76000 214.131
41.77000 213.146
41.78000 211.765
41.79000 209.238
41.80000 206.638
41.81000 204.895
41.82000 209.982
41.83000 213.894
41.84000 211.823
41.85000 201.747
41.86000 191.642
41.87000 192.004
41.88000 201.487
41.89000 210.868
41.90000 214.734
41.91000 215.376
41.92000 216.055
41.93000 217.498
41.94000 219.244
41.95000 220.393
41.96000 215.156
41.97000 208.192
41.98000 202.036
41.99000 202.009
42.00000 202.933
42.01000 204.164
42.02000 206.689
42.03000 209.357
42.04000 212.040
42.05000 214.768
42.06000 217.498
42.07000 219.317
42.08000 214.268
42.09000 210.399
42.10000 206.963
42.11000 204.095
42.12000 201.234
42.13000 201.666
42.14000 204.911
42.15000 208.119
42.16000 210.679
42.17000 212.817
42.18000 214.954
42.19000 217.075
42.20000 219.191
42.21000 220.753
42.22000 216.543
42.23000 210.800
42.24000 205.738
42.25000 206.449
42.26000 207.936
42.27000 209.016
42.28000 208.416
42.29000 207.634
42.30000 207.700
42.31000 210.136
42.32000 212.714
42.33000 214.421
42.34000 213.218
42.35000 212.277
42.36000 207.533
42.37000 197.885
42.38000 188.241
42.39000 190.411
42.40000 202.491
42.41000 214.423
42.42000 215.706
42.43000 211.125
42.44000 206.708
42.45000 205.432
42.46000 205.363
42.47000 205.116
42.48000 203.062
42.49000 200.536
42.50000 198.316
42.51000 201.524
42.52000 205.087
42.53000 209.147
42.54000 215.222
42.55000 221.511
42.56000 224.733
42.57000 219.521
42.58000 213.823
42.59000 210.074
42.60000 211.824
42.61000 213.207
42.62000 213.605
42.63000 212.759
42.64000 211.901
42.65000 208.053
42.66000 201.743
42.67000 195.515
42.68000 196.256
42.69000 200.722
42.70000 204.982
42.71000 205.389
42.72000 204.343
42.73000 202.773
42.74000 196.008
42.75000 187.912
42.76000 180.815
42.77000 190.133
42.78000 200.505
42.79000 208.104
42.80000 204.654
42.81000 200.058
42.82000 196.511
42.83000 195.795
42.84000 195.236
42.85000 194.871
42.86000 196.373
42.87000 197.506
42.88000 198.611
42.89000 199.680
42.90000 200.754
42.91000 203.324
42.92000 207.102
42.93000 210.827
42.94000 210.763
42.95000 208.704
42.96000 206.835
42.97000 208.420
42.98000 211.286
42.99000 213.701
43.00000 211.753
43.01000 208.706
43.02000 206.044
43.03000 198.101
43.04000 190.552
43.05000 185.361
43.06000 189.399
43.07000 194.370
43.08000 198.551
43.09000 200.631
43.10000 202.598
43.11000 203.876
43.12000 196.485
43.13000 190.939
43.14000 190.877
43.15000 197.500
43.16000 204.127
43.17000 207.039
43.18000 207.006
43.19000 206.974
43.20000 204.635
43.21000 201.172
43.22000 197.853
43.23000 197.050
43.24000 197.164
43.25000 197.153
43.26000 195.964
43.27000 194.482
43.28000 193.192
43.29000 198.277
43.30000 203.504
43.31000 207.661
43.32000 207.704
43.33000 207.341
43.34000 205.698
43.35000 200.709
43.36000 195.546
43.37000 192.214
43.38000 193.655
43.39000 194.776
43.40000 194.141
43.41000 191.403
43.42000 188.669
43.43000 187.990
43.44000 188.910
43.45000 189.815
43.46000 187.097
43.47000 182.625
43.48000 178.586
43.49000 181.885
43.50000 187.815
43.51000 193.313
43.52000 194.827
43.53000 195.374
43.54000 195.850
43.55000 193.413
43.56000 190.942
43.57000 189.266
43.58000 190.591
43.59000 192.206
43.60000 193.230
43.61000 192.735
43.62000 192.165
43.63000 191.799
43.64000 189.443
43.65000 187.700
43.66000 187.210
43.67000 188.189
43.68000 189.176
43.69000 191.355
43.70000 194.442
43.71000 197.479
43.72000 195.170
43.73000 190.272
43.74000 185.694
43.75000 186.352
43.76000 188.856
43.77000 190.988
43.78000 189.778
43.79000 187.770
43.80000 186.031
43.81000 186.002
43.82000 186.203
43.83000 186.174
43.84000 185.296
43.85000 184.338
43.86000 184.608
43.87000 187.977
43.88000 191.497
43.89000 193.739
43.90000 201.824
43.91000 207.775
43.92000 209.130
43.93000 205.194
43.94000 201.250
43.95000 197.003
43.96000 192.529
43.97000 188.134
43.98000 185.726
43.99000 184.372
44.00000 183.442
44.01000 189.253
44.02000 197.399
44.03000 204.186
44.04000 199.000
44.05000 191.013
44.06000 184.114
44.07000 183.401
44.08000 183.595
44.09000 182.803
44.10000 178.420
44.11000 173.707
44.12000 172.037
44.13000 177.913
44.14000 184.144
44.15000 188.085
44.16000 193.953
44.17000 198.229
44.18000 200.415
44.19000 200.242
44.20000 200.066
44.21000 199.800
44.22000 199.469
44.23000 199.144
44.24000 200.506
44.25000 202.629
44.26000 204.635
44.27000 204.848
44.28000 204.450
44.29000 203.976
44.30000 202.850
44.31000 201.575
44.32000 200.476
44.33000 195.834
44.34000 191.455
44.35000 188.247
44.36000 189.234
44.37000 190.595
44.38000 192.856
44.39000 197.313
44.40000 201.869
44.41000 204.731
44.42000 202.297
44.43000 200.479
44.44000 200.097
44.45000 201.304
44.46000 202.524
44.47000 205.735
44.48000 210.384
44.49000 214.943
44.50000 211.511
44.51000 204.441
44.52000 198.178
44.53000 203.974
44.54000 213.806
44.55000 222.037
44.56000 216.825
44.57000 208.580
44.58000 201.503
44.59000 203.235
44.60000 205.786
44.61000 209.642
44.62000 218.085
44.63000 226.926
44.64000 232.629
44.65000 230.806
44.66000 228.656
44.67000 227.314
44.68000 230.214
44.69000 232.348
44.70000 231.534
44.71000 227.516
44.72000 223.513
44.73000 221.889
44.74000 221.954
44.75000 222.017
44.76000 224.545
44.77000 228.115
44.78000 231.524
44.79000 232.601
44.80000 232.911
44.81000 233.174
44.82000 233.049
44.83000 232.837
44.84000 232.656
44.85000 233.611
44.86000 234.554
44.87000 235.313
44.88000 235.436
44.89000 235.505
44.90000 235.853
44.91000 236.855
44.92000 237.884
44.93000 238.522
44.94000 245.499
44.95000 250.577
44.96000 252.285
44.97000 250.404
44.98000 248.568
44.99000 252.512
45.00000 260.484
45.01000 268.285
45.02000 266.837
45.03000 261.251
45.04000 255.969
45.05000 254.981
45.06000 255.381
45.07000 255.395
45.08000 252.310
45.09000 248.552
45.10000 245.346
45.11000 247.795
45.12000 250.521
45.13000 251.927
45.14000 248.850
45.15000 245.403
45.16000 242.703
45.17000 241.732
45.18000 240.831
45.19000 240.277
45.20000 240.703
45.21000 241.017
45.22000 242.143
45.23000 244.118
45.24000 246.105
45.25000 249.605
45.26000 254.139
45.27000 258.570
45.28000 250.115
45.29000 236.274
45.30000 223.601
45.31000 226.910
45.32000 235.294
45.33000 242.618
45.34000 241.618
45.35000 238.842
45.36000 236.482
45.37000 233.840
45.38000 231.590
45.39000 228.761
45.40000 224.007
45.41000 219.098
45.42000 216.450
45.43000 218.952
45.44000 221.653
45.45000 223.303
45.46000 219.544
45.47000 216.812
45.48000 214.180
45.49000 211.651
45.50000 209.152
45.51000 209.788
45.52000 212.531
45.53000 215.209
45.54000 215.272
45.55000 214.189
45.56000 212.859
45.57000 208.233
45.58000 202.578
45.59000 197.847
45.60000 200.213
45.61000 204.067
45.62000 207.332
45.63000 209.618
45.64000 211.423
45.65000 213.031
45.66000 213.992
45.67000 214.903
45.68000 215.302
45.69000 214.557
45.70000 213.769
45.71000 213.291
45.72000 208.022
45.73000 204.228
45.74000 201.617
45.75000 200.192
45.76000 198.774
45.77000 198.012
45.78000 197.682
45.79000 197.360
45.80000 200.625
45.81000 205.281
45.82000 209.650
45.83000 210.303
45.84000 209.815
45.85000 208.841
45.86000 204.212
45.87000 198.832
45.88000 194.289
45.89000 192.323
45.90000 190.962
45.91000 190.158
45.92000 191.145
45.93000 192.269
45.94000 191.310
45.95000 185.771
45.96000 180.067
45.97000 176.635
45.98000 179.549
45.99000 181.664
46.00000 183.224
46.01000 184.238
46.02000 185.181
46.03000 179.859
46.04000 170.473
46.05000 161.329
46.06000 161.176
46.07000 164.813
46.08000 168.461
46.09000 172.235
46.10000 176.048
46.11000 179.329
46.12000 178.700
46.13000 177.282
46.14000 176.088
46.15000 181.291
46.16000 186.314
46.17000 188.508
46.18000 181.746
46.19000 174.323
46.20000 170.572
46.21000 174.768
46.22000 179.236
46.23000 181.905
46.24000 176.481
46.25000 172.584
46.26000 170.666
46.27000 170.657
46.28000 170.708
46.29000 175.883
46.30000 184.322
46.31000 192.533
46.32000 186.081
46.33000 173.884
46.34000 162.680
46.35000 163.638
46.36000 168.198
46.37000 172.726
46.38000 177.023
46.39000 181.275
46.40000 184.841
46.41000 181.685
46.42000 178.357
46.43000 175.361
46.44000 173.397
46.45000 171.507
46.46000 170.530
46.47000 171.497
46.48000 172.527
46.49000 173.137
46.50000 183.358
46.51000 190.640
46.52000 191.366
46.53000 185.897
46.54000 180.462
46.55000 177.607
46.56000 176.368
46.57000 175.164
46.58000 174.644
46.59000 174.427
46.60000 174.352
46.61000 175.964
46.62000 178.068
46.63000 179.820
46.64000 179.103
46.65000 177.905
46.66000 176.904
46.67000 180.903
46.68000 184.733
46.69000 187.133
46.70000 185.162
46.71000 182.886
46.72000 180.920
46.73000 179.602
46.74000 178.304
46.75000 177.541
46.76000 172.954
46.77000 169.701
46.78000 167.916
46.79000 167.491
46.80000 167.057
46.81000 165.966
46.82000 164.471
46.83000 163.019
46.84000 163.419
46.85000 164.534
46.86000 165.717
46.87000 167.687
46.88000 169.881
46.89000 172.218
46.90000 175.540
46.91000 179.050
46.92000 181.973
46.93000 175.291
46.94000 168.801
46.95000 164.327
46.96000 165.910
46.97000 167.903
46.98000 169.988
46.99000 172.265
47.00000 174.548
47.01000 175.879
47.02000 175.118
47.03000 174.571
47.04000 170.426
47.05000 163.012
47.06000 155.723
47.07000 156.800
47.08000 162.931
47.09000 168.874
47.10000 169.433
47.11000 167.861
47.12000 166.020
47.13000 161.135
47.14000 155.394
47.15000 150.546
47.16000 151.720
47.17000 154.018
47.18000 155.926
47.19000 158.612
47.20000 160.908
47.21000 162.827
47.22000 163.631
47.23000 164.362
47.24000 164.881
47.25000 164.972
47.26000 165.050
47.27000 165.095
47.28000 163.427
47.29000 162.251
47.30000 161.187
47.31000 160.223
47.32000 159.255
47.33000 158.000
47.34000 156.574
47.35000 155.194
47.36000 157.187
47.37000 160.363
47.38000 163.394
47.39000 164.828
47.40000 165.821
47.41000 166.625
47.42000 166.176
47.43000 165.499
47.44000 164.938
47.45000 164.753
47.46000 164.636
47.47000 165.075
47.48000 167.129
47.49000 169.286
47.50000 170.173
47.51000 168.537
47.52000 166.831
47.53000 165.852
47.54000 162.755
47.55000 160.582
47.56000 159.051
47.57000 158.082
47.58000 157.139
47.59000 157.766
47.60000 159.308
47.61000 160.799
47.62000 162.400
47.63000 163.952
47.64000 165.077
47.65000 161.627
47.66000 156.936
47.67000 153.268
47.68000 156.224
47.69000 160.369
47.70000 163.786
47.71000 162.275
47.72000 160.577
47.73000 159.737
47.74000 161.342
47.75000 163.097
47.76000 163.554
47.77000 161.479
47.78000 159.338
47.79000 158.118
47.80000 158.333
47.81000 158.491
47.82000 161.258
47.83000 166.263
47.84000 171.142
47.85000 169.132
47.86000 163.173
47.87000 157.419
47.88000 155.365
47.89000 154.794
47.90000 154.445
47.91000 156.408
47.92000 158.987
47.93000 161.324
47.94000 162.129
47.95000 162.663
47.96000 163.103
47.97000 164.514
47.98000 165.761
47.99000 165.903
48.00000 162.949
48.01000 159.809
48.02000 158.604
48.03000 161.109
48.04000 163.706
48.05000 165.172
48.06000 161.738
48.07000 159.338
48.08000 157.379
48.09000 155.793
48.10000 154.278
48.11000 156.475
48.12000 160.763
48.13000 164.898
48.14000 165.125
48.15000 163.926
48.16000 162.980
48.17000 164.627
48.18000 166.952
48.19000 167.904
48.20000 160.320
48.21000 151.263
48.22000 143.852
48.23000 151.802
48.24000 159.658
48.25000 164.131
48.26000 159.281
48.27000 153.892
48.28000 151.054
48.29000 153.026
48.30000 155.110
48.31000 156.278
48.32000 162.063
48.33000 166.073
48.34000 165.819
48.35000 162.045
48.36000 158.360
48.37000 159.034
48.38000 162.121
48.39000 165.093
48.40000 161.750
48.41000 156.369
48.42000 151.388
48.43000 150.385
48.44000 150.404
48.45000 150.779
48.46000 153.325
48.47000 156.238
48.48000 158.612
48.49000 160.763
48.50000 162.502
48.51000 164.054
48.52000 165.101
48.53000 166.119
48.54000 165.486
48.55000 161.791
48.56000 158.028
48.57000 155.939
48.58000 158.690
48.59000 160.594
48.60000 160.094
48.61000 157.645
48.62000 155.266
48.63000 156.123
48.64000 158.738
48.65000 161.253
48.66000 160.542
48.67000 158.751
48.68000 156.912
48.69000 154.609
48.70000 152.188
48.71000 150.235
48.72000 151.074
48.73000 152.377
48.74000 153.434
48.75000 160.794
48.76000 167.319
48.77000 171.028
48.78000 167.235
48.79000 163.035
48.80000 159.685
48.81000 157.880
48.82000 156.108
48.83000 155.133
48.84000 154.643
48.85000 154.315
48.86000 156.456
48.87000 160.559
48.88000 164.569
48.89000 164.549
48.90000 162.373
48.91000 160.284
48.92000 159.479
48.93000 159.166
48.94000 159.063
48.95000 160.956
48.96000 163.343
48.97000 164.590
48.98000 159.172
48.99000 152.672
49.00000 147.413
49.01000 149.232
49.02000 151.283
49.03000 153.740
49.04000 157.262
49.05000 160.839
49.06000 161.674
49.07000 157.600
49.08000 153.429
49.09000 151.153
49.10000 150.880
49.11000 150.694
49.12000 149.871
49.13000 148.552
49.14000 147.263
49.15000 147.185
49.16000 147.744
49.17000 148.280
49.18000 147.298
49.19000 145.871
49.20000 144.771
49.21000 146.693
49.22000 149.350
49.23000 152.102
49.24000 155.393
49.25000 158.770
49.26000 161.491
49.27000 158.833
49.28000 156.253
49.29000 154.102
49.30000 153.056
49.31000 152.065
49.32000 152.310
49.33000 154.727
49.34000 157.185
49.35000 158.515
49.36000 155.336
49.37000 153.157
49.38000 151.406
49.39000 149.985
49.40000 148.634
49.41000 150.101
49.42000 153.023
49.43000 155.819
49.44000 155.566
49.45000 154.328
49.46000 153.257
49.47000 153.706
49.48000 154.519
49.49000 155.140
49.50000 154.687
49.51000 154.067
49.52000 153.569
49.53000 151.764
49.54000 150.201
49.55000 149.031
49.56000 148.852
49.57000 148.722
49.58000 148.272
49.59000 147.270
49.60000 146.257
49.61000 145.715
49.62000 147.367
49.63000 148.489
49.64000 148.097
49.65000 146.567
49.66000 145.166
49.67000 148.613
49.68000 154.523
49.69000 160.169
49.70000 159.723
49.71000 157.341
49.72000 155.021
49.73000 153.246
49.74000 151.600
49.75000 150.863
49.76000 155.141
49.77000 160.184
49.78000 164.217
49.79000 159.055
49.80000 154.201
49.81000 150.778
49.82000 150.913
49.83000 151.215
49.84000 150.904
49.85000 149.552
49.86000 148.182
49.87000 147.454
49.88000 147.040
49.89000 146.759
49.90000 146.692
49.91000 146.781
49.92000 146.896
49.93000 147.932
49.94000 149.430
49.95000 150.858
49.96000 151.032
49.97000 150.797
49.98000 150.742
49.99000 152.243
50.00000 154.102
50.01000 155.198
50.02000 152.165
50.03000 148.515
50.04000 145.608
50.05000 147.007
50.06000 148.446
50.07000 149.842
50.08000 151.135
50.09000 152.422
50.10000 152.545
50.11000 150.724
50.12000 148.873
50.13000 147.898
50.14000 148.635
50.15000 149.140
50.16000 150.472
50.17000 152.403
50.18000 154.339
50.19000 156.443
50.20000 158.631
50.21000 160.715
50.22000 158.526
50.23000 155.170
50.24000 152.163
50.25000 152.095
50.26000 152.692
50.27000 152.951
50.28000 151.419
50.29000 149.624
50.30000 148.200
50.31000 151.304
50.32000 154.118
50.33000 155.236
50.34000 152.279
50.35000 149.143
50.36000 150.639
50.37000 159.731
50.38000 168.932
50.39000 173.730
50.40000 163.474
50.41000 156.586
50.42000 157.027
50.43000 162.683
50.44000 168.225
50.45000 170.036
50.46000 170.049
50.47000 170.060
50.48000 169.188
50.49000 168.111
50.50000 167.345
50.51000 169.141
50.52000 171.507
50.53000 173.104
50.54000 170.706
50.55000 167.735
50.56000 165.388
50.57000 165.950
50.58000 166.599
50.59000 166.639
50.60000 165.239
50.61000 163.779
50.62000 161.529
50.63000 158.007
50.64000 154.469
50.65000 152.641
50.66000 163.453
50.67000 170.697
50.68000 172.013
50.69000 169.186
50.70000 166.542
50.71000 169.577
50.72000 175.303
50.73000 180.739
50.74000 178.587
50.75000 174.332
50.76000 170.436
50.77000 169.431
50.78000 169.056
50.79000 169.319
50.80000 172.838
50.81000 176.814
50.82000 179.942
50.83000 172.885
50.84000 166.560
50.85000 163.054
50.86000 166.096
50.87000 169.404
50.88000 172.178
50.89000 174.107
50.90000 176.026
50.91000 177.008
50.92000 171.607
50.93000 168.001
50.94000 167.172
50.95000 168.249
50.96000 169.117
50.97000 163.805
50.98000 155.613
50.99000 147.849
51.00000 143.365
51.01000 140.197
51.02000 138.143
51.03000 144.874
51.04000 153.484
51.05000 160.157
51.06000 157.137
51.07000 152.786
51.08000 149.377
51.09000 149.367
51.10000 149.577
51.11000 149.698
51.12000 149.614
51.13000 149.523
51.14000 149.291
51.15000 148.840
51.16000 148.386
51.17000 148.155
51.18000 150.489
51.19000 152.040
51.20000 152.286
51.21000 151.653
51.22000 150.981
51.23000 149.210
51.24000 146.936
51.25000 144.785
51.26000 144.317
51.27000 144.371
51.28000 144.207
51.29000 142.368
51.30000 140.178
51.31000 138.648
51.32000 140.362
51.33000 142.512
51.34000 144.189
51.35000 139.608
51.36000 135.567
51.37000 133.132
51.38000 134.305
51.39000 135.613
51.40000 137.290
51.41000 139.529
51.42000 141.774
51.43000 142.900
51.44000 145.279
51.45000 146.852
51.46000 147.047
51.47000 146.329
51.48000 145.615
51.49000 145.008
51.50000 144.449
51.51000 143.920
51.52000 143.616
51.53000 143.400
51.54000 143.242
51.55000 143.520
51.56000 143.887
51.57000 143.595
51.58000 140.126
51.59000 136.239
51.60000 133.221
51.61000 140.140
51.62000 146.245
51.63000 147.870
51.64000 139.610
51.65000 130.995
51.66000 127.423
51.67000 131.415
51.68000 135.480
51.69000 139.864
51.70000 144.563
51.71000 149.204
51.72000 148.612
51.73000 144.618
51.74000 140.777
51.75000 140.967
51.76000 142.940
51.77000 144.801
51.78000 144.823
51.79000 144.335
51.80000 144.150
51.81000 146.202
51.82000 148.708
51.83000 150.024
51.84000 145.718
51.85000 140.689
51.86000 136.801
51.87000 136.023
51.88000 135.588
51.89000 136.443
51.90000 140.093
51.91000 143.840
51.92000 144.846
51.93000 141.814
51.94000 138.745
51.95000 138.163
51.96000 139.983
51.97000 141.788
51.98000 142.334
51.99000 142.074
52.00000 141.738
52.01000 139.467
52.02000 136.355
52.03000 133.426
52.04000 134.483
52.05000 136.531
52.06000 138.219
52.07000 137.303
52.08000 135.871
52.09000 134.135
52.10000 130.989
52.11000 127.665
52.12000 125.107
52.13000 134.028
52.14000 141.743
52.15000 146.091
52.16000 143.260
52.17000 140.192
52.18000 137.421
52.19000 135.079
52.20000 132.741
52.21000 130.605
52.22000 128.662
52.23000 126.794
52.24000 130.746
52.25000 138.352
52.26000 145.654
52.27000 145.592
52.28000 142.382
52.29000 139.367
52.30000 137.186
52.31000 135.418
52.32000 134.226
52.33000 137.098
52.34000 140.761
52.35000 143.066
52.36000 139.187
52.37000 134.549
52.38000 130.994
52.39000 135.769
52.40000 140.000
52.41000 141.633
52.42000 137.822
52.43000 133.839
52.44000 131.849
52.45000 132.691
52.46000 133.554
52.47000 133.933
52.48000 133.863
52.49000 133.807
52.50000 134.814
52.51000 136.476
52.52000 138.120
52.53000 139.354
52.54000 140.415
52.55000 141.410
52.56000 135.471
52.57000 128.255
52.58000 122.152
52.59000 123.745
52.60000 126.809
52.61000 130.001
52.62000 133.768
52.63000 137.605
52.64000 140.533
52.65000 141.738
52.66000 142.596
52.67000 142.943
52.68000 142.240
52.69000 141.506
52.70000 140.497
52.71000 139.108
52.72000 137.716
52.73000 134.659
52.74000 130.087
52.75000 125.586
52.76000 125.782
52.77000 128.825
52.78000 131.968
52.79000 137.380
52.80000 143.730
52.81000 149.671
52.82000 147.114
52.83000 142.616
52.84000 138.593
52.85000 137.785
52.86000 137.578
52.87000 138.033
52.88000 141.393
52.89000 145.095
52.90000 147.906
52.91000 144.165
52.92000 140.886
52.93000 139.895
52.94000 143.536
52.95000 147.311
52.96000 148.398
52.97000 145.800
52.98000 143.181
52.99000 140.997
53.00000 139.204
53.01000 137.470
53.02000 139.490
53.03000 143.744
53.04000 147.757
53.05000 146.543
53.06000 143.205
53.07000 140.088
53.08000 138.125
53.09000 136.635
53.10000 135.922
53.11000 140.363
53.12000 145.750
53.13000 150.361
53.14000 151.631
53.15000 152.517
53.16000 153.186
53.17000 149.233
53.18000 145.901
53.19000 143.771
53.20000 144.033
53.21000 144.360
53.22000 144.750
53.23000 145.224
53.24000 145.698
53.25000 149.323
53.26000 155.700
53.27000 161.977
53.28000 162.382
53.29000 159.352
53.30000 156.625
53.31000 160.245
53.32000 166.400
53.33000 172.136
53.34000 167.828
53.35000 161.459
53.36000 155.910
53.37000 155.685
53.38000 156.419
53.39000 156.915
53.40000 156.402
53.41000 155.776
53.42000 155.306
53.43000 158.166
53.44000 160.564
53.45000 162.172
53.46000 162.231
53.47000 162.250
53.48000 161.898
53.49000 161.058
53.50000 160.216
53.51000 157.216
53.52000 152.371
53.53000 147.561
53.54000 144.726
53.55000 143.027
53.56000 141.374
53.57000 140.673
53.58000 140.344
53.59000 140.038
53.60000 143.966
53.61000 148.534
53.62000 152.337
53.63000 151.264
53.64000 149.332
53.65000 147.566
53.66000 146.493
53.67000 145.496
53.68000 144.750
53.69000 148.591
53.70000 151.803
53.71000 154.155
53.72000 154.849
53.73000 155.502
53.74000 154.768
53.75000 152.235
53.76000 149.697
53.77000 146.757
53.78000 143.485
53.79000 140.280
53.80000 140.535
53.81000 142.744
53.82000 144.928
53.83000 146.631
53.84000 148.148
53.85000 149.556
53.86000 150.192
53.87000 150.582
53.88000 150.846
53.89000 150.324
53.90000 149.666
53.91000 149.470
53.92000 151.161
53.93000 153.055
53.94000 154.465
53.95000 145.921
53.96000 138.819
53.97000 134.093
53.98000 133.858
53.99000 133.729
54.00000 134.361
54.01000 135.960
54.02000 137.561
54.03000 139.514
54.04000 141.751
54.05000 143.920
54.06000 142.704
54.07000 139.609
54.08000 136.734
54.09000 137.976
54.10000 140.780
54.11000 143.377
54.12000 142.858
54.13000 141.669
54.14000 140.675
54.15000 140.872
54.16000 141.270
54.17000 141.595
54.18000 141.623
54.19000 141.620
54.20000 141.618
54.21000 140.898
54.22000 140.308
54.23000 139.413
54.24000 137.953
54.25000 136.481
54.26000 136.756
54.27000 139.215
54.28000 141.676
54.29000 142.606
54.30000 142.293
54.31000 141.958
54.32000 140.564
54.33000 138.592
54.34000 136.617
54.35000 134.581
54.36000 132.522
54.37000 130.619
54.38000 131.159
54.39000 132.199
54.40000 133.545
54.41000 136.725
54.42000 140.211
54.43000 142.689
54.44000 141.202
54.45000 139.311
54.46000 137.916
54.47000 135.021
54.48000 132.715
54.49000 132.210
54.50000 134.995
54.51000 137.849
54.52000 139.702
54.53000 140.328
54.54000 140.949
54.55000 141.234
54.56000 141.250
54.57000 141.269
54.58000 141.437
54.59000 141.684
54.60000 141.907
54.61000 141.681
54.62000 141.291
54.63000 140.931
54.64000 142.342
54.65000 144.000
54.66000 145.928
54.67000 149.439
54.68000 153.207
54.69000 155.807
54.70000 153.889
54.71000 151.523
54.72000 149.785
54.73000 148.357
54.74000 147.266
54.75000 146.084
54.76000 144.736
54.77000 143.385
54.78000 143.740
54.79000 146.145
54.80000 148.550
54.81000 151.140
54.82000 153.862
54.83000 156.426
54.84000 152.415
54.85000 144.941
54.86000 137.790
54.87000 136.158
54.88000 136.515
54.89000 136.843
54.90000 139.627
54.91000 142.652
54.92000 145.007
54.93000 143.506
54.94000 141.389
54.95000 140.422
54.96000 143.820
54.97000 147.642
54.98000 150.434
54.99000 150.716
55.00000 150.834
55.01000 151.307
55.02000 152.402
55.03000 153.509
55.04000 151.734
55.05000 146.560
55.06000 141.392
55.07000 143.360
55.08000 150.761
55.09000 157.951
55.10000 156.730
55.11000 151.153
55.12000 145.872
55.13000 145.479
55.14000 146.817
55.15000 148.046
55.16000 147.728
55.17000 147.114
55.18000 146.710
55.19000 147.498
55.20000 148.471
55.21000 149.311
55.22000 149.655
55.23000 149.952
55.24000 150.167
55.25000 151.432
55.26000 152.444
55.27000 153.523
55.28000 154.716
55.29000 155.911
55.30000 156.579
55.31000 156.636
55.32000 156.693
55.33000 160.244
55.34000 166.386
55.35000 172.374
55.36000 172.566
55.37000 169.807
55.38000 167.263
55.39000 168.161
55.40000 170.258
55.41000 172.179
55.42000 173.510
55.43000 174.571
55.44000 176.425
55.45000 182.658
55.46000 189.563
55.47000 195.688
55.48000 198.959
55.49000 201.968
55.50000 204.143
55.51000 214.647
55.52000 223.010
55.53000 228.015
55.54000 227.305
55.55000 226.498
55.56000 230.954
55.57000 241.385
55.58000 251.789
55.59000 265.259
55.60000 280.876
55.61000 296.259
55.62000 303.205
55.63000 305.931
55.64000 309.477
55.65000 325.774
55.66000 346.435
55.67000 365.323
55.68000 372.386
55.69000 376.235
55.70000 381.520
55.71000 394.595
55.72000 408.839
55.73000 423.260
55.74000 438.317
55.75000 453.431
55.76000 464.304
55.77000 484.014
55.78000 499.412
55.79000 518.566
55.80000 544.002
55.81000 569.536
55.82000 588.352
55.83000 599.686
55.84000 610.975
55.85000 619.312
55.86000 625.451
55.87000 631.672
55.88000 640.658
55.89000 651.004
55.90000 661.359
55.91000 671.846
55.92000 682.378
55.93000 691.985
55.94000 687.144
55.95000 679.945
55.96000 674.689
55.97000 679.757
55.98000 686.342
55.99000 690.423
56.00000 685.650
56.01000 680.102
56.02000 676.131
56.03000 650.178
56.04000 629.619
56.05000 613.330
56.06000 604.058
56.07000 594.888
56.08000 589.038
56.09000 586.813
56.10000 584.599
56.11000 563.173
56.12000 528.374
56.13000 494.096
56.14000 476.856
56.15000 467.853
56.16000 458.798
56.17000 448.991
56.18000 438.935
56.19000 429.785
56.20000 413.143
56.21000 396.941
56.22000 380.663
56.23000 363.989
56.24000 347.257
56.25000 333.073
56.26000 327.736
56.27000 323.154
56.28000 319.893
56.29000 294.729
56.30000 274.851
56.31000 262.086
56.32000 260.805
56.33000 259.681
56.34000 252.466
56.35000 238.729
56.36000 225.050
56.37000 217.413
56.38000 214.046
56.39000 210.673
56.40000 207.123
56.41000 203.488
56.42000 199.575
56.43000 191.710
56.44000 182.562
56.45000 174.257
56.46000 170.723
56.47000 168.523
56.48000 166.286
56.49000 163.858
56.50000 161.404
56.51000 159.241
56.52000 158.073
56.53000 156.987
56.54000 156.219
56.55000 152.049
56.56000 148.776
56.57000 147.265
56.58000 148.552
56.59000 149.875
56.60000 150.534
56.61000 150.498
56.62000 150.462
56.63000 149.663
56.64000 148.356
56.65000 147.037
56.66000 145.377
56.67000 143.558
56.68000 141.661
56.69000 138.689
56.70000 135.375
56.71000 132.373
56.72000 136.583
56.73000 141.656
56.74000 145.042
56.75000 139.966
56.76000 133.723
56.77000 129.346
56.78000 131.226
56.79000 133.611
56.80000 135.290
56.81000 137.555
56.82000 139.289
56.83000 138.555
56.84000 133.972
56.85000 129.344
56.86000 128.058
56.87000 130.212
56.88000 132.353
56.89000 133.994
56.90000 135.279
56.91000 136.414
56.92000 133.241
56.93000 128.089
56.94000 123.635
56.95000 128.535
56.96000 136.370
56.97000 143.448
56.98000 137.773
56.99000 130.421
57.00000 123.930
57.01000 121.677
57.02000 119.995
57.03000 119.688
57.04000 123.907
57.05000 128.483
57.06000 131.686
57.07000 129.345
57.08000 127.417
57.09000 127.673
57.10000 131.273
57.11000 134.910
57.12000 135.511
57.13000 133.048
57.14000 130.601
57.15000 129.851
57.16000 130.223
57.17000 130.585
57.18000 130.670
57.19000 130.629
57.20000 130.517
57.21000 129.472
57.22000 128.140
57.23000 126.939
57.24000 129.453
57.25000 132.334
57.26000 134.055
57.27000 130.180
57.28000 125.566
57.29000 122.351
57.30000 123.661
57.31000 125.317
57.32000 126.470
57.33000 126.247
57.34000 126.041
57.35000 125.798
57.36000 125.498
57.37000 125.198
57.38000 125.009
57.39000 124.931
57.40000 124.854
57.41000 125.792
57.42000 127.370
57.43000 128.924
57.44000 129.871
57.45000 130.548
57.46000 131.125
57.47000 130.430
57.48000 129.350
57.49000 128.379
57.50000 129.008
57.51000 129.843
57.52000 130.660
57.53000 131.393
57.54000 132.114
57.55000 132.087
57.56000 129.675
57.57000 127.087
57.58000 125.295
57.59000 119.200
57.60000 114.501
57.61000 113.483
57.62000 117.902
57.63000 122.369
57.64000 123.630
57.65000 121.782
57.66000 119.947
57.67000 120.293
57.68000 122.007
57.69000 123.715
57.70000 125.273
57.71000 126.765
57.72000 128.219
57.73000 129.208
57.74000 130.058
57.75000 130.820
57.76000 127.381
57.77000 123.645
57.78000 120.634
57.79000 120.993
57.80000 121.777
57.81000 122.501
57.82000 123.037
57.83000 123.558
57.84000 123.917
57.85000 122.292
57.86000 121.023
57.87000 120.049
57.88000 119.501
57.89000 118.957
57.90000 121.635
57.91000 127.377
57.92000 133.073
57.93000 133.852
57.94000 131.576
57.95000 129.282
57.96000 126.521
57.97000 123.560
57.98000 121.008
57.99000 123.369
58.00000 127.166
58.01000 130.562
58.02000 127.450
58.03000 123.628
58.04000 121.088
58.05000 124.399
58.06000 128.432
58.07000 131.302
58.08000 130.597
58.09000 129.641
58.10000 128.987
58.11000 124.589
58.12000 121.207
58.13000 120.266
58.14000 122.801
58.15000 125.362
58.16000 125.793
58.17000 124.240
58.18000 122.699
58.19000 122.885
58.20000 124.114
58.21000 125.269
58.22000 124.675
58.23000 123.344
58.24000 122.026
58.25000 120.861
58.26000 119.740
58.27000 118.739
58.28000 118.403
58.29000 118.221
58.30000 118.262
58.31000 119.302
58.32000 120.462
58.33000 122.111
58.34000 125.234
58.35000 128.457
58.36000 130.650
58.37000 123.149
58.38000 117.328
58.39000 114.313
58.40000 115.223
58.41000 116.159
58.42000 115.889
58.43000 114.516
58.44000 113.157
58.45000 115.138
58.46000 119.069
58.47000 122.818
58.48000 122.436
58.49000 120.343
58.50000 118.676
58.51000 121.861
58.52000 126.417
58.53000 130.470
58.54000 129.743
58.55000 128.334
58.56000 126.753
58.57000 124.422
58.58000 122.002
58.59000 119.673
58.60000 117.613
58.61000 115.571
58.62000 114.190
58.63000 122.206
58.64000 128.380
58.65000 129.961
58.66000 125.233
58.67000 120.470
58.68000 120.121
58.69000 123.729
58.70000 127.302
58.71000 125.946
58.72000 121.740
58.73000 117.653
58.74000 116.184
58.75000 115.781
58.76000 115.588
58.77000 117.738
58.78000 120.536
58.79000 123.020
58.80000 124.088
58.81000 124.787
58.82000 124.771
58.83000 121.661
58.84000 118.195
58.85000 116.148
58.86000 118.241
58.87000 120.599
58.88000 122.184
58.89000 123.692
58.90000 124.810
58.91000 125.645
58.92000 126.098
58.93000 126.547
58.94000 126.152
58.95000 125.014
58.96000 123.887
58.97000 123.251
58.98000 122.909
58.99000 122.544
59.00000 121.684
59.01000 120.626
59.02000 119.897
59.03000 122.738
59.04000 126.552
59.05000 129.927
59.06000 125.140
59.07000 119.726
59.08000 115.095
59.09000 113.784
59.10000 112.846
59.11000 113.120
59.12000 116.867
59.13000 120.830
59.14000 123.478
59.15000 122.385
59.16000 121.503
59.17000 122.152
59.18000 124.829
59.19000 127.509
59.20000 124.105
59.21000 115.457
59.22000 106.906
59.23000 105.004
59.24000 106.887
59.25000 108.783
59.26000 110.920
59.27000 113.153
59.28000 115.307
59.29000 116.637
59.30000 117.746
59.31000 118.725
59.32000 120.279
59.33000 121.708
59.34000 122.882
59.35000 122.999
59.36000 122.998
59.37000 122.809
59.38000 122.088
59.39000 121.335
59.40000 120.834
59.41000 117.861
59.42000 115.617
59.43000 113.998
59.44000 113.191
59.45000 112.387
59.46000 111.566
59.47000 110.731
59.48000 109.905
59.49000 112.940
59.50000 118.030
59.51000 122.857
59.52000 122.532
59.53000 120.214
59.54000 118.153
59.55000 118.735
59.56000 120.013
59.57000 121.137
59.58000 123.533
59.59000 125.785
59.60000 127.717
59.61000 128.337
59.62000 128.816
59.63000 127.663
59.64000 121.988
59.65000 116.049
59.66000 112.130
59.67000 115.610
59.68000 118.305
59.69000 119.263
59.70000 118.005
59.71000 116.740
59.72000 115.917
59.73000 115.462
59.74000 115.013
59.75000 112.493
59.76000 108.919
59.77000 105.653
59.78000 108.222
59.79000 113.009
59.80000 117.653
59.81000 120.855
59.82000 123.685
59.83000 126.168
59.84000 121.369
59.85000 116.183
59.86000 112.481
59.87000 114.738
59.88000 117.621
59.89000 119.333
59.90000 117.859
59.91000 116.205
59.92000 115.120
59.93000 116.919
59.94000 118.290
59.95000 117.812
59.96000 115.021
59.97000 112.225
59.98000 110.153
59.99000 108.670
60.00000 107.208
60.01000 108.414
60.02000 111.005
60.03000 113.516
60.04000 114.558
60.05000 115.052
60.06000 115.545
60.07000 116.037
60.08000 116.527
60.09000 116.957
60.10000 114.694
60.11000 112.369
60.12000 111.515
60.13000 116.465
60.14000 122.009
60.15000 124.782
60.16000 120.140
60.17000 115.091
60.18000 111.803
60.19000 114.992
60.20000 117.433
60.21000 118.604
60.22000 118.213
60.23000 117.817
60.24000 117.071
60.25000 116.046
60.26000 115.035
60.27000 113.925
60.28000 112.796
60.29000 111.590
60.30000 109.046
60.31000 106.009
60.32000 103.745
60.33000 108.871
60.34000 115.839
60.35000 121.918
60.36000 119.649
60.37000 116.541
60.38000 113.708
60.39000 111.936
60.40000 110.271
60.41000 110.128
60.42000 113.993
60.43000 118.070
60.44000 120.709
60.45000 119.885
60.46000 119.231
60.47000 118.311
60.48000 117.067
60.49000 115.828
60.50000 115.882
60.51000 116.949
60.52000 118.001
60.53000 117.347
60.54000 115.841
60.55000 114.282
60.56000 111.841
60.57000 109.081
60.58000 107.067
60.59000 112.014
60.60000 118.664
60.61000 124.449
60.62000 125.686
60.63000 126.121
60.64000 126.220
60.65000 125.043
60.66000 123.742
60.67000 122.223
60.68000 120.139
60.69000 118.027
60.70000 116.668
60.71000 115.684
60.72000 114.971
60.73000 114.088
60.74000 113.003
60.75000 111.924
60.76000 112.218
60.77000 113.569
60.78000 114.898
60.79000 114.445
60.80000 113.110
60.81000 111.908
60.82000 112.897
60.83000 114.665
60.84000 116.021
60.85000 113.639
60.86000 110.358
60.87000 107.512
60.88000 111.386
60.89000 115.582
60.90000 118.424
60.91000 116.204
60.92000 113.503
60.93000 111.925
60.94000 113.201
60.95000 114.617
60.96000 115.522
60.97000 117.981
60.98000 119.791
60.99000 119.399
61.00000 116.449
61.01000 113.504
61.02000 112.093
61.03000 111.843
61.04000 111.598
61.05000 114.511
61.06000 118.886
61.07000 123.019
61.08000 123.264
61.09000 122.152
61.10000 121.329
61.11000 123.082
61.12000 125.442
61.13000 127.483
61.14000 125.042
61.15000 122.384
61.16000 120.379
61.17000 120.774
61.18000 121.392
61.19000 121.429
61.20000 120.018
61.21000 118.538
61.22000 117.599
61.23000 118.338
61.24000 118.895
61.25000 120.669
61.26000 123.830
61.27000 126.968
61.28000 125.605
61.29000 120.902
61.30000 116.284
61.31000 116.166
61.32000 118.230
61.33000 120.241
61.34000 121.423
61.35000 122.320
61.36000 123.542
61.37000 127.586
61.38000 132.285
61.39000 136.336
61.40000 138.304
61.41000 139.706
61.42000 140.255
61.43000 137.726
61.44000 134.920
61.45000 132.489
61.46000 130.979
61.47000 129.511
61.48000 128.586
61.49000 137.687
61.50000 144.389
61.51000 146.985
61.52000 144.993
61.53000 143.073
61.54000 153.705
61.55000 173.483
61.56000 192.885
61.57000 205.772
61.58000 215.096
61.59000 224.600
61.60000 236.825
61.61000 249.968
61.62000 262.929
61.63000 274.354
61.64000 285.428
61.65000 294.947
61.66000 291.404
61.67000 286.778
61.68000 284.198
61.69000 288.865
61.70000 294.169
61.71000 299.462
61.72000 304.731
61.73000 309.998
61.74000 313.294
61.75000 299.000
61.76000 288.493
61.77000 279.625
61.78000 272.552
61.79000 265.428
61.80000 250.699
61.81000 230.528
61.82000 210.761
61.83000 195.811
61.84000 183.674
61.85000 171.814
61.86000 164.012
61.87000 157.556
61.88000 151.168
61.89000 145.352
61.90000 139.663
61.91000 134.789
61.92000 140.062
61.93000 145.750
61.94000 148.573
61.95000 141.419
61.96000 133.411
61.97000 127.795
61.98000 127.857
61.99000 128.162
62.00000 128.351
62.01000 134.569
62.02000 139.106
62.03000 138.557
62.04000 132.545
62.05000 126.558
62.06000 124.054
62.07000 123.996
62.08000 123.940
62.09000 123.512
62.10000 122.931
62.11000 122.616
62.12000 126.091
62.13000 130.799
62.14000 134.777
62.15000 132.827
62.16000 129.577
62.17000 126.801
62.18000 127.443
62.19000 128.391
62.20000 128.540
62.21000 125.959
62.22000 123.150
62.23000 120.598
62.24000 118.648
62.25000 116.722
62.26000 115.534
62.27000 119.613
62.28000 122.589
62.29000 124.312
62.30000 124.714
62.31000 125.113
62.32000 125.141
62.33000 124.913
62.34000 124.690
62.35000 125.194
62.36000 126.004
62.37000 126.799
62.38000 127.382
62.39000 127.896
62.40000 128.770
62.41000 132.493
62.42000 136.828
62.43000 140.519
62.44000 138.501
62.45000 136.141
62.46000 133.996
62.47000 132.573
62.48000 131.209
62.49000 129.200
62.50000 125.711
62.51000 122.163
62.52000 119.990
62.53000 129.859
62.54000 137.027
62.55000 139.288
62.56000 136.481
62.57000 133.673
62.58000 130.770
62.59000 127.804
62.60000 124.907
62.61000 121.759
62.62000 118.635
62.63000 115.916
62.64000 118.649
62.65000 123.096
62.66000 126.916
62.67000 125.865
62.68000 123.786
62.69000 122.021
62.70000 122.373
62.71000 122.908
62.72000 123.897
62.73000 126.384
62.74000 128.989
62.75000 131.929
62.76000 135.621
62.77000 139.343
62.78000 141.606
62.79000 131.521
62.80000 124.224
62.81000 122.163
62.82000 125.402
62.83000 128.605
62.84000 128.189
62.85000 125.365
62.86000 122.609
62.87000 125.052
62.88000 129.634
62.89000 133.737
62.90000 131.565
62.91000 127.452
62.92000 123.615
62.93000 121.872
62.94000 120.563
62.95000 119.456
62.96000 125.866
62.97000 132.062
62.98000 136.559
62.99000 135.541
63.00000 134.100
63.01000 133.662
63.02000 135.448
63.03000 137.315
63.04000 138.442
63.05000 136.746
63.06000 135.518
63.07000 134.557
63.08000 133.859
63.09000 133.169
63.10000 133.156
63.11000 133.584
63.12000 134.002
63.13000 130.724
63.14000 126.029
63.15000 122.045
63.16000 127.117
63.17000 134.940
63.18000 141.730
63.19000 140.857
63.20000 138.424
63.21000 136.374
63.22000 136.230
63.23000 136.315
63.24000 136.083
63.25000 134.842
63.26000 133.525
63.27000 132.686
63.28000 132.888
63.29000 133.126
63.30000 133.269
63.31000 130.152
63.32000 127.917
63.33000 126.337
63.34000 125.393
63.35000 124.476
63.36000 125.899
63.37000 128.825
63.38000 131.673
63.39000 134.976
63.40000 138.311
63.41000 141.190
63.42000 138.411
63.43000 133.942
63.44000 130.116
63.45000 130.956
63.46000 132.726
63.47000 134.214
63.48000 133.926
63.49000 133.499
63.50000 132.604
63.51000 130.241
63.52000 127.772
63.53000 126.263
63.54000 126.810
63.55000 127.427
63.56000 127.793
63.57000 132.532
63.58000 135.912
63.59000 136.404
63.60000 134.141
63.61000 131.912
63.62000 132.435
63.63000 134.694
63.64000 136.890
63.65000 135.353
63.66000 132.365
63.67000 129.546
63.68000 128.759
63.69000 128.566
63.70000 129.041
63.71000 134.260
63.72000 140.406
63.73000 145.552
63.74000 142.724
63.75000 139.552
63.76000 136.145
63.77000 132.011
63.78000 127.826
63.79000 127.800
63.80000 136.535
63.81000 145.551
63.82000 150.871
63.83000 143.547
63.84000 138.308
63.85000 133.280
63.86000 128.450
63.87000 123.709
63.88000 125.604
63.89000 131.612
63.90000 137.445
63.91000 137.998
63.92000 136.404
63.93000 135.185
63.94000 138.366
63.95000 142.814
63.96000 146.868
63.97000 148.180
63.98000 148.967
63.99000 149.624
64.00000 147.773
64.01000 145.987
64.02000 144.659
64.03000 144.720
64.04000 144.875
64.05000 145.397
64.06000 146.678
64.07000 147.982
64.08000 148.745
64.09000 143.697
64.10000 140.117
64.11000 141.774
64.12000 148.230
64.13000 154.558
64.14000 152.122
64.15000 144.351
64.16000 136.813
64.17000 139.933
64.18000 147.083
64.19000 153.711
64.20000 154.366
64.21000 153.330
64.22000 152.189
64.23000 150.337
64.24000 148.352
64.25000 146.700
64.26000 150.022
64.27000 153.258
64.28000 155.077
64.29000 152.678
64.30000 149.998
64.31000 148.977
64.32000 151.329
64.33000 153.780
64.34000 155.204
64.35000 144.750
64.36000 137.363
64.37000 136.454
64.38000 141.366
64.39000 146.244
64.40000 148.921
64.41000 150.282
64.42000 151.600
64.43000 150.516
64.44000 148.563
64.45000 146.828
64.46000 147.518
64.47000 148.884
64.48000 150.508
64.49000 153.854
64.50000 157.517
64.51000 160.552
64.52000 153.732
64.53000 147.161
64.54000 143.023
64.55000 146.004
64.56000 149.444
64.57000 152.759
64.58000 155.826
64.59000 158.885
64.60000 160.648
64.61000 162.255
64.62000 163.378
64.63000 162.806
64.64000 160.740
64.65000 158.679
64.66000 156.955
64.67000 155.429
64.68000 153.953
64.69000 158.175
64.70000 164.321
64.71000 169.708
64.72000 166.847
64.73000 161.732
64.74000 157.167
64.75000 156.200
64.76000 155.883
64.77000 155.622
64.78000 161.668
64.79000 167.235
64.80000 172.034
64.81000 174.624
64.82000 177.076
64.83000 177.647
64.84000 174.518
64.85000 171.291
64.86000 169.447
64.87000 175.633
64.88000 179.974
64.89000 180.868
64.90000 178.779
64.91000 176.688
64.92000 174.428
64.93000 172.070
64.94000 169.792
64.95000 173.940
64.96000 180.239
64.97000 185.889
64.98000 184.659
64.99000 181.582
65.00000 178.991
65.01000 179.512
65.02000 180.586
65.03000 181.469
65.04000 181.894
65.05000 182.201
65.06000 183.355
65.07000 186.901
65.08000 190.591
65.09000 194.341
65.10000 198.204
65.11000 202.071
65.12000 204.262
65.13000 205.841
65.14000 206.935
65.15000 206.624
65.16000 205.121
65.17000 203.648
65.18000 203.749
65.19000 204.744
65.20000 205.704
65.21000 206.043
65.22000 206.137
65.23000 206.762
65.24000 212.881
65.25000 220.448
65.26000 227.478
65.27000 231.137
65.28000 234.209
65.29000 236.727
65.30000 232.314
65.31000 228.082
65.32000 226.449
65.33000 232.035
65.34000 238.045
65.35000 241.993
65.36000 242.024
65.37000 241.961
65.38000 241.926
65.39000 248.540
65.40000 253.137
65.41000 252.798
65.42000 248.352
65.43000 244.067
65.44000 247.845
65.45000 256.120
65.46000 264.092
65.47000 267.568
65.48000 269.223
65.49000 271.233
65.50000 276.801
65.51000 283.292
65.52000 289.144
65.53000 291.067
65.54000 292.320
65.55000 293.343
65.56000 303.057
65.57000 311.754
65.58000 320.001
65.59000 327.021
65.60000 333.972
65.61000 341.825
65.62000 351.361
65.63000 360.936
65.64000 366.273
65.65000 416.606
65.66000 451.510
65.67000 478.850
65.68000 500.012
65.69000 522.112
65.70000 588.539
65.71000 679.268
65.72000 766.547
65.73000 881.752
65.74000 999.583
65.75000 1117.071
65.76000 1231.198
65.77000 1344.469
65.78000 1457.237
65.79000 1566.975
65.80000 1676.205
65.81000 1765.059
65.82000 1820.432
65.83000 1862.835
65.84000 1897.734
65.85000 1912.495
65.86000 1926.149
65.87000 1939.404
65.88000 1951.927
65.89000 1964.434
65.90000 1971.347
65.91000 1945.629
65.92000 1927.737
65.93000 1879.177
65.94000 1806.040
65.95000 1732.560
65.96000 1643.738
65.97000 1546.650
65.98000 1453.392
65.99000 1324.620
66.00000 1191.860
66.01000 1060.386
66.02000 941.236
66.03000 825.166
66.04000 716.740
66.05000 653.420
66.06000 597.493
66.07000 552.171
66.08000 506.658
66.09000 469.569
66.10000 439.365
66.11000 427.326
66.12000 416.253
66.13000 403.388
66.14000 387.291
66.15000 371.128
66.16000 362.272
66.17000 358.706
66.18000 356.261
66.19000 353.965
66.20000 351.786
66.21000 349.674
66.22000 350.427
66.23000 352.696
66.24000 354.873
66.25000 364.934
66.26000 376.999
66.27000 389.797
66.28000 409.456
66.29000 430.797
66.30000 452.502
66.31000 476.305
66.32000 500.444
66.33000 519.930
66.34000 541.878
66.35000 559.911
66.36000 575.479
66.37000 584.657
66.38000 593.505
66.39000 601.970
66.40000 609.753
66.41000 617.523
66.42000 621.742
66.43000 621.819
66.44000 621.838
66.45000 614.710
66.46000 602.065
66.47000 589.491
66.48000 579.763
66.49000 571.518
66.50000 563.622
66.51000 554.360
66.52000 545.270
66.53000 534.612
66.54000 509.620
66.55000 481.174
66.56000 454.853
66.57000 440.582
66.58000 428.206
66.59000 418.255
66.60000 400.915
66.61000 386.284
66.62000 372.878
66.63000 362.597
66.64000 352.470
66.65000 347.239
66.66000 350.533
66.67000 353.981
66.68000 355.837
66.69000 356.409
66.70000 356.794
66.71000 356.205
66.72000 354.877
66.73000 353.622
66.74000 355.103
66.75000 357.985
66.76000 360.740
66.77000 358.259
66.78000 354.245
66.79000 350.754
66.80000 351.937
66.81000 354.227
66.82000 356.498
66.83000 358.670
66.84000 360.827
66.85000 362.554
66.86000 361.489
66.87000 360.418
66.88000 360.572
66.89000 363.799
66.90000 367.173
66.91000 368.521
66.92000 366.404
66.93000 364.228
66.94000 363.067
66.95000 363.081
66.96000 363.099
66.97000 364.407
66.98000 366.676
66.99000 368.891
67.00000 369.172
67.01000 368.481
67.02000 367.820
67.03000 368.431
67.04000 369.404
67.05000 370.519
67.06000 372.866
67.07000 375.500
67.08000 377.486
67.09000 375.935
67.10000 373.850
67.11000 372.187
67.12000 369.104
67.13000 366.512
67.14000 367.219
67.15000 376.053
67.16000 385.263
67.17000 392.137
67.18000 395.085
67.19000 397.971
67.20000 399.496
67.21000 387.787
67.22000 379.863
67.23000 378.197
67.24000 381.102
67.25000 383.981
67.26000 385.950
67.27000 387.469
67.28000 388.916
67.29000 393.281
67.30000 398.241
67.31000 402.957
67.32000 405.594
67.33000 407.756
67.34000 410.019
67.35000 412.823
67.36000 415.706
67.37000 417.997
67.38000 415.714
67.39000 413.550
67.40000 411.394
67.41000 409.254
67.42000 407.115
67.43000 406.895
67.44000 409.845
67.45000 412.842
67.46000 414.411
67.47000 408.417
67.48000 404.383
67.49000 404.482
67.50000 407.547
67.51000 410.761
67.52000 418.961
67.53000 429.582
67.54000 439.689
67.55000 440.637
67.56000 438.699
67.57000 436.743
67.58000 434.645
67.59000 432.515
67.60000 431.990
67.61000 439.880
67.62000 448.987
67.63000 456.194
67.64000 455.867
67.65000 455.083
67.66000 452.214
67.67000 444.379
67.68000 436.331
67.69000 431.731
67.70000 432.727
67.71000 433.800
67.72000 434.357
67.73000 435.072
67.74000 435.585
67.75000 440.049
67.76000 447.297
67.77000 454.268
67.78000 452.455
67.79000 446.448
67.80000 440.741
67.81000 446.753
67.82000 455.840
67.83000 463.856
67.84000 463.150
67.85000 460.528
67.86000 457.684
67.87000 453.696
67.88000 449.547
67.89000 446.277
67.90000 461.668
67.91000 475.257
67.92000 483.220
67.93000 478.017
67.94000 472.270
67.95000 469.820
67.96000 472.626
67.97000 475.501
67.98000 476.978
67.99000 475.768
68.00000 474.979
68.01000 477.261
68.02000 481.669
68.03000 486.164
68.04000 493.340
68.05000 501.775
68.06000 509.774
68.07000 512.429
68.08000 513.296
68.09000 514.216
68.10000 515.564
68.11000 517.003
68.12000 518.317
68.13000 518.993
68.14000 519.582
68.15000 520.043
68.16000 519.823
68.17000 519.603
68.18000 518.651
68.19000 516.016
68.20000 513.315
68.21000 516.067
68.22000 527.363
68.23000 538.762
68.24000 544.561
68.25000 548.451
68.26000 551.083
68.27000 556.357
68.28000 563.425
68.29000 570.173
68.30000 567.648
68.31000 560.844
68.32000 554.401
68.33000 568.836
68.34000 588.175
68.35000 604.745
68.36000 599.765
68.37000 590.222
68.38000 583.899
68.39000 593.518
68.40000 605.300
68.41000 614.506
68.42000 619.038
68.43000 622.359
68.44000 627.248
68.45000 635.686
68.46000 644.259
68.47000 648.291
68.48000 645.332
68.49000 642.296
68.50000 640.767
68.51000 662.096
68.52000 676.334
68.53000 688.898
68.54000 700.343
68.55000 712.022
68.56000 730.204
68.57000 751.336
68.58000 771.308
68.59000 784.026
68.60000 793.641
68.61000 806.683
68.62000 845.805
68.63000 890.346
68.64000 931.163
68.65000 953.898
68.66000 974.232
68.67000 990.053
68.68000 1037.603
68.69000 1077.403
68.70000 1120.844
68.71000 1172.379
68.72000 1224.212
68.73000 1273.087
68.74000 1317.493
68.75000 1361.854
68.76000 1408.846
68.77000 1458.456
68.78000 1507.923
68.79000 1544.004
68.80000 1571.312
68.81000 1599.595
68.82000 1653.943
68.83000 1719.911
68.84000 1782.148
68.85000 1846.694
68.86000 1906.500
68.87000 1974.611
68.88000 2104.560
68.89000 2247.118
68.90000 2417.782
68.91000 2722.413
68.92000 3044.444
68.93000 3293.907
68.94000 4410.579
68.95000 5349.064
68.96000 6657.496
68.97000 8774.386
68.98000 10919.688
68.99000 13546.964
69.00000 16889.852
69.01000 20239.354
69.02000 23666.705
69.03000 27169.758
69.04000 30664.424
69.05000 33431.383
69.06000 35729.801
69.07000 37997.539
69.08000 39477.965
69.09000 40613.320
69.10000 41682.527
69.11000 42403.367
69.12000 42967.426
69.13000 43554.570
69.14000 44309.938
69.15000 45098.957
69.16000 45870.207
69.17000 46558.352
69.18000 47235.938
69.19000 47758.531
69.20000 47064.617
69.21000 46444.582
69.22000 45251.367
69.23000 42826.859
69.24000 40360.887
69.25000 37759.902
69.26000 34962.039
69.27000 32162.676
69.28000 29801.471
69.29000 27859.436
69.30000 25924.781
69.31000 24582.754
69.32000 23615.566
69.33000 22667.541
69.34000 22192.240
69.35000 21920.609
69.36000 21665.275
69.37000 21165.818
69.38000 20644.271
69.39000 20057.775
69.40000 19008.076
69.41000 17867.473
69.42000 16605.311
69.43000 14785.084
69.44000 12895.534
69.45000 11444.670
69.46000 9433.079
69.47000 7811.550
69.48000 6358.334
69.49000 5260.536
69.50000 4174.193
69.51000 3314.121
69.52000 2778.099
69.53000 2244.657
69.54000 1886.824
69.55000 1693.632
69.56000 1501.213
69.57000 1366.449
69.58000 1267.511
69.59000 1170.282
69.60000 1113.626
69.61000 1074.153
69.62000 1037.118
69.63000 995.576
69.64000 956.536
69.65000 918.929
69.66000 891.329
69.67000 865.655
69.68000 838.833
69.69000 806.837
69.70000 774.212
69.71000 749.275
69.72000 745.783
69.73000 744.192
69.74000 731.276
69.75000 694.852
69.76000 657.703
69.77000 638.588
69.78000 644.836
69.79000 651.259
69.80000 646.596
69.81000 631.756
69.82000 616.980
69.83000 606.690
69.84000 599.138
69.85000 591.523
69.86000 582.471
69.87000 572.820
69.88000 563.783
69.89000 557.650
69.90000 552.823
69.91000 548.708
69.92000 549.466
69.93000 551.144
69.94000 550.216
69.95000 537.765
69.96000 523.945
69.97000 513.429
69.98000 511.019
69.99000 509.548
70.00000 507.215
