20.00000 477.933
20.01000 477.866
20.02000 477.789
20.03000 475.949
20.04000 467.154
20.05000 457.648
20.06000 450.629
20.07000 468.520
20.08000 483.441
20.09000 489.384
20.10000 478.900
20.11000 468.065
20.12000 467.349
20.13000 479.063
20.14000 490.789
20.15000 493.540
20.16000 489.142
20.17000 484.775
20.18000 481.850
20.19000 479.698
20.20000 477.510
20.21000 474.699
20.22000 471.658
20.23000 468.852
20.24000 465.952
20.25000 463.332
20.26000 461.468
20.27000 464.049
20.28000 467.355
20.29000 471.405
20.30000 478.331
20.31000 485.544
20.32000 490.844
20.33000 472.655
20.34000 457.632
20.35000 449.719
20.36000 454.590
20.37000 459.718
20.38000 461.927
20.39000 460.614
20.40000 459.297
20.41000 461.757
20.42000 467.150
20.43000 472.448
20.44000 473.704
20.45000 472.826
20.46000 471.730
20.47000 466.891
20.48000 460.701
20.49000 455.002
20.50000 459.983
20.51000 466.774
20.52000 472.813
20.53000 474.520
20.54000 475.533
20.55000 475.419
20.56000 471.017
20.57000 466.198
20.58000 462.675
20.59000 468.018
20.60000 472.488
20.61000 474.683
20.62000 472.857
20.63000 470.955
20.64000 471.920
20.65000 476.277
20.66000 480.629
20.67000 481.999
20.68000 481.079
20.69000 480.025
20.70000 473.643
20.71000 464.495
20.72000 455.451
20.73000 448.134
20.74000 441.429
20.75000 435.270
20.76000 450.101
20.77000 467.837
20.78000 482.607
20.79000 480.615
20.80000 475.995
20.81000 472.410
20.82000 472.693
20.83000 473.344
20.84000 473.817
20.85000 471.537
20.86000 469.679
20.87000 464.639
20.88000 454.075
20.89000 443.413
20.90000 440.860
20.91000 447.718
20.92000 454.569
20.93000 459.120
20.94000 461.914
20.95000 464.674
20.96000 466.154
20.97000 466.983
20.98000 467.517
20.99000 463.326
21.00000 457.486
21.01000 452.133
21.02000 454.415
21.03000 458.052
21.04000 460.910
21.05000 459.451
21.06000 457.330
21.07000 458.603
21.08000 472.335
21.09000 487.219
21.10000 497.990
21.11000 471.846
21.12000 450.428
21.13000 438.092
21.14000 441.249
21.15000 444.666
21.16000 448.150
21.17000 451.709
21.18000 455.258
21.19000 458.921
21.20000 462.639
21.21000 466.276
21.22000 466.992
21.23000 466.243
21.24000 465.505
21.25000 464.938
21.26000 464.430
21.27000 463.965
21.28000 465.545
21.29000 467.371
21.30000 468.259
21.31000 464.053
21.32000 459.081
21.33000 456.393
21.34000 461.943
21.35000 468.236
21.36000 472.765
21.37000 476.882
21.38000 480.019
21.39000 479.395
21.40000 472.463
21.41000 465.433
21.42000 461.780
21.43000 461.899
21.44000 462.020
21.45000 465.735
21.46000 472.013
21.47000 478.014
21.48000 474.492
21.49000 466.278
21.50000 458.583
21.51000 458.757
21.52000 461.583
21.53000 464.161
21.54000 460.884
21.55000 456.797
21.56000 454.343
21.57000 460.589
21.58000 468.117
21.59000 474.445
21.60000 476.519
21.61000 478.219
21.62000 479.437
21.63000 468.970
21.64000 460.579
21.65000 457.671
21.66000 463.794
21.67000 470.050
21.68000 471.107
21.69000 466.470
21.70000 461.848
21.71000 461.277
21.72000 463.580
21.73000 465.895
21.74000 468.591
21.75000 471.471
21.76000 474.221
21.77000 475.049
21.78000 475.240
21.79000 475.414
21.80000 475.175
21.81000 474.881
21.82000 474.707
21.83000 475.152
21.84000 475.687
21.85000 476.799
21.86000 479.919
21.87000 483.211
21.88000 485.555
21.89000 481.262
21.90000 477.775
21.91000 480.139
21.92000 491.974
21.93000 503.939
21.94000 513.935
21.95000 521.817
21.96000 529.663
21.97000 539.530
21.98000 550.698
21.99000 561.549
22.00000 562.481
22.01000 558.690
22.02000 554.824
22.03000 549.899
22.04000 544.628
22.05000 539.842
22.06000 547.929
22.07000 557.564
22.08000 566.862
22.09000 574.439
22.10000 581.773
22.11000 586.631
22.12000 583.022
22.13000 578.708
22.14000 575.651
22.15000 572.952
22.16000 570.911
22.17000 565.983
22.18000 556.464
22.19000 546.887
22.20000 541.369
22.21000 540.124
22.22000 538.886
22.23000 540.828
22.24000 544.917
22.25000 548.639
22.26000 541.337
22.27000 528.876
22.28000 516.930
22.29000 512.125
22.30000 509.605
22.31000 507.323
22.32000 515.836
22.33000 525.386
22.34000 532.300
22.35000 525.959
22.36000 517.787
22.37000 509.727
22.38000 502.048
22.39000 494.400
22.40000 489.011
22.41000 491.334
22.42000 493.326
22.43000 488.292
22.44000 472.284
22.45000 456.147
22.46000 455.458
22.47000 470.714
22.48000 485.889
22.49000 489.037
22.50000 484.100
22.51000 478.979
22.52000 468.538
22.53000 455.650
22.54000 443.633
22.55000 443.346
22.56000 446.747
22.57000 449.821
22.58000 450.551
22.59000 450.758
22.60000 450.684
22.61000 449.222
22.62000 447.572
22.63000 447.408
22.64000 452.148
22.65000 457.275
22.66000 460.867
22.67000 446.091
22.68000 434.388
22.69000 430.871
22.70000 439.915
22.71000 449.097
22.72000 451.530
22.73000 447.136
22.74000 442.769
22.75000 443.062
22.76000 446.409
22.77000 449.664
22.78000 450.374
22.79000 449.933
22.80000 449.046
22.81000 442.328
22.82000 433.810
22.83000 426.130
22.84000 433.485
22.85000 442.673
22.86000 450.333
22.87000 450.593
22.88000 449.874
22.89000 449.718
22.90000 451.393
22.91000 453.207
22.92000 454.472
22.93000 453.489
22.94000 452.686
22.95000 451.474
22.96000 449.644
22.97000 447.809
22.98000 447.764
22.99000 449.495
23.00000 451.215
23.01000 451.838
23.02000 451.744
23.03000 451.591
23.04000 449.879
23.05000 447.474
23.06000 444.769
23.07000 438.255
23.08000 430.583
23.09000 423.685
23.10000 434.444
23.11000 447.011
23.12000 457.423
23.13000 457.594
23.14000 456.439
23.15000 452.322
23.16000 438.763
23.17000 424.500
23.18000 414.619
23.19000 417.305
23.20000 419.657
23.21000 419.890
23.22000 416.988
23.23000 414.057
23.24000 417.471
23.25000 427.052
23.26000 436.566
23.27000 438.287
23.28000 435.060
23.29000 431.860
23.30000 429.379
23.31000 427.211
23.32000 425.947
23.33000 435.872
23.34000 449.136
23.35000 461.034
23.36000 455.215
23.37000 447.041
23.38000 438.929
23.39000 431.107
23.40000 423.322
23.41000 418.285
23.42000 421.860
23.43000 426.059
23.44000 428.951
23.45000 423.006
23.46000 418.320
23.47000 418.401
23.48000 425.409
23.49000 432.474
23.50000 432.816
23.51000 426.751
23.52000 420.734
23.53000 418.474
23.54000 418.583
23.55000 418.800
23.56000 421.648
23.57000 425.627
23.58000 429.145
23.59000 427.108
23.60000 423.443
23.61000 420.164
23.62000 420.801
23.63000 422.026
23.64000 423.494
23.65000 426.075
23.66000 428.794
23.67000 430.485
23.68000 429.011
23.69000 427.314
23.70000 426.152
23.71000 426.378
23.72000 426.580
23.73000 428.523
23.74000 432.952
23.75000 437.400
23.76000 444.230
23.77000 453.283
23.78000 462.262
23.79000 465.419
23.80000 464.980
23.81000 464.358
23.82000 459.443
23.83000 452.716
23.84000 447.272
23.85000 456.900
23.86000 470.868
23.87000 483.334
23.88000 479.111
23.89000 472.648
23.90000 468.142
23.91000 472.419
23.92000 477.760
23.93000 481.552
23.94000 480.661
23.95000 479.449
23.96000 478.624
23.97000 482.711
23.98000 485.876
23.99000 486.692
24.00000 484.215
24.01000 481.717
24.02000 482.074
24.03000 485.046
24.04000 487.990
24.05000 489.684
24.06000 490.599
24.07000 491.512
24.08000 492.410
24.09000 493.301
24.10000 493.688
24.11000 488.316
24.12000 481.313
24.13000 475.081
24.14000 476.298
24.15000 478.574
24.16000 479.378
24.17000 473.693
24.18000 467.242
24.19000 460.533
24.20000 453.060
24.21000 445.536
24.22000 440.444
24.23000 441.779
24.24000 442.914
24.25000 444.360
24.26000 446.235
24.27000 448.110
24.28000 447.350
24.29000 444.222
24.30000 441.124
24.31000 442.296
24.32000 445.943
24.33000 449.039
24.34000 440.073
24.35000 426.184
24.36000 413.197
24.37000 410.256
24.38000 410.108
24.39000 409.977
24.40000 419.341
24.41000 428.975
24.42000 435.328
24.43000 427.472
24.44000 417.975
24.45000 409.516
24.46000 404.092
24.47000 398.864
24.48000 395.347
24.49000 399.766
24.50000 403.215
24.51000 407.989
24.52000 414.553
24.53000 421.125
24.54000 424.585
24.55000 425.303
24.56000 426.015
24.57000 422.724
24.58000 417.206
24.59000 411.592
24.60000 403.972
24.61000 395.547
24.62000 387.825
24.63000 387.738
24.64000 389.736
24.65000 391.506
24.66000 402.796
24.67000 414.049
24.68000 422.527
24.69000 419.205
24.70000 414.550
24.71000 411.689
24.72000 413.980
24.73000 416.593
24.74000 418.339
24.75000 413.899
24.76000 410.485
24.77000 406.049
24.78000 400.257
24.79000 394.467
24.80000 394.563
24.81000 399.746
24.82000 404.871
24.83000 404.423
24.84000 400.841
24.85000 397.529
24.86000 399.706
24.87000 404.047
24.88000 408.338
24.89000 412.095
24.90000 415.709
24.91000 418.899
24.92000 422.322
24.93000 425.311
24.94000 425.469
24.95000 413.807
24.96000 400.842
24.97000 392.203
24.98000 395.786
24.99000 400.109
25.00000 402.982
25.01000 405.262
25.02000 406.937
25.03000 408.235
25.04000 409.044
25.05000 409.851
25.06000 410.468
25.07000 410.924
25.08000 411.375
25.09000 405.600
25.10000 396.522
25.11000 387.950
25.12000 389.316
25.13000 394.536
25.14000 399.257
25.15000 398.845
25.16000 397.080
25.17000 395.526
25.18000 399.747
25.19000 404.246
25.20000 406.908
25.21000 402.039
25.22000 396.358
25.23000 394.096
25.24000 401.327
25.25000 409.114
25.26000 414.256
25.27000 402.935
25.28000 394.294
25.29000 388.690
25.30000 386.968
25.31000 385.263
25.32000 385.029
25.33000 386.019
25.34000 386.996
25.35000 388.437
25.36000 390.092
25.37000 391.855
25.38000 395.662
25.39000 400.247
25.40000 404.684
25.41000 407.620
25.42000 410.168
25.43000 412.405
25.44000 410.154
25.45000 407.562
25.46000 405.284
25.47000 404.273
25.48000 403.395
25.49000 401.268
25.50000 395.731
25.51000 390.000
25.52000 386.240
25.53000 394.595
25.54000 400.944
25.55000 401.833
25.56000 395.869
25.57000 389.888
25.58000 385.762
25.59000 383.150
25.60000 380.573
25.61000 382.748
25.62000 387.395
25.63000 391.856
25.64000 392.883
25.65000 392.625
25.66000 392.490
25.67000 393.576
25.68000 394.972
25.69000 396.193
25.70000 392.264
25.71000 388.158
25.72000 383.988
25.73000 379.569
25.74000 375.124
25.75000 375.021
25.76000 386.565
25.77000 398.750
25.78000 406.694
25.79000 399.795
25.80000 394.499
25.81000 390.395
25.82000 387.762
25.83000 385.144
25.84000 386.303
25.85000 390.488
25.86000 394.614
25.87000 394.870
25.88000 393.096
25.89000 391.368
25.90000 390.458
25.91000 389.849
25.92000 389.185
25.93000 387.990
25.94000 386.663
25.95000 385.505
25.96000 387.938
25.97000 390.523
25.98000 391.262
25.99000 384.837
26.00000 377.695
26.01000 374.386
26.02000 381.187
26.03000 388.525
26.04000 393.278
26.05000 400.361
26.06000 405.579
26.07000 404.021
26.08000 394.270
26.09000 384.530
26.10000 382.593
26.11000 386.792
26.12000 390.927
26.13000 388.387
26.14000 382.499
26.15000 376.930
26.16000 376.847
26.17000 378.750
26.18000 380.519
26.19000 381.033
26.20000 381.238
26.21000 381.417
26.22000 372.557
26.23000 363.756
26.24000 360.602
26.25000 378.985
26.26000 399.471
26.27000 410.252
26.28000 395.874
26.29000 380.205
26.30000 370.121
26.31000 376.648
26.32000 381.644
26.33000 381.837
26.34000 376.332
26.35000 370.847
26.36000 372.641
26.37000 380.053
26.38000 387.346
26.39000 386.059
26.40000 380.491
26.41000 375.456
26.42000 379.308
26.43000 386.322
26.44000 392.567
26.45000 391.786
26.46000 389.314
26.47000 387.168
26.48000 387.330
26.49000 387.776
26.50000 387.544
26.51000 384.766
26.52000 381.747
26.53000 380.056
26.54000 381.751
26.55000 383.615
26.56000 384.806
26.57000 377.343
26.58000 371.797
26.59000 371.614
26.60000 377.675
26.61000 383.717
26.62000 384.011
26.63000 379.950
26.64000 375.958
26.65000 381.782
26.66000 392.265
26.67000 402.058
26.68000 400.699
26.69000 395.440
26.70000 390.157
26.71000 384.658
26.72000 379.109
26.73000 374.309
26.74000 372.457
26.75000 371.268
26.76000 370.103
26.77000 369.024
26.78000 367.953
26.79000 368.482
26.80000 373.017
26.81000 377.743
26.82000 380.745
26.83000 387.708
26.84000 392.811
26.85000 390.176
26.86000 378.706
26.87000 367.285
26.88000 366.792
26.89000 374.427
26.90000 381.924
26.91000 382.318
26.92000 379.250
26.93000 376.142
26.94000 372.398
26.95000 368.435
26.96000 365.588
26.97000 372.471
26.98000 381.612
26.99000 389.497
27.00000 384.425
27.01000 378.465
27.02000 373.713
27.03000 373.328
27.04000 373.339
27.05000 373.884
27.06000 375.744
27.07000 377.665
27.08000 378.877
27.09000 380.736
27.10000 382.090
27.11000 382.214
27.12000 380.962
27.13000 379.704
27.14000 377.675
27.15000 375.082
27.16000 372.539
27.17000 368.030
27.18000 362.748
27.19000 358.094
27.20000 362.977
27.21000 371.082
27.22000 378.168
27.23000 376.578
27.24000 373.011
27.25000 369.944
27.26000 357.834
27.27000 346.455
27.28000 340.503
27.29000 353.829
27.30000 368.854
27.31000 377.406
27.32000 370.287
27.33000 362.470
27.34000 357.575
27.35000 359.487
27.36000 360.941
27.37000 364.449
27.38000 370.210
27.39000 375.970
27.40000 381.342
27.41000 386.436
27.42000 391.429
27.43000 386.173
27.44000 376.326
27.45000 367.097
27.46000 366.990
27.47000 369.912
27.48000 372.371
27.49000 370.974
27.50000 368.713
27.51000 366.776
27.52000 372.701
27.53000 378.664
27.54000 383.017
27.55000 381.749
27.56000 379.999
27.57000 381.249
27.58000 389.642
27.59000 398.340
27.60000 403.750
27.61000 381.034
27.62000 364.394
27.63000 358.339
27.64000 363.681
27.65000 369.011
27.66000 372.142
27.67000 373.725
27.68000 375.274
27.69000 374.033
27.70000 371.562
27.71000 369.120
27.72000 367.100
27.73000 365.218
27.74000 363.687
27.75000 365.013
27.76000 366.966
27.77000 368.634
27.78000 370.633
27.79000 372.356
27.80000 372.588
27.81000 367.705
27.82000 362.395
27.83000 360.161
27.84000 365.122
27.85000 370.380
27.86000 373.627
27.87000 369.309
27.88000 366.138
27.89000 369.239
27.90000 378.961
27.91000 388.623
27.92000 390.800
27.93000 387.802
27.94000 384.870
27.95000 383.701
27.96000 383.374
27.97000 382.641
27.98000 376.246
27.99000 368.037
28.00000 360.232
28.01000 355.640
28.02000 351.742
28.03000 348.422
28.04000 358.464
28.05000 368.464
28.06000 376.717
28.07000 379.089
28.08000 380.981
28.09000 381.140
28.10000 377.312
28.11000 373.327
28.12000 370.883
28.13000 366.420
28.14000 363.207
28.15000 359.380
28.16000 354.919
28.17000 350.503
28.18000 351.083
28.19000 355.055
28.20000 358.936
28.21000 359.048
28.22000 357.492
28.23000 356.218
28.24000 358.774
28.25000 362.538
28.26000 365.875
28.27000 365.899
28.28000 365.222
28.29000 364.647
28.30000 352.110
28.31000 340.232
28.32000 333.035
28.33000 341.332
28.34000 350.856
28.35000 357.337
28.36000 356.940
28.37000 356.280
28.38000 355.879
28.39000 360.438
28.40000 363.733
28.41000 363.448
28.42000 359.530
28.43000 355.656
28.44000 356.372
28.45000 360.150
28.46000 363.836
28.47000 365.262
28.48000 365.646
28.49000 365.705
28.50000 361.495
28.51000 355.962
28.52000 350.976
28.53000 350.151
28.54000 350.191
28.55000 350.225
28.56000 353.537
28.57000 356.674
28.58000 357.823
28.59000 352.510
28.60000 346.698
28.61000 342.961
28.62000 343.832
28.63000 344.872
28.64000 345.501
28.65000 352.145
28.66000 356.922
28.67000 360.125
28.68000 361.764
28.69000 363.386
28.70000 363.454
28.71000 362.503
28.72000 361.575
28.73000 361.092
28.74000 360.820
28.75000 360.678
28.76000 362.200
28.77000 364.229
28.78000 365.208
28.79000 358.378
28.80000 349.956
28.81000 342.854
28.82000 348.676
28.83000 354.938
28.84000 359.922
28.85000 360.816
28.86000 361.403
28.87000 361.280
28.88000 359.606
28.89000 357.877
28.90000 356.840
28.91000 352.037
28.92000 348.600
28.93000 346.346
28.94000 345.245
28.95000 344.195
28.96000 347.543
28.97000 353.723
28.98000 359.739
28.99000 360.824
29.00000 359.798
29.01000 358.889
29.02000 359.420
29.03000 360.382
29.04000 360.358
29.05000 353.158
29.06000 344.523
29.07000 337.266
29.08000 345.580
29.09000 354.155
29.10000 361.122
29.11000 363.032
29.12000 364.575
29.13000 362.876
29.14000 354.218
29.15000 345.325
29.16000 340.033
29.17000 342.449
29.18000 344.207
29.19000 346.889
29.20000 350.456
29.21000 353.997
29.22000 355.590
29.23000 355.949
29.24000 356.299
29.25000 354.050
29.26000 350.848
29.27000 347.884
29.28000 347.810
29.29000 348.585
29.30000 348.809
29.31000 345.112
29.32000 340.646
29.33000 336.906
29.34000 340.449
29.35000 344.147
29.36000 347.506
29.37000 349.818
29.38000 352.057
29.39000 353.139
29.40000 351.781
29.41000 350.345
29.42000 349.497
29.43000 348.548
29.44000 347.878
29.45000 350.386
29.46000 355.869
29.47000 361.274
29.48000 360.867
29.49000 356.849
29.50000 352.947
29.51000 353.152
29.52000 354.999
29.53000 356.385
29.54000 352.357
29.55000 346.765
29.56000 342.548
29.57000 347.933
29.58000 355.165
29.59000 361.202
29.60000 358.146
29.61000 354.694
29.62000 351.839
29.63000 350.793
29.64000 349.871
29.65000 348.998
29.66000 348.230
29.67000 347.464
29.68000 347.016
29.69000 346.401
29.70000 345.969
29.71000 349.022
29.72000 355.277
29.73000 361.468
29.74000 363.241
29.75000 362.318
29.76000 361.422
29.77000 356.845
29.78000 351.054
29.79000 345.910
29.80000 348.203
29.81000 352.606
29.82000 356.532
29.83000 357.205
29.84000 357.264
29.85000 357.312
29.86000 355.735
29.87000 354.270
29.88000 353.992
29.89000 357.255
29.90000 360.755
29.91000 364.620
29.92000 369.232
29.93000 373.866
29.94000 376.560
29.95000 372.044
29.96000 368.843
29.97000 369.574
29.98000 373.848
29.99000 378.069
30.00000 378.900
30.01000 377.696
30.02000 376.531
30.03000 372.847
30.04000 368.385
30.05000 364.273
30.06000 364.057
30.07000 364.929
30.08000 365.405
30.09000 363.240
30.10000 360.586
30.11000 358.386
30.12000 370.124
30.13000 381.154
30.14000 387.462
30.15000 379.930
30.16000 371.503
30.17000 366.536
30.18000 368.504
30.19000 370.667
30.20000 371.915
30.21000 367.315
30.22000 364.070
30.23000 360.536
30.24000 356.749
30.25000 353.080
30.26000 356.666
30.27000 364.524
30.28000 372.127
30.29000 373.385
30.30000 372.162
30.31000 370.987
30.32000 370.324
30.33000 369.801
30.34000 369.413
30.35000 369.915
30.36000 370.577
30.37000 371.125
30.38000 367.774
30.39000 364.649
30.40000 361.317
30.41000 357.389
30.42000 353.424
30.43000 351.680
30.44000 354.310
30.45000 357.056
30.46000 358.628
30.47000 350.478
30.48000 344.758
30.49000 343.089
30.50000 344.932
30.51000 346.772
30.52000 348.502
30.53000 350.167
30.54000 351.777
30.55000 351.015
30.56000 349.414
30.57000 348.195
30.58000 351.045
30.59000 354.989
30.60000 357.285
30.61000 348.999
30.62000 338.830
30.63000 330.462
30.64000 335.489
30.65000 340.841
30.66000 345.216
30.67000 346.827
30.68000 348.270
30.69000 348.643
30.70000 346.947
30.71000 345.198
30.72000 344.205
30.73000 349.694
30.74000 353.540
30.75000 360.253
30.76000 369.404
30.77000 378.380
30.78000 377.987
30.79000 372.265
30.80000 366.743
30.81000 365.078
30.82000 364.922
30.83000 364.672
30.84000 363.445
30.85000 361.961
30.86000 360.476
30.87000 358.992
30.88000 357.508
30.89000 356.291
30.90000 367.433
30.91000 377.669
30.92000 385.025
30.93000 384.361
30.94000 383.225
30.95000 382.762
30.96000 383.580
30.97000 384.429
30.98000 384.907
30.99000 397.604
31.00000 406.444
31.01000 412.166
31.02000 415.288
31.03000 418.497
31.04000 426.122
31.05000 436.215
31.06000 445.940
31.07000 446.310
31.08000 443.300
31.09000 441.994
31.10000 457.900
31.11000 478.274
31.12000 498.459
31.13000 517.473
31.14000 536.287
31.15000 551.656
31.16000 560.332
31.17000 566.857
31.18000 580.335
31.19000 612.840
31.20000 646.430
31.21000 676.281
31.22000 699.136
31.23000 721.831
31.24000 734.496
31.25000 772.132
31.26000 798.255
31.27000 831.849
31.28000 871.558
31.29000 911.220
31.30000 948.661
31.31000 984.882
31.32000 1019.731
31.33000 1029.310
31.34000 1029.393
31.35000 1031.145
31.36000 1049.341
31.37000 1071.729
31.38000 1091.453
31.39000 1095.093
31.40000 1096.037
31.41000 1096.805
31.42000 1105.082
31.43000 1112.473
31.44000 1116.081
31.45000 1109.514
31.46000 1102.384
31.47000 1088.515
31.48000 1062.251
31.49000 1035.718
31.50000 1021.038
31.51000 1003.941
31.52000 992.119
31.53000 973.713
31.54000 950.018
31.55000 925.919
31.56000 883.563
31.57000 831.349
31.58000 781.185
31.59000 759.710
31.60000 749.521
31.61000 737.869
31.62000 712.142
31.63000 682.892
31.64000 654.186
31.65000 628.707
31.66000 603.757
31.67000 583.530
31.68000 559.614
31.69000 539.826
31.70000 521.029
31.71000 504.852
31.72000 488.816
31.73000 476.923
31.74000 472.515
31.75000 468.261
31.76000 465.928
31.77000 448.414
31.78000 436.360
31.79000 429.949
31.80000 427.984
31.81000 425.812
31.82000 414.755
31.83000 398.984
31.84000 383.854
31.85000 377.864
31.86000 375.366
31.87000 372.777
31.88000 369.339
31.89000 365.692
31.90000 362.719
31.91000 363.657
31.92000 365.225
31.93000 366.491
31.94000 355.259
31.95000 345.131
31.96000 340.022
31.97000 347.952
31.98000 356.555
31.99000 359.369
32.00000 351.903
32.01000 344.238
32.02000 340.070
32.03000 336.867
32.04000 334.682
32.05000 335.301
32.06000 338.089
32.07000 340.867
32.08000 343.233
32.09000 345.383
32.10000 347.443
32.11000 343.359
32.12000 337.506
32.13000 332.085
32.14000 330.615
32.15000 330.101
32.16000 330.761
32.17000 338.105
32.18000 346.503
32.19000 353.259
32.20000 347.555
32.21000 341.962
32.22000 335.243
32.23000 325.650
32.24000 315.913
32.25000 310.470
32.26000 312.521
32.27000 314.709
32.28000 315.888
32.29000 318.653
32.30000 320.553
32.31000 324.137
32.32000 329.000
32.33000 333.650
32.34000 330.105
32.35000 322.358
32.36000 314.948
32.37000 319.455
32.38000 327.540
32.39000 335.658
32.40000 344.064
32.41000 352.539
32.42000 358.660
32.43000 351.657
32.44000 342.627
32.45000 335.390
32.46000 326.978
32.47000 320.081
32.48000 316.234
32.49000 320.046
32.50000 324.227
32.51000 324.160
32.52000 316.808
32.53000 309.332
32.54000 305.339
32.55000 306.989
32.56000 308.128
32.57000 311.203
32.58000 315.722
32.59000 320.166
32.60000 321.880
32.61000 322.219
32.62000 322.542
32.63000 320.457
32.64000 317.749
32.65000 314.803
32.66000 309.784
32.67000 304.281
32.68000 299.639
32.69000 299.698
32.70000 300.468
32.71000 301.082
32.72000 301.333
32.73000 301.510
32.74000 304.074
32.75000 312.536
32.76000 321.271
32.77000 326.538
32.78000 325.961
32.79000 325.289
32.80000 324.934
32.81000 316.512
32.82000 310.797
32.83000 307.363
32.84000 305.598
32.85000 304.027
32.86000 309.240
32.87000 317.812
32.88000 325.985
32.89000 323.503
32.90000 317.856
32.91000 312.088
32.92000 305.293
32.93000 298.264
32.94000 293.289
32.95000 299.326
32.96000 306.996
32.97000 313.092
32.98000 304.684
32.99000 296.876
33.00000 292.334
33.01000 295.717
33.02000 299.454
33.03000 306.597
33.04000 319.378
33.05000 332.244
33.06000 338.989
33.07000 323.707
33.08000 313.382
33.09000 308.388
33.10000 307.225
33.11000 306.137
33.12000 307.513
33.13000 310.088
33.14000 312.539
33.15000 309.419
33.16000 304.815
33.17000 300.802
33.18000 301.729
33.19000 303.765
33.20000 304.937
33.21000 301.572
33.22000 297.549
33.23000 294.365
33.24000 297.883
33.25000 301.175
33.26000 302.790
33.27000 300.405
33.28000 297.848
33.29000 296.704
33.30000 297.859
33.31000 299.046
33.32000 299.662
33.33000 295.562
33.34000 292.810
33.35000 292.481
33.36000 293.862
33.37000 295.248
33.38000 296.787
33.39000 298.398
33.40000 299.929
33.41000 299.227
33.42000 297.903
33.43000 296.826
33.44000 297.757
33.45000 299.130
33.46000 299.895
33.47000 297.522
33.48000 294.705
33.49000 292.483
33.50000 288.778
33.51000 285.708
33.52000 285.942
33.53000 293.929
33.54000 302.237
33.55000 305.635
33.56000 301.185
33.57000 296.632
33.58000 294.291
33.59000 277.950
33.60000 267.053
33.61000 268.938
33.62000 279.684
33.63000 290.078
33.64000 289.754
33.65000 284.389
33.66000 279.299
33.67000 284.474
33.68000 292.291
33.69000 299.393
33.70000 300.791
33.71000 300.955
33.72000 300.740
33.73000 298.605
33.74000 296.204
33.75000 294.318
33.76000 298.602
33.77000 302.433
33.78000 302.189
33.79000 292.550
33.80000 282.535
33.81000 278.510
33.82000 283.886
33.83000 289.376
33.84000 292.172
33.85000 297.647
33.86000 301.287
33.87000 301.093
33.88000 298.289
33.89000 295.521
33.90000 293.767
33.91000 292.483
33.92000 291.268
33.93000 296.480
33.94000 303.146
33.95000 309.168
33.96000 310.157
33.97000 310.079
33.98000 309.480
33.99000 306.302
34.00000 302.772
34.01000 300.013
34.02000 304.801
34.03000 309.101
34.04000 313.365
34.05000 317.549
34.06000 321.729
34.07000 321.444
34.08000 314.273
34.09000 307.026
34.10000 303.370
34.11000 301.471
34.12000 300.233
34.13000 302.396
34.14000 306.832
34.15000 311.184
34.16000 313.176
34.17000 314.095
34.18000 314.964
34.19000 314.757
34.20000 314.261
34.21000 313.827
34.22000 313.876
34.23000 314.025
34.24000 314.246
34.25000 314.813
34.26000 315.426
34.27000 315.904
34.28000 321.345
34.29000 325.983
34.30000 331.187
34.31000 337.652
34.32000 344.164
34.33000 344.310
34.34000 334.813
34.35000 325.217
34.36000 322.105
34.37000 325.458
34.38000 328.800
34.39000 331.073
34.40000 332.643
34.41000 334.335
34.42000 339.293
34.43000 345.711
34.44000 351.766
34.45000 346.394
34.46000 338.270
34.47000 330.704
34.48000 327.301
34.49000 324.749
34.50000 323.410
34.51000 327.870
34.52000 333.084
34.53000 337.126
34.54000 339.869
34.55000 341.971
34.56000 341.122
34.57000 333.812
34.58000 326.273
34.59000 321.881
34.60000 322.171
34.61000 322.504
34.62000 322.993
34.63000 323.633
34.64000 324.269
34.65000 324.520
34.66000 324.523
34.67000 324.364
34.68000 320.047
34.69000 313.904
34.70000 308.118
34.71000 302.306
34.72000 296.981
34.73000 291.642
34.74000 286.205
34.75000 280.748
34.76000 276.645
34.77000 278.890
34.78000 281.944
34.79000 284.300
34.80000 295.500
34.81000 304.889
34.82000 310.924
34.83000 309.741
34.84000 308.313
34.85000 303.991
34.86000 295.437
34.87000 286.848
34.88000 282.078
34.89000 280.967
34.90000 279.890
34.91000 281.448
34.92000 284.677
34.93000 287.623
34.94000 283.547
34.95000 276.440
34.96000 269.758
34.97000 271.956
34.98000 276.354
34.99000 280.125
35.00000 279.421
35.01000 277.837
35.02000 275.877
35.03000 272.188
35.04000 268.283
35.05000 265.284
35.06000 272.627
35.07000 279.014
35.08000 282.195
35.09000 278.591
35.10000 274.767
35.11000 275.146
35.12000 281.558
35.13000 288.017
35.14000 287.081
35.15000 279.200
35.16000 271.423
35.17000 271.389
35.18000 276.177
35.19000 280.755
35.20000 280.322
35.21000 277.764
35.22000 275.362
35.23000 268.993
35.24000 262.140
35.25000 256.559
35.26000 259.878
35.27000 264.915
35.28000 268.802
35.29000 267.494
35.30000 265.555
35.31000 264.071
35.32000 267.321
35.33000 270.143
35.34000 271.794
35.35000 271.008
35.36000 270.147
35.37000 269.128
35.38000 267.886
35.39000 266.643
35.40000 266.160
35.41000 266.378
35.42000 266.587
35.43000 266.197
35.44000 265.442
35.45000 264.745
35.46000 265.403
35.47000 266.625
35.48000 267.771
35.49000 266.698
35.50000 265.147
35.51000 263.957
35.52000 265.234
35.53000 266.978
35.54000 267.391
35.55000 261.900
35.56000 255.707
35.57000 250.991
35.58000 249.853
35.59000 249.145
35.60000 250.339
35.61000 255.422
35.62000 260.620
35.63000 262.610
35.64000 260.160
35.65000 257.684
35.66000 260.457
35.67000 267.966
35.68000 275.393
35.69000 277.508
35.70000 276.429
35.71000 275.199
35.72000 270.646
35.73000 264.730
35.74000 259.199
35.75000 260.117
35.76000 262.587
35.77000 264.654
35.78000 264.007
35.79000 262.857
35.80000 262.738
35.81000 267.108
35.82000 272.001
35.83000 275.709
35.84000 269.155
35.85000 263.487
35.86000 260.984
35.87000 264.844
35.88000 268.883
35.89000 270.802
35.90000 269.838
35.91000 268.858
35.92000 264.614
35.93000 257.489
35.94000 250.456
35.95000 249.052
35.96000 250.973
35.97000 252.999
35.98000 257.272
35.99000 262.451
36.00000 267.283
36.01000 271.510
36.02000 275.190
36.03000 277.341
36.04000 269.443
36.05000 259.715
36.06000 252.373
36.07000 255.225
36.08000 259.236
36.09000 262.262
36.10000 259.654
36.11000 257.333
36.12000 255.102
36.13000 253.049
36.14000 251.000
36.15000 250.203
36.16000 251.076
36.17000 251.957
36.18000 250.395
36.19000 246.716
36.20000 243.104
36.21000 243.353
36.22000 245.844
36.23000 248.440
36.24000 253.198
36.25000 258.812
36.26000 264.040
36.27000 268.087
36.28000 271.458
36.29000 274.094
36.30000 272.000
36.31000 269.062
36.32000 266.352
36.33000 264.602
36.34000 262.959
36.35000 261.725
36.36000 266.217
36.37000 270.001
36.38000 271.645
36.39000 269.134
36.40000 266.516
36.41000 262.506
36.42000 256.673
36.43000 250.837
36.44000 251.696
36.45000 258.249
36.46000 264.695
36.47000 265.374
36.48000 262.765
36.49000 260.331
36.50000 261.371
36.51000 263.766
36.52000 265.991
36.53000 262.547
36.54000 258.084
36.55000 253.881
36.56000 251.316
36.57000 249.037
36.58000 247.689
36.59000 250.175
36.60000 253.076
36.61000 255.244
36.62000 258.068
36.63000 260.299
36.64000 261.177
36.65000 259.469
36.66000 257.699
36.67000 257.296
36.68000 258.649
36.69000 260.008
36.70000 261.508
36.71000 263.120
36.72000 264.685
36.73000 263.874
36.74000 261.732
36.75000 259.738
36.76000 260.610
36.77000 262.579
36.78000 264.406
36.79000 265.589
36.80000 266.505
36.81000 266.966
36.82000 264.614
36.83000 261.780
36.84000 258.628
36.85000 254.186
36.86000 249.607
36.87000 246.202
36.88000 255.218
36.89000 262.784
36.90000 269.153
36.91000 273.278
36.92000 277.351
36.93000 280.142
36.94000 281.315
36.95000 282.481
36.96000 283.189
36.97000 283.520
36.98000 283.891
36.99000 286.166
37.00000 289.491
37.01000 292.644
37.02000 292.627
37.03000 291.416
37.04000 290.295
37.05000 286.733
37.06000 282.970
37.07000 280.400
37.08000 285.049
37.09000 290.913
37.10000 294.693
37.11000 290.191
37.12000 284.833
37.13000 280.869
37.14000 282.916
37.15000 284.763
37.16000 283.589
37.17000 276.846
37.18000 269.981
37.19000 264.745
37.20000 261.527
37.21000 258.319
37.22000 259.193
37.23000 263.339
37.24000 267.468
37.25000 270.865
37.26000 273.865
37.27000 276.554
37.28000 273.651
37.29000 268.679
37.30000 264.088
37.31000 262.222
37.32000 261.161
37.33000 260.077
37.34000 258.856
37.35000 257.612
37.36000 256.996
37.37000 258.833
37.38000 260.917
37.39000 262.451
37.40000 259.255
37.41000 256.584
37.42000 252.632
37.43000 246.358
37.44000 240.037
37.45000 238.498
37.46000 242.771
37.47000 247.050
37.48000 249.941
37.49000 251.725
37.50000 253.519
37.51000 255.739
37.52000 258.184
37.53000 260.424
37.54000 259.082
37.55000 256.436
37.56000 253.999
37.57000 251.989
37.58000 250.285
37.59000 248.588
37.60000 246.931
37.61000 245.280
37.62000 244.504
37.63000 247.077
37.64000 249.980
37.65000 252.106
37.66000 250.255
37.67000 248.667
37.68000 248.314
37.69000 250.160
37.70000 252.049
37.71000 253.426
37.72000 254.192
37.73000 254.955
37.74000 255.451
37.75000 255.737
37.76000 256.092
37.77000 259.222
37.78000 263.805
37.79000 267.925
37.80000 264.266
37.81000 257.825
37.82000 251.902
37.83000 253.556
37.84000 256.672
37.85000 258.959
37.86000 256.517
37.87000 253.327
37.88000 250.973
37.89000 251.764
37.90000 252.857
37.91000 253.654
37.92000 247.677
37.93000 242.812
37.94000 240.054
37.95000 240.982
37.96000 241.977
37.97000 242.892
37.98000 243.713
37.99000 244.531
38.00000 250.461
38.01000 260.223
38.02000 269.768
38.03000 270.956
38.04000 267.849
38.05000 265.009
38.06000 266.533
38.07000 269.592
38.08000 272.398
38.09000 265.282
38.10000 256.836
38.11000 249.682
38.12000 249.747
38.13000 250.930
38.14000 252.031
38.15000 252.827
38.16000 253.594
38.17000 254.151
38.18000 256.277
38.19000 257.969
38.20000 257.768
38.21000 254.313
38.22000 250.801
38.23000 251.822
38.24000 258.048
38.25000 264.262
38.26000 268.546
38.27000 271.367
38.28000 274.118
38.29000 274.281
38.30000 273.136
38.31000 272.074
38.32000 272.325
38.33000 273.029
38.34000 273.674
38.35000 280.704
38.36000 288.284
38.37000 295.266
38.38000 298.971
38.39000 302.178
38.40000 308.807
38.41000 327.874
38.42000 348.074
38.43000 362.648
38.44000 373.144
38.45000 381.044
38.46000 396.616
38.47000 425.151
38.48000 453.897
38.49000 475.763
38.50000 489.885
38.51000 503.953
38.52000 527.174
38.53000 556.872
38.54000 586.405
38.55000 610.089
38.56000 630.869
38.57000 652.660
38.58000 689.958
38.59000 732.520
38.60000 771.393
38.61000 797.822
38.62000 818.752
38.63000 840.999
38.64000 870.321
38.65000 900.696
38.66000 929.862
38.67000 954.716
38.68000 979.187
38.69000 996.750
38.70000 1027.952
38.71000 1052.282
38.72000 1072.421
38.73000 1085.604
38.74000 1098.681
38.75000 1106.510
38.76000 1108.542
38.77000 1110.563
38.78000 1093.912
38.79000 1064.073
38.80000 1034.541
38.81000 1015.338
38.82000 1001.177
38.83000 986.851
38.84000 970.075
38.85000 952.482
38.86000 936.451
38.87000 892.950
38.88000 848.935
38.89000 805.099
38.90000 762.212
38.91000 719.464
38.92000 681.633
38.93000 661.056
38.94000 641.972
38.95000 628.348
38.96000 581.146
38.97000 544.028
38.98000 512.183
38.99000 488.936
39.00000 465.812
39.01000 443.814
39.02000 423.038
39.03000 402.349
39.04000 381.928
39.05000 361.900
39.06000 342.106
39.07000 329.824
39.08000 321.145
39.09000 312.285
39.10000 300.794
39.11000 288.440
39.12000 277.209
39.13000 271.755
39.14000 268.062
39.15000 263.740
39.16000 256.172
39.17000 248.141
39.18000 242.704
39.19000 246.208
39.20000 250.466
39.21000 253.489
39.22000 252.980
39.23000 252.481
39.24000 252.615
39.25000 253.763
39.26000 254.924
39.27000 253.216
39.28000 248.461
39.29000 243.727
39.30000 241.127
39.31000 240.023
39.32000 238.961
39.33000 239.165
39.34000 239.966
39.35000 240.777
39.36000 241.741
39.37000 242.754
39.38000 243.673
39.39000 237.890
39.40000 231.507
39.41000 226.228
39.42000 226.553
39.43000 227.659
39.44000 229.070
39.45000 231.509
39.46000 234.033
39.47000 235.816
39.48000 242.359
39.49000 247.471
39.50000 249.878
39.51000 248.026
39.52000 246.122
39.53000 240.769
39.54000 231.824
39.55000 222.926
39.56000 221.316
39.57000 224.642
39.58000 227.912
39.59000 229.553
39.60000 230.439
39.61000 231.259
39.62000 231.195
39.63000 230.850
39.64000 230.538
39.65000 229.965
39.66000 229.412
39.67000 229.058
39.68000 229.696
39.69000 230.469
39.70000 230.500
39.71000 228.063
39.72000 225.428
39.73000 223.577
39.74000 219.498
39.75000 216.344
39.76000 217.161
39.77000 224.115
39.78000 231.139
39.79000 234.279
39.80000 233.456
39.81000 232.637
39.82000 232.387
39.83000 232.517
39.84000 232.610
39.85000 231.655
39.86000 230.221
39.87000 228.374
39.88000 221.048
39.89000 212.017
39.90000 203.866
39.91000 211.727
39.92000 221.571
39.93000 229.097
39.94000 225.305
39.95000 220.002
39.96000 217.100
39.97000 222.052
39.98000 227.614
39.99000 231.498
40.00000 228.400
40.01000 225.863
40.02000 225.630
40.03000 228.896
40.04000 232.197
40.05000 232.734
40.06000 230.507
40.07000 228.293
40.08000 224.209
40.09000 218.969
40.10000 214.070
40.11000 218.381
40.12000 226.817
40.13000 234.523
40.14000 232.833
40.15000 228.268
40.16000 224.157
40.17000 224.373
40.18000 225.338
40.19000 226.055
40.20000 225.581
40.21000 224.952
40.22000 224.744
40.23000 225.891
40.24000 227.140
40.25000 228.007
40.26000 227.436
40.27000 226.968
40.28000 225.670
40.29000 223.137
40.30000 220.591
40.31000 220.544
40.32000 222.947
40.33000 225.334
40.34000 224.940
40.35000 222.780
40.36000 220.659
40.37000 219.572
40.38000 218.939
40.39000 218.619
40.40000 222.225
40.41000 227.012
40.42000 231.311
40.43000 229.896
40.44000 227.653
40.45000 224.830
40.46000 219.283
40.47000 213.387
40.48000 210.565
40.49000 217.447
40.50000 225.042
40.51000 230.286
40.52000 224.351
40.53000 219.604
40.54000 217.549
40.55000 219.440
40.56000 221.365
40.57000 222.148
40.58000 221.833
40.59000 221.520
40.60000 220.068
40.61000 217.928
40.62000 215.955
40.63000 218.152
40.64000 222.154
40.65000 225.692
40.66000 223.572
40.67000 219.780
40.68000 216.385
40.69000 216.082
40.70000 216.351
40.71000 216.461
40.72000 215.836
40.73000 215.120
40.74000 214.624
40.75000 214.812
40.76000 215.048
40.77000 215.210
40.78000 219.283
40.79000 222.431
40.80000 225.200
40.81000 227.422
40.82000 229.639
40.83000 229.666
40.84000 227.629
40.85000 225.608
40.86000 222.221
40.87000 218.057
40.88000 214.058
40.89000 214.004
40.90000 215.630
40.91000 216.959
40.92000 214.757
40.93000 211.531
40.94000 208.649
40.95000 212.544
40.96000 217.080
40.97000 219.866
40.98000 214.727
40.99000 208.619
41.00000 205.057
41.01000 209.260
41.02000 214.001
41.03000 217.237
41.04000 214.722
41.05000 212.708
41.06000 211.153
41.07000 210.248
41.08000 209.348
41.09000 207.959
41.10000 206.119
41.11000 204.294
41.12000 208.000
41.13000 214.962
41.14000 221.548
41.15000 219.429
41.16000 213.670
41.17000 208.407
41.18000 208.883
41.19000 210.998
41.20000 212.881
41.21000 208.219
41.22000 203.085
41.23000 199.950
41.24000 205.700
41.25000 212.512
41.26000 216.879
41.27000 213.923
41.28000 210.474
41.29000 208.133
41.30000 207.267
41.31000 206.654
41.32000 208.711
41.33000 214.476
41.34000 220.260
41.35000 219.560
41.36000 212.985
41.37000 206.472
41.38000 203.311
41.39000 202.194
41.40000 201.195
41.41000 202.818
41.42000 205.520
41.43000 207.967
41.44000 207.540
41.45000 206.308
41.46000 205.213
41.47000 205.317
41.48000 205.601
41.49000 205.636
41.50000 204.587
41.51000 203.412
41.52000 203.103
41.53000 205.344
41.54000 207.752
41.55000 209.376
41.56000 206.048
41.57000 203.467
41.58000 201.084
41.59000 198.969
41.60000 196.859
41.61000 199.552
41.62000 206.511
41.63000 213.399
41.64000 213.357
41.65000 209.299
41.66000 205.396
41.67000 204.821
41.68000 205.591
41.69000 206.507
41.70000 209.031
41.71000 211.997
41.72000 214.627
41.73000 217.698
41.74000 220.426
41.75000 221.889
41.76000 217.933
41.77000 213.359
41.78000 211.609
41.79000 218.037
41.80000 224.983
41.81000 229.639
41.82000 228.007
41.83000 226.669
41.84000 224.165
41.85000 220.101
41.86000 216.028
41.87000 211.272
41.88000 205.921
41.89000 200.629
41.90000 201.217
41.91000 205.136
41.92000 209.059
41.93000 213.048
41.94000 217.063
41.95000 220.665
41.96000 219.849
41.97000 217.837
41.98000 216.059
41.99000 212.329
42.00000 208.805
42.01000 207.249
42.02000 213.977
42.03000 221.628
42.04000 225.194
42.05000 217.131
42.06000 208.355
42.07000 202.508
42.08000 202.050
42.09000 201.813
42.10000 204.666
42.11000 211.574
42.12000 218.494
42.13000 220.300
42.14000 217.735
42.15000 215.200
42.16000 212.831
42.17000 210.613
42.18000 208.492
42.19000 208.329
42.20000 208.930
42.21000 209.990
42.22000 215.846
42.23000 222.975
42.24000 229.259
42.25000 227.037
42.26000 223.835
42.27000 221.586
42.28000 223.277
42.29000 225.396
42.30000 225.884
42.31000 221.807
42.32000 217.459
42.33000 214.580
42.34000 207.268
42.35000 201.790
42.36000 202.232
42.37000 210.308
42.38000 218.404
42.39000 221.219
42.40000 219.602
42.41000 218.006
42.42000 217.540
42.43000 217.705
42.44000 217.802
42.45000 216.587
42.46000 214.867
42.47000 213.309
42.48000 213.394
42.49000 213.907
42.50000 214.358
42.51000 213.174
42.52000 211.914
42.53000 210.655
42.54000 209.399
42.55000 208.143
42.56000 207.944
42.57000 210.651
42.58000 213.525
42.59000 215.417
42.60000 212.040
42.61000 209.463
42.62000 210.175
42.63000 215.051
42.64000 219.928
42.65000 218.880
42.66000 212.955
42.67000 207.108
42.68000 203.743
42.69000 201.803
42.70000 200.049
42.71000 201.762
42.72000 204.784
42.73000 207.314
42.74000 204.968
42.75000 201.371
42.76000 198.218
42.77000 199.176
42.78000 200.592
42.79000 201.961
42.80000 203.139
42.81000 204.297
42.82000 204.875
42.83000 203.884
42.84000 202.806
42.85000 202.101
42.86000 201.596
42.87000 201.228
42.88000 203.139
42.89000 207.881
42.90000 212.616
42.91000 211.518
42.92000 205.710
42.93000 199.982
42.94000 197.575
42.95000 196.987
42.96000 196.658
42.97000 200.999
42.98000 207.073
42.99000 212.153
43.00000 207.607
43.01000 200.639
43.02000 194.549
43.03000 196.123
43.04000 198.555
43.05000 200.087
43.06000 198.096
43.07000 195.749
43.08000 194.931
43.09000 198.175
43.10000 201.639
43.11000 203.890
43.12000 197.241
43.13000 192.234
43.14000 191.520
43.15000 196.038
43.16000 200.559
43.17000 202.092
43.18000 201.255
43.19000 200.432
43.20000 201.426
43.21000 203.331
43.22000 205.144
43.23000 205.351
43.24000 204.973
43.25000 204.287
43.26000 200.698
43.27000 196.390
43.28000 192.636
43.29000 189.466
43.30000 186.838
43.31000 185.082
43.32000 186.678
43.33000 188.606
43.34000 190.694
43.35000 193.202
43.36000 195.732
43.37000 197.365
43.38000 192.317
43.39000 188.532
43.40000 188.976
43.41000 194.475
43.42000 199.972
43.43000 202.448
43.44000 202.574
43.45000 202.697
43.46000 200.740
43.47000 197.788
43.48000 195.077
43.49000 196.455
43.50000 199.299
43.51000 201.801
43.52000 201.145
43.53000 199.723
43.54000 198.487
43.55000 194.442
43.56000 190.612
43.57000 187.890
43.58000 189.347
43.59000 191.207
43.60000 193.864
43.61000 198.566
43.62000 203.372
43.63000 206.453
43.64000 194.273
43.65000 185.190
43.66000 183.946
43.67000 191.900
43.68000 199.828
43.69000 198.631
43.70000 190.466
43.71000 182.436
43.72000 183.078
43.73000 188.021
43.74000 192.827
43.75000 195.394
43.76000 197.172
43.77000 198.876
43.78000 199.915
43.79000 200.796
43.80000 201.560
43.81000 199.080
43.82000 196.542
43.83000 194.304
43.84000 193.180
43.85000 192.160
43.86000 191.020
43.87000 189.579
43.88000 188.123
43.89000 187.196
43.90000 193.020
43.91000 197.339
43.92000 200.040
43.93000 200.879
43.94000 201.709
43.95000 201.136
43.96000 199.512
43.97000 197.916
43.98000 193.228
43.99000 187.187
44.00000 181.801
44.01000 186.828
44.02000 195.461
44.03000 202.602
44.04000 196.611
44.05000 187.545
44.06000 179.716
44.07000 189.089
44.08000 199.270
44.09000 207.237
44.10000 207.133
44.11000 206.292
44.12000 204.046
44.13000 198.318
44.14000 192.426
44.15000 188.699
44.16000 188.773
44.17000 188.873
44.18000 189.226
44.19000 189.866
44.20000 190.501
44.21000 190.343
44.22000 189.601
44.23000 188.873
44.24000 191.071
44.25000 194.595
44.26000 198.053
44.27000 200.482
44.28000 202.562
44.29000 203.990
44.30000 199.818
44.31000 194.358
44.32000 189.658
44.33000 191.264
44.34000 193.420
44.35000 194.477
44.36000 191.596
44.37000 188.364
44.38000 186.749
44.39000 189.077
44.40000 191.584
44.41000 193.158
44.42000 199.609
44.43000 204.326
44.44000 206.179
44.45000 204.858
44.46000 203.525
44.47000 200.654
44.48000 196.670
44.49000 192.764
44.50000 197.129
44.51000 205.228
44.52000 212.598
44.53000 209.056
44.54000 201.864
44.55000 195.472
44.56000 195.800
44.57000 197.645
44.58000 199.228
44.59000 200.282
44.60000 201.107
44.61000 201.828
44.62000 202.182
44.63000 202.504
44.64000 204.341
44.65000 209.811
44.66000 215.439
44.67000 218.950
44.68000 213.947
44.69000 210.251
44.70000 211.172
44.71000 217.105
44.72000 223.005
44.73000 223.811
44.74000 221.003
44.75000 218.252
44.76000 220.469
44.77000 224.897
44.78000 229.099
44.79000 230.007
44.80000 229.832
44.81000 229.933
44.82000 232.301
44.83000 235.170
44.84000 237.626
44.85000 244.932
44.86000 251.680
44.87000 256.040
44.88000 252.155
44.89000 247.572
44.90000 245.790
44.91000 250.613
44.92000 255.712
44.93000 258.871
44.94000 263.034
44.95000 266.038
44.96000 266.919
44.97000 265.542
44.98000 264.209
44.99000 268.756
45.00000 277.401
45.01000 285.861
45.02000 286.495
45.03000 283.554
45.04000 280.694
45.05000 278.988
45.06000 277.654
45.07000 276.597
45.08000 277.757
45.09000 279.399
45.10000 280.800
45.11000 289.357
45.12000 297.401
45.13000 302.157
45.14000 295.755
45.15000 288.434
45.16000 284.559
45.17000 288.668
45.18000 293.099
45.19000 295.824
45.20000 284.283
45.21000 275.880
45.22000 268.524
45.23000 262.260
45.24000 256.048
45.25000 255.814
45.26000 259.671
45.27000 263.441
45.28000 261.984
45.29000 258.260
45.30000 254.566
45.31000 251.270
45.32000 248.101
45.33000 245.287
45.34000 245.256
45.35000 245.820
45.36000 246.299
45.37000 242.017
45.38000 237.874
45.39000 233.929
45.40000 230.641
45.41000 227.407
45.42000 224.188
45.43000 221.005
45.44000 217.824
45.45000 215.881
45.46000 217.492
45.47000 218.673
45.48000 218.109
45.49000 215.758
45.50000 213.418
45.51000 212.221
45.52000 211.793
45.53000 211.375
45.54000 208.482
45.55000 204.633
45.56000 201.109
45.57000 201.916
45.58000 204.074
45.59000 206.064
45.60000 206.759
45.61000 207.182
45.62000 207.541
45.63000 210.346
45.64000 212.971
45.65000 213.979
45.66000 209.684
45.67000 204.975
45.68000 201.208
45.69000 199.548
45.70000 197.967
45.71000 197.008
45.72000 191.093
45.73000 186.838
45.74000 187.583
45.75000 193.345
45.76000 199.055
45.77000 199.752
45.78000 197.138
45.79000 194.590
45.80000 193.548
45.81000 193.200
45.82000 192.683
45.83000 189.998
45.84000 186.646
45.85000 184.120
45.86000 187.798
45.87000 192.749
45.88000 196.931
45.89000 197.386
45.90000 197.358
45.91000 196.940
45.92000 195.268
45.93000 193.501
45.94000 191.778
45.95000 190.149
45.96000 188.524
45.97000 187.547
45.98000 183.234
45.99000 180.143
46.00000 180.193
46.01000 183.330
46.02000 186.440
46.03000 187.190
46.04000 186.409
46.05000 185.649
46.06000 185.009
46.07000 184.451
46.08000 183.594
46.09000 178.985
46.10000 173.245
46.11000 168.320
46.12000 169.394
46.13000 171.676
46.14000 173.598
46.15000 173.273
46.16000 172.761
46.17000 172.953
46.18000 175.370
46.19000 177.951
46.20000 181.685
46.21000 187.913
46.22000 194.226
46.23000 197.997
46.24000 193.231
46.25000 189.798
46.26000 189.158
46.27000 191.209
46.28000 193.176
46.29000 188.103
46.30000 178.543
46.31000 169.242
46.32000 169.338
46.33000 173.312
46.34000 176.843
46.35000 174.960
46.36000 171.474
46.37000 168.278
46.38000 167.176
46.39000 166.488
46.40000 165.911
46.41000 170.802
46.42000 175.444
46.43000 178.914
46.44000 178.741
46.45000 178.307
46.46000 177.347
46.47000 175.270
46.48000 173.156
46.49000 171.903
46.50000 171.768
46.51000 171.679
46.52000 175.460
46.53000 182.897
46.54000 190.222
46.55000 189.027
46.56000 182.497
46.57000 176.152
46.58000 177.605
46.59000 182.148
46.60000 186.233
46.61000 184.870
46.62000 181.922
46.63000 178.857
46.64000 174.976
46.65000 170.937
46.66000 167.560
46.67000 167.883
46.68000 168.527
46.69000 168.395
46.70000 165.887
46.71000 163.214
46.72000 162.066
46.73000 164.105
46.74000 166.245
46.75000 167.503
46.76000 164.577
46.77000 162.494
46.78000 165.129
46.79000 172.134
46.80000 179.120
46.81000 184.652
46.82000 189.289
46.83000 193.790
46.84000 190.455
46.85000 184.173
46.86000 178.085
46.87000 174.245
46.88000 171.048
46.89000 168.656
46.90000 171.818
46.91000 176.037
46.92000 179.551
46.93000 178.371
46.94000 176.927
46.95000 176.817
46.96000 180.720
46.97000 184.894
46.98000 186.781
46.99000 183.965
47.00000 181.009
47.01000 179.284
47.02000 166.199
47.03000 156.952
47.04000 158.634
47.05000 170.247
47.06000 181.713
47.07000 183.423
47.08000 179.240
47.09000 175.184
47.10000 176.693
47.11000 180.294
47.12000 183.393
47.13000 180.817
47.14000 176.647
47.15000 172.582
47.16000 169.234
47.17000 166.019
47.18000 163.349
47.19000 161.259
47.20000 159.588
47.21000 159.713
47.22000 165.144
47.23000 170.924
47.24000 172.484
47.25000 165.519
47.26000 158.310
47.27000 154.137
47.28000 160.757
47.29000 165.440
47.30000 166.290
47.31000 163.726
47.32000 161.219
47.33000 162.207
47.34000 165.270
47.35000 168.236
47.36000 170.605
47.37000 172.616
47.38000 174.073
47.39000 169.441
47.40000 163.127
47.41000 157.766
47.42000 158.713
47.43000 160.814
47.44000 162.552
47.45000 162.366
47.46000 162.031
47.47000 160.311
47.48000 154.572
47.49000 148.577
47.50000 145.996
47.51000 150.193
47.52000 154.575
47.53000 157.091
47.54000 158.072
47.55000 158.751
47.56000 159.423
47.57000 160.088
47.58000 160.679
47.59000 156.918
47.60000 150.620
47.61000 144.530
47.62000 149.360
47.63000 158.021
47.64000 165.939
47.65000 165.865
47.66000 163.624
47.67000 161.669
47.68000 161.559
47.69000 161.781
47.70000 161.964
47.71000 159.645
47.72000 157.506
47.73000 155.279
47.74000 152.797
47.75000 150.300
47.76000 150.005
47.77000 154.006
47.78000 158.120
47.79000 160.462
47.80000 159.240
47.81000 158.380
47.82000 160.573
47.83000 165.381
47.84000 170.047
47.85000 166.861
47.86000 159.173
47.87000 151.751
47.88000 153.828
47.89000 159.288
47.90000 164.277
47.91000 164.328
47.92000 163.064
47.93000 162.147
47.94000 163.429
47.95000 165.097
47.96000 166.468
47.97000 161.635
47.98000 157.111
47.99000 154.246
48.00000 156.036
48.01000 158.103
48.02000 159.736
48.03000 160.536
48.04000 161.315
48.05000 161.755
48.06000 170.112
48.07000 175.927
48.08000 173.188
48.09000 163.252
48.10000 153.475
48.11000 151.942
48.12000 155.053
48.13000 158.052
48.14000 157.739
48.15000 156.245
48.16000 155.125
48.17000 157.818
48.18000 161.510
48.19000 164.487
48.20000 163.026
48.21000 160.799
48.22000 158.977
48.23000 158.328
48.24000 157.898
48.25000 157.137
48.26000 155.461
48.27000 153.733
48.28000 153.923
48.29000 157.730
48.30000 161.623
48.31000 163.803
48.32000 155.135
48.33000 149.111
48.34000 146.919
48.35000 147.890
48.36000 148.896
48.37000 151.557
48.38000 155.135
48.39000 158.580
48.40000 161.931
48.41000 165.043
48.42000 167.615
48.43000 164.810
48.44000 160.622
48.45000 156.770
48.46000 154.954
48.47000 153.483
48.48000 152.283
48.49000 153.711
48.50000 155.102
48.51000 156.390
48.52000 157.402
48.53000 158.398
48.54000 159.381
48.55000 160.341
48.56000 161.300
48.57000 161.833
48.58000 156.809
48.59000 153.337
48.60000 153.873
48.61000 157.654
48.62000 161.305
48.63000 158.918
48.64000 153.246
48.65000 147.794
48.66000 151.211
48.67000 157.503
48.68000 163.152
48.69000 162.545
48.70000 160.359
48.71000 158.232
48.72000 156.454
48.73000 154.734
48.74000 153.337
48.75000 152.390
48.76000 151.654
48.77000 151.463
48.78000 152.721
48.79000 154.057
48.80000 154.149
48.81000 151.977
48.82000 149.758
48.83000 148.535
48.84000 154.099
48.85000 157.946
48.86000 162.836
48.87000 168.554
48.88000 174.097
48.89000 171.989
48.90000 165.791
48.91000 159.840
48.92000 157.519
48.93000 156.590
48.94000 155.902
48.95000 157.508
48.96000 159.682
48.97000 161.909
48.98000 164.446
48.99000 167.033
49.00000 169.126
49.01000 164.367
49.02000 159.941
49.03000 157.536
49.04000 160.418
49.05000 163.577
49.06000 164.842
49.07000 162.715
49.08000 160.522
49.09000 159.325
49.10000 161.102
49.11000 162.323
49.12000 162.728
49.13000 162.496
49.14000 162.281
49.15000 162.790
49.16000 163.679
49.17000 164.531
49.18000 157.678
49.19000 148.696
49.20000 140.815
49.21000 143.137
49.22000 147.943
49.23000 151.469
49.24000 147.655
49.25000 142.673
49.26000 138.658
49.27000 141.377
49.28000 144.113
49.29000 146.308
49.30000 147.114
49.31000 147.848
49.32000 148.904
49.33000 150.524
49.34000 152.154
49.35000 153.036
49.36000 151.550
49.37000 150.535
49.38000 150.764
49.39000 151.946
49.40000 153.048
49.41000 151.008
49.42000 147.345
49.43000 143.839
49.44000 143.151
49.45000 143.437
49.46000 143.576
49.47000 142.383
49.48000 140.871
49.49000 139.860
49.50000 141.663
49.51000 143.904
49.52000 145.703
49.53000 146.114
49.54000 146.342
49.55000 147.238
49.56000 149.825
49.57000 152.495
49.58000 154.955
49.59000 157.054
49.60000 159.147
49.61000 160.269
49.62000 154.432
49.63000 150.467
49.64000 151.556
49.65000 156.446
49.66000 161.121
49.67000 157.784
49.68000 150.378
49.69000 143.301
49.70000 146.885
49.71000 153.661
49.72000 159.875
49.73000 161.140
49.74000 161.244
49.75000 160.924
49.76000 158.270
49.77000 155.259
49.78000 152.853
49.79000 152.664
49.80000 152.677
49.81000 152.350
49.82000 151.177
49.83000 149.965
49.84000 150.143
49.85000 152.684
49.86000 155.264
49.87000 156.635
49.88000 157.943
49.89000 158.824
49.90000 157.985
49.91000 155.876
49.92000 153.868
49.93000 155.488
49.94000 158.918
49.95000 162.191
49.96000 158.646
49.97000 153.196
49.98000 148.237
49.99000 147.509
50.00000 147.756
50.01000 148.347
50.02000 150.795
50.03000 153.522
50.04000 155.693
50.05000 150.753
50.06000 146.257
50.07000 143.950
50.08000 146.997
50.09000 150.288
50.10000 152.314
50.11000 152.228
50.12000 152.109
50.13000 152.047
50.14000 152.538
50.15000 152.887
50.16000 155.635
50.17000 160.122
50.18000 164.450
50.19000 163.327
50.20000 159.532
50.21000 155.916
50.22000 155.015
50.23000 155.023
50.24000 155.045
50.25000 155.185
50.26000 155.352
50.27000 155.834
50.28000 157.987
50.29000 160.385
50.30000 162.287
50.31000 157.704
50.32000 153.563
50.33000 151.056
50.34000 152.476
50.35000 154.068
50.36000 155.766
50.37000 157.636
50.38000 159.508
50.39000 160.484
50.40000 161.206
50.41000 161.684
50.42000 160.618
50.43000 158.454
50.44000 156.326
50.45000 155.374
50.46000 154.987
50.47000 154.620
50.48000 153.356
50.49000 151.914
50.50000 150.501
50.51000 149.324
50.52000 148.199
50.53000 147.723
50.54000 150.619
50.55000 153.997
50.56000 156.666
50.57000 161.372
50.58000 165.288
50.59000 167.268
50.60000 164.672
50.61000 161.884
50.62000 161.436
50.63000 164.759
50.64000 168.133
50.65000 169.875
50.66000 167.475
50.67000 165.857
50.68000 164.172
50.69000 162.440
50.70000 160.856
50.71000 163.865
50.72000 169.050
50.73000 173.973
50.74000 176.934
50.75000 179.081
50.76000 180.590
50.77000 176.963
50.78000 172.215
50.79000 167.860
50.80000 165.508
50.81000 163.438
50.82000 161.809
50.83000 160.501
50.84000 159.475
50.85000 159.138
50.86000 160.402
50.87000 161.730
50.88000 163.304
50.89000 165.265
50.90000 167.232
50.91000 168.238
50.92000 169.028
50.93000 169.532
50.94000 166.835
50.95000 161.943
50.96000 157.222
50.97000 157.612
50.98000 160.382
50.99000 163.007
51.00000 162.283
51.01000 160.634
51.02000 159.021
51.03000 157.694
51.04000 156.427
51.05000 154.483
51.06000 149.144
51.07000 143.340
51.08000 138.793
51.09000 137.587
51.10000 136.839
51.11000 137.899
51.12000 143.091
51.13000 148.445
51.14000 151.021
51.15000 149.283
51.16000 147.494
51.17000 146.588
51.18000 148.657
51.19000 150.017
51.20000 148.670
51.21000 145.499
51.22000 142.439
51.23000 142.516
51.24000 144.029
51.25000 145.462
51.26000 148.164
51.27000 151.014
51.28000 153.511
51.29000 153.290
51.30000 152.498
51.31000 151.051
51.32000 146.387
51.33000 141.291
51.34000 137.317
51.35000 144.684
51.36000 151.265
51.37000 154.914
51.38000 151.982
51.39000 148.803
51.40000 146.168
51.41000 144.362
51.42000 142.566
51.43000 141.665
51.44000 148.165
51.45000 152.458
51.46000 152.411
51.47000 149.489
51.48000 146.653
51.49000 146.137
51.50000 146.666
51.51000 147.165
51.52000 143.822
51.53000 139.672
51.54000 136.447
51.55000 140.201
51.56000 145.393
51.57000 150.085
51.58000 152.370
51.59000 154.338
51.60000 155.866
51.61000 152.461
51.62000 149.455
51.63000 146.816
51.64000 144.991
51.65000 143.194
51.66000 140.440
51.67000 136.251
51.68000 132.048
51.69000 131.164
51.70000 133.554
51.71000 135.938
51.72000 137.804
51.73000 139.333
51.74000 140.815
51.75000 141.054
51.76000 140.743
51.77000 140.450
51.78000 138.684
51.79000 136.659
51.80000 135.408
51.81000 139.861
51.82000 145.468
51.83000 150.984
51.84000 156.074
51.85000 161.109
51.86000 165.002
51.87000 154.576
51.88000 145.463
51.89000 140.016
51.90000 142.519
51.91000 145.297
51.92000 146.914
51.93000 146.821
51.94000 146.713
51.95000 146.374
51.96000 145.810
51.97000 145.240
51.98000 144.040
51.99000 142.437
52.00000 140.950
52.01000 142.354
52.02000 145.016
52.03000 147.521
52.04000 143.006
52.05000 136.975
52.06000 131.785
52.07000 132.665
52.08000 134.749
52.09000 136.572
52.10000 137.182
52.11000 137.640
52.12000 137.993
52.13000 145.941
52.14000 152.665
52.15000 155.717
52.16000 150.940
52.17000 145.905
52.18000 144.191
52.19000 147.285
52.20000 150.417
52.21000 151.076
52.22000 149.392
52.23000 147.675
52.24000 143.424
52.25000 137.584
52.26000 131.990
52.27000 132.396
52.28000 135.366
52.29000 138.156
52.30000 139.909
52.31000 141.231
52.32000 142.358
52.33000 142.102
52.34000 141.578
52.35000 140.288
52.36000 135.515
52.37000 130.313
52.38000 126.327
52.39000 128.372
52.40000 130.319
52.41000 131.825
52.42000 132.406
52.43000 132.958
52.44000 133.607
52.45000 134.393
52.46000 135.180
52.47000 136.744
52.48000 139.027
52.49000 141.290
52.50000 142.087
52.51000 141.980
52.52000 141.849
52.53000 141.152
52.54000 140.217
52.55000 139.340
52.56000 137.501
52.57000 135.577
52.58000 134.001
52.59000 134.841
52.60000 136.143
52.61000 137.545
52.62000 139.399
52.63000 141.307
52.64000 142.763
52.65000 136.695
52.66000 131.512
52.67000 128.849
52.68000 131.376
52.69000 134.059
52.70000 136.541
52.71000 138.742
52.72000 140.941
52.73000 140.119
52.74000 136.548
52.75000 133.016
52.76000 132.127
52.77000 132.839
52.78000 133.572
52.79000 134.797
52.80000 136.225
52.81000 137.561
52.82000 138.044
52.83000 138.264
52.84000 138.524
52.85000 139.050
52.86000 139.627
52.87000 140.566
52.88000 143.096
52.89000 145.814
52.90000 147.877
52.91000 148.275
52.92000 148.500
52.93000 146.738
52.94000 140.949
52.95000 135.043
52.96000 132.192
52.97000 133.525
52.98000 134.883
52.99000 136.455
53.00000 138.215
53.01000 139.953
53.02000 140.324
53.03000 139.880
53.04000 139.514
53.05000 140.836
53.06000 142.844
53.07000 144.719
53.08000 146.127
53.09000 147.286
53.10000 148.329
53.11000 148.599
53.12000 148.727
53.13000 148.374
53.14000 145.947
53.15000 143.281
53.16000 141.267
53.17000 143.352
53.18000 145.192
53.19000 146.383
53.20000 146.282
53.21000 146.145
53.22000 145.211
53.23000 143.204
53.24000 141.192
53.25000 143.414
53.26000 149.338
53.27000 155.148
53.28000 154.253
53.29000 149.436
53.30000 145.003
53.31000 148.589
53.32000 155.378
53.33000 161.706
53.34000 163.954
53.35000 164.985
53.36000 165.620
53.37000 163.676
53.38000 161.267
53.39000 159.501
53.40000 160.450
53.41000 161.703
53.42000 162.646
53.43000 167.921
53.44000 172.257
53.45000 172.808
53.46000 165.952
53.47000 158.902
53.48000 153.744
53.49000 151.085
53.50000 148.439
53.51000 146.228
53.52000 144.394
53.53000 142.644
53.54000 145.542
53.55000 151.113
53.56000 156.553
53.57000 159.342
53.58000 161.090
53.59000 162.717
53.60000 155.788
53.61000 147.466
53.62000 140.575
53.63000 142.788
53.64000 146.608
53.65000 149.033
53.66000 145.661
53.67000 141.654
53.68000 138.654
53.69000 143.993
53.70000 148.549
53.71000 152.158
53.72000 153.941
53.73000 155.679
53.74000 154.016
53.75000 147.944
53.76000 141.860
53.77000 141.475
53.78000 145.885
53.79000 150.219
53.80000 150.613
53.81000 148.782
53.82000 146.988
53.83000 145.938
53.84000 145.175
53.85000 144.467
53.86000 145.098
53.87000 145.984
53.88000 146.368
53.89000 143.620
53.90000 140.331
53.91000 138.664
53.92000 143.617
53.93000 149.279
53.94000 153.497
53.95000 152.693
53.96000 151.840
53.97000 151.237
53.98000 151.104
53.99000 150.983
54.00000 148.824
54.01000 144.071
54.02000 139.315
54.03000 135.592
54.04000 132.735
54.05000 129.965
54.06000 131.526
54.07000 135.492
54.08000 139.142
54.09000 136.854
54.10000 132.312
54.11000 128.106
54.12000 129.827
54.13000 132.749
54.14000 135.554
54.15000 137.639
54.16000 139.603
54.17000 141.378
54.18000 142.399
54.19000 143.342
54.20000 144.040
54.21000 137.407
54.22000 131.934
54.23000 129.776
54.24000 133.778
54.25000 137.917
54.26000 141.319
54.27000 143.801
54.28000 146.277
54.29000 146.995
54.30000 146.288
54.31000 145.546
54.32000 143.203
54.33000 139.988
54.34000 136.909
54.35000 136.320
54.36000 136.659
54.37000 136.973
54.38000 137.550
54.39000 138.128
54.40000 138.840
54.41000 140.350
54.42000 141.993
54.43000 144.162
54.44000 148.398
54.45000 152.846
54.46000 156.128
54.47000 147.360
54.48000 140.057
54.49000 136.922
54.50000 141.393
54.51000 146.025
54.52000 147.172
54.53000 144.048
54.54000 140.920
54.55000 139.491
54.56000 139.419
54.57000 139.343
54.58000 139.098
54.59000 138.762
54.60000 138.389
54.61000 137.373
54.62000 136.120
54.63000 134.965
54.64000 138.595
54.65000 142.914
54.66000 146.355
54.67000 144.656
54.68000 142.118
54.69000 140.121
54.70000 140.207
54.71000 140.500
54.72000 140.715
54.73000 141.434
54.74000 142.010
54.75000 142.233
54.76000 141.820
54.77000 141.394
54.78000 140.892
54.79000 140.298
54.80000 139.705
54.81000 136.502
54.82000 131.283
54.83000 126.302
54.84000 131.210
54.85000 141.328
54.86000 150.844
54.87000 150.088
54.88000 145.632
54.89000 141.530
54.90000 140.092
54.91000 139.389
54.92000 139.099
54.93000 141.181
54.94000 143.643
54.95000 145.840
54.96000 147.034
54.97000 148.131
54.98000 148.933
54.99000 145.461
55.00000 142.616
55.01000 141.798
55.02000 144.554
55.03000 147.377
55.04000 149.496
55.05000 150.783
55.06000 152.067
55.07000 151.344
55.08000 149.096
55.09000 146.921
55.10000 147.642
55.11000 149.863
55.12000 151.995
55.13000 152.671
55.14000 152.830
55.15000 152.977
55.16000 151.790
55.17000 150.445
55.18000 150.019
55.19000 154.770
55.20000 160.330
55.21000 163.571
55.22000 158.168
55.23000 151.948
55.24000 147.427
55.25000 146.157
55.26000 145.304
55.27000 145.710
55.28000 148.300
55.29000 150.928
55.30000 154.103
55.31000 157.911
55.32000 161.709
55.33000 164.656
55.34000 166.946
55.35000 169.133
55.36000 167.446
55.37000 163.788
55.38000 160.448
55.39000 162.215
55.40000 165.759
55.41000 169.006
55.42000 171.296
55.43000 173.134
55.44000 175.377
55.45000 179.860
55.46000 184.686
55.47000 188.287
55.48000 187.401
55.49000 186.101
55.50000 185.160
55.51000 185.190
55.52000 185.248
55.53000 187.915
55.54000 195.023
55.55000 202.205
55.56000 211.083
55.57000 221.886
55.58000 232.658
55.59000 238.600
55.60000 240.952
55.61000 243.393
55.62000 249.087
55.63000 256.408
55.64000 263.953
55.65000 274.983
55.66000 287.205
55.67000 298.379
55.68000 316.009
55.69000 333.000
55.70000 349.947
55.71000 366.653
55.72000 383.324
55.73000 398.343
55.74000 407.426
55.75000 415.976
55.76000 422.126
55.77000 434.953
55.78000 445.006
55.79000 457.102
55.80000 472.617
55.81000 488.185
55.82000 508.016
55.83000 532.595
55.84000 557.090
55.85000 578.875
55.86000 598.519
55.87000 617.881
55.88000 627.548
55.89000 632.450
55.90000 637.212
55.91000 639.882
55.92000 641.847
55.93000 643.640
55.94000 654.325
55.95000 665.588
55.96000 675.133
55.97000 675.546
55.98000 674.617
55.99000 676.394
56.00000 687.737
56.01000 699.916
56.02000 708.632
56.03000 678.239
56.04000 653.714
56.05000 637.139
56.06000 633.631
56.07000 630.313
56.08000 621.541
56.09000 606.810
56.10000 592.136
56.11000 576.409
56.12000 560.090
56.13000 543.797
56.14000 528.388
56.15000 513.405
56.16000 498.354
56.17000 482.319
56.18000 465.959
56.19000 451.071
56.20000 435.046
56.21000 420.642
56.22000 406.924
56.23000 396.782
56.24000 387.153
56.25000 374.345
56.26000 350.494
56.27000 325.701
56.28000 308.054
56.29000 298.206
56.30000 290.957
56.31000 280.534
56.32000 264.987
56.33000 249.371
56.34000 236.255
56.35000 225.815
56.36000 215.422
56.37000 213.046
56.38000 216.252
56.39000 219.199
56.40000 214.018
56.41000 204.974
56.42000 196.269
56.43000 192.376
56.44000 190.045
56.45000 187.930
56.46000 187.223
56.47000 186.871
56.48000 186.162
56.49000 183.623
56.50000 180.827
56.51000 177.791
56.52000 173.932
56.53000 170.005
56.54000 167.225
56.55000 161.132
56.56000 156.400
56.57000 151.275
56.58000 145.527
56.59000 139.771
56.60000 136.576
56.61000 136.069
56.62000 135.565
56.63000 137.682
56.64000 141.558
56.65000 145.464
56.66000 150.305
56.67000 155.581
56.68000 160.126
56.69000 154.576
56.70000 145.804
56.71000 137.859
56.72000 139.982
56.73000 143.757
56.74000 145.766
56.75000 138.919
56.76000 130.851
56.77000 125.284
56.78000 128.101
56.79000 131.595
56.80000 134.055
56.81000 133.260
56.82000 132.560
56.83000 132.578
56.84000 133.715
56.85000 134.864
56.86000 135.333
56.87000 135.101
56.88000 134.870
56.89000 135.450
56.90000 136.564
56.91000 137.551
56.92000 134.879
56.93000 130.528
56.94000 126.511
56.95000 126.987
56.96000 128.872
56.97000 130.575
56.98000 130.322
56.99000 129.737
57.00000 129.265
57.01000 129.349
57.02000 129.507
57.03000 129.399
57.04000 128.413
57.05000 127.358
57.06000 126.619
57.07000 125.147
57.08000 124.012
57.09000 123.967
57.10000 125.591
57.11000 127.233
57.12000 130.194
57.13000 134.486
57.14000 138.753
57.15000 138.808
57.16000 136.106
57.17000 133.352
57.18000 129.193
57.19000 124.399
57.20000 120.028
57.21000 121.179
57.22000 124.032
57.23000 126.603
57.24000 129.693
57.25000 132.499
57.26000 134.049
57.27000 129.537
57.28000 124.226
57.29000 121.263
57.30000 125.906
57.31000 131.131
57.32000 134.768
57.33000 129.132
57.34000 124.627
57.35000 124.189
57.36000 129.867
57.37000 135.605
57.38000 137.483
57.39000 135.543
57.40000 133.617
57.41000 130.563
57.42000 126.832
57.43000 123.247
57.44000 123.554
57.45000 125.588
57.46000 127.382
57.47000 126.145
57.48000 123.991
57.49000 122.054
57.50000 123.991
57.51000 126.375
57.52000 128.993
57.53000 132.721
57.54000 136.592
57.55000 138.731
57.56000 135.359
57.57000 131.578
57.58000 128.960
57.59000 126.068
57.60000 123.886
57.61000 122.178
57.62000 121.171
57.63000 120.170
57.64000 120.830
57.65000 123.100
57.66000 125.353
57.67000 123.440
57.68000 118.932
57.69000 114.788
57.70000 119.859
57.71000 128.948
57.72000 137.191
57.73000 135.000
57.74000 129.702
57.75000 124.951
57.76000 127.461
57.77000 130.916
57.78000 133.962
57.79000 135.105
57.80000 136.007
57.81000 135.205
57.82000 129.072
57.83000 122.555
57.84000 118.069
57.85000 118.220
57.86000 118.450
57.87000 120.437
57.88000 124.975
57.89000 129.532
57.90000 128.942
57.91000 123.461
57.92000 118.023
57.93000 118.714
57.94000 123.184
57.95000 127.550
57.96000 129.380
57.97000 130.123
57.98000 130.695
57.99000 129.221
58.00000 127.150
58.01000 125.297
58.02000 122.580
58.03000 120.064
58.04000 118.350
58.05000 120.303
58.06000 122.707
58.07000 124.319
58.08000 123.492
58.09000 122.494
58.10000 121.812
58.11000 119.526
58.12000 117.778
58.13000 116.004
58.14000 114.196
58.15000 112.389
58.16000 111.666
58.17000 111.955
58.18000 112.242
58.19000 113.472
58.20000 115.251
58.21000 117.191
58.22000 122.877
58.23000 130.141
58.24000 136.564
58.25000 133.145
58.26000 126.896
58.27000 121.322
58.28000 118.732
58.29000 116.975
58.30000 115.541
58.31000 115.553
58.32000 115.739
58.33000 115.191
58.34000 112.423
58.35000 109.503
58.36000 107.517
58.37000 114.478
58.38000 119.879
58.39000 122.829
58.40000 122.349
58.41000 121.848
58.42000 123.859
58.43000 128.166
58.44000 132.435
58.45000 131.511
58.46000 127.514
58.47000 123.695
58.48000 123.878
58.49000 125.720
58.50000 127.367
58.51000 126.790
58.52000 125.584
58.53000 124.512
58.54000 124.268
58.55000 124.192
58.56000 123.729
58.57000 121.562
58.58000 119.195
58.59000 117.533
58.60000 117.964
58.61000 118.533
58.62000 118.918
58.63000 117.067
58.64000 115.640
58.65000 117.237
58.66000 122.989
58.67000 128.763
58.68000 128.975
58.69000 124.203
58.70000 119.478
58.71000 117.860
58.72000 118.089
58.73000 118.370
58.74000 119.757
58.75000 121.594
58.76000 123.351
58.77000 124.216
58.78000 124.834
58.79000 125.381
58.80000 123.459
58.81000 121.399
58.82000 119.849
58.83000 120.503
58.84000 121.411
58.85000 122.950
58.86000 126.329
58.87000 129.827
58.88000 132.178
58.89000 129.153
58.90000 126.795
58.91000 125.477
58.92000 125.561
58.93000 125.650
58.94000 123.015
58.95000 117.987
58.96000 113.011
58.97000 112.943
58.98000 115.692
58.99000 118.219
59.00000 116.101
59.01000 112.124
59.02000 108.698
59.03000 111.226
59.04000 115.377
59.05000 119.051
59.06000 119.557
59.07000 119.501
59.08000 118.759
59.09000 115.110
59.10000 111.134
59.11000 108.918
59.12000 111.749
59.13000 114.894
59.14000 116.995
59.15000 119.974
59.16000 122.198
59.17000 122.902
59.18000 121.593
59.19000 120.274
59.20000 119.686
59.21000 119.726
59.22000 119.766
59.23000 118.882
59.24000 117.499
59.25000 116.137
59.26000 115.197
59.27000 114.425
59.28000 113.751
59.29000 114.125
59.30000 114.779
59.31000 115.356
59.32000 116.421
59.33000 117.415
59.34000 118.124
59.35000 117.650
59.36000 117.044
59.37000 117.230
59.38000 119.642
59.39000 122.189
59.40000 123.880
59.41000 121.622
59.42000 119.880
59.43000 117.796
59.44000 115.268
59.45000 112.742
59.46000 112.260
59.47000 113.506
59.48000 114.738
59.49000 114.535
59.50000 113.545
59.51000 112.577
59.52000 112.027
59.53000 111.638
59.54000 111.605
59.55000 115.222
59.56000 119.798
59.57000 123.825
59.58000 123.037
59.59000 121.638
59.60000 120.165
59.61000 118.382
59.62000 116.567
59.63000 116.515
59.64000 121.350
59.65000 126.471
59.66000 129.849
59.67000 126.918
59.68000 124.647
59.69000 121.791
59.70000 118.189
59.71000 114.588
59.72000 112.318
59.73000 111.153
59.74000 110.003
59.75000 110.815
59.76000 112.668
59.77000 114.602
59.78000 118.046
59.79000 122.065
59.80000 125.633
59.81000 124.682
59.82000 122.564
59.83000 120.705
59.84000 119.178
59.85000 117.915
59.86000 117.150
59.87000 118.390
59.88000 119.840
59.89000 120.457
59.90000 118.807
59.91000 117.030
59.92000 115.864
59.93000 114.279
59.94000 113.106
59.95000 112.558
59.96000 112.793
59.97000 113.034
59.98000 114.816
59.99000 117.852
60.00000 120.848
60.01000 121.401
60.02000 120.642
60.03000 119.992
60.04000 121.350
60.05000 123.459
60.06000 125.080
60.07000 121.926
60.08000 117.560
60.09000 113.740
60.10000 111.084
60.11000 108.974
60.12000 107.942
60.13000 111.160
60.14000 114.814
60.15000 117.784
60.16000 118.924
60.17000 119.964
60.18000 120.642
60.19000 123.136
60.20000 124.994
60.21000 126.064
60.22000 126.165
60.23000 126.250
60.24000 122.291
60.25000 115.098
60.26000 108.010
60.27000 106.887
60.28000 108.911
60.29000 110.819
60.30000 110.676
60.31000 109.781
60.32000 109.222
60.33000 111.878
60.34000 115.337
60.35000 118.354
60.36000 117.129
60.37000 115.488
60.38000 114.394
60.39000 115.416
60.40000 116.649
60.41000 117.054
60.42000 115.278
60.43000 113.387
60.44000 112.163
60.45000 114.918
60.46000 116.993
60.47000 119.527
60.48000 122.615
60.49000 125.696
60.50000 126.579
60.51000 125.736
60.52000 124.907
60.53000 122.483
60.54000 119.318
60.55000 116.319
60.56000 116.178
60.57000 117.068
60.58000 117.801
60.59000 117.063
60.60000 115.965
60.61000 115.010
60.62000 111.421
60.63000 107.998
60.64000 106.087
60.65000 109.927
60.66000 114.327
60.67000 116.930
60.68000 114.887
60.69000 112.607
60.70000 111.140
60.71000 120.564
60.72000 127.590
60.73000 128.163
60.74000 121.098
60.75000 114.049
60.76000 113.718
60.77000 118.562
60.78000 123.327
60.79000 122.807
60.80000 119.648
60.81000 116.668
60.82000 116.666
60.83000 117.722
60.84000 118.607
60.85000 117.940
60.86000 116.900
60.87000 115.997
60.88000 119.863
60.89000 123.792
60.90000 125.842
60.91000 120.870
60.92000 115.231
60.93000 111.763
60.94000 113.819
60.95000 116.147
60.96000 117.634
60.97000 117.335
60.98000 117.094
60.99000 118.898
61.00000 123.076
61.01000 127.249
61.02000 129.521
61.03000 130.357
61.04000 131.180
61.05000 128.646
61.06000 124.542
61.07000 120.735
61.08000 121.698
61.09000 124.325
61.10000 126.558
61.11000 125.284
61.12000 123.182
61.13000 121.364
61.14000 123.038
61.15000 124.916
61.16000 126.727
61.17000 128.294
61.18000 129.837
61.19000 130.154
61.20000 127.403
61.21000 124.506
61.22000 122.667
61.23000 121.421
61.24000 120.524
61.25000 120.381
61.26000 121.095
61.27000 121.808
61.28000 121.985
61.29000 121.763
61.30000 121.546
61.31000 119.840
61.32000 117.473
61.33000 115.255
61.34000 115.371
61.35000 116.286
61.36000 117.306
61.37000 119.235
61.38000 121.374
61.39000 123.219
61.40000 125.310
61.41000 127.114
61.42000 128.124
61.43000 126.265
61.44000 124.148
61.45000 123.048
61.46000 124.447
61.47000 125.962
61.48000 126.917
61.49000 129.863
61.50000 132.018
61.51000 135.331
61.52000 139.938
61.53000 144.549
61.54000 149.701
61.55000 155.246
61.56000 160.686
61.57000 170.661
61.58000 182.427
61.59000 194.245
61.60000 206.848
61.61000 219.717
61.62000 232.399
61.63000 243.486
61.64000 254.211
61.65000 263.428
61.66000 271.609
61.67000 278.401
61.68000 284.248
61.69000 286.746
61.70000 288.949
61.71000 290.764
61.72000 291.640
61.73000 292.474
61.74000 292.996
61.75000 288.418
61.76000 285.059
61.77000 280.513
61.78000 274.669
61.79000 268.779
61.80000 256.109
61.81000 238.589
61.82000 221.419
61.83000 206.297
61.84000 192.703
61.85000 179.411
61.86000 170.577
61.87000 163.219
61.88000 156.245
61.89000 152.456
61.90000 149.377
61.91000 146.739
61.92000 142.182
61.93000 138.100
61.94000 134.496
61.95000 132.555
61.96000 130.756
61.97000 129.188
61.98000 128.171
61.99000 127.177
62.00000 126.560
62.01000 127.847
62.02000 128.793
62.03000 132.366
62.04000 138.760
62.05000 145.083
62.06000 141.895
62.07000 132.024
62.08000 122.361
62.09000 122.147
62.10000 126.265
62.11000 130.233
62.12000 132.054
62.13000 133.177
62.14000 133.568
62.15000 128.028
62.16000 121.187
62.17000 115.345
62.18000 116.414
62.19000 118.137
62.20000 120.609
62.21000 125.646
62.22000 130.896
62.23000 133.666
62.24000 130.650
62.25000 127.397
62.26000 125.389
62.27000 120.408
62.28000 116.805
62.29000 116.756
62.30000 120.450
62.31000 124.124
62.32000 125.264
62.33000 124.654
62.34000 124.057
62.35000 127.005
62.36000 131.424
62.37000 135.485
62.38000 134.591
62.39000 132.111
62.40000 129.520
62.41000 126.047
62.42000 122.384
62.43000 119.266
62.44000 125.644
62.45000 132.108
62.46000 135.547
62.47000 128.820
62.48000 121.267
62.49000 116.696
62.50000 118.967
62.51000 121.507
62.52000 123.064
62.53000 130.840
62.54000 136.461
62.55000 138.207
62.56000 135.951
62.57000 133.707
62.58000 132.854
62.59000 132.943
62.60000 133.031
62.61000 136.178
62.62000 140.539
62.63000 144.223
62.64000 138.782
62.65000 130.471
62.66000 123.024
62.67000 122.274
62.68000 122.939
62.69000 123.504
62.70000 124.656
62.71000 125.688
62.72000 126.175
62.73000 124.856
62.74000 123.395
62.75000 123.815
62.76000 128.478
62.77000 133.302
62.78000 136.235
62.79000 126.026
62.80000 118.633
62.81000 116.818
62.82000 120.646
62.83000 124.449
62.84000 125.640
62.85000 125.095
62.86000 124.562
62.87000 126.521
62.88000 129.470
62.89000 132.071
62.90000 130.116
62.91000 126.752
62.92000 123.995
62.93000 125.852
62.94000 128.664
62.95000 131.043
62.96000 129.861
62.97000 128.477
62.98000 127.445
62.99000 127.554
63.00000 127.751
63.01000 126.668
63.02000 122.751
63.03000 118.730
63.04000 116.303
63.05000 128.412
63.06000 137.139
63.07000 138.776
63.08000 133.382
63.09000 128.014
63.10000 125.040
63.11000 123.631
63.12000 122.258
63.13000 125.022
63.14000 129.416
63.15000 133.767
63.16000 137.575
63.17000 141.218
63.18000 143.883
63.19000 139.294
63.20000 133.229
63.21000 128.117
63.22000 129.776
63.23000 131.894
63.24000 133.223
63.25000 132.038
63.26000 130.666
63.27000 129.922
63.28000 130.546
63.29000 131.219
63.30000 131.622
63.31000 138.301
63.32000 143.085
63.33000 142.043
63.34000 135.335
63.35000 128.678
63.36000 126.277
63.37000 126.611
63.38000 126.935
63.39000 129.652
63.40000 133.238
63.41000 136.595
63.42000 137.128
63.43000 136.819
63.44000 136.398
63.45000 135.171
63.46000 133.783
63.47000 132.617
63.48000 131.256
63.49000 130.102
63.50000 129.547
63.51000 130.868
63.52000 132.326
63.53000 133.599
63.54000 134.478
63.55000 135.343
63.56000 135.857
63.57000 135.723
63.58000 135.624
63.59000 136.155
63.60000 137.288
63.61000 138.392
63.62000 137.229
63.63000 134.635
63.64000 132.112
63.65000 131.066
63.66000 130.674
63.67000 130.299
63.68000 130.135
63.69000 130.032
63.70000 130.198
63.71000 132.270
63.72000 134.715
63.73000 136.763
63.74000 137.674
63.75000 138.314
63.76000 138.520
63.77000 137.384
63.78000 136.154
63.79000 134.113
63.80000 130.364
63.81000 126.561
63.82000 124.317
63.83000 130.822
63.84000 135.462
63.85000 136.793
63.86000 135.032
63.87000 133.315
63.88000 134.850
63.89000 138.401
63.90000 141.850
63.91000 142.589
63.92000 142.205
63.93000 141.722
63.94000 140.088
63.95000 138.122
63.96000 136.732
63.97000 139.349
63.98000 142.736
63.99000 145.561
64.00000 145.082
64.01000 144.353
64.02000 143.053
64.03000 140.027
64.04000 136.882
64.05000 136.521
64.06000 141.923
64.07000 147.502
64.08000 150.768
64.09000 151.671
64.10000 152.295
64.11000 149.834
64.12000 144.548
64.13000 139.366
64.14000 141.285
64.15000 147.529
64.16000 153.584
64.17000 152.396
64.18000 148.419
64.19000 145.074
64.20000 148.961
64.21000 154.894
64.22000 158.966
64.23000 150.356
64.24000 139.358
64.25000 130.214
64.26000 142.453
64.27000 154.675
64.28000 162.989
64.29000 159.671
64.30000 155.580
64.31000 151.992
64.32000 149.429
64.33000 146.895
64.34000 145.424
64.35000 148.227
64.36000 150.213
64.37000 150.928
64.38000 150.499
64.39000 150.031
64.40000 146.979
64.41000 142.381
64.42000 137.928
64.43000 140.935
64.44000 146.660
64.45000 152.170
64.46000 155.281
64.47000 157.725
64.48000 159.784
64.49000 159.278
64.50000 158.298
64.51000 157.486
64.52000 154.778
64.53000 152.362
64.54000 151.880
64.55000 157.060
64.56000 162.604
64.57000 167.848
64.58000 172.491
64.59000 177.117
64.60000 179.783
64.61000 174.942
64.62000 171.526
64.63000 169.856
64.64000 169.725
64.65000 169.580
64.66000 168.624
64.67000 167.191
64.68000 165.805
64.69000 168.692
64.70000 173.037
64.71000 176.656
64.72000 172.377
64.73000 165.941
64.74000 160.480
64.75000 161.395
64.76000 163.465
64.77000 165.174
64.78000 164.408
64.79000 163.547
64.80000 163.094
64.81000 163.816
64.82000 164.611
64.83000 165.361
64.84000 166.022
64.85000 166.681
64.86000 167.058
64.87000 164.112
64.88000 162.053
64.89000 166.740
64.90000 177.259
64.91000 187.646
64.92000 190.614
64.93000 189.296
64.94000 188.023
64.95000 189.651
64.96000 192.266
64.97000 194.309
64.98000 190.309
64.99000 184.687
65.00000 179.814
65.01000 179.745
65.02000 180.528
65.03000 181.173
65.04000 181.995
65.05000 182.686
65.06000 182.798
65.07000 181.271
65.08000 179.645
65.09000 181.852
65.10000 191.466
65.11000 201.267
65.12000 206.824
65.13000 205.096
65.14000 203.872
65.15000 202.837
65.16000 201.962
65.17000 201.091
65.18000 200.430
65.19000 199.888
65.20000 199.365
65.21000 204.331
65.22000 211.007
65.23000 217.217
65.24000 218.603
65.25000 218.718
65.26000 218.567
65.27000 216.749
65.28000 214.642
65.29000 212.914
65.30000 217.948
65.31000 222.674
65.32000 226.878
65.33000 229.633
65.34000 232.302
65.35000 234.105
65.36000 234.262
65.37000 234.380
65.38000 234.446
65.39000 244.468
65.40000 251.440
65.41000 254.409
65.42000 254.045
65.43000 253.741
65.44000 256.424
65.45000 260.774
65.46000 264.964
65.47000 270.050
65.48000 275.149
65.49000 280.043
65.50000 282.885
65.51000 285.194
65.52000 287.501
65.53000 289.790
65.54000 292.075
65.55000 293.942
65.56000 299.415
65.57000 304.205
65.58000 310.548
65.59000 321.137
65.60000 331.966
65.61000 341.637
65.62000 349.146
65.63000 356.606
65.64000 360.764
65.65000 391.804
65.66000 413.354
65.67000 440.742
65.68000 472.898
65.69000 505.427
65.70000 555.625
65.71000 615.510
65.72000 673.117
65.73000 765.903
65.74000 865.261
65.75000 965.644
65.76000 1076.101
65.77000 1189.121
65.78000 1302.462
65.79000 1417.742
65.80000 1533.346
65.81000 1627.384
65.82000 1726.966
65.83000 1808.733
65.84000 1877.484
65.85000 1911.305
65.86000 1943.206
65.87000 1960.922
65.88000 1952.612
65.89000 1943.741
65.90000 1938.838
65.91000 1946.855
65.92000 1952.302
65.93000 1921.939
65.94000 1862.880
65.95000 1803.563
65.96000 1732.765
65.97000 1655.781
65.98000 1581.833
65.99000 1457.327
66.00000 1323.371
66.01000 1190.098
66.02000 1063.379
66.03000 938.297
66.04000 819.529
66.05000 738.012
66.06000 662.600
66.07000 601.490
66.08000 540.824
66.09000 491.443
66.10000 449.933
66.11000 429.187
66.12000 409.545
66.13000 394.608
66.14000 388.154
66.15000 381.872
66.16000 378.430
66.17000 374.607
66.18000 371.969
66.19000 366.870
66.20000 359.838
66.21000 353.020
66.22000 355.348
66.23000 362.520
66.24000 369.398
66.25000 371.691
66.26000 372.283
66.27000 375.879
66.28000 407.589
66.29000 446.197
66.30000 480.443
66.31000 489.457
66.32000 494.419
66.33000 498.425
66.34000 526.554
66.35000 551.331
66.36000 573.304
66.37000 588.003
66.38000 602.328
66.39000 612.240
66.40000 614.331
66.41000 616.273
66.42000 617.327
66.43000 620.061
66.44000 621.934
66.45000 622.733
66.46000 622.704
66.47000 622.604
66.48000 619.616
66.49000 615.127
66.50000 610.827
66.51000 591.873
66.52000 569.334
66.53000 546.447
66.54000 520.371
66.55000 493.527
66.56000 468.053
66.57000 450.353
66.58000 433.876
66.59000 420.627
66.60000 407.350
66.61000 396.583
66.62000 385.310
66.63000 372.747
66.64000 360.120
66.65000 350.731
66.66000 346.983
66.67000 343.336
66.68000 341.373
66.69000 344.698
66.70000 346.973
66.71000 348.621
66.72000 349.796
66.73000 350.847
66.74000 347.168
66.75000 341.071
66.76000 335.240
66.77000 341.155
66.78000 350.483
66.79000 358.845
66.80000 358.583
66.81000 356.280
66.82000 353.083
66.83000 344.915
66.84000 335.981
66.85000 328.826
66.86000 334.659
66.87000 340.355
66.88000 345.397
66.89000 348.801
66.90000 352.127
66.91000 353.508
66.92000 351.562
66.93000 349.559
66.94000 348.491
66.95000 353.137
66.96000 356.291
66.97000 356.540
66.98000 354.626
66.99000 352.809
67.00000 354.514
67.01000 357.991
67.02000 361.309
67.03000 364.978
67.04000 368.498
67.05000 371.500
67.06000 369.991
67.07000 367.435
67.08000 366.162
67.09000 371.891
67.10000 378.676
67.11000 384.089
67.12000 377.048
67.13000 370.453
67.14000 368.702
67.15000 378.882
67.16000 389.613
67.17000 393.247
67.18000 384.947
67.19000 376.457
67.20000 371.969
67.21000 372.682
67.22000 373.186
67.23000 376.404
67.24000 381.605
67.25000 386.508
67.26000 381.031
67.27000 370.424
67.28000 360.314
67.29000 365.351
67.30000 374.768
67.31000 383.701
67.32000 388.511
67.33000 392.381
67.34000 394.486
67.35000 387.155
67.36000 378.430
67.37000 371.497
67.38000 386.856
67.39000 400.808
67.40000 408.903
67.41000 402.809
67.42000 396.083
67.43000 393.492
67.44000 397.734
67.45000 402.077
67.46000 404.351
67.47000 401.651
67.48000 399.852
67.49000 402.585
67.50000 408.570
67.51000 414.525
67.52000 419.494
67.53000 423.984
67.54000 428.257
67.55000 428.102
67.56000 426.597
67.57000 425.567
67.58000 428.491
67.59000 432.299
67.60000 435.812
67.61000 437.778
67.62000 439.520
67.63000 440.898
67.64000 449.441
67.65000 456.799
67.66000 459.985
67.67000 453.238
67.68000 446.065
67.69000 440.427
67.70000 437.279
67.71000 434.167
67.72000 432.552
67.73000 438.427
67.74000 442.364
67.75000 442.263
67.76000 439.319
67.77000 436.729
67.78000 445.396
67.79000 459.437
67.80000 472.776
67.81000 469.814
67.82000 462.161
67.83000 455.696
67.84000 458.902
67.85000 464.233
67.86000 468.221
67.87000 465.302
67.88000 461.404
67.89000 458.332
67.90000 459.857
67.91000 461.388
67.92000 465.574
67.93000 475.976
67.94000 486.634
67.95000 489.829
67.96000 481.123
67.97000 472.262
67.98000 467.711
67.99000 475.472
68.00000 480.698
68.01000 486.415
68.02000 492.470
68.03000 498.333
68.04000 498.345
68.05000 495.612
68.06000 493.020
68.07000 493.780
68.08000 495.472
68.09000 497.516
68.10000 502.361
68.11000 507.809
68.12000 512.495
68.13000 513.336
68.14000 513.644
68.15000 513.885
68.16000 517.108
68.17000 519.880
68.18000 524.135
68.19000 531.802
68.20000 539.605
68.21000 546.003
68.22000 550.201
68.23000 554.373
68.24000 556.495
68.25000 555.915
68.26000 555.594
68.27000 562.853
68.28000 575.261
68.29000 587.204
68.30000 585.635
68.31000 577.830
68.32000 570.441
68.33000 567.627
68.34000 566.366
68.35000 566.570
68.36000 578.176
68.37000 592.197
68.38000 603.854
68.39000 603.806
68.40000 602.171
68.41000 600.893
68.42000 605.007
68.43000 608.630
68.44000 616.623
68.45000 634.499
68.46000 652.751
68.47000 663.543
68.48000 662.851
68.49000 662.032
68.50000 661.620
68.51000 664.002
68.52000 665.649
68.53000 672.946
68.54000 684.014
68.55000 695.362
68.56000 714.487
68.57000 737.141
68.58000 758.552
68.59000 777.090
68.60000 793.297
68.61000 810.442
68.62000 834.726
68.63000 860.493
68.64000 887.459
68.65000 920.245
68.66000 953.804
68.67000 979.914
68.68000 1012.809
68.69000 1039.411
68.70000 1073.588
68.71000 1124.606
68.72000 1176.241
68.73000 1231.255
68.74000 1291.378
68.75000 1351.552
68.76000 1396.826
68.77000 1427.275
68.78000 1457.797
68.79000 1495.166
68.80000 1537.023
68.81000 1579.340
68.82000 1633.939
68.83000 1694.014
68.84000 1750.691
68.85000 1804.539
68.86000 1853.105
68.87000 1908.758
68.88000 2017.177
68.89000 2136.355
68.90000 2271.678
68.91000 2483.954
68.92000 2706.225
68.93000 2878.408
68.94000 3641.851
68.95000 4283.375
68.96000 5242.424
68.97000 6895.371
68.98000 8572.705
68.99000 10784.411
69.00000 13789.531
69.01000 16801.998
69.02000 20052.846
69.03000 23535.922
69.04000 27014.377
69.05000 30091.822
69.06000 32911.078
69.07000 35695.637
69.08000 37589.863
69.09000 39093.871
69.10000 40510.246
69.11000 41339.223
69.12000 41936.770
69.13000 42548.719
69.14000 43265.637
69.15000 44003.555
69.16000 44758.758
69.17000 45594.828
69.18000 46441.168
69.19000 47093.918
69.20000 46949.621
69.21000 46789.281
69.22000 46121.773
69.23000 44364.762
69.24000 42571.063
69.25000 40308.371
69.26000 37361.762
69.27000 34409.516
69.28000 31846.301
69.29000 29655.352
69.30000 27470.836
69.31000 25803.018
69.32000 24462.014
69.33000 23145.809
69.34000 22441.391
69.35000 22000.563
69.36000 21586.182
69.37000 21234.496
69.38000 20930.236
69.39000 20564.063
69.40000 19756.314
69.41000 18861.910
69.42000 17836.865
69.43000 16212.059
69.44000 14512.750
69.45000 13207.961
69.46000 10997.400
69.47000 9199.284
69.48000 7571.831
69.49000 6304.755
69.50000 5049.296
69.51000 4032.002
69.52000 3355.797
69.53000 2682.321
69.54000 2214.360
69.55000 1939.096
69.56000 1665.206
69.57000 1493.685
69.58000 1385.775
69.59000 1279.287
69.60000 1206.544
69.61000 1148.093
69.62000 1093.251
69.63000 1038.100
69.64000 987.763
69.65000 940.624
69.66000 915.802
69.67000 895.276
69.68000 874.987
69.69000 855.766
69.70000 836.674
69.71000 822.081
69.72000 793.881
69.73000 770.904
69.74000 750.702
69.75000 736.260
69.76000 721.995
69.77000 703.194
69.78000 678.010
69.79000 652.789
69.80000 640.096
69.81000 638.918
69.82000 637.611
69.83000 627.321
69.84000 611.547
69.85000 595.901
69.86000 583.178
69.87000 571.672
69.88000 560.897
69.89000 557.683
69.90000 556.712
69.91000 554.669
69.92000 545.293
69.93000 534.532
69.94000 525.775
69.95000 525.884
69.96000 527.045
69.97000 527.928
69.98000 520.493
69.99000 514.206
70.00000 507.593
