20.00000 479.034
20.01000 479.908
20.02000 480.907
20.03000 481.820
20.04000 482.393
20.05000 482.931
20.06000 483.329
20.07000 489.272
20.08000 494.113
20.09000 493.856
20.10000 484.271
20.11000 474.488
20.12000 469.114
20.13000 469.158
20.14000 469.215
20.15000 468.988
20.16000 468.535
20.17000 468.175
20.18000 471.943
20.19000 477.930
20.20000 483.317
20.21000 478.109
20.22000 469.009
20.23000 460.613
20.24000 466.725
20.25000 475.440
20.26000 482.115
20.27000 476.798
20.28000 469.523
20.29000 464.050
20.30000 465.555
20.31000 467.757
20.32000 469.375
20.33000 463.004
20.34000 457.752
20.35000 456.408
20.36000 462.091
20.37000 467.915
20.38000 473.062
20.39000 477.392
20.40000 481.712
20.41000 478.115
20.42000 468.361
20.43000 458.890
20.44000 461.349
20.45000 470.106
20.46000 478.428
20.47000 479.288
20.48000 477.454
20.49000 475.765
20.50000 478.241
20.51000 481.367
20.52000 483.811
20.53000 482.332
20.54000 480.225
20.55000 477.678
20.56000 473.460
20.57000 469.079
20.58000 465.876
20.59000 473.831
20.60000 480.408
20.61000 485.470
20.62000 487.858
20.63000 490.195
20.64000 486.080
20.65000 474.336
20.66000 462.605
20.67000 463.084
20.68000 472.900
20.69000 482.445
20.70000 481.160
20.71000 474.255
20.72000 467.635
20.73000 465.731
20.74000 465.501
20.75000 465.290
20.76000 473.438
20.77000 482.501
20.78000 489.094
20.79000 481.722
20.80000 472.162
20.81000 464.385
20.82000 463.272
20.83000 462.792
20.84000 462.443
20.85000 466.682
20.86000 470.118
20.87000 472.768
20.88000 474.054
20.89000 475.316
20.90000 478.139
20.91000 482.774
20.92000 487.399
20.93000 490.667
20.94000 492.894
20.95000 495.089
20.96000 496.080
20.97000 496.456
20.98000 496.557
20.99000 492.245
21.00000 486.392
21.01000 481.028
21.02000 477.817
21.03000 475.410
21.04000 473.794
21.05000 476.559
21.06000 479.997
21.07000 482.982
21.08000 484.304
21.09000 485.473
21.10000 486.318
21.11000 493.096
21.12000 498.516
21.13000 499.648
21.14000 493.465
21.15000 487.160
21.16000 484.799
21.17000 486.929
21.18000 489.056
21.19000 487.556
21.20000 483.396
21.21000 479.264
21.22000 476.154
21.23000 473.557
21.24000 471.129
21.25000 471.358
21.26000 472.497
21.27000 473.539
21.28000 475.220
21.29000 476.846
21.30000 477.970
21.31000 476.368
21.32000 474.356
21.33000 473.127
21.34000 474.720
21.35000 476.567
21.36000 477.896
21.37000 475.095
21.38000 472.804
21.39000 469.421
21.40000 464.207
21.41000 458.965
21.42000 460.649
21.43000 470.067
21.44000 479.458
21.45000 474.840
21.46000 460.145
21.47000 446.009
21.48000 451.141
21.49000 465.768
21.50000 479.748
21.51000 483.934
21.52000 484.819
21.53000 485.627
21.54000 483.749
21.55000 481.542
21.56000 481.236
21.57000 491.062
21.58000 502.380
21.59000 509.251
21.60000 500.369
21.61000 490.104
21.62000 482.753
21.63000 488.973
21.64000 494.184
21.65000 502.462
21.66000 515.793
21.67000 529.199
21.68000 538.897
21.69000 544.535
21.70000 550.149
21.71000 554.815
21.72000 558.766
21.73000 562.971
21.74000 575.520
21.75000 592.111
21.76000 607.740
21.77000 609.245
21.78000 606.072
21.79000 603.184
21.80000 622.931
21.81000 644.882
21.82000 665.642
21.83000 680.177
21.84000 693.814
21.85000 708.121
21.86000 724.760
21.87000 741.599
21.88000 753.592
21.89000 764.523
21.90000 772.817
21.91000 779.750
21.92000 784.479
21.93000 789.177
21.94000 795.849
21.95000 804.641
21.96000 813.395
21.97000 817.858
21.98000 819.293
21.99000 820.562
22.00000 816.614
22.01000 810.181
22.02000 804.173
22.03000 804.220
22.04000 806.238
22.05000 808.071
22.06000 800.413
22.07000 791.812
22.08000 782.096
22.09000 766.660
22.10000 750.416
22.11000 736.770
22.12000 732.006
22.13000 727.983
22.14000 725.132
22.15000 697.516
22.16000 675.751
22.17000 656.411
22.18000 640.926
22.19000 625.490
22.20000 610.842
22.21000 597.024
22.22000 583.273
22.23000 574.683
22.24000 569.709
22.25000 564.888
22.26000 564.642
22.27000 566.538
22.28000 567.828
22.29000 560.734
22.30000 550.958
22.31000 542.101
22.32000 529.016
22.33000 516.681
22.34000 506.490
22.35000 507.084
22.36000 509.167
22.37000 509.554
22.38000 504.238
22.39000 498.460
22.40000 494.389
22.41000 487.229
22.42000 481.708
22.43000 477.799
22.44000 476.407
22.45000 475.046
22.46000 471.852
22.47000 466.767
22.48000 461.709
22.49000 464.693
22.50000 473.020
22.51000 480.734
22.52000 470.784
22.53000 452.708
22.54000 435.980
22.55000 437.404
22.56000 444.537
22.57000 450.982
22.58000 441.677
22.59000 430.568
22.60000 422.063
22.61000 426.411
22.62000 432.496
22.63000 438.834
22.64000 446.007
22.65000 453.245
22.66000 458.316
22.67000 451.127
22.68000 445.337
22.69000 441.429
22.70000 440.406
22.71000 439.416
22.72000 444.172
22.73000 454.742
22.74000 465.249
22.75000 469.362
22.76000 469.223
22.77000 468.888
22.78000 463.138
22.79000 454.939
22.80000 447.112
22.81000 444.136
22.82000 442.660
22.83000 441.329
22.84000 445.993
22.85000 451.178
22.86000 454.261
22.87000 447.173
22.88000 438.739
22.89000 433.939
22.90000 440.930
22.91000 448.826
22.92000 454.328
22.93000 447.944
22.94000 442.800
22.95000 441.493
22.96000 445.968
22.97000 450.501
22.98000 448.313
22.99000 439.461
23.00000 430.667
23.01000 430.181
23.02000 435.051
23.03000 439.666
23.04000 437.490
23.05000 432.295
23.06000 427.214
23.07000 423.581
23.08000 420.388
23.09000 417.516
23.10000 429.234
23.11000 442.094
23.12000 452.822
23.13000 453.415
23.14000 452.698
23.15000 450.370
23.16000 442.907
23.17000 435.061
23.18000 429.626
23.19000 438.297
23.20000 445.194
23.21000 445.297
23.22000 435.342
23.23000 425.296
23.24000 425.217
23.25000 434.826
23.26000 444.367
23.27000 452.413
23.28000 459.386
23.29000 465.901
23.30000 460.731
23.31000 450.455
23.32000 440.298
23.33000 431.625
23.34000 423.395
23.35000 416.013
23.36000 417.851
23.37000 421.065
23.38000 423.980
23.39000 425.497
23.40000 426.837
23.41000 427.188
23.42000 424.437
23.43000 421.461
23.44000 419.411
23.45000 426.382
23.46000 431.842
23.47000 437.095
23.48000 442.050
23.49000 447.000
23.50000 443.076
23.51000 430.697
23.52000 418.413
23.53000 413.777
23.54000 413.962
23.55000 414.230
23.56000 416.537
23.57000 419.719
23.58000 422.965
23.59000 426.984
23.60000 431.229
23.61000 435.027
23.62000 432.852
23.63000 429.935
23.64000 428.142
23.65000 431.494
23.66000 435.484
23.67000 437.802
23.68000 434.975
23.69000 431.785
23.70000 429.600
23.71000 423.903
23.72000 419.552
23.73000 414.608
23.74000 408.818
23.75000 403.023
23.76000 404.070
23.77000 411.509
23.78000 418.886
23.79000 424.591
23.80000 429.174
23.81000 433.504
23.82000 431.874
23.83000 427.728
23.84000 423.914
23.85000 424.015
23.86000 425.242
23.87000 426.337
23.88000 429.233
23.89000 432.055
23.90000 433.156
23.91000 426.526
23.92000 418.960
23.93000 414.534
23.94000 419.610
23.95000 425.336
23.96000 429.234
23.97000 422.296
23.98000 416.865
23.99000 413.204
24.00000 412.024
24.01000 410.863
24.02000 414.346
24.03000 422.083
24.04000 429.751
24.05000 431.864
24.06000 430.622
24.07000 429.491
24.08000 430.889
24.09000 433.336
24.10000 435.442
24.11000 433.646
24.12000 430.746
24.13000 428.164
24.14000 425.840
24.15000 423.864
24.16000 421.823
24.17000 419.499
24.18000 417.142
24.19000 413.316
24.20000 405.124
24.21000 396.642
24.22000 390.902
24.23000 398.561
24.24000 404.559
24.25000 412.584
24.26000 423.400
24.27000 434.227
24.28000 435.709
24.29000 428.799
24.30000 421.955
24.31000 424.280
24.32000 431.926
24.33000 438.929
24.34000 431.841
24.35000 419.004
24.36000 407.158
24.37000 406.345
24.38000 408.602
24.39000 410.604
24.40000 413.196
24.41000 415.536
24.42000 417.062
24.43000 415.067
24.44000 412.664
24.45000 411.369
24.46000 413.310
24.47000 415.460
24.48000 416.906
24.49000 416.261
24.50000 415.739
24.51000 414.348
24.52000 411.781
24.53000 409.210
24.54000 408.703
24.55000 410.017
24.56000 411.316
24.57000 413.730
24.58000 416.730
24.59000 419.430
24.60000 415.792
24.61000 409.610
24.62000 404.168
24.63000 406.750
24.64000 411.525
24.65000 415.752
24.66000 419.410
24.67000 422.485
24.68000 424.765
24.69000 423.673
24.70000 422.199
24.71000 418.213
24.72000 407.005
24.73000 395.346
24.74000 387.550
24.75000 394.140
24.76000 399.308
24.77000 403.762
24.78000 407.267
24.79000 410.769
24.80000 415.294
24.81000 420.704
24.82000 426.053
24.83000 426.784
24.84000 424.893
24.85000 422.792
24.86000 416.409
24.87000 408.338
24.88000 400.981
24.89000 401.181
24.90000 403.409
24.91000 405.376
24.92000 418.712
24.93000 431.961
24.94000 440.559
24.95000 429.740
24.96000 416.780
24.97000 405.810
24.98000 400.460
24.99000 395.451
25.00000 392.122
25.01000 394.380
25.02000 396.155
25.03000 397.213
25.04000 397.338
25.05000 397.464
25.06000 399.947
25.07000 404.429
25.08000 408.859
25.09000 407.892
25.10000 403.964
25.11000 400.173
25.12000 399.101
25.13000 399.083
25.14000 398.922
25.15000 397.287
25.16000 395.263
25.17000 393.480
25.18000 397.096
25.19000 401.018
25.20000 404.619
25.21000 406.899
25.22000 409.036
25.23000 408.860
25.24000 402.258
25.25000 395.279
25.26000 390.671
25.27000 393.667
25.28000 396.011
25.29000 400.109
25.30000 406.449
25.31000 412.783
25.32000 412.305
25.33000 406.162
25.34000 400.097
25.35000 400.455
25.36000 404.293
25.37000 407.992
25.38000 409.054
25.39000 409.110
25.40000 408.615
25.41000 402.575
25.42000 395.099
25.43000 388.536
25.44000 395.557
25.45000 403.580
25.46000 408.301
25.47000 399.730
25.48000 389.763
25.49000 384.040
25.50000 389.902
25.51000 396.421
25.52000 400.699
25.53000 397.618
25.54000 395.228
25.55000 396.665
25.56000 402.906
25.57000 409.145
25.58000 409.026
25.59000 403.715
25.60000 398.477
25.61000 394.724
25.62000 391.866
25.63000 389.247
25.64000 391.013
25.65000 394.421
25.66000 397.189
25.67000 393.677
25.68000 388.569
25.69000 384.096
25.70000 386.766
25.71000 390.079
25.72000 391.425
25.73000 385.002
25.74000 377.781
25.75000 374.904
25.76000 383.680
25.77000 393.095
25.78000 399.234
25.79000 390.449
25.80000 383.768
25.81000 381.444
25.82000 384.490
25.83000 387.550
25.84000 390.756
25.85000 394.080
25.86000 397.357
25.87000 396.202
25.88000 392.763
25.89000 389.839
25.90000 396.086
25.91000 405.710
25.92000 413.644
25.93000 405.391
25.94000 393.094
25.95000 382.362
25.96000 383.772
25.97000 386.680
25.98000 389.102
25.99000 389.632
26.00000 389.973
26.01000 390.086
26.02000 389.598
26.03000 389.077
26.04000 388.740
26.05000 382.532
26.06000 377.902
26.07000 376.838
26.08000 380.084
26.09000 383.339
26.10000 386.205
26.11000 388.766
26.12000 391.288
26.13000 387.908
26.14000 381.601
26.15000 376.188
26.16000 386.146
26.17000 401.669
26.18000 415.032
26.19000 408.198
26.20000 396.409
26.21000 386.150
26.22000 382.740
26.23000 380.767
26.24000 379.558
26.25000 381.259
26.26000 383.245
26.27000 384.256
26.28000 382.738
26.29000 381.090
26.30000 380.030
26.31000 378.913
26.32000 378.097
26.33000 380.146
26.34000 385.592
26.35000 391.027
26.36000 392.054
26.37000 389.680
26.38000 387.345
26.39000 387.136
26.40000 388.006
26.41000 388.952
26.42000 391.172
26.43000 393.845
26.44000 396.313
26.45000 396.914
26.46000 397.064
26.47000 397.195
26.48000 394.958
26.49000 392.736
26.50000 392.016
26.51000 396.921
26.52000 402.361
26.53000 404.683
26.54000 399.055
26.55000 393.032
26.56000 389.183
26.57000 383.591
26.58000 379.497
26.59000 376.873
26.60000 375.959
26.61000 375.064
26.62000 377.997
26.63000 383.827
26.64000 389.559
26.65000 393.831
26.66000 397.238
26.67000 400.185
26.68000 395.685
26.69000 388.580
26.70000 381.779
26.71000 377.679
26.72000 374.219
26.73000 371.226
26.74000 379.921
26.75000 388.843
26.76000 396.505
26.77000 399.528
26.78000 402.120
26.79000 403.095
26.80000 400.016
26.81000 396.742
26.82000 394.664
26.83000 388.795
26.84000 384.487
26.85000 383.129
26.86000 385.138
26.87000 387.133
26.88000 385.633
26.89000 381.535
26.90000 377.510
26.91000 375.972
26.92000 375.693
26.93000 375.797
26.94000 381.891
26.95000 390.044
26.96000 397.141
26.97000 395.031
26.98000 390.783
26.99000 387.119
27.00000 388.810
27.01000 390.930
27.02000 391.661
27.03000 387.371
27.04000 382.627
27.05000 380.108
27.06000 383.066
27.07000 386.277
27.08000 388.302
27.09000 385.725
27.10000 383.805
27.11000 380.416
27.12000 375.380
27.13000 370.380
27.14000 371.533
27.15000 377.178
27.16000 382.717
27.17000 389.105
27.18000 395.666
27.19000 401.394
27.20000 394.457
27.21000 383.242
27.22000 373.127
27.23000 372.377
27.24000 373.761
27.25000 374.952
27.26000 379.446
27.27000 383.662
27.28000 386.741
27.29000 385.781
27.30000 384.465
27.31000 383.513
27.32000 383.445
27.33000 383.416
27.34000 383.398
27.35000 385.008
27.36000 386.188
27.37000 382.939
27.38000 374.826
27.39000 366.761
27.40000 366.374
27.41000 371.492
27.42000 376.508
27.43000 375.055
27.44000 370.635
27.45000 366.658
27.46000 369.238
27.47000 373.994
27.48000 377.807
27.49000 373.774
27.50000 367.986
27.51000 363.025
27.52000 365.799
27.53000 369.086
27.54000 372.453
27.55000 376.095
27.56000 379.761
27.57000 380.424
27.58000 373.942
27.59000 367.154
27.60000 362.933
27.61000 366.615
27.62000 369.345
27.63000 372.307
27.64000 375.519
27.65000 378.684
27.66000 375.477
27.67000 367.786
27.68000 360.255
27.69000 363.375
27.70000 371.256
27.71000 378.592
27.72000 378.117
27.73000 375.092
27.74000 371.316
27.75000 361.428
27.76000 350.198
27.77000 340.603
27.78000 350.245
27.79000 360.665
27.80000 368.905
27.81000 369.672
27.82000 369.813
27.83000 369.388
27.84000 367.639
27.85000 365.835
27.86000 364.721
27.87000 367.278
27.88000 369.148
27.89000 371.186
27.90000 373.401
27.91000 375.595
27.92000 375.335
27.93000 373.378
27.94000 371.464
27.95000 370.523
27.96000 370.058
27.97000 369.801
27.98000 372.424
27.99000 375.971
28.00000 378.908
28.01000 376.996
28.02000 374.039
28.03000 371.521
28.04000 379.825
28.05000 388.067
28.06000 393.264
28.07000 388.202
28.08000 382.305
28.09000 377.838
28.10000 376.659
28.11000 375.610
28.12000 374.967
28.13000 372.932
28.14000 371.464
28.15000 371.392
28.16000 372.768
28.17000 374.137
28.18000 374.893
28.19000 375.232
28.20000 375.563
28.21000 379.211
28.22000 384.170
28.23000 388.656
28.24000 386.745
28.25000 382.818
28.26000 379.092
28.27000 376.929
28.28000 375.098
28.29000 373.543
28.30000 375.177
28.31000 376.911
28.32000 377.090
28.33000 372.123
28.34000 366.748
28.35000 364.215
28.36000 368.108
28.37000 372.247
28.38000 374.765
28.39000 384.600
28.40000 391.683
28.41000 390.369
28.42000 380.536
28.43000 370.784
28.44000 369.400
28.45000 373.596
28.46000 377.691
28.47000 379.870
28.48000 381.123
28.49000 381.902
28.50000 376.450
28.51000 369.069
28.52000 362.401
28.53000 361.162
28.54000 361.050
28.55000 360.956
28.56000 359.217
28.57000 357.578
28.58000 356.818
28.59000 358.917
28.60000 361.236
28.61000 362.230
28.62000 360.283
28.63000 358.228
28.64000 356.986
28.65000 368.501
28.66000 376.796
28.67000 376.320
28.68000 367.122
28.69000 357.995
28.70000 355.453
28.71000 357.225
28.72000 358.952
28.73000 358.920
28.74000 358.142
28.75000 357.262
28.76000 355.093
28.77000 352.530
28.78000 351.162
28.79000 358.681
28.80000 368.012
28.81000 375.881
28.82000 379.513
28.83000 382.087
28.84000 380.576
28.85000 366.004
28.86000 350.454
28.87000 341.369
28.88000 346.408
28.89000 351.943
28.90000 355.262
28.91000 353.669
28.92000 352.505
28.93000 354.847
28.94000 360.607
28.95000 366.324
28.96000 368.374
28.97000 368.062
28.98000 367.759
28.99000 368.509
29.00000 369.662
29.01000 370.884
29.02000 372.958
29.03000 375.287
29.04000 376.793
29.05000 372.314
29.06000 366.638
29.07000 361.867
29.08000 362.003
29.09000 362.636
29.10000 362.675
29.11000 360.847
29.12000 358.883
29.13000 357.161
29.14000 355.958
29.15000 354.772
29.16000 354.066
29.17000 351.283
29.18000 349.299
29.19000 349.742
29.20000 352.505
29.21000 355.218
29.22000 353.952
29.23000 350.172
29.24000 346.496
29.25000 349.312
29.26000 354.650
29.27000 359.383
29.28000 356.783
29.29000 352.028
29.30000 347.579
29.31000 345.306
29.32000 343.460
29.33000 341.913
29.34000 349.192
29.35000 356.155
29.36000 361.793
29.37000 363.339
29.38000 364.595
29.39000 364.891
29.40000 363.163
29.41000 361.370
29.42000 360.311
29.43000 358.743
29.44000 357.631
29.45000 353.314
29.46000 345.992
29.47000 338.770
29.48000 338.901
29.49000 343.600
29.50000 348.164
29.51000 355.986
29.52000 364.724
29.53000 372.554
29.54000 369.704
29.55000 363.769
29.56000 359.821
29.57000 369.729
29.58000 382.303
29.59000 392.800
29.60000 382.052
29.61000 370.995
29.62000 364.266
29.63000 370.665
29.64000 377.967
29.65000 384.337
29.66000 388.777
29.67000 393.157
29.68000 395.723
29.69000 400.326
29.70000 403.579
29.71000 410.542
29.72000 420.913
29.73000 431.082
29.74000 427.175
29.75000 414.678
29.76000 402.557
29.77000 412.346
29.78000 430.269
29.79000 446.884
29.80000 448.506
29.81000 445.872
29.82000 444.399
29.83000 450.853
29.84000 458.803
29.85000 465.416
29.86000 470.095
29.87000 473.779
29.88000 477.041
29.89000 479.046
29.90000 480.968
29.91000 484.297
29.92000 490.499
29.93000 496.786
29.94000 500.441
29.95000 499.650
29.96000 499.074
29.97000 497.808
29.98000 495.919
29.99000 494.049
30.00000 493.347
30.01000 493.347
30.02000 493.347
30.03000 495.619
30.04000 498.648
30.05000 500.807
30.06000 493.255
30.07000 482.995
30.08000 474.463
30.09000 477.496
30.10000 482.670
30.11000 486.959
30.12000 472.052
30.13000 457.902
30.14000 448.223
30.15000 451.652
30.16000 455.929
30.17000 457.096
30.18000 452.028
30.19000 446.785
30.20000 443.761
30.21000 448.081
30.22000 451.132
30.23000 452.002
30.24000 450.943
30.25000 449.679
30.26000 435.961
30.27000 414.905
30.28000 394.534
30.29000 395.658
30.30000 404.885
30.31000 413.579
30.32000 416.468
30.33000 417.768
30.34000 419.235
30.35000 421.805
30.36000 424.575
30.37000 426.862
30.38000 416.271
30.39000 406.341
30.40000 400.681
30.41000 407.325
30.42000 414.740
30.43000 419.215
30.44000 417.896
30.45000 416.423
30.46000 415.580
30.47000 409.417
30.48000 405.102
30.49000 406.984
30.50000 414.237
30.51000 421.440
30.52000 425.830
30.53000 428.593
30.54000 431.262
30.55000 429.173
30.56000 425.430
30.57000 421.442
30.58000 414.863
30.59000 407.586
30.60000 401.068
30.61000 399.427
30.62000 398.654
30.63000 398.017
30.64000 413.977
30.65000 428.609
30.66000 438.986
30.67000 437.317
30.68000 434.915
30.69000 433.917
30.70000 435.638
30.71000 437.429
30.72000 438.445
30.73000 443.818
30.74000 447.566
30.75000 447.569
30.76000 444.388
30.77000 441.292
30.78000 442.673
30.79000 446.602
30.80000 450.394
30.81000 456.327
30.82000 462.694
30.83000 469.266
30.84000 477.945
30.85000 487.182
30.86000 498.167
30.87000 520.149
30.88000 544.049
30.89000 563.646
30.90000 579.505
30.91000 592.184
30.92000 607.152
30.93000 628.494
30.94000 650.211
30.95000 679.180
30.96000 721.955
30.97000 765.064
30.98000 789.324
30.99000 855.351
31.00000 901.311
31.01000 955.067
31.02000 1015.325
31.03000 1075.926
31.04000 1153.790
31.05000 1241.305
31.06000 1325.627
31.07000 1429.541
31.08000 1534.202
31.09000 1641.052
31.10000 1770.001
31.11000 1904.687
31.12000 2041.261
31.13000 2189.465
31.14000 2339.659
31.15000 2462.352
31.16000 2648.482
31.17000 2806.308
31.18000 2957.042
31.19000 3088.367
31.20000 3218.586
31.21000 3350.693
31.22000 3486.332
31.23000 3622.053
31.24000 3697.790
31.25000 3863.159
31.26000 3977.788
31.27000 4080.656
31.28000 4173.899
31.29000 4266.086
31.30000 4307.975
31.31000 4322.229
31.32000 4335.944
31.33000 4304.063
31.34000 4258.105
31.35000 4209.609
31.36000 4136.097
31.37000 4056.207
31.38000 3970.272
31.39000 3847.859
31.40000 3719.330
31.41000 3614.730
31.42000 3452.383
31.43000 3314.945
31.44000 3180.028
31.45000 3051.888
31.46000 2924.123
31.47000 2792.900
31.48000 2655.321
31.49000 2517.603
31.50000 2441.406
31.51000 2212.473
31.52000 2054.280
31.53000 1920.520
31.54000 1806.387
31.55000 1692.632
31.56000 1595.913
31.57000 1508.394
31.58000 1424.311
31.59000 1335.697
31.60000 1251.180
31.61000 1167.911
31.62000 1096.641
31.63000 1028.376
31.64000 964.173
31.65000 923.996
31.66000 887.767
31.67000 858.395
31.68000 793.498
31.69000 737.712
31.70000 692.500
31.71000 675.249
31.72000 659.490
31.73000 635.776
31.74000 597.686
31.75000 559.302
31.76000 538.247
31.77000 533.037
31.78000 529.450
31.79000 517.906
31.80000 500.090
31.81000 482.363
31.82000 468.464
31.83000 456.596
31.84000 445.211
31.85000 439.984
31.86000 437.188
31.87000 433.058
31.88000 416.410
31.89000 396.682
31.90000 379.650
31.91000 378.244
31.92000 379.353
31.93000 380.249
31.94000 374.240
31.95000 368.806
31.96000 366.071
31.97000 370.352
31.98000 374.995
31.99000 376.248
32.00000 371.479
32.01000 366.595
32.02000 363.939
32.03000 353.690
32.04000 346.670
32.05000 344.419
32.06000 345.857
32.07000 347.363
32.08000 351.598
32.09000 357.258
32.10000 362.678
32.11000 354.829
32.12000 343.094
32.13000 333.085
32.14000 338.891
32.15000 348.517
32.16000 355.606
32.17000 348.278
32.18000 338.676
32.19000 330.952
32.20000 330.067
32.21000 329.880
32.22000 330.093
32.23000 331.326
32.24000 332.609
32.25000 331.021
32.26000 324.421
32.27000 317.729
32.28000 314.123
32.29000 327.676
32.30000 336.944
32.31000 342.550
32.32000 345.373
32.33000 348.060
32.34000 345.494
32.35000 340.233
32.36000 335.203
32.37000 335.142
32.38000 336.707
32.39000 337.511
32.40000 331.497
32.41000 323.868
32.42000 317.791
32.43000 320.366
32.44000 324.279
32.45000 327.414
32.46000 328.674
32.47000 329.553
32.48000 329.108
32.49000 325.341
32.50000 321.415
32.51000 319.034
32.52000 319.306
32.53000 319.623
32.54000 319.793
32.55000 327.150
32.56000 332.138
32.57000 330.803
32.58000 324.753
32.59000 318.900
32.60000 320.288
32.61000 325.323
32.62000 330.132
32.63000 333.614
32.64000 336.424
32.65000 338.401
32.66000 333.092
32.67000 326.087
32.68000 319.252
32.69000 313.354
32.70000 307.598
32.71000 303.004
32.72000 306.079
32.73000 309.124
32.74000 311.795
32.75000 313.544
32.76000 315.249
32.77000 316.309
32.78000 316.280
32.79000 316.234
32.80000 316.210
32.81000 322.405
32.82000 326.602
32.83000 327.909
32.84000 327.101
32.85000 326.340
32.86000 327.221
32.87000 328.916
32.88000 330.533
32.89000 328.610
32.90000 325.715
32.91000 323.915
32.92000 331.468
32.93000 341.159
32.94000 348.541
32.95000 343.549
32.96000 336.724
32.97000 331.298
32.98000 334.677
32.99000 338.028
33.00000 338.977
33.01000 334.099
33.02000 328.960
33.03000 325.233
33.04000 323.846
33.05000 322.493
33.06000 321.784
33.07000 319.412
33.08000 317.822
33.09000 318.837
33.10000 321.723
33.11000 324.586
33.12000 326.624
33.13000 328.260
33.14000 329.818
33.15000 322.771
33.16000 313.595
33.17000 305.292
33.18000 304.267
33.19000 304.876
33.20000 305.467
33.21000 305.959
33.22000 306.437
33.23000 306.815
33.24000 304.882
33.25000 303.169
33.26000 300.260
33.27000 294.501
33.28000 288.620
33.29000 287.456
33.30000 293.968
33.31000 300.587
33.32000 304.025
33.33000 310.117
33.34000 314.185
33.35000 311.818
33.36000 304.908
33.37000 298.048
33.38000 292.783
33.39000 288.280
33.40000 284.002
33.41000 286.082
33.42000 289.925
33.43000 293.250
33.44000 292.345
33.45000 290.509
33.46000 288.608
33.47000 286.375
33.48000 284.094
33.49000 282.296
33.50000 280.583
33.51000 279.216
33.52000 282.478
33.53000 296.597
33.54000 311.167
33.55000 316.796
33.56000 308.138
33.57000 299.294
33.58000 294.744
33.59000 289.561
33.60000 286.126
33.61000 289.425
33.62000 297.392
33.63000 305.032
33.64000 302.701
33.65000 295.680
33.66000 289.019
33.67000 290.309
33.68000 293.857
33.69000 297.072
33.70000 297.625
33.71000 297.603
33.72000 297.379
33.73000 296.133
33.74000 294.744
33.75000 293.654
33.76000 295.317
33.77000 296.828
33.78000 295.754
33.79000 288.725
33.80000 281.458
33.81000 280.093
33.82000 287.994
33.83000 296.008
33.84000 300.089
33.85000 303.264
33.86000 305.362
33.87000 303.859
33.88000 299.904
33.89000 295.887
33.90000 290.080
33.91000 283.444
33.92000 277.160
33.93000 276.537
33.94000 277.611
33.95000 279.035
33.96000 283.192
33.97000 287.929
33.98000 292.514
33.99000 296.341
34.00000 300.066
34.01000 302.977
34.02000 296.222
34.03000 290.217
34.04000 286.999
34.05000 290.094
34.06000 293.432
34.07000 293.154
34.08000 287.300
34.09000 281.383
34.10000 278.399
34.11000 278.850
34.12000 279.169
34.13000 281.329
34.14000 284.721
34.15000 287.937
34.16000 286.237
34.17000 282.304
34.18000 278.585
34.19000 280.904
34.20000 284.755
34.21000 288.129
34.22000 287.857
34.23000 286.825
34.24000 285.774
34.25000 284.625
34.26000 283.463
34.27000 282.559
34.28000 283.314
34.29000 284.018
34.30000 286.171
34.31000 291.553
34.32000 297.054
34.33000 297.249
34.34000 289.406
34.35000 281.481
34.36000 279.594
34.37000 283.731
34.38000 287.837
34.39000 289.070
34.40000 288.415
34.41000 287.734
34.42000 286.356
34.43000 284.667
34.44000 283.072
34.45000 279.861
34.46000 276.465
34.47000 273.787
34.48000 276.474
34.49000 280.257
34.50000 282.500
34.51000 277.391
34.52000 271.324
34.53000 266.622
34.54000 271.100
34.55000 275.206
34.56000 279.358
34.57000 283.611
34.58000 287.867
34.59000 287.139
34.60000 278.994
34.61000 270.780
34.62000 268.793
34.63000 272.893
34.64000 276.932
34.65000 275.756
34.66000 271.214
34.67000 266.902
34.68000 268.508
34.69000 272.714
34.70000 276.676
34.71000 279.977
34.72000 282.817
34.73000 285.064
34.74000 282.988
34.75000 280.046
34.76000 277.402
34.77000 276.163
34.78000 275.102
34.79000 274.283
34.80000 272.353
34.81000 270.759
34.82000 271.574
34.83000 277.573
34.84000 283.749
34.85000 285.759
34.86000 281.683
34.87000 277.554
34.88000 281.052
34.89000 291.856
34.90000 302.547
34.91000 304.088
34.92000 299.830
34.93000 295.440
34.94000 287.789
34.95000 278.730
34.96000 270.212
34.97000 275.598
34.98000 284.257
34.99000 291.466
35.00000 288.300
35.01000 283.092
35.02000 278.348
35.03000 275.732
35.04000 273.382
35.05000 271.577
35.06000 270.147
35.07000 269.037
35.08000 269.086
35.09000 271.588
35.10000 274.169
35.11000 276.522
35.12000 278.548
35.13000 280.570
35.14000 277.697
35.15000 270.227
35.16000 262.879
35.17000 264.721
35.18000 272.285
35.19000 279.530
35.20000 279.147
35.21000 275.526
35.22000 272.128
35.23000 271.160
35.24000 270.919
35.25000 270.157
35.26000 265.751
35.27000 260.641
35.28000 257.203
35.29000 261.320
35.30000 266.357
35.31000 270.209
35.32000 269.836
35.33000 269.311
35.34000 269.493
35.35000 271.144
35.36000 272.841
35.37000 272.354
35.38000 268.789
35.39000 265.203
35.40000 264.609
35.41000 266.768
35.42000 268.862
35.43000 266.364
35.44000 261.056
35.45000 256.062
35.46000 258.280
35.47000 263.508
35.48000 268.404
35.49000 269.350
35.50000 269.187
35.51000 269.272
35.52000 271.051
35.53000 273.151
35.54000 275.299
35.55000 277.662
35.56000 280.050
35.57000 281.868
35.58000 278.527
35.59000 275.627
35.60000 272.778
35.61000 270.034
35.62000 267.294
35.63000 266.291
35.64000 267.694
35.65000 269.112
35.66000 268.029
35.67000 264.689
35.68000 261.366
35.69000 259.104
35.70000 257.480
35.71000 255.908
35.72000 255.476
35.73000 255.513
35.74000 255.546
35.75000 256.626
35.76000 257.873
35.77000 258.432
35.78000 254.386
35.79000 249.484
35.80000 247.623
35.81000 259.000
35.82000 271.917
35.83000 281.706
35.84000 274.550
35.85000 268.068
35.86000 263.704
35.87000 263.597
35.88000 263.610
35.89000 261.620
35.90000 256.906
35.91000 252.179
35.92000 251.041
35.93000 253.080
35.94000 255.091
35.95000 255.390
35.96000 254.677
35.97000 253.935
35.98000 252.561
35.99000 250.933
36.00000 249.414
36.01000 251.615
36.02000 254.535
36.03000 257.114
36.04000 257.451
36.05000 257.379
36.06000 257.355
36.07000 257.536
36.08000 257.740
36.09000 257.893
36.10000 264.769
36.11000 270.487
36.12000 273.557
36.13000 271.398
36.14000 269.097
36.15000 267.653
36.16000 267.350
36.17000 267.053
36.18000 267.730
36.19000 269.251
36.20000 270.699
36.21000 268.015
36.22000 262.931
36.23000 258.286
36.24000 262.665
36.25000 270.621
36.26000 278.030
36.27000 273.091
36.28000 265.614
36.29000 259.477
36.30000 261.960
36.31000 265.982
36.32000 269.448
36.33000 270.579
36.34000 271.451
36.35000 272.106
36.36000 266.579
36.37000 261.964
36.38000 259.701
36.39000 262.003
36.40000 264.421
36.41000 264.196
36.42000 260.507
36.43000 256.806
36.44000 254.859
36.45000 254.408
36.46000 253.916
36.47000 251.179
36.48000 247.162
36.49000 243.613
36.50000 249.367
36.51000 258.745
36.52000 267.460
36.53000 263.731
36.54000 257.391
36.55000 251.906
36.56000 251.818
36.57000 252.673
36.58000 252.481
36.59000 247.969
36.60000 242.988
36.61000 239.267
36.62000 250.839
36.63000 260.567
36.64000 266.559
36.65000 265.422
36.66000 264.111
36.67000 261.479
36.68000 257.149
36.69000 252.818
36.70000 252.290
36.71000 254.938
36.72000 257.597
36.73000 260.830
36.74000 264.384
36.75000 267.808
36.76000 268.716
36.77000 268.660
36.78000 268.608
36.79000 263.320
36.80000 257.332
36.81000 252.572
36.82000 255.400
36.83000 259.530
36.84000 262.600
36.85000 261.379
36.86000 259.704
36.87000 258.459
36.88000 258.422
36.89000 258.448
36.90000 258.758
36.91000 259.600
36.92000 260.455
36.93000 261.130
36.94000 261.577
36.95000 262.023
36.96000 260.814
36.97000 258.255
36.98000 255.761
36.99000 256.400
37.00000 258.766
37.01000 261.070
37.02000 262.244
37.03000 262.992
37.04000 263.684
37.05000 262.493
37.06000 260.990
37.07000 259.767
37.08000 260.234
37.09000 260.986
37.10000 261.649
37.11000 261.962
37.12000 262.239
37.13000 262.444
37.14000 254.415
37.15000 247.832
37.16000 244.908
37.17000 248.728
37.18000 252.696
37.19000 255.464
37.20000 256.747
37.21000 258.023
37.22000 257.790
37.23000 256.347
37.24000 254.972
37.25000 256.727
37.26000 260.177
37.27000 263.266
37.28000 259.870
37.29000 254.074
37.30000 248.721
37.31000 246.861
37.32000 245.980
37.33000 245.113
37.34000 244.332
37.35000 243.566
37.36000 243.280
37.37000 244.875
37.38000 246.659
37.39000 247.972
37.40000 247.281
37.41000 246.663
37.42000 245.178
37.43000 242.126
37.44000 239.041
37.45000 239.908
37.46000 245.576
37.47000 251.246
37.48000 253.275
37.49000 252.429
37.50000 251.596
37.51000 251.263
37.52000 251.197
37.53000 251.018
37.54000 248.869
37.55000 246.003
37.56000 243.362
37.57000 246.887
37.58000 251.402
37.59000 254.478
37.60000 249.188
37.61000 242.548
37.62000 237.767
37.63000 240.116
37.64000 243.167
37.65000 245.402
37.66000 246.187
37.67000 246.736
37.68000 245.547
37.69000 241.267
37.70000 236.926
37.71000 236.602
37.72000 241.071
37.73000 245.538
37.74000 249.955
37.75000 254.309
37.76000 258.552
37.77000 258.292
37.78000 255.677
37.79000 253.145
37.80000 251.995
37.81000 251.340
37.82000 250.737
37.83000 251.243
37.84000 251.934
37.85000 251.813
37.86000 247.058
37.87000 241.569
37.88000 238.436
37.89000 244.173
37.90000 250.760
37.91000 255.562
37.92000 250.932
37.93000 247.001
37.94000 244.754
37.95000 245.452
37.96000 246.204
37.97000 247.827
37.98000 250.469
37.99000 253.107
38.00000 251.090
38.01000 245.563
38.02000 240.211
38.03000 241.652
38.04000 246.584
38.05000 251.467
38.06000 255.538
38.07000 259.324
38.08000 262.797
38.09000 264.014
38.10000 264.619
38.11000 264.497
38.12000 260.306
38.13000 255.484
38.14000 252.189
38.15000 254.538
38.16000 257.415
38.17000 259.502
38.18000 260.081
38.19000 260.470
38.20000 262.209
38.21000 266.269
38.22000 270.370
38.23000 273.866
38.24000 276.666
38.25000 279.458
38.26000 284.632
38.27000 291.536
38.28000 298.278
38.29000 299.049
38.30000 296.803
38.31000 294.773
38.32000 296.151
38.33000 298.707
38.34000 301.046
38.35000 311.506
38.36000 322.497
38.37000 332.461
38.38000 336.798
38.39000 340.279
38.40000 344.013
38.41000 348.663
38.42000 353.396
38.43000 356.811
38.44000 368.291
38.45000 377.380
38.46000 385.693
38.47000 392.694
38.48000 399.675
38.49000 408.420
38.50000 419.153
38.51000 429.851
38.52000 438.425
38.53000 445.382
38.54000 452.161
38.55000 452.660
38.56000 450.041
38.57000 448.176
38.58000 457.869
38.59000 471.485
38.60000 483.922
38.61000 480.746
38.62000 474.749
38.63000 469.923
38.64000 471.392
38.65000 473.797
38.66000 476.901
38.67000 482.501
38.68000 488.324
38.69000 492.503
38.70000 466.799
38.71000 446.115
38.72000 431.456
38.73000 426.799
38.74000 422.294
38.75000 418.997
38.76000 417.033
38.77000 415.077
38.78000 406.697
38.79000 393.803
38.80000 380.965
38.81000 369.998
38.82000 359.943
38.83000 350.185
38.84000 344.850
38.85000 340.991
38.86000 337.474
38.87000 334.868
38.88000 332.741
38.89000 330.159
38.90000 325.178
38.91000 319.849
38.92000 314.037
38.93000 306.535
38.94000 298.887
38.95000 293.426
38.96000 284.465
38.97000 277.513
38.98000 272.831
38.99000 271.851
39.00000 270.923
39.01000 269.208
39.02000 266.640
39.03000 264.084
39.04000 263.000
39.05000 262.960
39.06000 262.843
39.07000 260.243
39.08000 256.453
39.09000 252.899
39.10000 252.748
39.11000 253.715
39.12000 254.593
39.13000 248.481
39.14000 241.713
39.15000 235.930
39.16000 235.243
39.17000 235.281
39.18000 235.600
39.19000 236.889
39.20000 238.261
39.21000 239.234
39.22000 236.334
39.23000 234.005
39.24000 232.315
39.25000 231.651
39.26000 231.001
39.27000 231.859
39.28000 234.320
39.29000 236.769
39.30000 231.974
39.31000 222.251
39.32000 212.896
39.33000 214.814
39.34000 222.047
39.35000 228.911
39.36000 230.591
39.37000 230.600
39.38000 230.608
39.39000 227.650
39.40000 224.472
39.41000 222.677
39.42000 227.897
39.43000 234.094
39.44000 238.877
39.45000 238.871
39.46000 238.471
39.47000 238.189
39.48000 227.270
39.49000 218.657
39.50000 215.162
39.51000 219.720
39.52000 224.377
39.53000 225.086
39.54000 221.685
39.55000 218.301
39.56000 219.695
39.57000 224.294
39.58000 228.802
39.59000 230.637
39.60000 231.233
39.61000 231.667
39.62000 229.899
39.63000 227.432
39.64000 225.200
39.65000 226.088
39.66000 227.455
39.67000 228.451
39.68000 227.596
39.69000 226.490
39.70000 225.641
39.71000 225.649
39.72000 225.725
39.73000 225.778
39.74000 221.433
39.75000 218.014
39.76000 218.125
39.77000 223.694
39.78000 229.326
39.79000 232.641
39.80000 233.594
39.81000 234.541
39.82000 235.137
39.83000 235.492
39.84000 235.911
39.85000 238.136
39.86000 241.183
39.87000 243.751
39.88000 239.978
39.89000 234.231
39.90000 229.043
39.91000 224.567
39.92000 220.765
39.93000 218.609
39.94000 224.488
39.95000 231.441
39.96000 235.476
39.97000 229.971
39.98000 223.725
39.99000 219.363
40.00000 221.990
40.01000 224.169
40.02000 224.049
40.03000 220.435
40.04000 216.785
40.05000 215.455
40.06000 216.445
40.07000 217.430
40.08000 220.446
40.09000 224.740
40.10000 228.802
40.11000 226.639
40.12000 221.688
40.13000 217.299
40.14000 220.161
40.15000 225.242
40.16000 229.817
40.17000 228.606
40.18000 226.505
40.19000 225.070
40.20000 226.823
40.21000 228.993
40.22000 230.485
40.23000 229.800
40.24000 228.951
40.25000 228.362
40.26000 235.581
40.27000 241.230
40.28000 243.703
40.29000 241.436
40.30000 239.124
40.31000 235.270
40.32000 229.904
40.33000 224.575
40.34000 220.414
40.35000 217.061
40.36000 213.844
40.37000 214.161
40.38000 216.035
40.39000 217.909
40.40000 219.797
40.41000 221.689
40.42000 223.388
40.43000 218.915
40.44000 213.916
40.45000 210.251
40.46000 212.857
40.47000 216.265
40.48000 218.853
40.49000 218.848
40.50000 218.652
40.51000 218.518
40.52000 219.158
40.53000 219.660
40.54000 219.206
40.55000 217.352
40.56000 215.486
40.57000 215.120
40.58000 216.196
40.59000 217.263
40.60000 217.901
40.61000 218.259
40.62000 218.626
40.63000 219.211
40.64000 219.891
40.65000 220.775
40.66000 224.153
40.67000 228.269
40.68000 231.955
40.69000 226.897
40.70000 220.975
40.71000 216.041
40.72000 215.661
40.73000 215.851
40.74000 216.263
40.75000 217.368
40.76000 218.522
40.77000 219.314
40.78000 222.471
40.79000 224.896
40.80000 223.643
40.81000 217.097
40.82000 210.509
40.83000 206.183
40.84000 203.988
40.85000 201.810
40.86000 203.112
40.87000 206.524
40.88000 209.786
40.89000 209.471
40.90000 207.632
40.91000 206.194
40.92000 209.506
40.93000 214.198
40.94000 218.389
40.95000 215.716
40.96000 212.229
40.97000 210.770
40.98000 218.493
40.99000 227.339
41.00000 232.312
41.01000 225.476
41.02000 217.822
41.03000 212.597
41.04000 207.414
41.05000 203.539
41.06000 201.781
41.07000 203.015
41.08000 204.270
41.09000 204.878
41.10000 204.891
41.11000 204.903
41.12000 210.230
41.13000 218.655
41.14000 226.643
41.15000 224.536
41.16000 218.208
41.17000 212.443
41.18000 213.185
41.19000 215.784
41.20000 218.099
41.21000 219.898
41.22000 221.377
41.23000 222.275
41.24000 220.590
41.25000 218.598
41.26000 215.433
41.27000 208.752
41.28000 201.835
41.29000 197.141
41.30000 201.707
41.31000 205.318
41.32000 207.106
41.33000 206.364
41.34000 205.607
41.35000 206.803
41.36000 209.769
41.37000 212.707
41.38000 213.268
41.39000 212.413
41.40000 211.477
41.41000 208.715
41.42000 205.201
41.43000 202.127
41.44000 204.002
41.45000 207.263
41.46000 210.161
41.47000 207.406
41.48000 204.102
41.49000 202.759
41.50000 209.973
41.51000 218.186
41.52000 222.328
41.53000 214.473
41.54000 205.837
41.55000 200.011
41.56000 209.177
41.57000 216.314
41.58000 220.557
41.59000 220.856
41.60000 221.130
41.61000 218.452
41.62000 213.153
41.63000 207.907
41.64000 205.099
41.65000 203.764
41.66000 202.409
41.67000 200.631
41.68000 198.682
41.69000 197.416
41.70000 203.644
41.71000 211.936
41.72000 219.285
41.73000 216.541
41.74000 212.570
41.75000 208.200
41.76000 202.118
41.77000 195.840
41.78000 192.525
41.79000 197.787
41.80000 203.592
41.81000 207.483
41.82000 205.836
41.83000 204.502
41.84000 203.423
41.85000 202.686
41.86000 201.951
41.87000 202.700
41.88000 204.740
41.89000 206.759
41.90000 201.975
41.91000 193.432
41.92000 185.434
41.93000 188.685
41.94000 196.407
41.95000 203.529
41.96000 204.244
41.97000 203.225
41.98000 202.325
41.99000 196.350
42.00000 190.405
42.01000 187.037
42.02000 194.513
42.03000 203.197
42.04000 210.408
42.05000 213.427
42.06000 216.190
42.07000 218.031
42.08000 213.697
42.09000 210.372
42.10000 208.298
42.11000 207.866
42.12000 207.438
42.13000 204.741
42.14000 200.104
42.15000 195.521
42.16000 198.369
42.17000 205.295
42.18000 211.802
42.19000 209.946
42.20000 204.823
42.21000 199.949
42.22000 197.673
42.23000 196.086
42.24000 194.688
42.25000 202.233
42.26000 210.090
42.27000 215.545
42.28000 211.077
42.29000 205.529
42.30000 202.779
42.31000 207.854
42.32000 213.394
42.33000 217.062
42.34000 211.025
42.35000 206.391
42.36000 203.487
42.37000 202.811
42.38000 202.144
42.39000 200.749
42.40000 198.745
42.41000 196.766
42.42000 197.609
42.43000 199.977
42.44000 202.349
42.45000 204.814
42.46000 207.316
42.47000 209.271
42.48000 205.668
42.49000 200.614
42.50000 196.172
42.51000 197.757
42.52000 200.013
42.53000 202.854
42.54000 208.070
42.55000 213.538
42.56000 215.947
42.57000 209.945
42.58000 203.460
42.59000 199.192
42.60000 202.280
42.61000 204.680
42.62000 204.421
42.63000 200.798
42.64000 197.173
42.65000 197.771
42.66000 201.846
42.67000 205.867
42.68000 204.187
42.69000 199.489
42.70000 195.053
42.71000 195.528
42.72000 197.856
42.73000 200.372
42.74000 204.755
42.75000 209.617
42.76000 213.878
42.77000 212.971
42.78000 211.445
42.79000 209.811
42.80000 207.751
42.81000 205.647
42.82000 203.540
42.83000 201.424
42.84000 199.307
42.85000 197.923
42.86000 204.409
42.87000 209.301
42.88000 210.515
42.89000 207.161
42.90000 203.800
42.91000 202.836
42.92000 203.807
42.93000 204.764
42.94000 205.117
42.95000 205.143
42.96000 205.098
42.97000 203.795
42.98000 202.026
42.99000 200.543
43.00000 201.832
43.01000 203.819
43.02000 205.556
43.03000 205.972
43.04000 206.142
43.05000 206.357
43.06000 206.752
43.07000 207.165
43.08000 208.841
43.09000 213.875
43.10000 219.089
43.11000 222.477
43.12000 219.609
43.13000 217.412
43.14000 214.922
43.15000 212.074
43.16000 209.233
43.17000 208.979
43.18000 210.776
43.19000 212.546
43.20000 212.945
43.21000 212.622
43.22000 212.045
43.23000 207.047
43.24000 200.435
43.25000 194.742
43.26000 197.722
43.27000 202.847
43.28000 207.312
43.29000 206.733
43.30000 205.540
43.31000 205.050
43.32000 207.257
43.33000 209.731
43.34000 210.572
43.35000 207.147
43.36000 203.500
43.37000 201.146
43.38000 202.271
43.39000 203.142
43.40000 201.575
43.41000 197.090
43.42000 192.626
43.43000 195.152
43.44000 203.116
43.45000 210.955
43.46000 207.963
43.47000 199.564
43.48000 191.721
43.49000 193.310
43.50000 198.279
43.51000 202.641
43.52000 201.403
43.53000 198.805
43.54000 196.548
43.55000 195.298
43.56000 194.368
43.57000 193.527
43.58000 193.020
43.59000 192.545
43.60000 192.846
43.61000 195.139
43.62000 197.532
43.63000 199.066
43.64000 194.133
43.65000 190.451
43.66000 189.914
43.67000 193.069
43.68000 196.241
43.69000 202.210
43.70000 210.314
43.71000 218.284
43.72000 215.351
43.73000 207.079
43.74000 199.187
43.75000 197.528
43.76000 198.065
43.77000 198.616
43.78000 199.303
43.79000 200.022
43.80000 200.645
43.81000 200.355
43.82000 199.987
43.83000 199.523
43.84000 198.698
43.85000 197.840
43.86000 195.856
43.87000 191.033
43.88000 186.071
43.89000 182.911
43.90000 188.094
43.91000 191.968
43.92000 196.473
43.93000 201.706
43.94000 206.916
43.95000 207.586
43.96000 204.849
43.97000 202.161
43.98000 201.414
43.99000 201.643
44.00000 201.833
44.01000 201.421
44.02000 200.800
44.03000 200.644
44.04000 204.578
44.05000 209.471
44.06000 213.696
44.07000 208.883
44.08000 203.630
44.09000 199.797
44.10000 201.144
44.11000 202.965
44.12000 204.957
44.13000 207.370
44.14000 209.803
44.15000 211.343
44.16000 208.925
44.17000 207.126
44.18000 208.373
44.19000 213.060
44.20000 217.731
44.21000 219.074
44.22000 217.966
44.23000 216.879
44.24000 216.593
44.25000 216.701
44.26000 216.743
44.27000 215.770
44.28000 214.451
44.29000 213.506
44.30000 215.784
44.31000 218.802
44.32000 221.401
44.33000 221.544
44.34000 221.355
44.35000 221.895
44.36000 225.046
44.37000 228.430
44.38000 231.917
44.39000 235.656
44.40000 239.406
44.41000 241.762
44.42000 249.130
44.43000 254.513
44.44000 256.135
44.45000 253.592
44.46000 251.078
44.47000 253.472
44.48000 259.414
44.49000 265.241
44.50000 267.833
44.51000 268.805
44.52000 270.195
44.53000 277.842
44.54000 287.582
44.55000 296.830
44.56000 301.941
44.57000 306.117
44.58000 309.703
44.59000 323.253
44.60000 335.937
44.61000 346.083
44.62000 347.308
44.63000 347.757
44.64000 351.492
44.65000 363.106
44.66000 375.063
44.67000 382.522
44.68000 401.666
44.69000 415.591
44.70000 423.775
44.71000 425.725
44.72000 427.741
44.73000 439.402
44.74000 457.908
44.75000 476.034
44.76000 480.934
44.77000 479.528
44.78000 478.653
44.79000 485.486
44.80000 494.854
44.81000 503.589
44.82000 507.129
44.83000 509.519
44.84000 511.564
44.85000 514.438
44.86000 516.963
44.87000 518.718
44.88000 517.815
44.89000 516.686
44.90000 514.736
44.91000 510.850
44.92000 506.882
44.93000 504.424
44.94000 489.473
44.95000 478.603
44.96000 472.818
44.97000 472.450
44.98000 472.068
44.99000 469.801
45.00000 466.221
45.01000 462.718
45.02000 461.289
45.03000 460.860
45.04000 459.974
45.05000 452.660
45.06000 443.269
45.07000 433.726
45.08000 422.969
45.09000 411.947
45.10000 402.546
45.11000 399.025
45.12000 396.755
45.13000 393.338
45.14000 386.031
45.15000 378.404
45.16000 371.126
45.17000 364.660
45.18000 358.227
45.19000 354.270
45.20000 345.308
45.21000 338.836
45.22000 332.726
45.23000 326.993
45.24000 321.266
45.25000 316.285
45.26000 311.815
45.27000 307.446
45.28000 301.696
45.29000 295.572
45.30000 289.746
45.31000 288.009
45.32000 287.572
45.33000 286.567
45.34000 281.110
45.35000 274.704
45.36000 269.257
45.37000 265.012
45.38000 261.586
45.39000 258.068
45.40000 254.244
45.41000 250.395
45.42000 248.230
45.43000 249.900
45.44000 251.718
45.45000 252.828
45.46000 251.990
45.47000 251.374
45.48000 249.808
45.49000 247.269
45.50000 244.715
45.51000 240.635
45.52000 235.530
45.53000 230.546
45.54000 231.702
45.55000 235.492
45.56000 238.575
45.57000 232.260
45.58000 223.011
45.59000 215.201
45.60000 218.445
45.61000 224.003
45.62000 228.713
45.63000 223.164
45.64000 217.363
45.65000 213.888
45.66000 218.035
45.67000 222.776
45.68000 224.114
45.69000 217.832
45.70000 211.266
45.71000 207.285
45.72000 210.192
45.73000 212.317
45.74000 211.454
45.75000 207.594
45.76000 203.720
45.77000 198.447
45.78000 192.249
45.79000 186.205
45.80000 189.917
45.81000 197.646
45.82000 204.845
45.83000 205.189
45.84000 203.431
45.85000 201.885
45.86000 201.943
45.87000 202.329
45.88000 202.655
45.89000 200.109
45.90000 197.666
45.91000 195.366
45.92000 193.530
45.93000 191.728
45.94000 190.805
45.95000 191.814
45.96000 192.892
45.97000 193.540
45.98000 196.290
45.99000 198.260
46.00000 197.253
46.01000 193.318
46.02000 189.436
46.03000 190.272
46.04000 194.170
46.05000 197.966
46.06000 196.339
46.07000 192.506
46.08000 189.044
46.09000 190.269
46.10000 192.906
46.11000 194.533
46.12000 188.732
46.13000 181.432
46.14000 175.288
46.15000 177.998
46.16000 181.205
46.17000 182.707
46.18000 178.811
46.19000 174.517
46.20000 172.668
46.21000 176.112
46.22000 179.737
46.23000 181.902
46.24000 174.675
46.25000 169.490
46.26000 167.112
46.27000 167.438
46.28000 167.767
46.29000 168.245
46.30000 168.818
46.31000 169.377
46.32000 169.244
46.33000 168.832
46.34000 168.813
46.35000 173.599
46.36000 179.807
46.37000 185.186
46.38000 184.591
46.39000 182.815
46.40000 181.325
46.41000 178.005
46.42000 175.052
46.43000 173.400
46.44000 175.795
46.45000 178.480
46.46000 179.912
46.47000 178.677
46.48000 177.354
46.49000 176.571
46.50000 179.560
46.51000 181.695
46.52000 182.038
46.53000 180.688
46.54000 179.332
46.55000 177.540
46.56000 175.476
46.57000 173.469
46.58000 173.312
46.59000 173.912
46.60000 174.360
46.61000 172.998
46.62000 171.109
46.63000 169.481
46.64000 169.684
46.65000 170.243
46.66000 170.710
46.67000 174.847
46.68000 178.656
46.69000 181.474
46.70000 181.261
46.71000 180.836
46.72000 179.150
46.73000 174.825
46.74000 170.417
46.75000 167.825
46.76000 168.730
46.77000 169.386
46.78000 169.894
46.79000 170.264
46.80000 170.653
46.81000 172.408
46.82000 175.004
46.83000 177.522
46.84000 175.555
46.85000 171.905
46.86000 168.281
46.87000 164.961
46.88000 161.728
46.89000 159.523
46.90000 164.404
46.91000 170.633
46.92000 175.823
46.93000 171.114
46.94000 166.230
46.95000 163.026
46.96000 164.872
46.97000 167.059
46.98000 169.829
46.99000 173.797
47.00000 177.801
47.01000 180.138
47.02000 178.006
47.03000 176.485
47.04000 174.249
47.05000 171.362
47.06000 168.474
47.07000 165.525
47.08000 162.540
47.09000 159.646
47.10000 162.178
47.11000 166.694
47.12000 170.927
47.13000 171.955
47.14000 172.084
47.15000 172.317
47.16000 173.257
47.17000 174.329
47.18000 175.219
47.19000 173.295
47.20000 171.432
47.21000 169.093
47.22000 165.348
47.23000 161.512
47.24000 159.175
47.25000 159.868
47.26000 160.648
47.27000 161.099
47.28000 162.096
47.29000 162.798
47.30000 164.947
47.31000 168.387
47.32000 171.854
47.33000 177.079
47.34000 183.346
47.35000 189.414
47.36000 182.852
47.37000 171.812
47.38000 162.121
47.39000 167.296
47.40000 176.573
47.41000 184.461
47.42000 183.173
47.43000 180.204
47.44000 177.748
47.45000 176.803
47.46000 176.167
47.47000 174.412
47.48000 169.407
47.49000 164.196
47.50000 161.454
47.51000 163.614
47.52000 165.908
47.53000 167.225
47.54000 165.710
47.55000 164.641
47.56000 163.829
47.57000 163.243
47.58000 162.712
47.59000 165.443
47.60000 170.076
47.61000 174.556
47.62000 171.235
47.63000 165.169
47.64000 159.215
47.65000 154.468
47.66000 150.048
47.67000 146.808
47.68000 151.211
47.69000 156.986
47.70000 161.746
47.71000 163.240
47.72000 164.169
47.73000 163.594
47.74000 158.727
47.75000 153.595
47.76000 150.354
47.77000 150.803
47.78000 151.348
47.79000 151.658
47.80000 161.534
47.81000 168.442
47.82000 170.454
47.83000 168.268
47.84000 166.108
47.85000 165.377
47.86000 165.466
47.87000 165.551
47.88000 168.780
47.89000 172.982
47.90000 176.769
47.91000 176.224
47.92000 174.525
47.93000 172.080
47.94000 164.906
47.95000 156.899
47.96000 150.323
47.97000 149.677
47.98000 149.678
47.99000 151.155
48.00000 156.772
48.01000 162.635
48.02000 168.090
48.03000 172.759
48.04000 177.410
48.05000 180.036
48.06000 165.608
48.07000 155.545
48.08000 152.679
48.09000 155.865
48.10000 159.086
48.11000 164.146
48.12000 170.241
48.13000 176.118
48.14000 172.544
48.15000 165.764
48.16000 159.771
48.17000 161.819
48.18000 165.971
48.19000 169.397
48.20000 168.312
48.21000 166.448
48.22000 164.923
48.23000 166.945
48.24000 168.911
48.25000 170.608
48.26000 171.561
48.27000 172.470
48.28000 171.005
48.29000 165.061
48.30000 159.013
48.31000 155.625
48.32000 156.036
48.33000 156.331
48.34000 156.979
48.35000 157.919
48.36000 158.890
48.37000 161.415
48.38000 164.800
48.39000 168.058
48.40000 166.561
48.41000 163.466
48.42000 160.830
48.43000 162.760
48.44000 165.863
48.45000 168.227
48.46000 166.086
48.47000 163.182
48.48000 160.815
48.49000 164.214
48.50000 167.483
48.51000 169.068
48.52000 166.089
48.53000 162.856
48.54000 160.794
48.55000 160.903
48.56000 161.060
48.57000 161.148
48.58000 159.569
48.59000 158.476
48.60000 157.852
48.61000 157.609
48.62000 157.359
48.63000 156.791
48.64000 156.049
48.65000 155.336
48.66000 158.736
48.67000 163.354
48.68000 167.130
48.69000 162.732
48.70000 156.271
48.71000 151.185
48.72000 154.302
48.73000 158.779
48.74000 162.414
48.75000 167.417
48.76000 171.612
48.77000 173.307
48.78000 168.345
48.79000 163.023
48.80000 160.485
48.81000 163.017
48.82000 165.655
48.83000 167.108
48.84000 160.587
48.85000 156.095
48.86000 155.841
48.87000 158.954
48.88000 161.999
48.89000 162.061
48.90000 160.528
48.91000 159.056
48.92000 157.441
48.93000 155.883
48.94000 154.885
48.95000 159.208
48.96000 164.849
48.97000 169.053
48.98000 164.848
48.99000 159.278
49.00000 154.772
49.01000 153.216
49.02000 152.188
49.03000 152.768
49.04000 157.561
49.05000 162.575
49.06000 164.336
49.07000 160.278
49.08000 156.104
49.09000 153.825
49.10000 155.035
49.11000 155.880
49.12000 159.190
49.13000 164.424
49.14000 169.535
49.15000 169.567
49.16000 166.930
49.17000 164.402
49.18000 162.572
49.19000 161.097
49.20000 159.795
49.21000 160.100
49.22000 160.797
49.23000 161.239
49.24000 160.227
49.25000 158.983
49.26000 157.980
49.27000 159.469
49.28000 160.874
49.29000 161.569
49.30000 160.436
49.31000 159.211
49.32000 157.084
49.33000 153.371
49.34000 149.629
49.35000 147.604
49.36000 148.153
49.37000 148.541
49.38000 151.141
49.39000 155.435
49.40000 159.668
49.41000 161.530
49.42000 162.167
49.43000 162.777
49.44000 160.130
49.45000 156.593
49.46000 153.481
49.47000 154.210
49.48000 155.858
49.49000 156.501
49.50000 151.492
49.51000 145.602
49.52000 140.874
49.53000 148.042
49.54000 154.758
49.55000 160.517
49.56000 163.858
49.57000 167.080
49.58000 168.114
49.59000 165.368
49.60000 162.555
49.61000 161.047
49.62000 160.716
49.63000 160.506
49.64000 163.380
49.65000 168.572
49.66000 173.638
49.67000 174.040
49.68000 172.072
49.69000 170.192
49.70000 167.526
49.71000 164.795
49.72000 162.193
49.73000 160.743
49.74000 159.562
49.75000 158.704
49.76000 159.620
49.77000 160.807
49.78000 161.756
49.79000 166.622
49.80000 170.847
49.81000 172.092
49.82000 165.925
49.83000 159.410
49.84000 154.820
49.85000 153.503
49.86000 152.239
49.87000 151.567
49.88000 143.530
49.89000 138.098
49.90000 140.011
49.91000 147.348
49.92000 154.600
49.93000 158.834
49.94000 161.564
49.95000 164.168
49.96000 165.495
49.97000 166.322
49.98000 167.043
49.99000 166.843
50.00000 166.431
50.01000 166.005
50.02000 165.504
50.03000 164.991
50.04000 164.583
50.05000 171.032
50.06000 176.728
50.07000 179.870
50.08000 176.772
50.09000 173.389
50.10000 171.423
50.11000 171.819
50.12000 172.251
50.13000 172.479
50.14000 175.762
50.15000 177.995
50.16000 180.946
50.17000 184.416
50.18000 187.700
50.19000 184.609
50.20000 178.393
50.21000 172.471
50.22000 180.068
50.23000 191.306
50.24000 201.972
50.25000 207.806
50.26000 212.547
50.27000 216.175
50.28000 213.903
50.29000 210.768
50.30000 208.281
50.31000 213.325
50.32000 217.910
50.33000 221.929
50.34000 224.586
50.35000 227.182
50.36000 230.184
50.37000 233.848
50.38000 237.522
50.39000 239.437
50.40000 236.616
50.41000 234.738
50.42000 237.430
50.43000 243.373
50.44000 249.197
50.45000 251.133
50.46000 251.194
50.47000 251.253
50.48000 252.940
50.49000 254.996
50.50000 257.391
50.51000 262.576
50.52000 268.381
50.53000 272.638
50.54000 268.845
50.55000 263.899
50.56000 259.992
50.57000 269.091
50.58000 277.282
50.59000 280.876
50.60000 273.611
50.61000 265.888
50.62000 259.779
50.63000 256.271
50.64000 252.799
50.65000 251.005
50.66000 251.936
50.67000 252.575
50.68000 254.723
50.69000 257.925
50.70000 260.886
50.71000 256.350
50.72000 248.260
50.73000 240.580
50.74000 233.920
50.75000 228.079
50.76000 222.681
50.77000 220.850
50.78000 219.797
50.79000 219.366
50.80000 222.109
50.81000 225.298
50.82000 227.806
50.83000 214.136
50.84000 202.117
50.85000 194.111
50.86000 195.425
50.87000 197.116
50.88000 197.286
50.89000 195.046
50.90000 192.777
50.91000 191.616
50.92000 185.056
50.93000 180.681
50.94000 179.998
50.95000 181.849
50.96000 183.618
50.97000 182.939
50.98000 181.120
50.99000 179.396
51.00000 174.840
51.01000 169.812
51.02000 165.426
51.03000 166.096
51.04000 167.847
51.05000 169.771
51.06000 172.552
51.07000 175.451
51.08000 177.722
51.09000 176.772
51.10000 175.806
51.11000 173.774
51.12000 169.312
51.13000 164.754
51.14000 162.518
51.15000 163.891
51.16000 165.306
51.17000 166.022
51.18000 158.291
51.19000 153.178
51.20000 155.044
51.21000 161.613
51.22000 167.790
51.23000 162.784
51.24000 152.658
51.25000 143.079
51.26000 145.993
51.27000 152.266
51.28000 157.667
51.29000 156.342
51.30000 153.605
51.31000 151.931
51.32000 155.478
51.33000 159.727
51.34000 163.040
51.35000 158.589
51.36000 154.556
51.37000 151.317
51.38000 149.863
51.39000 148.475
51.40000 147.984
51.41000 148.864
51.42000 149.759
51.43000 150.207
51.44000 153.903
51.45000 156.339
51.46000 155.682
51.47000 152.979
51.48000 150.420
51.49000 151.820
51.50000 155.003
51.51000 158.009
51.52000 158.131
51.53000 157.429
51.54000 156.635
51.55000 155.139
51.56000 153.499
51.57000 151.758
51.58000 149.526
51.59000 147.229
51.60000 145.446
51.61000 142.725
51.62000 140.504
51.63000 140.634
51.64000 145.950
51.65000 151.454
51.66000 154.663
51.67000 154.431
51.68000 154.165
51.69000 152.334
51.70000 148.958
51.71000 145.610
51.72000 144.708
51.73000 145.396
51.74000 146.015
51.75000 144.799
51.76000 142.771
51.77000 140.860
51.78000 145.308
51.79000 151.143
51.80000 155.860
51.81000 152.343
51.82000 147.159
51.83000 143.176
51.84000 144.863
51.85000 147.280
51.86000 149.148
51.87000 144.389
51.88000 140.223
51.89000 137.287
51.90000 137.018
51.91000 136.842
51.92000 138.918
51.93000 144.314
51.94000 149.738
51.95000 153.481
51.96000 155.596
51.97000 157.653
51.98000 154.768
51.99000 148.725
52.00000 142.815
52.01000 140.256
52.02000 139.155
52.03000 138.119
52.04000 141.070
52.05000 144.850
52.06000 147.956
52.07000 146.196
52.08000 143.470
52.09000 141.747
52.10000 144.673
52.11000 148.183
52.12000 150.886
52.13000 144.077
52.14000 138.146
52.15000 134.747
52.16000 136.746
52.17000 138.924
52.18000 141.680
52.19000 145.272
52.20000 148.872
52.21000 149.837
52.22000 148.307
52.23000 146.755
52.24000 143.445
52.25000 139.033
52.26000 134.820
52.27000 135.434
52.28000 138.113
52.29000 140.628
52.30000 142.618
52.31000 144.293
52.32000 145.510
52.33000 143.496
52.34000 140.853
52.35000 139.451
52.36000 143.695
52.37000 148.635
52.38000 152.420
52.39000 148.594
52.40000 145.153
52.41000 144.002
52.42000 147.651
52.43000 151.451
52.44000 150.540
52.45000 142.936
52.46000 135.283
52.47000 135.077
52.48000 141.789
52.49000 148.417
52.50000 149.072
52.51000 146.044
52.52000 143.053
52.53000 140.933
52.54000 139.180
52.55000 137.536
52.56000 136.412
52.57000 135.525
52.58000 134.920
52.59000 136.269
52.60000 137.991
52.61000 139.695
52.62000 141.314
52.63000 142.923
52.64000 144.151
52.65000 149.569
52.66000 154.062
52.67000 155.924
52.68000 152.367
52.69000 148.647
52.70000 145.557
52.71000 143.346
52.72000 141.141
52.73000 141.232
52.74000 143.412
52.75000 145.578
52.76000 146.786
52.77000 147.413
52.78000 147.953
52.79000 146.523
52.80000 144.280
52.81000 142.182
52.82000 143.163
52.83000 144.844
52.84000 146.018
52.85000 143.758
52.86000 140.855
52.87000 138.840
52.88000 140.723
52.89000 143.063
52.90000 144.840
52.91000 143.750
52.92000 142.744
52.93000 143.135
52.94000 146.357
52.95000 149.659
52.96000 152.156
52.97000 153.549
52.98000 154.935
52.99000 154.028
53.00000 151.076
53.01000 148.152
53.02000 146.992
53.03000 146.882
53.04000 146.914
53.05000 150.032
53.06000 154.403
53.07000 158.486
53.08000 160.856
53.09000 162.577
53.10000 163.782
53.11000 161.569
53.12000 158.729
53.13000 156.476
53.14000 156.755
53.15000 157.324
53.16000 157.754
53.17000 158.727
53.18000 159.517
53.19000 159.305
53.20000 157.099
53.21000 154.838
53.22000 153.727
53.23000 154.161
53.24000 154.603
53.25000 154.204
53.26000 153.071
53.27000 151.957
53.28000 152.037
53.29000 152.813
53.30000 153.583
53.31000 154.208
53.32000 154.775
53.33000 155.303
53.34000 158.940
53.35000 162.996
53.36000 165.911
53.37000 161.410
53.38000 155.575
53.39000 150.520
53.40000 148.766
53.41000 147.382
53.42000 146.342
53.43000 148.995
53.44000 151.250
53.45000 153.728
53.46000 156.641
53.47000 159.566
53.48000 159.007
53.49000 153.848
53.50000 148.671
53.51000 145.806
53.52000 144.929
53.53000 144.114
53.54000 146.708
53.55000 151.263
53.56000 155.507
53.57000 153.486
53.58000 149.006
53.59000 144.840
53.60000 145.173
53.61000 146.560
53.62000 147.726
53.63000 147.488
53.64000 147.003
53.65000 145.769
53.66000 141.430
53.67000 136.751
53.68000 133.247
53.69000 135.286
53.70000 137.137
53.71000 138.977
53.72000 140.798
53.73000 142.617
53.74000 145.614
53.75000 150.136
53.76000 154.660
53.77000 156.370
53.78000 155.707
53.79000 155.030
53.80000 153.581
53.81000 151.696
53.82000 149.722
53.83000 146.018
53.84000 141.646
53.85000 137.588
53.86000 134.141
53.87000 131.178
53.88000 129.084
53.89000 132.402
53.90000 136.656
53.91000 140.753
53.92000 144.206
53.93000 147.589
53.94000 150.111
53.95000 147.052
53.96000 144.418
53.97000 144.502
53.98000 149.723
53.99000 155.065
54.00000 155.902
54.01000 151.007
54.02000 146.098
54.03000 142.085
54.04000 138.826
54.05000 135.682
54.06000 138.222
54.07000 143.916
54.08000 149.274
54.09000 148.294
54.10000 144.910
54.11000 141.776
54.12000 137.857
54.13000 134.150
54.14000 131.004
54.15000 131.284
54.16000 132.144
54.17000 132.273
54.18000 129.473
54.19000 126.366
54.20000 124.063
54.21000 135.423
54.22000 144.844
54.23000 149.389
54.24000 144.879
54.25000 140.166
54.26000 138.986
54.27000 142.215
54.28000 145.454
54.29000 148.188
54.30000 150.504
54.31000 152.715
54.32000 150.049
54.33000 144.721
54.34000 139.470
54.35000 135.597
54.36000 132.239
54.37000 129.135
54.38000 133.474
54.39000 139.060
54.40000 144.528
54.41000 149.288
54.42000 153.931
54.43000 156.821
54.44000 152.812
54.45000 148.100
54.46000 144.624
54.47000 147.162
54.48000 149.383
54.49000 148.849
54.50000 143.287
54.51000 137.618
54.52000 135.164
54.53000 136.650
54.54000 138.143
54.55000 139.223
54.56000 139.970
54.57000 140.721
54.58000 141.611
54.59000 142.576
54.60000 143.459
54.61000 142.906
54.62000 141.826
54.63000 140.830
54.64000 142.875
54.65000 145.385
54.66000 147.752
54.67000 149.283
54.68000 150.678
54.69000 151.379
54.70000 149.398
54.71000 147.149
54.72000 145.498
54.73000 149.089
54.74000 152.077
54.75000 152.089
54.76000 146.761
54.77000 141.326
54.78000 138.450
54.79000 138.653
54.80000 138.862
54.81000 138.773
54.82000 138.453
54.83000 138.153
54.84000 138.711
54.85000 139.720
54.86000 140.690
54.87000 140.983
54.88000 141.031
54.89000 141.076
54.90000 142.408
54.91000 143.879
54.92000 145.301
54.93000 146.445
54.94000 147.544
54.95000 148.255
54.96000 147.494
54.97000 146.590
54.98000 145.930
54.99000 155.348
55.00000 163.005
55.01000 166.066
55.02000 161.023
55.03000 155.828
55.04000 152.528
55.05000 151.466
55.06000 150.411
55.07000 152.164
55.08000 156.052
55.09000 159.888
55.10000 161.661
55.11000 162.367
55.12000 162.835
55.13000 159.368
55.14000 154.506
55.15000 150.042
55.16000 152.123
55.17000 155.380
55.18000 158.317
55.19000 159.447
55.20000 160.295
55.21000 162.644
55.22000 170.589
55.23000 179.062
55.24000 185.222
55.25000 187.576
55.26000 189.242
55.27000 190.431
55.28000 190.791
55.29000 191.136
55.30000 195.746
55.31000 205.294
55.32000 214.822
55.33000 219.992
55.34000 221.865
55.35000 223.895
55.36000 231.854
55.37000 242.830
55.38000 253.787
55.39000 264.430
55.40000 274.964
55.41000 284.616
55.42000 290.055
55.43000 294.015
55.44000 298.681
55.45000 307.250
55.46000 316.417
55.47000 325.491
55.48000 334.225
55.49000 342.928
55.50000 349.222
55.51000 367.438
55.52000 381.851
55.53000 399.049
55.54000 420.988
55.55000 443.006
55.56000 454.830
55.57000 455.076
55.58000 455.311
55.59000 463.088
55.60000 476.346
55.61000 489.697
55.62000 506.424
55.63000 524.840
55.64000 542.888
55.65000 555.217
55.66000 565.590
55.67000 575.073
55.68000 576.879
55.69000 576.909
55.70000 578.527
55.71000 588.761
55.72000 600.288
55.73000 609.070
55.74000 607.981
55.75000 606.005
55.76000 604.583
55.77000 607.465
55.78000 609.822
55.79000 609.889
55.80000 606.125
55.81000 602.301
55.82000 597.076
55.83000 590.288
55.84000 583.523
55.85000 582.628
55.86000 585.971
55.87000 589.071
55.88000 583.860
55.89000 574.560
55.90000 565.706
55.91000 563.548
55.92000 563.644
55.93000 563.730
55.94000 551.994
55.95000 539.209
55.96000 525.631
55.97000 507.843
55.98000 489.435
55.99000 472.406
56.00000 460.249
56.01000 448.518
56.02000 440.124
56.03000 426.339
56.04000 415.631
56.05000 405.570
56.06000 396.570
56.07000 387.586
56.08000 378.625
56.09000 369.689
56.10000 360.790
56.11000 348.150
56.12000 332.990
56.13000 317.922
56.14000 305.890
56.15000 295.326
56.16000 285.021
56.17000 278.500
56.18000 273.228
56.19000 268.431
56.20000 262.103
56.21000 256.202
56.22000 250.153
56.23000 243.335
56.24000 236.407
56.25000 230.827
56.26000 229.931
56.27000 229.434
56.28000 229.081
56.29000 222.542
56.30000 217.361
56.31000 210.129
56.32000 199.583
56.33000 188.993
56.34000 186.582
56.35000 192.933
56.36000 199.259
56.37000 196.284
56.38000 186.894
56.39000 177.722
56.40000 175.397
56.41000 176.325
56.42000 177.115
56.43000 175.933
56.44000 174.111
56.45000 172.457
56.46000 163.382
56.47000 153.936
56.48000 146.894
56.49000 152.152
56.50000 159.141
56.51000 163.837
56.52000 160.705
56.53000 156.924
56.54000 154.247
56.55000 149.394
56.56000 145.638
56.57000 143.993
56.58000 145.695
56.59000 147.441
56.60000 147.432
56.61000 145.583
56.62000 143.743
56.63000 143.766
56.64000 145.058
56.65000 146.256
56.66000 144.687
56.67000 141.825
56.68000 139.278
56.69000 141.086
56.70000 144.285
56.71000 147.182
56.72000 147.891
56.73000 148.102
56.74000 147.656
56.75000 143.918
56.76000 139.726
56.77000 135.887
56.78000 133.230
56.79000 130.669
56.80000 128.865
56.81000 136.676
56.82000 142.884
56.83000 145.091
56.84000 141.065
56.85000 136.967
56.86000 133.556
56.87000 130.854
56.88000 128.166
56.89000 127.564
56.90000 128.360
56.91000 129.188
56.92000 130.951
56.93000 133.143
56.94000 135.027
56.95000 132.778
56.96000 129.231
56.97000 126.027
56.98000 129.478
56.99000 133.745
57.00000 136.919
57.01000 134.709
57.02000 131.773
57.03000 130.235
57.04000 133.300
57.05000 136.727
57.06000 139.126
57.07000 131.917
57.08000 126.191
57.09000 123.812
57.10000 126.554
57.11000 129.351
57.12000 131.069
57.13000 131.697
57.14000 132.322
57.15000 131.558
57.16000 129.896
57.17000 128.309
57.18000 128.798
57.19000 130.224
57.20000 131.405
57.21000 129.378
57.22000 126.361
57.23000 123.643
57.24000 124.365
57.25000 125.622
57.26000 126.702
57.27000 126.923
57.28000 127.031
57.29000 126.383
57.30000 123.289
57.31000 120.007
57.32000 117.722
57.33000 122.306
57.34000 125.951
57.35000 127.999
57.36000 127.648
57.37000 127.274
57.38000 126.538
57.39000 125.446
57.40000 124.361
57.41000 126.788
57.42000 131.433
57.43000 135.811
57.44000 133.101
57.45000 127.248
57.46000 122.030
57.47000 124.883
57.48000 130.181
57.49000 134.944
57.50000 131.545
57.51000 127.121
57.52000 124.084
57.53000 127.626
57.54000 132.017
57.55000 134.227
57.56000 129.498
57.57000 124.254
57.58000 120.623
57.59000 127.497
57.60000 132.943
57.61000 134.960
57.62000 131.912
57.63000 128.818
57.64000 127.461
57.65000 127.789
57.66000 128.115
57.67000 128.058
57.68000 127.762
57.69000 127.450
57.70000 126.746
57.71000 125.870
57.72000 125.231
57.73000 127.503
57.74000 130.642
57.75000 133.457
57.76000 131.560
57.77000 129.083
57.78000 127.040
57.79000 127.015
57.80000 127.246
57.81000 128.065
57.82000 130.724
57.83000 133.515
57.84000 135.437
57.85000 133.963
57.86000 132.772
57.87000 129.081
57.88000 121.764
57.89000 114.418
57.90000 113.583
57.91000 118.934
57.92000 124.244
57.93000 122.591
57.94000 116.660
57.95000 111.026
57.96000 112.645
57.97000 117.373
57.98000 121.975
57.99000 125.057
58.00000 127.694
58.01000 130.053
58.02000 127.238
58.03000 123.903
58.04000 121.232
58.05000 121.589
58.06000 122.320
58.07000 122.564
58.08000 121.311
58.09000 119.953
58.10000 119.024
58.11000 121.152
58.12000 122.817
58.13000 123.984
58.14000 124.438
58.15000 124.888
58.16000 125.977
58.17000 127.661
58.18000 129.332
58.19000 130.270
58.20000 130.745
58.21000 131.120
58.22000 129.125
58.23000 126.131
58.24000 123.371
58.25000 123.347
58.26000 124.109
58.27000 124.789
58.28000 123.959
58.29000 122.985
58.30000 122.316
58.31000 123.015
58.32000 123.879
58.33000 123.984
58.34000 121.797
58.35000 119.454
58.36000 117.861
58.37000 118.344
58.38000 118.752
58.39000 119.176
58.40000 119.621
58.41000 120.067
58.42000 121.332
58.43000 123.345
58.44000 125.339
58.45000 124.151
58.46000 121.091
58.47000 118.249
58.48000 120.338
58.49000 124.471
58.50000 128.125
58.51000 126.333
58.52000 123.002
58.53000 120.039
58.54000 121.782
58.55000 124.063
58.56000 125.555
58.57000 123.576
58.58000 121.188
58.59000 120.700
58.60000 125.851
58.61000 131.374
58.62000 135.110
58.63000 129.283
58.64000 124.736
58.65000 121.486
58.66000 120.018
58.67000 118.561
58.68000 116.740
58.69000 114.592
58.70000 112.466
58.71000 112.482
58.72000 113.749
58.73000 115.033
58.74000 116.698
58.75000 118.518
58.76000 120.188
58.77000 120.180
58.78000 119.708
58.79000 119.289
58.80000 123.335
58.81000 127.554
58.82000 130.084
58.83000 125.321
58.84000 119.719
58.85000 115.713
58.86000 116.366
58.87000 117.318
58.88000 117.957
58.89000 119.071
58.90000 119.909
58.91000 121.125
58.92000 122.853
58.93000 124.583
58.94000 125.118
58.95000 124.605
58.96000 124.096
58.97000 122.158
58.98000 119.443
58.99000 116.788
59.00000 115.392
59.01000 114.501
59.02000 113.767
59.03000 114.734
59.04000 116.165
59.05000 117.431
59.06000 118.257
59.07000 118.903
59.08000 119.551
59.09000 120.209
59.10000 120.868
59.11000 120.402
59.12000 116.712
59.13000 112.822
59.14000 110.223
59.15000 113.846
59.16000 116.652
59.17000 120.015
59.18000 124.113
59.19000 128.210
59.20000 128.420
59.21000 125.279
59.22000 122.173
59.23000 119.225
59.24000 116.435
59.25000 113.883
59.26000 116.135
59.27000 120.278
59.28000 123.916
59.29000 122.229
59.30000 119.117
59.31000 116.370
59.32000 118.021
59.33000 120.118
59.34000 121.683
59.35000 121.034
59.36000 120.141
59.37000 119.100
59.38000 117.645
59.39000 116.165
59.40000 115.182
59.41000 118.064
59.42000 120.266
59.43000 120.474
59.44000 118.090
59.45000 115.695
59.46000 113.321
59.47000 110.965
59.48000 108.638
59.49000 109.961
59.50000 113.266
59.51000 116.487
59.52000 118.059
59.53000 118.992
59.54000 120.041
59.55000 122.291
59.56000 124.856
59.57000 127.113
59.58000 121.419
59.59000 115.328
59.60000 110.626
59.61000 111.602
59.62000 113.187
59.63000 114.677
59.64000 115.904
59.65000 117.115
59.66000 117.914
59.67000 118.289
59.68000 118.557
59.69000 119.298
59.70000 120.643
59.71000 121.986
59.72000 121.508
59.73000 119.519
59.74000 117.556
59.75000 117.914
59.76000 119.521
59.77000 121.030
59.78000 120.683
59.79000 119.632
59.80000 118.538
59.81000 117.014
59.82000 115.380
59.83000 113.946
59.84000 113.761
59.85000 113.784
59.86000 114.442
59.87000 117.645
59.88000 121.115
59.89000 123.177
59.90000 121.404
59.91000 119.413
59.92000 118.108
59.93000 122.304
59.94000 125.481
59.95000 126.332
59.96000 124.269
59.97000 122.193
59.98000 118.842
59.99000 114.453
60.00000 110.123
60.01000 109.008
60.02000 109.635
60.03000 110.263
60.04000 110.926
60.05000 111.601
60.06000 112.294
60.07000 113.159
60.08000 114.068
60.09000 114.864
60.10000 117.830
60.11000 120.684
60.12000 122.482
60.13000 120.118
60.14000 117.329
60.15000 115.345
60.16000 115.519
60.17000 115.811
60.18000 116.001
60.19000 115.847
60.20000 115.729
60.21000 115.426
60.22000 114.896
60.23000 114.376
60.24000 117.366
60.25000 123.161
60.26000 128.872
60.27000 128.959
60.28000 126.109
60.29000 123.001
60.30000 115.349
60.31000 106.027
60.32000 98.225
60.33000 104.943
60.34000 115.279
60.35000 124.298
60.36000 124.691
60.37000 123.822
60.38000 122.560
60.39000 119.778
60.40000 116.843
60.41000 114.771
60.42000 114.969
60.43000 115.287
60.44000 115.493
60.45000 111.283
60.46000 108.137
60.47000 107.968
60.48000 111.388
60.49000 114.811
60.50000 117.080
60.51000 118.444
60.52000 119.787
60.53000 119.729
60.54000 118.954
60.55000 118.268
60.56000 119.119
60.57000 120.526
60.58000 121.462
60.59000 118.023
60.60000 113.513
60.61000 109.589
60.62000 115.756
60.63000 122.397
60.64000 127.814
60.65000 128.571
60.66000 128.874
60.67000 128.985
60.68000 128.596
60.69000 128.182
60.70000 127.915
60.71000 123.609
60.72000 120.411
60.73000 118.992
60.74000 119.677
60.75000 120.360
60.76000 119.638
60.77000 117.833
60.78000 116.058
60.79000 117.636
60.80000 120.847
60.81000 123.988
60.82000 125.955
60.83000 127.506
60.84000 128.604
60.85000 125.581
60.86000 121.569
60.87000 118.088
60.88000 114.324
60.89000 111.081
60.90000 108.936
60.91000 110.900
60.92000 113.254
60.93000 115.105
60.94000 115.679
60.95000 116.190
60.96000 116.516
60.97000 118.596
60.98000 120.132
60.99000 121.146
61.00000 121.552
61.01000 121.961
61.02000 122.981
61.03000 124.463
61.04000 125.920
61.05000 126.608
61.06000 126.894
61.07000 127.022
61.08000 124.609
61.09000 121.309
61.10000 118.521
61.11000 120.288
61.12000 123.130
61.13000 125.587
61.14000 127.640
61.15000 129.331
61.16000 130.483
61.17000 129.654
61.18000 128.641
61.19000 127.251
61.20000 124.917
61.21000 122.538
61.22000 121.029
61.23000 126.371
61.24000 130.331
61.25000 131.934
61.26000 130.850
61.27000 129.757
61.28000 127.412
61.29000 124.138
61.30000 120.924
61.31000 120.454
61.32000 121.330
61.33000 122.162
61.34000 122.314
61.35000 122.231
61.36000 122.099
61.37000 121.542
61.38000 120.886
61.39000 120.321
61.40000 120.752
61.41000 121.244
61.42000 122.779
61.43000 128.074
61.44000 133.708
61.45000 137.768
61.46000 137.961
61.47000 137.976
61.48000 137.985
61.49000 138.469
61.50000 138.824
61.51000 145.561
61.52000 159.425
61.53000 173.271
61.54000 183.256
61.55000 190.429
61.56000 197.466
61.57000 219.361
61.58000 247.516
61.59000 275.052
61.60000 293.205
61.61000 308.195
61.62000 323.056
61.63000 336.810
61.64000 350.313
61.65000 361.918
61.66000 371.994
61.67000 380.328
61.68000 386.237
61.69000 383.555
61.70000 380.117
61.71000 380.344
61.72000 389.423
61.73000 398.893
61.74000 404.820
61.75000 398.842
61.76000 394.401
61.77000 387.301
61.78000 377.290
61.79000 367.222
61.80000 349.084
61.81000 325.173
61.82000 301.740
61.83000 283.076
61.84000 267.343
61.85000 251.383
61.86000 232.087
61.87000 211.686
61.88000 192.538
61.89000 183.798
61.90000 177.382
61.91000 171.885
61.92000 160.786
61.93000 150.734
61.94000 142.888
61.95000 142.723
61.96000 143.216
61.97000 142.479
61.98000 138.822
61.99000 135.041
62.00000 132.691
62.01000 132.012
62.02000 131.540
62.03000 134.628
62.04000 141.543
62.05000 148.391
62.06000 146.243
62.07000 137.774
62.08000 129.483
62.09000 128.941
62.10000 131.965
62.11000 134.752
62.12000 134.170
62.13000 132.490
62.14000 131.579
62.15000 136.898
62.16000 143.584
62.17000 149.294
62.18000 147.435
62.19000 144.968
62.20000 142.666
62.21000 140.929
62.22000 139.239
62.23000 138.179
62.24000 138.592
62.25000 139.065
62.26000 139.356
62.27000 129.778
62.28000 122.811
62.29000 123.547
62.30000 132.396
62.31000 141.194
62.32000 143.738
62.33000 141.965
62.34000 140.232
62.35000 140.998
62.36000 142.856
62.37000 144.548
62.38000 143.950
62.39000 142.619
62.40000 141.468
62.41000 141.747
62.42000 142.332
62.43000 142.831
62.44000 139.800
62.45000 136.841
62.46000 134.895
62.47000 136.348
62.48000 138.078
62.49000 139.638
62.50000 140.808
62.51000 141.964
62.52000 142.671
62.53000 140.286
62.54000 138.552
62.55000 139.232
62.56000 142.405
62.57000 145.532
62.58000 143.612
62.59000 138.274
62.60000 133.059
62.61000 132.520
62.62000 134.063
62.63000 135.815
62.64000 140.369
62.65000 145.804
62.66000 150.341
62.67000 147.906
62.68000 143.999
62.69000 140.684
62.70000 140.277
62.71000 140.265
62.72000 139.759
62.73000 137.622
62.74000 135.356
62.75000 134.101
62.76000 135.129
62.77000 136.242
62.78000 136.920
62.79000 135.467
62.80000 134.413
62.81000 134.666
62.82000 136.240
62.83000 137.831
62.84000 141.123
62.85000 145.547
62.86000 149.864
62.87000 145.628
62.88000 137.881
62.89000 130.676
62.90000 130.584
62.91000 132.690
62.92000 134.980
62.93000 138.671
62.94000 142.652
62.95000 146.019
62.96000 141.743
62.97000 137.318
62.98000 133.971
62.99000 134.122
63.00000 134.542
63.01000 136.106
63.02000 140.209
63.03000 144.404
63.04000 146.937
63.05000 146.653
63.06000 146.431
63.07000 146.369
63.08000 146.464
63.09000 146.572
63.10000 147.946
63.11000 150.147
63.12000 152.292
63.13000 147.703
63.14000 140.466
63.15000 133.845
63.16000 135.054
63.17000 138.642
63.18000 141.825
63.19000 142.004
63.20000 141.572
63.21000 141.207
63.22000 140.953
63.23000 140.753
63.24000 141.253
63.25000 143.992
63.26000 146.897
63.27000 148.203
63.28000 146.024
63.29000 143.723
63.30000 142.344
63.31000 138.852
63.32000 136.359
63.33000 135.906
63.34000 137.436
63.35000 138.968
63.36000 140.692
63.37000 142.539
63.38000 144.337
63.39000 144.772
63.40000 144.619
63.41000 144.525
63.42000 145.176
63.43000 146.049
63.44000 146.396
63.45000 142.923
63.46000 138.689
63.47000 135.131
63.48000 138.403
63.49000 141.850
63.50000 143.807
63.51000 141.095
63.52000 138.043
63.53000 136.035
63.54000 136.261
63.55000 136.561
63.56000 136.740
63.57000 143.568
63.58000 148.442
63.59000 150.586
63.60000 150.127
63.61000 149.699
63.62000 151.714
63.63000 155.270
63.64000 158.727
63.65000 155.645
63.66000 150.042
63.67000 144.759
63.68000 143.330
63.69000 143.031
63.70000 143.044
63.71000 145.276
63.72000 147.943
63.73000 150.175
63.74000 149.624
63.75000 148.880
63.76000 148.461
63.77000 149.046
63.78000 149.702
63.79000 149.542
63.80000 147.666
63.81000 145.735
63.82000 144.596
63.83000 149.782
63.84000 153.477
63.85000 153.617
63.86000 150.435
63.87000 147.276
63.88000 145.762
63.89000 145.269
63.90000 144.791
63.91000 145.404
63.92000 146.424
63.93000 147.679
63.94000 151.689
63.95000 156.493
63.96000 160.150
63.97000 155.829
63.98000 149.976
63.99000 145.092
64.00000 149.090
64.01000 153.297
64.02000 156.096
64.03000 154.633
64.04000 152.879
64.05000 152.538
64.06000 155.123
64.07000 157.798
64.08000 159.364
64.09000 155.193
64.10000 152.230
64.11000 152.332
64.12000 155.241
64.13000 158.096
64.14000 157.198
64.15000 154.014
64.16000 150.926
64.17000 151.182
64.18000 152.740
64.19000 153.988
64.20000 151.679
64.21000 148.363
64.22000 145.633
64.23000 146.896
64.24000 148.910
64.25000 150.585
64.26000 156.117
64.27000 161.072
64.28000 164.617
64.29000 163.962
64.30000 163.029
64.31000 163.039
64.32000 164.969
64.33000 166.954
64.34000 168.108
64.35000 162.629
64.36000 158.755
64.37000 156.493
64.38000 155.681
64.39000 154.933
64.40000 158.276
64.41000 164.066
64.42000 169.675
64.43000 174.656
64.44000 179.125
64.45000 182.808
64.46000 177.728
64.47000 170.211
64.48000 164.075
64.49000 167.163
64.50000 171.953
64.51000 175.922
64.52000 176.945
64.53000 177.509
64.54000 177.824
64.55000 177.415
64.56000 176.959
64.57000 176.140
64.58000 174.595
64.59000 173.031
64.60000 172.129
64.61000 176.442
64.62000 179.479
64.63000 179.977
64.64000 178.238
64.65000 176.542
64.66000 177.416
64.67000 179.801
64.68000 182.109
64.69000 183.173
64.70000 183.708
64.71000 184.671
64.72000 190.294
64.73000 197.190
64.74000 203.139
64.75000 202.899
64.76000 201.539
64.77000 200.415
64.78000 209.141
64.79000 217.245
64.80000 223.885
64.81000 226.315
64.82000 228.483
64.83000 228.937
64.84000 226.024
64.85000 223.022
64.86000 221.306
64.87000 230.856
64.88000 237.556
64.89000 240.403
64.90000 239.918
64.91000 239.490
64.92000 242.291
64.93000 246.956
64.94000 251.463
64.95000 256.359
64.96000 261.118
64.97000 265.992
64.98000 272.081
64.99000 278.496
65.00000 283.997
65.01000 283.646
65.02000 282.256
65.03000 281.112
65.04000 292.867
65.05000 303.700
65.06000 314.123
65.07000 323.393
65.08000 332.592
65.09000 337.206
65.10000 332.960
65.11000 328.490
65.12000 325.956
65.13000 336.839
65.14000 344.454
65.15000 352.293
65.16000 360.323
65.17000 368.369
65.18000 377.277
65.19000 386.676
65.20000 395.742
65.21000 399.470
65.22000 401.029
65.23000 402.999
65.24000 409.208
65.25000 416.535
65.26000 423.313
65.27000 426.643
65.28000 429.373
65.29000 431.611
65.30000 429.173
65.31000 426.760
65.32000 429.429
65.33000 446.217
65.34000 463.832
65.35000 472.674
65.36000 464.851
65.37000 456.628
65.38000 452.005
65.39000 457.125
65.40000 460.705
65.41000 465.517
65.42000 471.355
65.43000 477.011
65.44000 473.569
65.45000 465.050
65.46000 456.844
65.47000 458.470
65.48000 463.519
65.49000 468.863
65.50000 477.186
65.51000 486.280
65.52000 494.603
65.53000 498.183
65.54000 500.955
65.55000 503.218
65.56000 497.450
65.57000 492.039
65.58000 492.097
65.59000 507.086
65.60000 522.923
65.61000 537.586
65.62000 550.060
65.63000 562.483
65.64000 569.408
65.65000 611.937
65.66000 641.460
65.67000 679.226
65.68000 723.722
65.69000 768.869
65.70000 844.799
65.71000 937.606
65.72000 1026.883
65.73000 1169.292
65.74000 1321.486
65.75000 1474.263
65.76000 1632.774
65.77000 1792.745
65.78000 1954.007
65.79000 2123.047
65.80000 2293.387
65.81000 2431.950
65.82000 2595.655
65.83000 2731.414
65.84000 2844.877
65.85000 2898.499
65.86000 2948.830
65.87000 2980.964
65.88000 2979.708
65.89000 2977.733
65.90000 2976.641
65.91000 2976.288
65.92000 2975.915
65.93000 2931.701
65.94000 2852.351
65.95000 2772.410
65.96000 2666.031
65.97000 2545.409
65.98000 2429.543
65.99000 2231.242
66.00000 2017.232
66.01000 1807.256
66.02000 1635.956
66.03000 1474.320
66.04000 1316.301
66.05000 1179.626
66.06000 1046.450
66.07000 938.529
66.08000 831.618
66.09000 744.613
66.10000 671.218
66.11000 633.727
66.12000 598.145
66.13000 570.330
66.14000 556.520
66.15000 542.994
66.16000 535.583
66.17000 507.785
66.18000 488.656
66.19000 475.272
66.20000 466.408
66.21000 457.874
66.22000 463.383
66.23000 476.330
66.24000 488.747
66.25000 499.288
66.26000 508.501
66.27000 518.307
66.28000 533.675
66.29000 550.408
66.30000 570.487
66.31000 609.920
66.32000 652.460
66.33000 686.801
66.34000 721.019
66.35000 748.818
66.36000 775.056
66.37000 797.245
66.38000 819.226
66.39000 832.289
66.40000 829.552
66.41000 826.511
66.42000 824.859
66.43000 848.297
66.44000 864.349
66.45000 868.651
66.46000 863.881
66.47000 859.150
66.48000 856.011
66.49000 853.700
66.50000 851.487
66.51000 826.815
66.52000 796.357
66.53000 765.782
66.54000 734.142
66.55000 702.245
66.56000 670.296
66.57000 638.052
66.58000 605.761
66.59000 579.797
66.60000 543.498
66.61000 513.265
66.62000 490.466
66.63000 486.617
66.64000 483.708
66.65000 475.205
66.66000 456.962
66.67000 438.542
66.68000 428.627
66.69000 420.922
66.70000 415.702
66.71000 420.113
66.72000 431.824
66.73000 443.119
66.74000 438.533
66.75000 425.821
66.76000 413.667
66.77000 410.068
66.78000 409.504
66.79000 409.467
66.80000 414.134
66.81000 419.913
66.82000 426.007
66.83000 433.848
66.84000 441.958
66.85000 448.453
66.86000 437.246
66.87000 426.848
66.88000 421.079
66.89000 426.908
66.90000 433.292
66.91000 437.606
66.92000 438.378
66.93000 439.090
66.94000 439.470
66.95000 438.890
66.96000 438.505
66.97000 440.302
66.98000 443.721
66.99000 446.974
67.00000 444.181
67.01000 438.348
67.02000 432.779
67.03000 441.766
67.04000 454.764
67.05000 465.924
67.06000 461.050
67.07000 452.452
67.08000 446.027
67.09000 451.450
67.10000 458.661
67.11000 464.413
67.12000 462.046
67.13000 459.542
67.14000 460.120
67.15000 468.291
67.16000 476.812
67.17000 479.603
67.18000 472.759
67.19000 465.761
67.20000 462.062
67.21000 455.017
67.22000 450.271
67.23000 452.431
67.24000 459.637
67.25000 466.534
67.26000 462.687
67.27000 453.532
67.28000 444.805
67.29000 450.303
67.30000 459.859
67.31000 468.626
67.32000 470.669
67.33000 471.178
67.34000 472.218
67.35000 476.095
67.36000 480.391
67.37000 483.805
67.38000 481.019
67.39000 478.335
67.40000 477.449
67.41000 480.915
67.42000 484.574
67.43000 488.925
67.44000 494.418
67.45000 499.927
67.46000 502.812
67.47000 496.967
67.48000 493.065
67.49000 497.892
67.50000 508.981
67.51000 519.777
67.52000 520.870
67.53000 517.248
67.54000 513.802
67.55000 510.479
67.56000 507.440
67.57000 505.110
67.58000 508.671
67.59000 513.551
67.60000 517.283
67.61000 514.988
67.62000 511.821
67.63000 509.316
67.64000 516.360
67.65000 522.679
67.66000 527.039
67.67000 526.737
67.68000 526.235
67.69000 526.144
67.70000 526.720
67.71000 527.305
67.72000 527.608
67.73000 525.963
67.74000 524.913
67.75000 532.055
67.76000 544.966
67.77000 557.465
67.78000 556.869
67.79000 550.020
67.80000 543.513
67.81000 545.293
67.82000 549.436
67.83000 553.229
67.84000 554.173
67.85000 554.491
67.86000 555.656
67.87000 561.180
67.88000 567.321
67.89000 572.161
67.90000 573.950
67.91000 575.179
67.92000 576.104
67.93000 576.320
67.94000 576.507
67.95000 575.715
67.96000 573.362
67.97000 570.990
67.98000 569.771
67.99000 585.445
68.00000 595.943
68.01000 600.382
68.02000 600.631
68.03000 600.924
68.04000 602.570
68.05000 604.851
68.06000 607.015
68.07000 608.284
68.08000 609.190
68.09000 609.935
68.10000 609.401
68.11000 608.590
68.12000 608.582
68.13000 612.628
68.14000 617.237
68.15000 620.852
68.16000 620.987
68.17000 620.868
68.18000 622.521
68.19000 628.251
68.20000 634.142
68.21000 640.886
68.22000 648.966
68.23000 657.062
68.24000 661.181
68.25000 653.090
68.26000 647.786
68.27000 656.122
68.28000 673.725
68.29000 690.891
68.30000 695.343
68.31000 693.929
68.32000 692.591
68.33000 692.229
68.34000 692.181
68.35000 692.643
68.36000 697.085
68.37000 702.369
68.38000 708.789
68.39000 720.827
68.40000 733.629
68.41000 743.631
68.42000 740.073
68.43000 736.376
68.44000 735.937
68.45000 742.864
68.46000 750.073
68.47000 763.911
68.48000 787.951
68.49000 812.104
68.50000 824.271
68.51000 815.600
68.52000 809.971
68.53000 821.353
68.54000 844.084
68.55000 866.847
68.56000 890.462
68.57000 914.463
68.58000 937.148
68.59000 960.955
68.60000 983.140
68.61000 1006.350
68.62000 1037.377
68.63000 1070.027
68.64000 1108.109
68.65000 1172.570
68.66000 1240.534
68.67000 1293.412
68.68000 1354.629
68.69000 1403.874
68.70000 1455.242
68.71000 1511.332
68.72000 1567.595
68.73000 1640.849
68.74000 1739.784
68.75000 1838.981
68.76000 1920.267
68.77000 1983.737
68.78000 2047.283
68.79000 2118.014
68.80000 2193.454
68.81000 2269.991
68.82000 2375.836
68.83000 2494.747
68.84000 2606.933
68.85000 2746.230
68.86000 2881.475
68.87000 3032.574
68.88000 3301.735
68.89000 3594.967
68.90000 3917.720
68.91000 4381.177
68.92000 4862.909
68.93000 5236.086
68.94000 6534.257
68.95000 7620.330
68.96000 9112.125
68.97000 11490.559
68.98000 13900.153
68.99000 17060.516
69.00000 21335.588
69.01000 25620.977
69.02000 30312.318
69.03000 35399.180
69.04000 40481.195
69.05000 45142.930
69.06000 49534.059
69.07000 53878.730
69.08000 57031.137
69.09000 59660.992
69.10000 62137.621
69.11000 63763.859
69.12000 65018.750
69.13000 66260.531
69.14000 67406.766
69.15000 68533.891
69.16000 69625.148
69.17000 70548.625
69.18000 71450.781
69.19000 72146.578
69.20000 71999.867
69.21000 71834.984
69.22000 71005.656
69.23000 68748.969
69.24000 66444.203
69.25000 63605.316
69.26000 59987.527
69.27000 56363.340
69.28000 52761.438
69.29000 49181.512
69.30000 45609.621
69.31000 42682.641
69.32000 40163.574
69.33000 37686.914
69.34000 36256.398
69.35000 35276.609
69.36000 34355.605
69.37000 33476.762
69.38000 32685.686
69.39000 31830.385
69.40000 30517.033
69.41000 29113.789
69.42000 27560.902
69.43000 25321.010
69.44000 22995.777
69.45000 21210.381
69.46000 18207.133
69.47000 15764.938
69.48000 13444.719
69.49000 11382.062
69.50000 9327.706
69.51000 7582.370
69.52000 6279.592
69.53000 4980.414
69.54000 4041.546
69.55000 3440.565
69.56000 2842.315
69.57000 2447.623
69.58000 2179.421
69.59000 1915.052
69.60000 1741.663
69.61000 1606.808
69.62000 1480.281
69.63000 1385.700
69.64000 1307.927
69.65000 1233.792
69.66000 1185.050
69.67000 1141.197
69.68000 1098.634
69.69000 1061.880
69.70000 1025.832
69.71000 998.278
69.72000 960.400
69.73000 929.969
69.74000 898.302
69.75000 864.071
69.76000 829.761
69.77000 807.209
69.78000 801.193
69.79000 795.294
69.80000 784.064
69.81000 767.944
69.82000 751.855
69.83000 737.838
69.84000 725.086
69.85000 712.265
69.86000 697.857
69.87000 682.789
69.88000 668.678
69.89000 651.791
69.90000 635.718
69.91000 620.396
69.92000 610.213
69.93000 600.999
69.94000 593.146
69.95000 591.311
69.96000 590.191
69.97000 589.339
69.98000 585.060
69.99000 581.513
70.00000 578.502
