20.00000 480.218
20.01000 477.016
20.02000 473.358
20.03000 469.966
20.04000 467.625
20.05000 465.392
20.06000 463.743
20.07000 469.070
20.08000 473.493
20.09000 477.973
20.10000 482.553
20.11000 487.137
20.12000 487.292
20.13000 482.007
20.14000 476.717
20.15000 473.109
20.16000 470.854
20.17000 468.694
20.18000 470.724
20.19000 475.006
20.20000 479.149
20.21000 480.839
20.22000 481.629
20.23000 482.358
20.24000 481.652
20.25000 480.699
20.26000 479.620
20.27000 477.798
20.28000 475.856
20.29000 474.430
20.30000 475.007
20.31000 475.783
20.32000 476.353
20.33000 476.870
20.34000 477.267
20.35000 476.777
20.36000 474.692
20.37000 472.575
20.38000 467.962
20.39000 460.340
20.40000 452.728
20.41000 452.315
20.42000 457.519
20.43000 462.707
20.44000 467.202
20.45000 471.330
20.46000 474.966
20.47000 470.163
20.48000 462.314
20.49000 455.087
20.50000 457.755
20.51000 462.305
20.52000 466.671
20.53000 469.978
20.54000 473.116
20.55000 474.447
20.56000 468.911
20.57000 462.706
20.58000 458.170
20.59000 466.861
20.60000 474.086
20.61000 478.524
20.62000 478.037
20.63000 477.456
20.64000 474.423
20.65000 468.489
20.66000 462.563
20.67000 461.267
20.68000 463.519
20.69000 465.757
20.70000 467.401
20.71000 468.737
20.72000 470.218
20.73000 474.102
20.74000 478.841
20.75000 483.193
20.76000 482.126
20.77000 480.011
20.78000 477.025
20.79000 469.113
20.80000 460.428
20.81000 452.947
20.82000 449.961
20.83000 447.401
20.84000 445.540
20.85000 450.741
20.86000 455.012
20.87000 461.628
20.88000 472.318
20.89000 483.080
20.90000 482.959
20.91000 470.210
20.92000 457.477
20.93000 453.076
20.94000 454.957
20.95000 456.800
20.96000 457.221
20.97000 456.916
20.98000 456.703
20.99000 457.965
21.00000 459.741
21.01000 461.369
21.02000 459.006
21.03000 456.063
21.04000 454.208
21.05000 458.379
21.06000 463.476
21.07000 467.061
21.08000 465.097
21.09000 462.620
21.10000 460.827
21.11000 467.230
21.12000 472.444
21.13000 474.274
21.14000 470.330
21.15000 466.288
21.16000 464.870
21.17000 466.440
21.18000 468.008
21.19000 469.271
21.20000 470.300
21.21000 471.267
21.22000 470.033
21.23000 467.694
21.24000 465.578
21.25000 466.943
21.26000 469.500
21.27000 471.840
21.28000 473.386
21.29000 474.597
21.30000 474.310
21.31000 465.889
21.32000 456.244
21.33000 450.295
21.34000 457.673
21.35000 466.252
21.36000 472.428
21.37000 475.406
21.38000 477.575
21.39000 475.231
21.40000 465.325
21.41000 455.299
21.42000 450.188
21.43000 450.565
21.44000 450.945
21.45000 455.617
21.46000 463.350
21.47000 470.857
21.48000 470.590
21.49000 466.492
21.50000 462.366
21.51000 457.821
21.52000 453.134
21.53000 448.858
21.54000 446.459
21.55000 444.709
21.56000 444.418
21.57000 451.897
21.58000 460.520
21.59000 467.281
21.60000 467.448
21.61000 467.035
21.62000 466.739
21.63000 469.705
21.64000 472.080
21.65000 471.878
21.66000 467.429
21.67000 462.918
21.68000 462.901
21.69000 467.805
21.70000 472.692
21.71000 478.173
21.72000 484.023
21.73000 489.604
21.74000 486.301
21.75000 478.694
21.76000 471.789
21.77000 475.178
21.78000 481.976
21.79000 488.164
21.80000 490.437
21.81000 491.675
21.82000 492.304
21.83000 489.753
21.84000 486.742
21.85000 484.876
21.86000 486.994
21.87000 489.452
21.88000 491.202
21.89000 491.673
21.90000 491.990
21.91000 495.751
21.92000 505.086
21.93000 514.497
21.94000 521.052
21.95000 524.539
21.96000 528.010
21.97000 529.766
21.98000 530.311
21.99000 530.760
22.00000 528.161
22.01000 524.112
22.02000 519.994
22.03000 514.885
22.04000 509.455
22.05000 504.523
22.06000 507.249
22.07000 511.139
22.08000 514.684
22.09000 516.456
22.10000 517.978
22.11000 517.782
22.12000 511.710
22.13000 505.148
22.14000 500.500
22.15000 500.642
22.16000 500.900
22.17000 503.242
22.18000 508.898
22.19000 514.597
22.20000 512.381
22.21000 501.831
22.22000 491.332
22.23000 495.595
22.24000 509.874
22.25000 523.376
22.26000 513.518
22.27000 492.727
22.28000 473.274
22.29000 472.359
22.30000 477.374
22.31000 481.917
22.32000 482.594
22.33000 482.459
22.34000 483.829
22.35000 492.768
22.36000 502.754
22.37000 507.946
22.38000 497.034
22.39000 484.815
22.40000 476.207
22.41000 472.864
22.42000 470.486
22.43000 469.098
22.44000 469.257
22.45000 469.433
22.46000 466.955
22.47000 461.736
22.48000 456.546
22.49000 450.357
22.50000 443.577
22.51000 437.029
22.52000 437.162
22.53000 440.368
22.54000 443.512
22.55000 445.822
22.56000 447.869
22.57000 449.719
22.58000 451.325
22.59000 452.691
22.60000 454.980
22.61000 461.823
22.62000 469.282
22.63000 472.220
22.64000 460.227
22.65000 447.056
22.66000 437.828
22.67000 444.879
22.68000 450.680
22.69000 452.858
22.70000 449.478
22.71000 446.038
22.72000 447.062
22.73000 452.603
22.74000 458.111
22.75000 458.897
22.76000 456.574
22.77000 454.339
22.78000 454.542
22.79000 455.849
22.80000 456.884
22.81000 454.381
22.82000 450.785
22.83000 447.542
22.84000 445.587
22.85000 444.106
22.86000 443.081
22.87000 444.268
22.88000 445.749
22.89000 446.199
22.90000 443.306
22.91000 440.157
22.92000 437.963
22.93000 440.175
22.94000 441.964
22.95000 443.763
22.96000 445.574
22.97000 447.385
22.98000 446.965
22.99000 444.331
23.00000 441.714
23.01000 442.140
23.02000 444.519
23.03000 446.818
23.04000 446.991
23.05000 446.220
23.06000 445.539
23.07000 446.016
23.08000 446.844
23.09000 447.589
23.10000 448.798
23.11000 449.940
23.12000 449.247
23.13000 439.835
23.14000 429.294
23.15000 421.957
23.16000 424.836
23.17000 428.476
23.18000 430.999
23.19000 438.321
23.20000 443.959
23.21000 447.262
23.22000 447.110
23.23000 446.926
23.24000 442.800
23.25000 434.843
23.26000 426.942
23.27000 426.516
23.28000 430.819
23.29000 434.903
23.30000 433.433
23.31000 429.535
23.32000 425.824
23.33000 424.424
23.34000 423.714
23.35000 423.077
23.36000 429.899
23.37000 437.163
23.38000 444.019
23.39000 448.974
23.40000 453.688
23.41000 458.255
23.42000 462.364
23.43000 466.440
23.44000 469.247
23.45000 456.874
23.46000 447.204
23.47000 440.940
23.48000 439.626
23.49000 438.354
23.50000 441.805
23.51000 449.755
23.52000 457.645
23.53000 457.721
23.54000 452.953
23.55000 448.471
23.56000 451.007
23.57000 456.557
23.58000 461.920
23.59000 465.038
23.60000 467.498
23.61000 469.698
23.62000 461.747
23.63000 453.079
23.64000 447.662
23.65000 457.120
23.66000 468.418
23.67000 475.976
23.68000 472.012
23.69000 467.236
23.70000 463.966
23.71000 464.974
23.72000 465.831
23.73000 468.100
23.74000 472.385
23.75000 476.686
23.76000 482.682
23.77000 490.261
23.78000 497.777
23.79000 498.456
23.80000 494.965
23.81000 491.972
23.82000 500.733
23.83000 514.458
23.84000 526.725
23.85000 521.879
23.86000 512.103
23.87000 503.380
23.88000 509.916
23.89000 518.154
23.90000 525.241
23.91000 527.161
23.92000 528.456
23.93000 531.131
23.94000 537.984
23.95000 545.123
23.96000 549.983
23.97000 544.176
23.98000 539.595
23.99000 538.871
24.00000 543.557
24.01000 548.277
24.02000 548.763
24.03000 545.371
24.04000 542.009
24.05000 544.251
24.06000 549.793
24.07000 554.922
24.08000 550.676
24.09000 542.538
24.10000 534.275
24.11000 524.580
24.12000 514.479
24.13000 505.490
24.14000 498.328
24.15000 492.407
24.16000 486.510
24.17000 480.720
24.18000 474.942
24.19000 470.418
24.20000 469.624
24.21000 469.078
24.22000 468.708
24.23000 469.334
24.24000 469.822
24.25000 466.541
24.26000 458.069
24.27000 449.571
24.28000 447.672
24.29000 451.701
24.30000 455.690
24.31000 453.731
24.32000 448.327
24.33000 442.859
24.34000 435.976
24.35000 428.515
24.36000 422.269
24.37000 429.543
24.38000 440.577
24.39000 450.372
24.40000 449.049
24.41000 446.124
24.42000 443.002
24.43000 439.029
24.44000 434.958
24.45000 431.100
24.46000 427.868
24.47000 424.677
24.48000 422.530
24.49000 437.516
24.50000 449.008
24.51000 446.755
24.52000 425.922
24.53000 405.002
24.54000 400.156
24.55000 409.471
24.56000 418.689
24.57000 420.034
24.58000 416.824
24.59000 413.720
24.60000 412.842
24.61000 412.857
24.62000 412.842
24.63000 412.492
24.64000 412.052
24.65000 411.662
24.66000 410.479
24.67000 409.331
24.68000 409.301
24.69000 414.023
24.70000 419.281
24.71000 422.872
24.72000 421.671
24.73000 420.172
24.74000 419.169
24.75000 423.702
24.76000 427.171
24.77000 429.035
24.78000 428.769
24.79000 428.488
24.80000 424.929
24.81000 418.538
24.82000 412.218
24.83000 410.417
24.84000 411.205
24.85000 411.844
24.86000 409.436
24.87000 405.825
24.88000 402.708
24.89000 404.808
24.90000 408.308
24.91000 411.398
24.92000 412.660
24.93000 413.471
24.94000 413.374
24.95000 409.490
24.96000 405.189
24.97000 403.642
24.98000 409.873
24.99000 416.575
25.00000 421.029
25.01000 416.417
25.02000 412.838
25.03000 410.451
25.04000 409.619
25.05000 408.797
25.06000 410.931
25.07000 415.569
25.08000 420.152
25.09000 417.130
25.10000 409.973
25.11000 403.126
25.12000 402.349
25.13000 403.927
25.14000 405.527
25.15000 407.349
25.16000 409.230
25.17000 410.886
25.18000 411.296
25.19000 411.463
25.20000 411.564
25.21000 411.400
25.22000 411.207
25.23000 409.891
25.24000 405.456
25.25000 400.838
25.26000 397.789
25.27000 404.403
25.28000 409.452
25.29000 410.080
25.30000 405.057
25.31000 400.025
25.32000 400.918
25.33000 406.741
25.34000 412.490
25.35000 414.900
25.36000 415.434
25.37000 415.666
25.38000 410.133
25.39000 402.405
25.40000 394.574
25.41000 385.725
25.42000 376.611
25.43000 368.610
25.44000 381.429
25.45000 395.496
25.46000 406.252
25.47000 403.685
25.48000 399.718
25.49000 395.593
25.50000 391.035
25.51000 386.452
25.52000 383.445
25.53000 394.537
25.54000 402.933
25.55000 405.015
25.56000 399.172
25.57000 393.317
25.58000 392.090
25.59000 394.641
25.60000 397.158
25.61000 394.711
25.62000 389.686
25.63000 384.995
25.64000 386.433
25.65000 390.168
25.66000 393.461
25.67000 392.420
25.68000 390.276
25.69000 388.399
25.70000 391.104
25.71000 394.080
25.72000 397.734
25.73000 404.072
25.74000 410.684
25.75000 414.070
25.76000 408.800
25.77000 403.055
25.78000 399.309
25.79000 391.069
25.80000 384.953
25.81000 383.749
25.82000 388.595
25.83000 393.440
25.84000 392.747
25.85000 387.617
25.86000 382.561
25.87000 385.308
25.88000 392.057
25.89000 398.139
25.90000 392.367
25.91000 382.229
25.92000 373.351
25.93000 376.535
25.94000 382.732
25.95000 388.140
25.96000 392.401
25.97000 395.885
25.98000 398.342
25.99000 396.812
26.00000 394.884
26.01000 393.973
26.02000 395.748
26.03000 397.666
26.04000 398.908
26.05000 397.658
26.06000 396.705
26.07000 394.016
26.08000 389.226
26.09000 384.441
26.10000 382.329
26.11000 382.318
26.12000 382.306
26.13000 386.346
26.14000 392.341
26.15000 397.965
26.16000 397.189
26.17000 394.096
26.18000 391.428
26.19000 392.727
26.20000 395.000
26.21000 396.978
26.22000 389.891
26.23000 382.599
26.24000 377.677
26.25000 381.789
26.26000 386.784
26.27000 390.210
26.28000 389.570
26.29000 388.720
26.30000 388.173
26.31000 386.733
26.32000 385.669
26.33000 384.396
26.34000 382.875
26.35000 381.354
26.36000 380.233
26.37000 379.421
26.38000 378.622
26.39000 374.626
26.40000 369.148
26.41000 364.194
26.42000 368.004
26.43000 374.932
26.44000 381.655
26.45000 386.510
26.46000 390.916
26.47000 394.739
26.48000 392.551
26.49000 389.883
26.50000 387.058
26.51000 383.647
26.52000 380.180
26.53000 380.044
26.54000 388.397
26.55000 397.171
26.56000 402.780
26.57000 394.526
26.58000 388.336
26.59000 386.610
26.60000 390.080
26.61000 393.516
26.62000 387.982
26.63000 375.653
26.64000 363.534
26.65000 366.292
26.66000 376.313
26.67000 385.732
26.68000 385.415
26.69000 381.695
26.70000 378.505
26.71000 380.060
26.72000 382.736
26.73000 385.052
26.74000 387.711
26.75000 390.016
26.76000 391.336
26.77000 389.028
26.78000 386.383
26.79000 385.062
26.80000 387.058
26.81000 389.213
26.82000 390.581
26.83000 388.753
26.84000 387.387
26.85000 385.087
26.86000 381.721
26.87000 378.349
26.88000 373.917
26.89000 368.697
26.90000 363.571
26.91000 373.100
26.92000 389.408
26.93000 404.806
26.94000 405.956
26.95000 402.207
26.96000 397.788
26.97000 387.527
26.98000 375.910
26.99000 365.890
27.00000 370.138
27.01000 375.567
27.02000 380.806
27.03000 385.359
27.04000 389.850
27.05000 390.378
27.06000 381.148
27.07000 371.467
27.08000 365.361
27.09000 364.082
27.10000 363.212
27.11000 364.089
27.12000 366.921
27.13000 369.758
27.14000 373.137
27.15000 376.912
27.16000 380.615
27.17000 381.546
27.18000 381.125
27.19000 380.653
27.20000 379.402
27.21000 377.888
27.22000 376.489
27.23000 376.061
27.24000 375.856
27.25000 375.679
27.26000 372.102
27.27000 368.650
27.28000 366.745
27.29000 370.340
27.30000 374.420
27.31000 377.018
27.32000 376.031
27.33000 374.884
27.34000 374.165
27.35000 370.018
27.36000 366.987
27.37000 364.646
27.38000 363.064
27.39000 361.504
27.40000 363.181
27.41000 367.177
27.42000 371.095
27.43000 372.583
27.44000 372.880
27.45000 373.490
27.46000 378.705
27.47000 385.450
27.48000 390.662
27.49000 383.119
27.50000 372.721
27.51000 363.809
27.52000 361.733
27.53000 360.816
27.54000 361.740
27.55000 369.089
27.56000 376.990
27.57000 382.618
27.58000 382.833
27.59000 382.816
27.60000 382.806
27.61000 379.599
27.62000 377.258
27.63000 374.818
27.64000 372.273
27.65000 369.722
27.66000 366.391
27.67000 362.511
27.68000 358.712
27.69000 359.888
27.70000 363.300
27.71000 366.680
27.72000 369.602
27.73000 372.375
27.74000 374.907
27.75000 375.479
27.76000 375.620
27.77000 375.740
27.78000 373.255
27.79000 370.851
27.80000 368.265
27.81000 365.059
27.82000 361.800
27.83000 359.780
27.84000 360.654
27.85000 361.648
27.86000 362.262
27.87000 361.120
27.88000 360.283
27.89000 361.486
27.90000 364.842
27.91000 368.197
27.92000 371.316
27.93000 374.272
27.94000 377.163
27.95000 379.745
27.96000 382.082
27.97000 384.007
27.98000 380.205
27.99000 374.567
28.00000 369.613
28.01000 370.101
28.02000 371.763
28.03000 373.178
28.04000 369.091
28.05000 365.013
28.06000 362.488
28.07000 365.198
28.08000 368.333
28.09000 371.122
28.10000 373.114
28.11000 375.075
28.12000 376.277
28.13000 364.402
28.14000 355.784
28.15000 354.415
28.16000 360.549
28.17000 366.670
28.18000 371.322
28.19000 374.975
28.20000 378.544
28.21000 375.373
28.22000 369.359
28.23000 363.755
28.24000 363.697
28.25000 365.387
28.26000 367.199
28.27000 369.956
28.28000 372.914
28.29000 375.425
28.30000 369.438
28.31000 363.447
28.32000 359.111
28.33000 360.248
28.34000 361.818
28.35000 363.920
28.36000 367.224
28.37000 370.574
28.38000 372.613
28.39000 372.860
28.40000 373.022
28.41000 371.249
28.42000 367.512
28.43000 363.759
28.44000 358.350
28.45000 351.835
28.46000 345.478
28.47000 346.657
28.48000 351.050
28.49000 355.137
28.50000 355.190
28.51000 353.994
28.52000 354.147
28.53000 364.566
28.54000 377.116
28.55000 387.735
28.56000 385.225
28.57000 381.665
28.58000 376.239
28.59000 364.743
28.60000 352.780
28.61000 345.514
28.62000 348.688
28.63000 352.244
28.64000 354.393
28.65000 356.480
28.66000 357.966
28.67000 359.386
28.68000 360.739
28.69000 362.052
28.70000 359.550
28.71000 354.549
28.72000 349.674
28.73000 350.076
28.74000 352.703
28.75000 355.235
28.76000 356.551
28.77000 357.496
28.78000 358.488
28.79000 359.830
28.80000 361.242
28.81000 362.433
28.82000 357.531
28.83000 352.775
28.84000 349.088
28.85000 348.812
28.86000 348.792
28.87000 350.285
28.88000 355.084
28.89000 359.999
28.90000 362.946
28.91000 367.374
28.92000 370.529
28.93000 367.123
28.94000 357.323
28.95000 347.611
28.96000 345.608
28.97000 348.565
28.98000 351.443
28.99000 357.586
29.00000 364.801
29.01000 371.099
29.02000 366.003
29.03000 357.497
29.04000 350.207
29.05000 351.771
29.06000 355.105
29.07000 357.907
29.08000 352.584
29.09000 347.288
29.10000 343.168
29.11000 342.741
29.12000 342.583
29.13000 343.846
29.14000 348.161
29.15000 352.577
29.16000 355.206
29.17000 341.766
29.18000 332.151
29.19000 333.945
29.20000 346.641
29.21000 359.181
29.22000 359.241
29.23000 351.411
29.24000 343.797
29.25000 343.367
29.26000 345.902
29.27000 348.102
29.28000 346.255
29.29000 343.219
29.30000 341.577
29.31000 349.870
29.32000 360.112
29.33000 368.691
29.34000 362.303
29.35000 355.446
29.36000 350.876
29.37000 353.365
29.38000 356.354
29.39000 357.692
29.40000 355.548
29.41000 353.292
29.42000 351.959
29.43000 357.691
29.44000 361.777
29.45000 360.984
29.46000 355.622
29.47000 350.347
29.48000 351.518
29.49000 356.694
29.50000 361.720
29.51000 362.196
29.52000 360.819
29.53000 359.312
29.54000 356.283
29.55000 352.814
29.56000 349.788
29.57000 349.855
29.58000 350.518
29.59000 351.071
29.60000 354.910
29.61000 358.425
29.62000 362.079
29.63000 366.154
29.64000 370.258
29.65000 372.885
29.66000 372.446
29.67000 371.913
29.68000 371.601
29.69000 364.725
29.70000 359.852
29.71000 360.602
29.72000 366.515
29.73000 372.345
29.74000 372.409
29.75000 368.953
29.76000 365.602
29.77000 361.651
29.78000 357.670
29.79000 354.115
29.80000 355.452
29.81000 358.176
29.82000 361.174
29.83000 366.040
29.84000 371.259
29.85000 375.600
29.86000 380.941
29.87000 385.461
29.88000 386.508
29.89000 377.200
29.90000 367.202
29.91000 363.002
29.92000 370.626
29.93000 378.598
29.94000 383.233
29.95000 381.525
29.96000 380.296
29.97000 376.972
29.98000 371.761
29.99000 366.652
30.00000 368.179
30.01000 373.684
30.02000 379.016
30.03000 382.129
30.04000 384.215
30.05000 386.455
30.06000 390.408
30.07000 394.838
30.08000 397.824
30.09000 391.141
30.10000 382.669
30.11000 375.647
30.12000 381.066
30.13000 386.734
30.14000 389.266
30.15000 382.605
30.16000 375.349
30.17000 371.220
30.18000 373.357
30.19000 375.670
30.20000 377.004
30.21000 373.163
30.22000 370.456
30.23000 372.187
30.24000 377.839
30.25000 383.397
30.26000 383.336
30.27000 379.964
30.28000 376.701
30.29000 373.748
30.30000 371.075
30.31000 368.340
30.32000 364.920
30.33000 361.312
30.34000 358.386
30.35000 359.925
30.36000 362.274
30.37000 364.215
30.38000 360.900
30.39000 357.679
30.40000 356.713
30.41000 362.247
30.42000 368.189
30.43000 371.224
30.44000 368.532
30.45000 365.687
30.46000 364.059
30.47000 364.529
30.48000 364.867
30.49000 367.797
30.50000 372.972
30.51000 378.043
30.52000 377.186
30.53000 372.897
30.54000 368.754
30.55000 366.991
30.56000 366.217
30.57000 365.860
30.58000 369.930
30.59000 375.193
30.60000 379.203
30.61000 375.178
30.62000 369.724
30.63000 365.235
30.64000 380.951
30.65000 395.711
30.66000 402.910
30.67000 388.696
30.68000 373.181
30.69000 363.629
30.70000 365.627
30.71000 367.919
30.72000 369.219
30.73000 366.248
30.74000 364.177
30.75000 369.116
30.76000 380.015
30.77000 390.730
30.78000 391.591
30.79000 386.846
30.80000 382.268
30.81000 386.030
30.82000 392.622
30.83000 399.187
30.84000 405.470
30.85000 411.679
30.86000 416.417
30.87000 411.901
30.88000 405.771
30.89000 400.745
30.90000 406.065
30.91000 411.346
30.92000 415.590
30.93000 416.946
30.94000 418.132
30.95000 422.961
30.96000 434.726
30.97000 446.658
30.98000 453.374
30.99000 469.882
31.00000 481.358
31.01000 488.286
31.02000 491.419
31.03000 494.666
31.04000 503.689
31.05000 515.939
31.06000 527.743
31.07000 545.315
31.08000 563.894
31.09000 583.022
31.10000 607.685
31.11000 633.785
31.12000 658.514
31.13000 674.792
31.14000 689.624
31.15000 701.740
31.16000 734.248
31.17000 762.616
31.18000 791.677
31.19000 822.633
31.20000 853.696
31.21000 880.708
31.22000 900.140
31.23000 919.398
31.24000 930.145
31.25000 977.104
31.26000 1009.700
31.27000 1047.666
31.28000 1090.026
31.29000 1131.922
31.30000 1151.686
31.31000 1159.289
31.32000 1166.605
31.33000 1180.740
31.34000 1196.396
31.35000 1211.836
31.36000 1225.140
31.37000 1237.900
31.38000 1248.250
31.39000 1244.052
31.40000 1237.416
31.41000 1232.016
31.42000 1228.980
31.43000 1226.699
31.44000 1214.324
31.45000 1174.800
31.46000 1133.777
31.47000 1095.969
31.48000 1064.075
31.49000 1032.310
31.50000 1014.734
31.51000 968.873
31.52000 937.186
31.53000 910.235
31.54000 887.087
31.55000 863.734
31.56000 831.187
31.57000 793.675
31.58000 757.635
31.59000 734.331
31.60000 716.915
31.61000 698.464
31.62000 670.048
31.63000 639.138
31.64000 610.113
31.65000 592.247
31.66000 576.213
31.67000 563.214
31.68000 542.668
31.69000 525.309
31.70000 512.403
31.71000 511.270
31.72000 510.765
31.73000 502.269
31.74000 479.333
31.75000 456.100
31.76000 443.357
31.77000 420.309
31.78000 404.467
31.79000 397.269
31.80000 396.888
31.81000 396.560
31.82000 398.515
31.83000 401.680
31.84000 404.716
31.85000 396.031
31.86000 383.941
31.87000 373.272
31.88000 375.934
31.89000 381.875
31.90000 386.630
31.91000 384.507
31.92000 381.277
31.93000 378.669
31.94000 373.962
31.95000 369.968
31.96000 367.283
31.97000 368.001
31.98000 368.894
31.99000 368.553
32.00000 366.022
32.01000 363.449
32.02000 362.050
32.03000 357.666
32.04000 354.663
32.05000 353.495
32.06000 353.747
32.07000 353.962
32.08000 352.661
32.09000 350.568
32.10000 348.563
32.11000 343.996
32.12000 338.884
32.13000 334.700
32.14000 339.010
32.15000 345.372
32.16000 350.492
32.17000 348.552
32.18000 345.498
32.19000 343.041
32.20000 340.380
32.21000 338.206
32.22000 337.199
32.23000 339.174
32.24000 341.298
32.25000 340.935
32.26000 336.230
32.27000 331.447
32.28000 328.870
32.29000 327.200
32.30000 326.065
32.31000 326.303
32.32000 327.585
32.33000 328.918
32.34000 332.200
32.35000 336.482
32.36000 340.577
32.37000 339.447
32.38000 336.690
32.39000 333.980
32.40000 331.697
32.41000 329.515
32.42000 327.125
32.43000 323.571
32.44000 319.837
32.45000 316.845
32.46000 320.154
32.47000 323.306
32.48000 327.663
32.49000 335.046
32.50000 342.574
32.51000 344.037
32.52000 335.100
32.53000 325.985
32.54000 321.118
32.55000 323.114
32.56000 324.476
32.57000 325.185
32.58000 325.406
32.59000 325.685
32.60000 328.087
32.61000 331.559
32.62000 334.874
32.63000 334.976
32.64000 334.044
32.65000 332.631
32.66000 327.025
32.67000 320.442
32.68000 314.677
32.69000 313.383
32.70000 312.765
32.71000 312.272
32.72000 317.681
32.73000 322.481
32.74000 323.554
32.75000 315.427
32.76000 306.872
32.77000 303.793
32.78000 309.938
32.79000 316.231
32.80000 319.561
32.81000 326.550
32.82000 331.288
32.83000 333.659
32.84000 334.297
32.85000 334.964
32.86000 336.672
32.87000 338.894
32.88000 341.012
32.89000 338.394
32.90000 334.478
32.91000 330.830
32.92000 329.476
32.93000 328.647
32.94000 327.127
32.95000 321.911
32.96000 316.146
32.97000 311.564
32.98000 314.376
32.99000 317.168
33.00000 318.962
33.01000 318.331
33.02000 317.591
33.03000 315.500
33.04000 311.172
33.05000 306.811
33.06000 304.525
33.07000 306.210
33.08000 307.353
33.09000 308.548
33.10000 309.780
33.11000 310.985
33.12000 311.299
33.13000 311.178
33.14000 311.064
33.15000 302.795
33.16000 292.628
33.17000 284.094
33.18000 289.195
33.19000 297.355
33.20000 304.216
33.21000 304.248
33.22000 303.288
33.23000 302.529
33.24000 298.672
33.25000 295.358
33.26000 296.176
33.27000 306.850
33.28000 317.949
33.29000 322.957
33.30000 318.054
33.31000 313.012
33.32000 310.394
33.33000 310.592
33.34000 310.718
33.35000 309.669
33.36000 307.791
33.37000 305.874
33.38000 302.740
33.39000 299.024
33.40000 295.492
33.41000 296.158
33.42000 298.041
33.43000 300.015
33.44000 302.715
33.45000 305.577
33.46000 306.539
33.47000 297.712
33.48000 287.495
33.49000 279.439
33.50000 280.557
33.51000 282.071
33.52000 283.197
33.53000 283.412
33.54000 283.589
33.55000 287.441
33.56000 297.166
33.57000 306.968
33.58000 312.010
33.59000 306.949
33.60000 303.574
33.61000 304.256
33.62000 307.750
33.63000 311.067
33.64000 308.979
33.65000 304.348
33.66000 299.954
33.67000 303.129
33.68000 308.301
33.69000 312.036
33.70000 304.306
33.71000 294.096
33.72000 286.941
33.73000 295.238
33.74000 305.684
33.75000 313.885
33.76000 307.918
33.77000 302.219
33.78000 299.711
33.79000 304.564
33.80000 309.710
33.81000 311.249
33.82000 307.125
33.83000 302.932
33.84000 300.796
33.85000 295.953
33.86000 292.739
33.87000 293.404
33.88000 296.712
33.89000 300.022
33.90000 303.393
33.91000 306.792
33.92000 310.011
33.93000 311.862
33.94000 313.167
33.95000 314.657
33.96000 317.599
33.97000 320.847
33.98000 324.005
33.99000 326.713
34.00000 329.360
34.01000 331.429
34.02000 335.963
34.03000 339.739
34.04000 340.623
34.05000 334.957
34.06000 329.039
34.07000 325.030
34.08000 323.963
34.09000 322.929
34.10000 322.408
34.11000 339.267
34.12000 350.455
34.13000 352.944
34.14000 349.613
34.15000 346.149
34.16000 338.942
34.17000 330.033
34.18000 321.611
34.19000 323.914
34.20000 329.089
34.21000 333.838
34.22000 335.327
34.23000 336.137
34.24000 336.262
34.25000 333.049
34.26000 329.392
34.27000 326.545
34.28000 335.302
34.29000 342.989
34.30000 349.477
34.31000 353.292
34.32000 357.008
34.33000 359.066
34.34000 358.612
34.35000 358.132
34.36000 355.195
34.37000 349.807
34.38000 344.454
34.39000 342.364
34.40000 342.417
34.41000 342.478
34.42000 342.733
34.43000 343.076
34.44000 343.399
34.45000 347.272
34.46000 351.815
34.47000 355.625
34.48000 353.960
34.49000 351.176
34.50000 349.205
34.51000 351.112
34.52000 353.524
34.53000 355.394
34.54000 354.011
34.55000 352.719
34.56000 350.138
34.57000 344.735
34.58000 339.233
34.59000 334.269
34.60000 330.103
34.61000 325.946
34.62000 321.288
34.63000 316.140
34.64000 311.033
34.65000 309.470
34.66000 310.193
34.67000 310.773
34.68000 307.659
34.69000 302.923
34.70000 298.462
34.71000 298.563
34.72000 299.906
34.73000 301.144
34.74000 301.615
34.75000 301.932
34.76000 301.723
34.77000 299.049
34.78000 296.061
34.79000 293.755
34.80000 289.076
34.81000 285.230
34.82000 283.835
34.83000 287.715
34.84000 291.773
34.85000 291.829
34.86000 286.034
34.87000 280.189
34.88000 278.519
34.89000 280.848
34.90000 283.209
34.91000 288.058
34.92000 294.485
34.93000 300.580
34.94000 298.452
34.95000 292.774
34.96000 287.435
34.97000 279.820
34.98000 272.253
34.99000 266.183
35.00000 270.820
35.01000 277.563
35.02000 283.324
35.03000 284.572
35.04000 285.258
35.05000 285.785
35.06000 279.619
35.07000 274.368
35.08000 269.573
35.09000 265.741
35.10000 261.940
35.11000 265.472
35.12000 279.527
35.13000 293.663
35.14000 297.803
35.15000 292.553
35.16000 287.292
35.17000 281.229
35.18000 274.665
35.19000 268.293
35.20000 266.489
35.21000 266.623
35.22000 266.749
35.23000 268.164
35.24000 269.794
35.25000 270.837
35.26000 267.778
35.27000 263.928
35.28000 261.207
35.29000 263.591
35.30000 266.595
35.31000 268.893
35.32000 270.266
35.33000 271.300
35.34000 272.852
35.35000 275.483
35.36000 278.148
35.37000 278.398
35.38000 275.244
35.39000 272.066
35.40000 269.321
35.41000 266.976
35.42000 264.676
35.43000 265.511
35.44000 268.265
35.45000 270.962
35.46000 272.339
35.47000 273.166
35.48000 273.941
35.49000 271.772
35.50000 269.038
35.51000 267.068
35.52000 270.334
35.53000 274.591
35.54000 277.956
35.55000 277.364
35.56000 276.300
35.57000 275.490
35.58000 269.286
35.59000 264.119
35.60000 260.956
35.61000 261.892
35.62000 262.949
35.63000 263.901
35.64000 264.709
35.65000 265.516
35.66000 265.281
35.67000 264.104
35.68000 262.950
35.69000 263.226
35.70000 264.363
35.71000 265.594
35.72000 268.893
35.73000 273.040
35.74000 276.918
35.75000 271.445
35.76000 264.103
35.77000 259.054
35.78000 269.389
35.79000 282.579
35.80000 291.282
35.81000 280.453
35.82000 267.351
35.83000 257.422
35.84000 260.446
35.85000 263.482
35.86000 265.025
35.87000 263.570
35.88000 262.030
35.89000 260.601
35.90000 259.320
35.91000 258.041
35.92000 261.043
35.93000 267.829
35.94000 274.487
35.95000 273.317
35.96000 267.523
35.97000 261.879
35.98000 259.422
35.99000 258.251
36.00000 257.158
36.01000 259.874
36.02000 263.282
36.03000 265.963
36.04000 263.867
36.05000 260.902
36.06000 258.117
36.07000 256.103
36.08000 254.177
36.09000 252.724
36.10000 256.402
36.11000 259.536
36.12000 260.902
36.13000 258.775
36.14000 256.553
36.15000 258.278
36.16000 265.270
36.17000 272.284
36.18000 276.179
36.19000 277.361
36.20000 278.448
36.21000 274.017
36.22000 266.383
36.23000 259.061
36.24000 258.150
36.25000 259.781
36.26000 261.299
36.27000 263.327
36.28000 265.284
36.29000 266.866
36.30000 266.035
36.31000 264.774
36.32000 263.306
36.33000 260.972
36.34000 258.542
36.35000 256.718
36.36000 254.462
36.37000 252.679
36.38000 252.435
36.39000 255.182
36.40000 258.005
36.41000 257.062
36.42000 251.184
36.43000 245.289
36.44000 244.015
36.45000 246.675
36.46000 249.354
36.47000 253.136
36.48000 257.546
36.49000 261.611
36.50000 258.833
36.51000 253.389
36.52000 248.330
36.53000 249.770
36.54000 252.624
36.55000 255.660
36.56000 259.844
36.57000 264.230
36.58000 266.944
36.59000 262.767
36.60000 257.844
36.61000 254.165
36.62000 256.531
36.63000 258.655
36.64000 259.331
36.65000 257.243
36.66000 255.088
36.67000 254.299
36.68000 255.268
36.69000 256.243
36.70000 254.486
36.71000 250.457
36.72000 246.507
36.73000 246.554
36.74000 248.843
36.75000 251.191
36.76000 254.698
36.77000 258.648
36.78000 262.312
36.79000 264.073
36.80000 265.213
36.81000 266.254
36.82000 266.688
36.83000 267.018
36.84000 266.406
36.85000 261.987
36.86000 257.164
36.87000 253.578
36.88000 261.441
36.89000 268.068
36.90000 272.447
36.91000 272.612
36.92000 272.680
36.93000 272.938
36.94000 273.436
36.95000 273.934
36.96000 276.191
36.97000 279.878
36.98000 283.566
36.99000 287.280
37.00000 291.009
37.01000 294.338
37.02000 290.242
37.03000 283.351
37.04000 276.974
37.05000 281.661
37.06000 288.416
37.07000 294.211
37.08000 294.196
37.09000 293.204
37.10000 290.854
37.11000 283.103
37.12000 274.795
37.13000 268.647
37.14000 270.884
37.15000 272.981
37.16000 275.405
37.17000 278.435
37.18000 281.478
37.19000 282.200
37.20000 280.045
37.21000 277.885
37.22000 274.801
37.23000 270.988
37.24000 267.165
37.25000 262.880
37.26000 258.344
37.27000 254.273
37.28000 258.536
37.29000 265.884
37.30000 272.670
37.31000 270.880
37.32000 267.344
37.33000 263.629
37.34000 258.857
37.35000 253.911
37.36000 250.158
37.37000 251.061
37.38000 252.434
37.39000 253.445
37.40000 256.190
37.41000 258.387
37.42000 259.178
37.43000 257.424
37.44000 255.617
37.45000 255.865
37.46000 258.611
37.47000 261.357
37.48000 263.044
37.49000 263.890
37.50000 264.691
37.51000 263.623
37.52000 261.561
37.53000 259.401
37.54000 255.549
37.55000 251.081
37.56000 246.964
37.57000 249.420
37.58000 253.070
37.59000 256.702
37.60000 260.234
37.61000 263.750
37.62000 265.261
37.63000 259.090
37.64000 252.162
37.65000 247.087
37.66000 250.147
37.67000 252.835
37.68000 255.351
37.69000 257.560
37.70000 259.763
37.71000 261.853
37.72000 263.810
37.73000 265.762
37.74000 263.041
37.75000 256.730
37.76000 250.620
37.77000 252.695
37.78000 259.051
37.79000 265.028
37.80000 264.611
37.81000 261.909
37.82000 259.425
37.83000 258.949
37.84000 258.958
37.85000 259.145
37.86000 260.350
37.87000 261.715
37.88000 262.814
37.89000 262.912
37.90000 262.914
37.91000 262.916
37.92000 256.477
37.93000 251.269
37.94000 248.585
37.95000 250.316
37.96000 252.129
37.97000 252.426
37.98000 250.951
37.99000 249.477
38.00000 248.571
38.01000 248.101
38.02000 247.720
38.03000 250.791
38.04000 255.635
38.05000 260.110
38.06000 258.566
38.07000 254.907
38.08000 251.549
38.09000 255.891
38.10000 261.395
38.11000 266.296
38.12000 267.835
38.13000 268.853
38.14000 268.391
38.15000 262.457
38.16000 256.011
38.17000 251.336
38.18000 256.141
38.19000 260.186
38.20000 262.718
38.21000 262.648
38.22000 262.533
38.23000 266.554
38.24000 275.324
38.25000 284.074
38.26000 286.966
38.27000 285.486
38.28000 284.036
38.29000 283.634
38.30000 283.763
38.31000 284.592
38.32000 296.491
38.33000 312.214
38.34000 326.607
38.35000 329.263
38.36000 329.188
38.37000 330.455
38.38000 339.080
38.39000 348.822
38.40000 359.750
38.41000 374.990
38.42000 390.623
38.43000 401.902
38.44000 428.635
38.45000 449.680
38.46000 467.708
38.47000 480.635
38.48000 493.481
38.49000 508.145
38.50000 524.857
38.51000 541.516
38.52000 572.697
38.53000 614.201
38.54000 655.316
38.55000 682.762
38.56000 703.421
38.57000 724.382
38.58000 749.970
38.59000 777.130
38.60000 801.935
38.61000 834.077
38.62000 864.106
38.63000 893.983
38.64000 923.053
38.65000 952.003
38.66000 975.970
38.67000 982.153
38.68000 986.756
38.69000 990.059
38.70000 980.829
38.71000 973.340
38.72000 970.857
38.73000 976.683
38.74000 982.635
38.75000 978.936
38.76000 964.577
38.77000 950.265
38.78000 937.299
38.79000 925.410
38.80000 912.915
38.81000 880.065
38.82000 837.282
38.83000 795.375
38.84000 766.499
38.85000 741.972
38.86000 719.623
38.87000 686.732
38.88000 655.492
38.89000 625.504
38.90000 602.118
38.91000 579.694
38.92000 554.946
38.93000 522.051
38.94000 488.450
38.95000 464.463
38.96000 436.895
38.97000 415.747
38.98000 399.310
38.99000 390.555
39.00000 381.908
39.01000 365.962
39.02000 342.111
39.03000 318.357
39.04000 306.570
39.05000 303.286
39.06000 299.880
39.07000 292.549
39.08000 283.333
39.09000 274.249
39.10000 267.054
39.11000 260.480
39.12000 254.503
39.13000 253.893
39.14000 254.402
39.15000 253.779
39.16000 247.308
39.17000 240.003
39.18000 235.723
39.19000 241.863
39.20000 248.882
39.21000 253.866
39.22000 248.593
39.23000 244.255
39.24000 242.677
39.25000 245.523
39.26000 248.426
39.27000 248.138
39.28000 244.461
39.29000 240.800
39.30000 236.311
39.31000 231.302
39.32000 226.518
39.33000 228.658
39.34000 234.062
39.35000 238.996
39.36000 237.342
39.37000 233.563
39.38000 230.136
39.39000 232.409
39.40000 235.505
39.41000 238.328
39.42000 239.767
39.43000 241.013
39.44000 242.408
39.45000 244.308
39.46000 246.251
39.47000 247.622
39.48000 245.869
39.49000 244.443
39.50000 244.537
39.51000 247.025
39.52000 249.542
39.53000 249.515
39.54000 246.840
39.55000 244.178
39.56000 241.935
39.57000 240.002
39.58000 238.051
39.59000 235.561
39.60000 232.822
39.61000 230.454
39.62000 233.135
39.63000 237.415
39.64000 241.288
39.65000 240.967
39.66000 239.898
39.67000 239.409
39.68000 241.805
39.69000 244.594
39.70000 246.965
39.71000 247.944
39.72000 248.812
39.73000 249.421
39.74000 242.233
39.75000 236.562
39.76000 232.355
39.77000 230.411
39.78000 228.492
39.79000 228.676
39.80000 231.005
39.81000 233.320
39.82000 235.402
39.83000 237.303
39.84000 238.955
39.85000 233.609
39.86000 225.075
39.87000 217.189
39.88000 217.908
39.89000 221.305
39.90000 224.371
39.91000 232.777
39.92000 241.143
39.93000 246.744
39.94000 238.850
39.95000 229.153
39.96000 223.110
39.97000 229.016
39.98000 235.850
39.99000 240.624
40.00000 244.280
40.01000 247.010
40.02000 245.684
40.03000 238.197
40.04000 230.645
40.05000 224.265
40.06000 219.055
40.07000 213.878
40.08000 216.523
40.09000 224.207
40.10000 231.669
40.11000 233.121
40.12000 231.881
40.13000 230.858
40.14000 232.620
40.15000 235.234
40.16000 237.588
40.17000 229.351
40.18000 220.226
40.19000 213.451
40.20000 217.931
40.21000 223.882
40.22000 227.606
40.23000 224.174
40.24000 220.202
40.25000 217.444
40.26000 219.504
40.27000 221.185
40.28000 220.639
40.29000 216.769
40.30000 212.867
40.31000 211.942
40.32000 213.934
40.33000 215.913
40.34000 219.201
40.35000 223.273
40.36000 227.054
40.37000 223.288
40.38000 216.198
40.39000 209.316
40.40000 205.027
40.41000 201.518
40.42000 198.367
40.43000 208.625
40.44000 219.958
40.45000 228.540
40.46000 224.188
40.47000 218.183
40.48000 214.757
40.49000 219.475
40.50000 224.790
40.51000 228.461
40.52000 220.549
40.53000 214.306
40.54000 210.255
40.55000 209.417
40.56000 208.608
40.57000 211.834
40.58000 218.937
40.59000 225.988
40.60000 228.582
40.61000 228.347
40.62000 228.102
40.63000 227.617
40.64000 227.028
40.65000 226.480
40.66000 226.419
40.67000 226.503
40.68000 226.578
40.69000 224.137
40.70000 221.574
40.71000 218.981
40.72000 216.254
40.73000 213.510
40.74000 211.204
40.75000 210.259
40.76000 209.410
40.77000 208.828
40.78000 214.082
40.79000 218.163
40.80000 218.084
40.81000 212.019
40.82000 205.907
40.83000 206.602
40.84000 213.711
40.85000 220.762
40.86000 218.821
40.87000 211.399
40.88000 204.374
40.89000 206.861
40.90000 213.395
40.91000 219.552
40.92000 221.238
40.93000 221.625
40.94000 221.971
40.95000 219.432
40.96000 216.734
40.97000 214.123
40.98000 211.904
40.99000 209.733
41.00000 209.084
41.01000 213.076
41.02000 217.388
41.03000 220.332
41.04000 220.361
41.05000 220.314
41.06000 218.896
41.07000 215.540
41.08000 212.173
41.09000 213.872
41.10000 220.254
41.11000 226.580
41.12000 227.044
41.13000 223.971
41.14000 220.792
41.15000 215.146
41.16000 208.468
41.17000 202.221
41.18000 200.954
41.19000 201.108
41.20000 201.246
41.21000 204.932
41.22000 208.722
41.23000 212.168
41.24000 214.085
41.25000 215.820
41.26000 218.549
41.27000 224.262
41.28000 230.175
41.29000 234.188
41.30000 225.520
41.31000 218.773
41.32000 214.239
41.33000 212.774
41.34000 211.328
41.35000 209.412
41.36000 207.068
41.37000 204.746
41.38000 206.770
41.39000 211.318
41.40000 215.474
41.41000 210.890
41.42000 202.713
41.43000 195.102
41.44000 193.884
41.45000 194.456
41.46000 194.965
41.47000 204.861
41.48000 214.962
41.49000 223.348
41.50000 224.254
41.51000 224.287
41.52000 223.538
41.53000 220.487
41.54000 217.286
41.55000 215.127
41.56000 214.480
41.57000 214.029
41.58000 212.927
41.59000 210.937
41.60000 208.941
41.61000 207.455
41.62000 206.423
41.63000 205.400
41.64000 208.505
41.65000 213.936
41.66000 219.026
41.67000 216.832
41.68000 211.693
41.69000 206.959
41.70000 206.679
41.71000 207.625
41.72000 208.463
41.73000 212.786
41.74000 217.078
41.75000 219.603
41.76000 214.551
41.77000 208.636
41.78000 204.287
41.79000 204.472
41.80000 204.943
41.81000 205.259
41.82000 201.705
41.83000 198.989
41.84000 201.051
41.85000 209.505
41.86000 217.987
41.87000 222.282
41.88000 222.927
41.89000 223.565
41.90000 223.159
41.91000 222.167
41.92000 221.087
41.93000 218.199
41.94000 214.591
41.95000 210.764
41.96000 204.582
41.97000 197.762
41.98000 191.735
41.99000 204.118
42.00000 217.661
42.01000 228.008
42.02000 224.907
42.03000 220.307
42.04000 216.819
42.05000 216.495
42.06000 216.366
42.07000 216.279
42.08000 218.078
42.09000 219.446
42.10000 218.165
42.11000 213.404
42.12000 208.636
42.13000 209.106
42.14000 214.055
42.15000 218.947
42.16000 220.063
42.17000 219.044
42.18000 218.094
42.19000 218.526
42.20000 219.497
42.21000 220.089
42.22000 216.727
42.23000 212.314
42.24000 208.425
42.25000 212.891
42.26000 218.004
42.27000 221.101
42.28000 215.869
42.29000 209.730
42.30000 206.057
42.31000 209.282
42.32000 212.917
42.33000 215.323
42.34000 224.172
42.35000 230.822
42.36000 233.249
42.37000 230.231
42.38000 227.190
42.39000 223.211
42.40000 218.443
42.41000 213.734
42.42000 212.335
42.43000 212.784
42.44000 213.410
42.45000 217.443
42.46000 222.784
42.47000 227.448
42.48000 225.223
42.49000 221.199
42.50000 217.663
42.51000 215.590
42.52000 214.024
42.53000 212.240
42.54000 209.572
42.55000 206.811
42.56000 206.778
42.57000 214.250
42.58000 222.155
42.59000 227.356
42.60000 224.367
42.61000 222.025
42.62000 219.446
42.63000 216.567
42.64000 213.692
42.65000 212.988
42.66000 214.071
42.67000 215.140
42.68000 214.772
42.69000 213.642
42.70000 212.570
42.71000 212.580
42.72000 212.999
42.73000 213.101
42.74000 210.060
42.75000 206.213
42.76000 202.841
42.77000 204.099
42.78000 205.850
42.79000 206.824
42.80000 204.704
42.81000 202.263
42.82000 201.852
42.83000 206.929
42.84000 212.311
42.85000 215.830
42.86000 214.057
42.87000 212.668
42.88000 210.070
42.89000 205.968
42.90000 201.867
42.91000 199.641
42.92000 198.929
42.93000 198.227
42.94000 196.559
42.95000 194.429
42.96000 192.176
42.97000 187.693
42.98000 182.384
42.99000 178.033
43.00000 182.962
43.01000 190.227
43.02000 196.576
43.03000 201.840
43.04000 206.193
43.05000 209.562
43.06000 209.074
43.07000 208.196
43.08000 206.375
43.09000 202.049
43.10000 197.587
43.11000 194.689
43.12000 189.402
43.13000 185.492
43.14000 183.944
43.15000 185.274
43.16000 186.611
43.17000 187.962
43.18000 189.323
43.19000 190.664
43.20000 195.636
43.21000 202.338
43.22000 208.565
43.23000 206.491
43.24000 201.391
43.25000 196.572
43.26000 194.422
43.27000 192.931
43.28000 191.631
43.29000 194.918
43.30000 198.360
43.31000 201.631
43.32000 204.240
43.33000 206.783
43.34000 208.035
43.35000 205.912
43.36000 203.614
43.37000 202.130
43.38000 206.896
43.39000 210.468
43.40000 210.316
43.41000 205.709
43.42000 201.100
43.43000 198.092
43.44000 196.329
43.45000 194.595
43.46000 191.970
43.47000 188.974
43.48000 186.262
43.49000 188.331
43.50000 192.114
43.51000 195.575
43.52000 196.063
43.53000 195.829
43.54000 195.626
43.55000 193.982
43.56000 192.385
43.57000 192.404
43.58000 198.524
43.59000 205.232
43.60000 209.096
43.61000 205.663
43.62000 201.862
43.63000 199.425
43.64000 195.170
43.65000 192.045
43.66000 191.003
43.67000 192.405
43.68000 193.814
43.69000 195.625
43.70000 197.743
43.71000 199.826
43.72000 196.527
43.73000 190.654
43.74000 185.164
43.75000 185.955
43.76000 188.959
43.77000 191.558
43.78000 190.502
43.79000 188.575
43.80000 186.906
43.81000 191.155
43.82000 195.554
43.83000 198.049
43.84000 193.489
43.85000 188.265
43.86000 185.263
43.87000 187.864
43.88000 190.737
43.89000 192.567
43.90000 194.861
43.91000 196.534
43.92000 196.383
43.93000 194.130
43.94000 191.874
43.95000 189.288
43.96000 186.454
43.97000 183.671
43.98000 185.873
43.99000 190.438
44.00000 194.762
44.01000 195.237
44.02000 194.379
44.03000 193.552
44.04000 192.991
44.05000 192.492
44.06000 192.061
44.07000 190.256
44.08000 188.545
44.09000 187.717
44.10000 190.104
44.11000 192.786
44.12000 195.628
44.13000 198.870
44.14000 202.131
44.15000 204.193
44.16000 198.452
44.17000 194.197
44.18000 192.425
44.19000 193.455
44.20000 194.471
44.21000 192.512
44.22000 188.364
44.23000 184.293
44.24000 186.201
44.25000 190.912
44.26000 195.373
44.27000 195.999
44.28000 195.319
44.29000 194.578
44.30000 193.315
44.31000 191.933
44.32000 190.743
44.33000 193.867
44.34000 197.057
44.35000 199.058
44.36000 196.804
44.37000 194.169
44.38000 193.958
44.39000 199.654
44.40000 205.618
44.41000 209.365
44.42000 212.975
44.43000 215.584
44.44000 215.878
44.45000 213.607
44.46000 211.355
44.47000 212.189
44.48000 215.255
44.49000 218.261
44.50000 217.571
44.51000 215.165
44.52000 212.930
44.53000 213.267
44.54000 214.463
44.55000 215.226
44.56000 212.346
44.57000 208.644
44.58000 205.466
44.59000 213.602
44.60000 221.876
44.61000 227.634
44.62000 224.546
44.63000 220.690
44.64000 219.143
44.65000 223.130
44.66000 227.359
44.67000 229.997
44.68000 234.706
44.69000 238.122
44.70000 237.973
44.71000 233.951
44.72000 229.961
44.73000 230.611
44.74000 234.554
44.75000 238.416
44.76000 233.855
44.77000 225.574
44.78000 217.999
44.79000 220.649
44.80000 226.661
44.81000 231.957
44.82000 231.362
44.83000 229.463
44.84000 227.837
44.85000 233.243
44.86000 238.649
44.87000 242.271
44.88000 239.725
44.89000 236.658
44.90000 236.002
44.91000 241.028
44.92000 246.294
44.93000 249.555
44.94000 253.307
44.95000 256.009
44.96000 254.067
44.97000 247.179
44.98000 240.344
44.99000 240.588
45.00000 245.766
45.01000 250.831
45.02000 249.819
45.03000 246.089
45.04000 242.368
45.05000 238.775
45.06000 235.223
45.07000 232.203
45.08000 233.462
45.09000 235.650
45.10000 237.517
45.11000 239.802
45.12000 241.774
45.13000 242.714
45.14000 240.151
45.15000 237.300
45.16000 235.664
45.17000 236.843
45.18000 238.137
45.19000 238.932
45.20000 238.612
45.21000 238.372
45.22000 237.229
45.23000 235.145
45.24000 233.079
45.25000 233.258
45.26000 234.973
45.27000 236.650
45.28000 235.007
45.29000 231.955
45.30000 229.403
45.31000 233.706
45.32000 240.186
45.33000 244.719
45.34000 233.955
45.35000 219.927
45.36000 208.001
45.37000 207.949
45.38000 209.270
45.39000 210.978
45.40000 213.980
45.41000 217.085
45.42000 217.578
45.43000 212.118
45.44000 206.428
45.45000 202.953
45.46000 203.833
45.47000 204.498
45.48000 204.897
45.49000 205.024
45.50000 205.153
45.51000 205.468
45.52000 205.909
45.53000 206.339
45.54000 206.577
45.55000 206.721
45.56000 206.761
45.57000 205.427
45.58000 203.663
45.59000 201.413
45.60000 195.430
45.61000 188.666
45.62000 182.934
45.63000 186.583
45.64000 190.694
45.65000 194.589
45.66000 197.778
45.67000 200.913
45.68000 201.519
45.69000 196.465
45.70000 191.200
45.71000 188.009
45.72000 192.736
45.73000 196.166
45.74000 198.050
45.75000 198.383
45.76000 198.701
45.77000 197.708
45.78000 195.848
45.79000 194.034
45.80000 188.683
45.81000 182.055
45.82000 175.891
45.83000 175.741
45.84000 177.435
45.85000 179.255
45.86000 182.024
45.87000 184.989
45.88000 187.492
45.89000 185.993
45.90000 184.302
45.91000 183.640
45.92000 186.296
45.93000 189.202
45.94000 190.042
45.95000 186.333
45.96000 182.462
45.97000 180.132
45.98000 179.088
45.99000 178.355
46.00000 178.370
46.01000 179.122
46.02000 179.895
46.03000 182.568
46.04000 186.473
46.05000 190.276
46.06000 188.284
46.07000 183.946
46.08000 179.773
46.09000 177.690
46.10000 176.236
46.11000 175.597
46.12000 180.946
46.13000 187.502
46.14000 193.021
46.15000 193.665
46.16000 193.681
46.17000 192.211
46.18000 186.034
46.19000 179.511
46.20000 175.759
46.21000 178.005
46.22000 180.456
46.23000 181.920
46.24000 181.365
46.25000 180.958
46.26000 178.722
46.27000 174.724
46.28000 170.796
46.29000 172.669
46.30000 178.238
46.31000 183.657
46.32000 182.028
46.33000 177.566
46.34000 173.457
46.35000 173.672
46.36000 175.167
46.37000 176.243
46.38000 174.303
46.39000 171.765
46.40000 169.637
46.41000 171.627
46.42000 173.713
46.43000 175.930
46.44000 178.554
46.45000 181.207
46.46000 183.312
46.47000 184.250
46.48000 185.150
46.49000 185.684
46.50000 183.711
46.51000 182.301
46.52000 180.549
46.53000 178.472
46.54000 176.431
46.55000 177.054
46.56000 179.346
46.57000 181.572
46.58000 181.708
46.59000 180.990
46.60000 180.129
46.61000 177.557
46.62000 174.489
46.63000 171.546
46.64000 169.486
46.65000 167.598
46.66000 166.020
46.67000 169.960
46.68000 173.793
46.69000 176.807
46.70000 177.314
46.71000 177.647
46.72000 178.054
46.73000 178.616
46.74000 179.182
46.75000 179.515
46.76000 183.745
46.77000 186.747
46.78000 185.820
46.79000 181.254
46.80000 176.744
46.81000 176.251
46.82000 178.230
46.83000 180.150
46.84000 179.966
46.85000 178.955
46.86000 178.022
46.87000 177.997
46.88000 178.232
46.89000 178.644
46.90000 180.270
46.91000 182.129
46.92000 183.676
46.93000 178.910
46.94000 174.334
46.95000 171.135
46.96000 172.072
46.97000 173.288
46.98000 173.373
46.99000 171.134
47.00000 168.826
47.01000 167.479
47.02000 168.630
47.03000 169.451
47.04000 170.289
47.05000 171.144
47.06000 171.986
47.07000 172.029
47.08000 171.589
47.09000 171.163
47.10000 171.004
47.11000 170.959
47.12000 171.215
47.13000 174.870
47.14000 179.480
47.15000 183.107
47.16000 180.092
47.17000 175.837
47.18000 172.304
47.19000 174.610
47.20000 177.081
47.21000 177.734
47.22000 173.019
47.23000 167.951
47.24000 166.026
47.25000 170.447
47.26000 175.051
47.27000 177.716
47.28000 167.151
47.29000 159.695
47.30000 159.876
47.31000 166.860
47.32000 173.715
47.33000 172.553
47.34000 166.630
47.35000 160.897
47.36000 161.735
47.37000 165.044
47.38000 167.831
47.39000 164.865
47.40000 160.311
47.41000 156.383
47.42000 156.594
47.43000 157.562
47.44000 158.364
47.45000 164.888
47.46000 170.811
47.47000 174.671
47.48000 172.543
47.49000 170.035
47.50000 167.303
47.51000 164.130
47.52000 160.944
47.53000 159.115
47.54000 163.042
47.55000 165.808
47.56000 167.949
47.57000 169.544
47.58000 171.108
47.59000 170.810
47.60000 169.426
47.61000 168.088
47.62000 167.479
47.63000 167.180
47.64000 167.124
47.65000 169.691
47.66000 172.969
47.67000 175.612
47.68000 174.141
47.69000 171.930
47.70000 170.109
47.71000 167.811
47.72000 165.877
47.73000 164.012
47.74000 162.347
47.75000 160.694
47.76000 158.194
47.77000 154.042
47.78000 149.848
47.79000 147.459
47.80000 152.417
47.81000 155.895
47.82000 158.160
47.83000 159.386
47.84000 160.634
47.85000 163.108
47.86000 166.285
47.87000 169.351
47.88000 164.669
47.89000 157.399
47.90000 151.042
47.91000 154.235
47.92000 159.971
47.93000 165.008
47.94000 165.609
47.95000 165.429
47.96000 165.282
47.97000 163.731
47.98000 162.332
47.99000 161.399
48.00000 161.774
48.01000 162.228
48.02000 161.415
48.03000 158.176
48.04000 154.877
48.05000 153.014
48.06000 159.272
48.07000 163.639
48.08000 165.243
48.09000 164.521
48.10000 163.766
48.11000 161.299
48.12000 157.867
48.13000 154.558
48.14000 155.493
48.15000 157.909
48.16000 160.185
48.17000 161.042
48.18000 161.528
48.19000 161.407
48.20000 157.518
48.21000 152.978
48.22000 149.264
48.23000 152.236
48.24000 155.256
48.25000 156.169
48.26000 151.278
48.27000 146.051
48.28000 143.680
48.29000 146.693
48.30000 149.832
48.31000 151.591
48.32000 154.425
48.33000 156.386
48.34000 156.093
48.35000 153.940
48.36000 151.795
48.37000 150.057
48.38000 148.544
48.39000 147.087
48.40000 149.746
48.41000 153.703
48.42000 157.002
48.43000 153.758
48.44000 148.832
48.45000 144.692
48.46000 145.342
48.47000 146.803
48.48000 147.993
48.49000 151.045
48.50000 153.699
48.51000 156.253
48.52000 158.537
48.53000 160.806
48.54000 161.747
48.55000 160.225
48.56000 158.648
48.57000 157.773
48.58000 157.684
48.59000 157.622
48.60000 157.020
48.61000 155.981
48.62000 154.977
48.63000 155.587
48.64000 157.074
48.65000 158.504
48.66000 157.483
48.67000 155.672
48.68000 153.882
48.69000 152.294
48.70000 150.757
48.71000 149.963
48.72000 153.605
48.73000 157.983
48.74000 161.537
48.75000 156.471
48.76000 151.624
48.77000 148.620
48.78000 150.523
48.79000 152.691
48.80000 155.387
48.81000 159.043
48.82000 162.718
48.83000 164.742
48.84000 155.477
48.85000 149.095
48.86000 148.784
48.87000 153.297
48.88000 157.683
48.89000 156.484
48.90000 152.300
48.91000 148.283
48.92000 151.810
48.93000 157.687
48.94000 163.002
48.95000 162.982
48.96000 161.639
48.97000 160.643
48.98000 161.673
48.99000 163.032
49.00000 164.132
49.01000 157.160
49.02000 150.836
49.03000 146.792
49.04000 148.722
49.05000 150.964
49.06000 152.711
49.07000 153.572
49.08000 154.416
49.09000 154.877
49.10000 154.901
49.11000 154.908
49.12000 152.619
49.13000 148.539
49.14000 144.591
49.15000 146.084
49.16000 150.437
49.17000 154.609
49.18000 154.045
49.19000 151.930
49.20000 150.356
49.21000 153.804
49.22000 158.475
49.23000 162.295
49.24000 161.242
49.25000 159.413
49.26000 157.939
49.27000 158.011
49.28000 158.190
49.29000 158.526
49.30000 159.263
49.31000 160.020
49.32000 158.813
49.33000 154.152
49.34000 149.426
49.35000 146.869
49.36000 153.982
49.37000 158.843
49.38000 159.295
49.39000 156.369
49.40000 153.460
49.41000 151.200
49.42000 149.275
49.43000 147.432
49.44000 150.449
49.45000 154.859
49.46000 158.930
49.47000 159.944
49.48000 160.228
49.49000 160.005
49.50000 156.939
49.51000 153.428
49.52000 150.611
49.53000 151.004
49.54000 151.567
49.55000 151.875
49.56000 151.538
49.57000 151.169
49.58000 151.703
49.59000 153.797
49.60000 155.918
49.61000 157.055
49.62000 163.402
49.63000 167.701
49.64000 164.484
49.65000 155.616
49.66000 146.968
49.67000 146.542
49.68000 150.290
49.69000 153.872
49.70000 154.090
49.71000 153.206
49.72000 152.464
49.73000 152.976
49.74000 153.782
49.75000 154.417
49.76000 154.108
49.77000 153.654
49.78000 153.292
49.79000 151.425
49.80000 149.804
49.81000 149.636
49.82000 153.080
49.83000 156.694
49.84000 159.588
49.85000 161.259
49.86000 162.910
49.87000 163.787
49.88000 153.629
49.89000 146.729
49.90000 143.223
49.91000 142.222
49.92000 141.245
49.93000 141.124
49.94000 141.430
49.95000 141.722
49.96000 141.597
49.97000 141.348
49.98000 141.179
49.99000 141.687
50.00000 142.351
50.01000 143.650
50.02000 148.373
50.03000 153.609
50.04000 157.779
50.05000 162.660
50.06000 166.647
50.07000 167.684
50.08000 161.509
50.09000 155.005
50.10000 151.215
50.11000 151.952
50.12000 152.760
50.13000 153.185
50.14000 155.870
50.15000 157.688
50.16000 158.978
50.17000 159.885
50.18000 160.829
50.19000 163.022
50.20000 165.827
50.21000 168.499
50.22000 166.254
50.23000 162.647
50.24000 159.091
50.25000 155.963
50.26000 152.933
50.27000 150.248
50.28000 149.395
50.29000 148.811
50.30000 148.347
50.31000 152.864
50.32000 156.847
50.33000 159.761
50.34000 160.104
50.35000 160.334
50.36000 161.224
50.37000 163.194
50.38000 165.180
50.39000 166.215
50.40000 160.743
50.41000 157.057
50.42000 155.537
50.43000 155.560
50.44000 155.684
50.45000 159.086
50.46000 164.070
50.47000 168.809
50.48000 165.962
50.49000 161.018
50.50000 156.462
50.51000 155.107
50.52000 154.463
50.53000 153.696
50.54000 152.288
50.55000 150.788
50.56000 149.604
50.57000 152.726
50.58000 155.527
50.59000 159.309
50.60000 165.413
50.61000 171.614
50.62000 173.815
50.63000 169.570
50.64000 165.238
50.65000 163.001
50.66000 159.920
50.67000 157.859
50.68000 157.725
50.69000 158.938
50.70000 160.214
50.71000 163.453
50.72000 167.623
50.73000 171.581
50.74000 170.719
50.75000 168.483
50.76000 166.332
50.77000 164.864
50.78000 163.544
50.79000 162.370
50.80000 161.938
50.81000 161.610
50.82000 161.353
50.83000 161.833
50.84000 162.267
50.85000 162.239
50.86000 161.138
50.87000 159.993
50.88000 160.104
50.89000 162.202
50.90000 164.325
50.91000 165.411
50.92000 159.099
50.93000 154.867
50.94000 151.614
50.95000 149.033
50.96000 146.511
50.97000 145.738
50.98000 145.779
50.99000 145.819
51.00000 146.865
51.01000 148.123
51.02000 149.680
51.03000 153.594
51.04000 158.011
51.05000 161.142
51.06000 157.838
51.07000 153.650
51.08000 150.370
51.09000 151.910
51.10000 153.450
51.11000 154.143
51.12000 152.903
51.13000 151.588
51.14000 153.630
51.15000 160.892
51.16000 168.214
51.17000 171.923
51.18000 160.024
51.19000 152.111
51.20000 149.978
51.21000 151.744
51.22000 153.387
51.23000 151.573
51.24000 148.175
51.25000 144.960
51.26000 144.033
51.27000 143.840
51.28000 143.815
51.29000 145.088
51.30000 146.634
51.31000 146.805
51.32000 140.229
51.33000 132.747
51.34000 126.911
51.35000 138.580
51.36000 148.974
51.37000 155.162
51.38000 151.906
51.39000 148.297
51.40000 145.789
51.41000 144.963
51.42000 144.154
51.43000 143.749
51.44000 151.965
51.45000 157.376
51.46000 155.612
51.47000 149.098
51.48000 142.778
51.49000 141.757
51.50000 143.123
51.51000 144.412
51.52000 142.076
51.53000 138.908
51.54000 136.770
51.55000 142.391
51.56000 149.611
51.57000 154.881
51.58000 150.761
51.59000 145.406
51.60000 141.248
51.61000 142.606
51.62000 144.020
51.63000 143.917
51.64000 140.467
51.65000 136.897
51.66000 137.404
51.67000 144.025
51.68000 150.706
51.69000 154.195
51.70000 154.538
51.71000 154.839
51.72000 151.378
51.73000 145.472
51.74000 139.768
51.75000 139.364
51.76000 141.304
51.77000 143.134
51.78000 141.153
51.79000 138.285
51.80000 135.910
51.81000 137.173
51.82000 139.173
51.83000 140.660
51.84000 139.725
51.85000 138.480
51.86000 137.517
51.87000 134.879
51.88000 132.687
51.89000 133.822
51.90000 142.171
51.91000 150.769
51.92000 154.643
51.93000 151.560
51.94000 148.415
51.95000 146.547
51.96000 145.914
51.97000 145.273
51.98000 143.945
51.99000 142.178
52.00000 140.416
52.01000 138.777
52.02000 137.192
52.03000 135.700
52.04000 134.440
52.05000 133.351
52.06000 132.393
52.07000 132.378
52.08000 132.551
52.09000 132.509
52.10000 131.467
52.11000 130.300
52.12000 129.402
52.13000 134.202
52.14000 138.325
52.15000 140.721
52.16000 139.434
52.17000 138.025
52.18000 137.386
52.19000 137.860
52.20000 138.344
52.21000 139.737
52.22000 141.989
52.23000 144.243
52.24000 146.627
52.25000 149.091
52.26000 151.419
52.27000 150.415
52.28000 147.987
52.29000 145.707
52.30000 142.000
52.31000 138.239
52.32000 135.224
52.33000 137.482
52.34000 140.767
52.35000 143.632
52.36000 144.590
52.37000 145.312
52.38000 145.866
52.39000 149.295
52.40000 152.162
52.41000 153.298
52.42000 150.808
52.43000 148.203
52.44000 146.395
52.45000 145.719
52.46000 145.051
52.47000 142.559
52.48000 138.373
52.49000 134.241
52.50000 133.974
52.51000 136.088
52.52000 138.270
52.53000 142.003
52.54000 146.390
52.55000 150.502
52.56000 146.503
52.57000 140.745
52.58000 135.892
52.59000 137.294
52.60000 139.890
52.61000 143.094
52.62000 149.020
52.63000 155.272
52.64000 160.042
52.65000 156.211
52.66000 152.733
52.67000 148.813
52.68000 143.982
52.69000 139.124
52.70000 136.644
52.71000 137.481
52.72000 138.341
52.73000 138.790
52.74000 138.866
52.75000 138.923
52.76000 137.751
52.77000 135.833
52.78000 134.031
52.79000 134.828
52.80000 136.699
52.81000 138.450
52.82000 144.182
52.83000 150.410
52.84000 154.919
52.85000 147.789
52.86000 138.479
52.87000 131.141
52.88000 132.452
52.89000 134.779
52.90000 136.546
52.91000 140.474
52.92000 143.673
52.93000 146.151
52.94000 147.172
52.95000 148.150
52.96000 147.594
52.97000 144.936
52.98000 142.267
52.99000 142.580
53.00000 145.556
53.01000 148.500
53.02000 149.488
53.03000 149.310
53.04000 149.184
53.05000 150.175
53.06000 151.618
53.07000 152.966
53.08000 153.466
53.09000 153.707
53.10000 153.550
53.11000 150.747
53.12000 147.460
53.13000 145.704
53.14000 150.550
53.15000 156.154
53.16000 160.389
53.17000 158.409
53.18000 156.546
53.19000 153.701
53.20000 148.904
53.21000 144.054
53.22000 143.158
53.23000 147.581
53.24000 152.030
53.25000 152.044
53.26000 148.179
53.27000 144.363
53.28000 143.420
53.29000 144.159
53.30000 145.058
53.31000 149.316
53.32000 154.916
53.33000 160.134
53.34000 158.810
53.35000 156.001
53.36000 153.724
53.37000 154.907
53.38000 156.714
53.39000 157.949
53.40000 156.769
53.41000 155.319
53.42000 154.228
53.43000 157.355
53.44000 160.005
53.45000 160.651
53.46000 157.377
53.47000 154.000
53.48000 150.212
53.49000 145.881
53.50000 141.552
53.51000 140.948
53.52000 143.543
53.53000 146.137
53.54000 148.694
53.55000 151.229
53.56000 153.882
53.57000 158.907
53.58000 164.862
53.59000 170.402
53.60000 162.725
53.61000 152.603
53.62000 143.973
53.63000 144.837
53.64000 147.378
53.65000 149.434
53.66000 149.477
53.67000 149.300
53.68000 149.167
53.69000 148.233
53.70000 147.466
53.71000 145.304
53.72000 140.461
53.73000 135.552
53.74000 133.112
53.75000 133.873
53.76000 134.647
53.77000 137.263
53.78000 141.422
53.79000 145.500
53.80000 145.352
53.81000 142.816
53.82000 140.452
53.83000 141.421
53.84000 143.676
53.85000 145.770
53.86000 147.870
53.87000 149.765
53.88000 152.056
53.89000 156.814
53.90000 161.999
53.91000 164.681
53.92000 157.155
53.93000 148.537
53.94000 142.115
53.95000 145.565
53.96000 148.698
53.97000 151.791
53.98000 154.808
53.99000 157.823
54.00000 157.554
54.01000 153.107
54.02000 148.651
54.03000 144.903
54.04000 141.751
54.05000 138.663
54.06000 138.770
54.07000 140.650
54.08000 142.505
54.09000 143.898
54.10000 145.117
54.11000 146.245
54.12000 148.295
54.13000 150.352
54.14000 151.620
54.15000 148.071
54.16000 143.704
54.17000 140.775
54.18000 143.606
54.19000 147.039
54.20000 149.584
54.21000 151.909
54.22000 153.705
54.23000 152.608
54.24000 146.138
54.25000 139.548
54.26000 135.859
54.27000 135.793
54.28000 135.737
54.29000 135.680
54.30000 135.620
54.31000 135.572
54.32000 136.077
54.33000 136.884
54.34000 137.604
54.35000 136.723
54.36000 135.246
54.37000 133.880
54.38000 135.769
54.39000 138.205
54.40000 140.627
54.41000 142.963
54.42000 145.286
54.43000 147.486
54.44000 149.203
54.45000 150.872
54.46000 152.103
54.47000 147.463
54.48000 143.620
54.49000 140.251
54.50000 137.748
54.51000 135.263
54.52000 136.138
54.53000 141.131
54.54000 146.126
54.55000 147.561
54.56000 146.163
54.57000 144.738
54.58000 142.110
54.59000 138.836
54.60000 135.993
54.61000 140.732
54.62000 148.251
54.63000 155.185
54.64000 152.032
54.65000 146.961
54.66000 142.425
54.67000 141.021
54.68000 140.127
54.69000 138.501
54.70000 134.044
54.71000 129.306
54.72000 125.827
54.73000 128.459
54.74000 130.742
54.75000 135.571
54.76000 144.964
54.77000 154.449
54.78000 156.708
54.79000 150.279
54.80000 143.844
54.81000 141.848
54.82000 143.315
54.83000 144.747
54.84000 144.707
54.85000 143.890
54.86000 143.115
54.87000 143.045
54.88000 143.228
54.89000 143.396
54.90000 146.377
54.91000 149.656
54.92000 152.259
54.93000 150.981
54.94000 149.083
54.95000 148.064
54.96000 150.376
54.97000 153.012
54.98000 154.937
54.99000 153.795
55.00000 152.794
55.01000 152.624
55.02000 153.919
55.03000 155.242
55.04000 154.819
55.05000 152.334
55.06000 149.851
55.07000 150.878
55.08000 154.576
55.09000 158.121
55.10000 155.593
55.11000 149.919
55.12000 144.679
55.13000 146.595
55.14000 151.046
55.15000 155.134
55.16000 153.585
55.17000 150.997
55.18000 149.201
55.19000 151.868
55.20000 155.233
55.21000 157.507
55.22000 155.712
55.23000 153.532
55.24000 151.947
55.25000 155.398
55.26000 158.243
55.27000 161.435
55.28000 165.230
55.29000 169.036
55.30000 168.612
55.31000 163.293
55.32000 157.982
55.33000 159.565
55.34000 166.300
55.35000 172.893
55.36000 174.154
55.37000 172.702
55.38000 171.418
55.39000 172.837
55.40000 175.199
55.41000 177.362
55.42000 181.543
55.43000 185.688
55.44000 189.263
55.45000 189.684
55.46000 189.621
55.47000 191.142
55.48000 198.459
55.49000 206.312
55.50000 211.990
55.51000 215.562
55.52000 218.227
55.53000 223.113
55.54000 231.781
55.55000 240.513
55.56000 245.944
55.57000 247.627
55.58000 249.301
55.59000 254.013
55.60000 260.920
55.61000 267.857
55.62000 275.890
55.63000 284.471
55.64000 293.374
55.65000 307.279
55.66000 322.897
55.67000 337.175
55.68000 346.129
55.69000 352.991
55.70000 360.042
55.71000 368.115
55.72000 376.342
55.73000 386.033
55.74000 400.994
55.75000 416.428
55.76000 427.531
55.77000 441.534
55.78000 452.356
55.79000 460.656
55.80000 464.739
55.81000 468.756
55.82000 479.866
55.83000 498.874
55.84000 517.821
55.85000 535.029
55.86000 550.835
55.87000 566.230
55.88000 567.535
55.89000 561.913
55.90000 556.625
55.91000 556.388
55.92000 557.850
55.93000 559.184
55.94000 560.860
55.95000 562.415
55.96000 562.655
55.97000 555.907
55.98000 548.132
55.99000 542.739
56.00000 545.763
56.01000 549.523
56.02000 552.214
56.03000 533.405
56.04000 518.318
56.05000 504.973
56.06000 494.493
56.07000 484.055
56.08000 475.729
56.09000 469.712
56.10000 463.719
56.11000 452.145
56.12000 436.737
56.13000 421.303
56.14000 405.000
56.15000 388.279
56.16000 372.063
56.17000 363.253
56.18000 356.890
56.19000 351.099
56.20000 336.049
56.21000 320.907
56.22000 307.023
56.23000 299.699
56.24000 293.318
56.25000 286.041
56.26000 275.655
56.27000 265.004
56.28000 257.424
56.29000 249.024
56.30000 242.598
56.31000 234.980
56.32000 225.435
56.33000 215.863
56.34000 208.719
56.35000 204.175
56.36000 199.652
56.37000 197.075
56.38000 195.873
56.39000 194.616
56.40000 191.638
56.41000 187.841
56.42000 184.003
56.43000 179.580
56.44000 174.967
56.45000 170.780
56.46000 171.532
56.47000 173.151
56.48000 173.760
56.49000 169.205
56.50000 163.923
56.51000 159.711
56.52000 159.149
56.53000 158.890
56.54000 158.707
56.55000 158.350
56.56000 158.073
56.57000 157.003
56.58000 154.672
56.59000 152.326
56.60000 151.254
56.61000 151.522
56.62000 151.789
56.63000 152.512
56.64000 153.538
56.65000 154.397
56.66000 150.276
56.67000 143.829
56.68000 137.969
56.69000 140.214
56.70000 145.046
56.71000 149.422
56.72000 146.685
56.73000 142.927
56.74000 139.471
56.75000 137.527
56.76000 135.791
56.77000 133.857
56.78000 131.256
56.79000 128.601
56.80000 126.732
56.81000 127.802
56.82000 128.700
56.83000 131.456
56.84000 137.108
56.85000 142.793
56.86000 144.807
56.87000 143.043
56.88000 141.289
56.89000 139.717
56.90000 138.286
56.91000 136.830
56.92000 134.607
56.93000 132.033
56.94000 129.665
56.95000 130.078
56.96000 131.363
56.97000 132.524
56.98000 138.781
56.99000 145.227
57.00000 149.608
57.01000 143.825
57.02000 136.670
57.03000 130.834
57.04000 129.340
57.05000 128.187
57.06000 127.380
57.07000 129.691
57.08000 131.528
57.09000 130.823
57.10000 126.229
57.11000 121.593
57.12000 121.105
57.13000 124.803
57.14000 128.479
57.15000 130.691
57.16000 131.914
57.17000 133.172
57.18000 135.380
57.19000 138.018
57.20000 140.211
57.21000 136.609
57.22000 131.220
57.23000 126.363
57.24000 125.190
57.25000 124.829
57.26000 124.652
57.27000 125.366
57.28000 126.198
57.29000 127.612
57.30000 130.913
57.31000 134.359
57.32000 136.757
57.33000 130.591
57.34000 125.706
57.35000 121.929
57.36000 119.817
57.37000 117.722
57.38000 118.031
57.39000 120.717
57.40000 123.385
57.41000 124.128
57.42000 123.623
57.43000 123.246
57.44000 126.214
57.45000 130.667
57.46000 134.875
57.47000 135.979
57.48000 136.141
57.49000 136.287
57.50000 131.740
57.51000 126.924
57.52000 122.693
57.53000 121.232
57.54000 120.129
57.55000 119.967
57.56000 122.798
57.57000 125.853
57.58000 127.967
57.59000 125.426
57.60000 123.392
57.61000 122.479
57.62000 123.221
57.63000 123.977
57.64000 124.487
57.65000 124.758
57.66000 125.028
57.67000 126.109
57.68000 127.685
57.69000 129.090
57.70000 126.168
57.71000 121.359
57.72000 117.148
57.73000 120.324
57.74000 125.700
57.75000 130.520
57.76000 129.253
57.77000 127.088
57.78000 124.831
57.79000 122.155
57.80000 119.424
57.81000 117.144
57.82000 116.271
57.83000 115.500
57.84000 114.969
57.85000 125.800
57.86000 134.212
57.87000 136.228
57.88000 128.966
57.89000 121.628
57.90000 121.018
57.91000 126.803
57.92000 132.543
57.93000 134.156
57.94000 133.188
57.95000 132.174
57.96000 130.002
57.97000 127.334
57.98000 125.110
57.99000 128.215
58.00000 132.878
58.01000 137.049
58.02000 132.055
58.03000 126.141
58.04000 121.862
58.05000 125.048
58.06000 129.154
58.07000 131.789
58.08000 129.902
58.09000 127.697
58.10000 126.189
58.11000 128.959
58.12000 131.135
58.13000 131.893
58.14000 130.632
58.15000 129.354
58.16000 127.290
58.17000 124.492
58.18000 121.717
58.19000 120.195
58.20000 119.461
58.21000 118.886
58.22000 122.043
58.23000 126.772
58.24000 130.980
58.25000 129.095
58.26000 125.459
58.27000 122.215
58.28000 118.910
58.29000 116.024
58.30000 114.006
58.31000 115.881
58.32000 118.224
58.33000 119.208
58.34000 116.083
58.35000 112.679
58.36000 110.362
58.37000 112.055
58.38000 113.410
58.39000 115.662
58.40000 119.167
58.41000 122.679
58.42000 121.987
58.43000 117.455
58.44000 112.963
58.45000 111.704
58.46000 112.395
58.47000 113.167
58.48000 115.794
58.49000 119.189
58.50000 122.161
58.51000 120.316
58.52000 117.110
58.53000 114.257
58.54000 113.045
58.55000 112.259
58.56000 112.430
58.57000 116.808
58.58000 121.682
58.59000 125.420
58.60000 125.788
58.61000 125.933
58.62000 126.030
58.63000 120.030
58.64000 115.429
58.65000 114.891
58.66000 119.936
58.67000 125.012
58.68000 127.147
58.69000 126.645
58.70000 126.149
58.71000 123.291
58.72000 119.114
58.73000 115.131
58.74000 115.390
58.75000 117.378
58.76000 119.061
58.77000 117.366
58.78000 114.734
58.79000 112.399
58.80000 113.604
58.81000 115.213
58.82000 117.477
58.83000 122.573
58.84000 127.994
58.85000 129.780
58.86000 120.956
58.87000 111.451
58.88000 105.062
58.89000 111.905
58.90000 117.260
58.91000 120.357
58.92000 120.406
58.93000 120.441
58.94000 121.805
58.95000 124.339
58.96000 126.847
58.97000 127.432
58.98000 126.901
58.99000 126.323
59.00000 124.739
59.01000 122.752
59.02000 120.913
59.03000 120.678
59.04000 120.879
59.05000 121.058
59.06000 120.541
59.07000 119.986
59.08000 119.332
59.09000 118.261
59.10000 117.143
59.11000 115.664
59.12000 113.149
59.13000 110.570
59.14000 108.846
59.15000 108.359
59.16000 108.021
59.17000 108.656
59.18000 110.578
59.19000 112.508
59.20000 115.778
59.21000 120.204
59.22000 124.580
59.23000 126.929
59.24000 128.083
59.25000 129.134
59.26000 128.094
59.27000 126.232
59.28000 124.422
59.29000 123.158
59.30000 122.040
59.31000 121.054
59.32000 118.959
59.33000 116.983
59.34000 116.147
59.35000 120.057
59.36000 124.489
59.37000 126.331
59.38000 120.876
59.39000 114.981
59.40000 111.067
59.41000 110.900
59.42000 110.845
59.43000 114.038
59.44000 121.452
59.45000 128.872
59.46000 129.933
59.47000 125.615
59.48000 121.350
59.49000 120.978
59.50000 122.766
59.51000 124.478
59.52000 124.724
59.53000 124.402
59.54000 123.805
59.55000 120.392
59.56000 116.237
59.57000 112.580
59.58000 113.247
59.59000 114.468
59.60000 115.596
59.61000 116.350
59.62000 117.063
59.63000 117.724
59.64000 118.236
59.65000 118.741
59.66000 119.073
59.67000 121.942
59.68000 124.101
59.69000 125.292
59.70000 125.248
59.71000 125.201
59.72000 125.432
59.73000 125.895
59.74000 126.352
59.75000 122.936
59.76000 117.513
59.77000 112.421
59.78000 113.602
59.79000 117.170
59.80000 120.419
59.81000 120.465
59.82000 119.683
59.83000 118.998
59.84000 115.321
59.85000 111.726
59.86000 109.814
59.87000 114.660
59.88000 120.215
59.89000 124.754
59.90000 126.526
59.91000 128.142
59.92000 129.201
59.93000 126.337
59.94000 124.166
59.95000 122.586
59.96000 121.745
59.97000 120.903
59.98000 118.444
59.99000 114.669
60.00000 110.945
60.01000 110.596
60.02000 112.052
60.03000 113.457
60.04000 113.953
60.05000 114.109
60.06000 114.279
60.07000 114.589
60.08000 114.933
60.09000 115.235
60.10000 118.339
60.11000 121.401
60.12000 123.151
60.13000 119.729
60.14000 115.778
60.15000 114.415
60.16000 119.982
60.17000 125.929
60.18000 129.802
60.19000 123.504
60.20000 118.724
60.21000 117.261
60.22000 119.874
60.23000 122.493
60.24000 123.860
60.25000 124.226
60.26000 124.587
60.27000 123.590
60.28000 121.914
60.29000 120.342
60.30000 120.623
60.31000 121.584
60.32000 122.506
60.33000 123.048
60.34000 123.496
60.35000 123.886
60.36000 116.146
60.37000 108.389
60.38000 103.232
60.39000 108.145
60.40000 114.064
60.41000 118.453
60.42000 118.814
60.43000 118.963
60.44000 119.060
60.45000 113.773
60.46000 109.826
60.47000 109.895
60.48000 114.806
60.49000 119.716
60.50000 121.391
60.51000 120.528
60.52000 119.679
60.53000 118.689
60.54000 117.658
60.55000 116.697
60.56000 116.933
60.57000 117.601
60.58000 118.405
60.59000 120.470
60.60000 122.845
60.61000 124.910
60.62000 121.848
60.63000 118.534
60.64000 116.292
60.65000 118.134
60.66000 120.372
60.67000 122.870
60.68000 126.039
60.69000 129.242
60.70000 131.301
60.71000 125.863
60.72000 121.792
60.73000 121.199
60.74000 124.724
60.75000 128.241
60.76000 128.183
60.77000 125.371
60.78000 122.605
60.79000 121.384
60.80000 120.978
60.81000 120.647
60.82000 121.540
60.83000 122.867
60.84000 124.038
60.85000 123.779
60.86000 123.176
60.87000 122.654
60.88000 120.615
60.89000 118.676
60.90000 116.955
60.91000 116.053
60.92000 115.229
60.93000 115.255
60.94000 117.443
60.95000 119.738
60.96000 121.203
60.97000 119.838
60.98000 118.807
60.99000 118.335
61.00000 118.510
61.01000 118.688
61.02000 119.267
61.03000 120.149
61.04000 121.016
61.05000 122.811
61.06000 125.005
61.07000 127.135
61.08000 128.249
61.09000 129.008
61.10000 129.744
61.11000 130.279
61.12000 130.767
61.13000 131.188
61.14000 128.973
61.15000 126.746
61.16000 124.866
61.17000 124.261
61.18000 123.774
61.19000 124.455
61.20000 128.058
61.21000 131.801
61.22000 134.175
61.23000 129.112
61.24000 125.346
61.25000 124.966
61.26000 128.442
61.27000 131.910
61.28000 132.937
61.29000 132.154
61.30000 131.384
61.31000 129.633
61.32000 127.467
61.33000 125.485
61.34000 126.374
61.35000 128.247
61.36000 130.250
61.37000 133.378
61.38000 136.767
61.39000 139.689
61.40000 135.277
61.41000 130.600
61.42000 128.102
61.43000 133.464
61.44000 139.535
61.45000 143.795
61.46000 143.606
61.47000 143.212
61.48000 142.963
61.49000 142.310
61.50000 141.832
61.51000 144.817
61.52000 151.670
61.53000 158.549
61.54000 169.291
61.55000 182.847
61.56000 196.145
61.57000 211.733
61.58000 227.842
61.59000 243.594
61.60000 253.954
61.61000 262.497
61.62000 270.039
61.63000 269.081
61.64000 266.190
61.65000 263.705
61.66000 271.681
61.67000 279.735
61.68000 284.791
61.69000 279.225
61.70000 272.726
61.71000 269.890
61.72000 275.903
61.73000 282.308
61.74000 286.316
61.75000 280.575
61.76000 276.328
61.77000 265.379
61.78000 247.091
61.79000 228.842
61.80000 217.006
61.81000 209.758
61.82000 202.655
61.83000 187.728
61.84000 169.721
61.85000 152.383
61.86000 144.879
61.87000 140.632
61.88000 136.772
61.89000 136.110
61.90000 136.163
61.91000 136.208
61.92000 139.876
61.93000 143.413
61.94000 145.301
61.95000 141.441
61.96000 137.089
61.97000 132.507
61.98000 127.378
61.99000 122.225
62.00000 119.023
62.01000 117.677
62.02000 116.727
62.03000 120.248
62.04000 128.572
62.05000 136.841
62.06000 137.661
62.07000 133.246
62.08000 128.924
62.09000 129.527
62.10000 132.360
62.11000 134.918
62.12000 133.543
62.13000 130.888
62.14000 128.651
62.15000 129.813
62.16000 131.719
62.17000 133.347
62.18000 130.336
62.19000 127.248
62.20000 125.178
62.21000 126.592
62.22000 128.297
62.23000 129.722
62.24000 130.496
62.25000 131.242
62.26000 131.703
62.27000 127.118
62.28000 123.780
62.29000 122.789
62.30000 124.270
62.31000 125.746
62.32000 126.638
62.33000 127.126
62.34000 127.603
62.35000 126.530
62.36000 124.805
62.37000 123.076
62.38000 121.295
62.39000 119.497
62.40000 118.127
62.41000 120.141
62.42000 122.884
62.43000 125.219
62.44000 125.052
62.45000 124.620
62.46000 124.218
62.47000 123.916
62.48000 123.623
62.49000 124.444
62.50000 127.824
62.51000 131.305
62.52000 133.438
62.53000 131.905
62.54000 130.776
62.55000 131.457
62.56000 134.007
62.57000 136.529
62.58000 135.920
62.59000 133.189
62.60000 130.522
62.61000 129.628
62.62000 129.554
62.63000 129.451
62.64000 128.952
62.65000 128.328
62.66000 127.928
62.67000 129.262
62.68000 130.961
62.69000 132.403
62.70000 130.119
62.71000 127.781
62.72000 126.954
62.73000 131.117
62.74000 135.673
62.75000 136.689
62.76000 129.717
62.77000 122.442
62.78000 118.018
62.79000 124.468
62.80000 129.158
62.81000 130.063
62.82000 127.136
62.83000 124.242
62.84000 124.676
62.85000 127.327
62.86000 129.913
62.87000 131.240
62.88000 131.965
62.89000 132.607
62.90000 132.181
62.91000 131.423
62.92000 130.558
62.93000 128.879
62.94000 127.031
62.95000 125.468
62.96000 124.934
62.97000 124.602
62.98000 124.675
62.99000 126.064
63.00000 127.554
63.01000 128.201
63.02000 126.977
63.03000 125.685
63.04000 124.905
63.05000 128.518
63.06000 131.123
63.07000 133.111
63.08000 134.488
63.09000 135.852
63.10000 135.953
63.11000 135.229
63.12000 134.523
63.13000 134.068
63.14000 133.740
63.15000 133.546
63.16000 135.053
63.17000 137.076
63.18000 139.233
63.19000 142.383
63.20000 145.734
63.21000 148.560
63.22000 141.855
63.23000 135.227
63.24000 130.018
63.25000 129.338
63.26000 128.997
63.27000 129.794
63.28000 133.074
63.29000 136.440
63.30000 138.457
63.31000 131.689
63.32000 126.826
63.33000 127.102
63.34000 132.376
63.35000 137.583
63.36000 137.078
63.37000 132.904
63.38000 128.841
63.39000 130.073
63.40000 133.452
63.41000 136.392
63.42000 133.890
63.43000 129.763
63.44000 126.703
63.45000 131.390
63.46000 137.622
63.47000 142.858
63.48000 140.528
63.49000 137.789
63.50000 135.681
63.51000 135.552
63.52000 135.566
63.53000 135.802
63.54000 136.514
63.55000 137.242
63.56000 137.674
63.57000 138.403
63.58000 138.920
63.59000 138.009
63.60000 135.736
63.61000 133.465
63.62000 131.313
63.63000 129.237
63.64000 127.217
63.65000 130.450
63.66000 135.671
63.67000 140.613
63.68000 142.199
63.69000 142.801
63.70000 143.250
63.71000 142.620
63.72000 141.780
63.73000 141.076
63.74000 143.179
63.75000 145.216
63.76000 146.876
63.77000 147.375
63.78000 147.792
63.79000 146.234
63.80000 140.517
63.81000 134.667
63.82000 131.215
63.83000 129.091
63.84000 127.600
63.85000 131.969
63.86000 141.813
63.87000 151.533
63.88000 152.026
63.89000 146.800
63.90000 141.726
63.91000 140.263
63.92000 140.323
63.93000 140.434
63.94000 141.140
63.95000 142.018
63.96000 142.674
63.97000 141.786
63.98000 140.601
63.99000 139.612
64.00000 146.303
64.01000 152.622
64.02000 156.304
64.03000 151.998
64.04000 147.145
64.05000 143.058
64.06000 140.557
64.07000 138.104
64.08000 136.668
64.09000 141.518
64.10000 144.964
64.11000 147.990
64.12000 150.632
64.13000 153.259
64.14000 154.934
64.15000 156.029
64.16000 157.091
64.17000 151.211
64.18000 142.907
64.19000 135.549
64.20000 139.012
64.21000 145.538
64.22000 151.206
64.23000 151.020
64.24000 149.732
64.25000 148.661
64.26000 148.578
64.27000 148.606
64.28000 150.511
64.29000 158.002
64.30000 165.865
64.31000 169.015
64.32000 162.572
64.33000 155.849
64.34000 151.944
64.35000 153.107
64.36000 153.946
64.37000 154.564
64.38000 154.985
64.39000 155.417
64.40000 156.635
64.41000 158.323
64.42000 159.958
64.43000 157.109
64.44000 152.681
64.45000 148.714
64.46000 149.885
64.47000 152.485
64.48000 154.975
64.49000 156.731
64.50000 158.351
64.51000 159.694
64.52000 157.157
64.53000 154.692
64.54000 153.643
64.55000 156.733
64.56000 160.089
64.57000 162.003
64.58000 161.029
64.59000 159.974
64.60000 159.367
64.61000 162.142
64.62000 164.097
64.63000 165.225
64.64000 165.625
64.65000 166.033
64.66000 166.960
64.67000 168.191
64.68000 169.383
64.69000 169.737
64.70000 169.755
64.71000 169.911
64.72000 171.578
64.73000 173.658
64.74000 175.282
64.75000 173.930
64.76000 172.038
64.77000 170.477
64.78000 167.082
64.79000 164.113
64.80000 162.533
64.81000 164.943
64.82000 167.602
64.83000 170.510
64.84000 173.906
64.85000 177.316
64.86000 179.265
64.87000 181.947
64.88000 183.817
64.89000 181.498
64.90000 175.559
64.91000 169.703
64.92000 168.578
64.93000 170.186
64.94000 171.740
64.95000 177.366
64.96000 184.183
64.97000 190.500
64.98000 191.514
64.99000 191.103
65.00000 191.282
65.01000 195.236
65.02000 199.859
65.03000 203.662
65.04000 202.904
65.05000 201.868
65.06000 199.313
65.07000 192.466
65.08000 185.361
65.09000 181.361
65.10000 183.366
65.11000 185.522
65.12000 186.744
65.13000 192.748
65.14000 196.941
65.15000 201.071
65.16000 205.149
65.17000 209.152
65.18000 209.192
65.19000 206.983
65.20000 204.852
65.21000 211.142
65.22000 220.134
65.23000 228.417
65.24000 229.369
65.25000 228.389
65.26000 227.673
65.27000 228.614
65.28000 229.843
65.29000 230.850
65.30000 229.444
65.31000 228.077
65.32000 228.242
65.33000 232.664
65.34000 237.335
65.35000 241.236
65.36000 243.674
65.37000 246.076
65.38000 247.427
65.39000 251.443
65.40000 254.240
65.41000 258.674
65.42000 264.470
65.43000 270.301
65.44000 277.829
65.45000 286.305
65.46000 294.470
65.47000 301.529
65.48000 307.764
65.49000 313.400
65.50000 313.024
65.51000 311.090
65.52000 309.155
65.53000 307.211
65.54000 305.265
65.55000 303.677
65.56000 315.284
65.57000 325.918
65.58000 334.936
65.59000 339.539
65.60000 343.892
65.61000 354.220
65.62000 375.705
65.63000 397.444
65.64000 409.562
65.65000 430.154
65.66000 444.477
65.67000 481.995
65.68000 538.456
65.69000 595.519
65.70000 681.093
65.71000 782.298
65.72000 879.653
65.73000 995.492
65.74000 1110.599
65.75000 1224.868
65.76000 1330.896
65.77000 1434.829
65.78000 1536.490
65.79000 1624.477
65.80000 1710.176
65.81000 1779.888
65.82000 1816.763
65.83000 1844.116
65.84000 1864.324
65.85000 1865.352
65.86000 1865.327
65.87000 1865.361
65.88000 1865.506
65.89000 1865.654
65.90000 1865.735
65.91000 1812.564
65.92000 1775.721
65.93000 1716.324
65.94000 1638.853
65.95000 1560.651
65.96000 1449.761
65.97000 1321.259
65.98000 1197.824
65.99000 1075.929
66.00000 962.380
66.01000 850.932
66.02000 759.639
66.03000 673.382
66.04000 592.387
66.05000 542.440
66.06000 497.582
66.07000 461.231
66.08000 432.327
66.09000 409.391
66.10000 391.004
66.11000 384.620
66.12000 378.875
66.13000 372.991
66.14000 366.859
66.15000 360.721
66.16000 357.359
66.17000 348.954
66.18000 343.193
66.19000 345.041
66.20000 352.875
66.21000 360.543
66.22000 361.164
66.23000 358.053
66.24000 355.069
66.25000 370.980
66.26000 392.235
66.27000 413.528
66.28000 435.178
66.29000 456.915
66.30000 477.962
66.31000 495.014
66.32000 511.424
66.33000 524.671
66.34000 544.287
66.35000 560.735
66.36000 576.064
66.37000 588.490
66.38000 600.766
66.39000 610.746
66.40000 616.657
66.41000 622.490
66.42000 625.658
66.43000 609.633
66.44000 598.659
66.45000 596.698
66.46000 601.696
66.47000 606.272
66.48000 593.842
66.49000 572.560
66.50000 552.179
66.51000 527.054
66.52000 502.052
66.53000 477.916
66.54000 461.698
66.55000 447.388
66.56000 432.764
66.57000 416.360
66.58000 399.676
66.59000 386.261
66.60000 372.373
66.61000 361.075
66.62000 353.257
66.63000 354.312
66.64000 355.807
66.65000 355.702
66.66000 352.810
66.67000 349.868
66.68000 348.284
66.69000 343.066
66.70000 339.521
66.71000 341.432
66.72000 347.476
66.73000 353.379
66.74000 353.864
66.75000 351.578
66.76000 349.392
66.77000 348.070
66.78000 347.122
66.79000 346.312
66.80000 346.734
66.81000 347.446
66.82000 348.514
66.83000 351.554
66.84000 354.899
66.85000 357.577
66.86000 355.116
66.87000 352.739
66.88000 350.558
66.89000 348.869
66.90000 347.203
66.91000 346.095
66.92000 345.941
66.93000 345.803
66.94000 345.729
66.95000 344.199
66.96000 343.192
66.97000 349.163
66.98000 360.326
66.99000 371.267
67.00000 374.101
67.01000 372.860
67.02000 371.674
67.03000 370.272
67.04000 368.900
67.05000 368.145
67.06000 372.767
67.07000 378.638
67.08000 383.205
67.09000 380.666
67.10000 377.055
67.11000 374.174
67.12000 379.508
67.13000 384.414
67.14000 386.211
67.15000 380.348
67.16000 374.131
67.17000 370.754
67.18000 372.153
67.19000 373.627
67.20000 374.407
67.21000 374.126
67.22000 373.926
67.23000 372.215
67.24000 369.399
67.25000 366.586
67.26000 363.889
67.27000 361.248
67.28000 358.731
67.29000 370.775
67.30000 386.505
67.31000 400.068
67.32000 395.161
67.33000 386.042
67.34000 379.549
67.35000 387.092
67.36000 396.710
67.37000 404.351
67.38000 403.130
67.39000 401.518
67.40000 402.015
67.41000 407.623
67.42000 413.459
67.43000 418.823
67.44000 423.406
67.45000 427.978
67.46000 430.372
67.47000 421.792
67.48000 415.999
67.49000 413.187
67.50000 412.514
67.51000 411.799
67.52000 409.692
67.53000 406.909
67.54000 404.260
67.55000 409.754
67.56000 417.340
67.57000 424.369
67.58000 426.755
67.59000 428.102
67.60000 429.479
67.61000 431.014
67.62000 432.571
67.63000 433.804
67.64000 429.741
67.65000 426.111
67.66000 424.381
67.67000 427.172
67.68000 430.157
67.69000 430.360
67.70000 426.045
67.71000 421.667
67.72000 419.397
67.73000 429.964
67.74000 437.087
67.75000 442.508
67.76000 446.731
67.77000 450.767
67.78000 448.865
67.79000 444.129
67.80000 439.629
67.81000 446.397
67.82000 456.047
67.83000 464.306
67.84000 461.241
67.85000 455.686
67.86000 451.778
67.87000 456.341
67.88000 462.103
67.89000 466.643
67.90000 474.148
67.91000 480.362
67.92000 485.723
67.93000 489.090
67.94000 492.373
67.95000 492.767
67.96000 488.553
67.97000 484.279
67.98000 482.084
67.99000 481.279
68.00000 480.730
68.01000 479.238
68.02000 477.094
68.03000 475.105
68.04000 477.849
68.05000 482.813
68.06000 487.522
68.07000 487.763
68.08000 486.664
68.09000 485.877
68.10000 487.578
68.11000 489.815
68.12000 493.442
68.13000 504.086
68.14000 515.703
68.15000 524.818
68.16000 532.083
68.17000 537.773
68.18000 541.885
68.19000 542.370
68.20000 542.710
68.21000 543.246
68.22000 544.088
68.23000 544.934
68.24000 545.364
68.25000 548.029
68.26000 549.811
68.27000 551.124
68.28000 552.118
68.29000 553.126
68.30000 554.515
68.31000 556.081
68.32000 557.564
68.33000 556.928
68.34000 555.729
68.35000 556.075
68.36000 568.454
68.37000 583.380
68.38000 596.482
68.39000 600.556
68.40000 603.405
68.41000 605.630
68.42000 623.281
68.43000 638.339
68.44000 649.182
68.45000 650.492
68.46000 651.437
68.47000 651.582
68.48000 650.494
68.49000 649.392
68.50000 648.837
68.51000 670.417
68.52000 684.911
68.53000 706.752
68.54000 733.496
68.55000 759.721
68.56000 771.507
68.57000 776.744
68.58000 781.693
68.59000 800.358
68.60000 821.403
68.61000 844.116
68.62000 879.533
68.63000 917.589
68.64000 954.139
68.65000 983.378
68.66000 1011.645
68.67000 1033.638
68.68000 1084.703
68.69000 1127.138
68.70000 1173.761
68.71000 1229.697
68.72000 1285.974
68.73000 1331.457
68.74000 1360.622
68.75000 1389.621
68.76000 1424.693
68.77000 1465.804
68.78000 1506.963
68.79000 1552.569
68.80000 1601.092
68.81000 1650.201
68.82000 1714.985
68.83000 1786.757
68.84000 1854.469
68.85000 1929.322
68.86000 1999.924
68.87000 2082.228
68.88000 2251.680
68.89000 2438.899
68.90000 2674.000
68.91000 3137.317
68.92000 3630.274
68.93000 4012.147
68.94000 5717.122
68.95000 7149.978
68.96000 9000.220
68.97000 11762.593
68.98000 14557.023
68.99000 17606.357
69.00000 21034.166
69.01000 24465.438
69.02000 27602.406
69.03000 30452.248
69.04000 33292.902
69.05000 35336.902
69.06000 36867.973
69.07000 38377.789
69.08000 39342.207
69.09000 40067.582
69.10000 40750.695
69.11000 41452.582
69.12000 42099.805
69.13000 42752.633
69.14000 43446.285
69.15000 44148.105
69.16000 44788.023
69.17000 45138.395
69.18000 45451.980
69.19000 45693.840
69.20000 44035.660
69.21000 42612.133
69.22000 40704.445
69.23000 37756.695
69.24000 34773.922
69.25000 32050.691
69.26000 29705.941
69.27000 27364.570
69.28000 25507.365
69.29000 24113.207
69.30000 22725.508
69.31000 21856.393
69.32000 21315.287
69.33000 20783.063
69.34000 20469.938
69.35000 20251.211
69.36000 20045.607
69.37000 19394.672
69.38000 18680.807
69.39000 17891.428
69.40000 16563.488
69.41000 15129.858
69.42000 13616.853
69.43000 11739.438
69.44000 9816.755
69.45000 8340.451
69.46000 6743.439
69.47000 5474.251
69.48000 4375.153
69.49000 3635.226
69.50000 2906.875
69.51000 2348.703
69.52000 2034.250
69.53000 1721.724
69.54000 1507.588
69.55000 1385.701
69.56000 1264.392
69.57000 1186.117
69.58000 1134.583
69.59000 1083.315
69.60000 1038.352
69.61000 996.058
69.62000 956.377
69.63000 914.392
69.64000 875.529
69.65000 839.340
69.66000 821.823
69.67000 807.901
69.68000 794.299
69.69000 782.143
69.70000 770.164
69.71000 761.006
69.72000 720.842
69.73000 687.487
69.74000 665.449
69.75000 666.903
69.76000 669.081
69.77000 671.124
69.78000 672.975
69.79000 674.824
69.80000 658.003
69.81000 624.048
69.82000 590.402
69.83000 578.194
69.84000 579.074
69.85000 579.750
69.86000 575.777
69.87000 569.868
69.88000 564.334
69.89000 554.651
69.90000 544.774
69.91000 536.301
69.92000 537.422
69.93000 540.356
69.94000 540.393
69.95000 527.619
69.96000 513.324
69.97000 502.446
69.98000 496.083
69.99000 491.314
70.00000 489.039
