20.00000 480.811
20.01000 482.894
20.02000 485.274
20.03000 486.724
20.04000 484.506
20.05000 481.912
20.06000 479.996
20.07000 480.743
20.08000 481.434
20.09000 481.946
20.10000 482.131
20.11000 482.310
20.12000 481.752
20.13000 480.290
20.14000 478.828
20.15000 478.165
20.16000 478.139
20.17000 478.021
20.18000 473.803
20.19000 467.381
20.20000 461.333
20.21000 461.903
20.22000 464.905
20.23000 467.674
20.24000 468.827
20.25000 469.499
20.26000 470.045
20.27000 469.842
20.28000 469.516
20.29000 467.845
20.30000 460.963
20.31000 453.561
20.32000 448.122
20.33000 456.633
20.34000 463.784
20.35000 467.976
20.36000 466.848
20.37000 465.612
20.38000 462.418
20.39000 456.862
20.40000 451.312
20.41000 455.616
20.42000 467.585
20.43000 479.371
20.44000 483.460
20.45000 483.486
20.46000 482.965
20.47000 473.082
20.48000 459.819
20.49000 447.608
20.50000 450.921
20.51000 457.281
20.52000 462.814
20.53000 463.582
20.54000 463.588
20.55000 464.828
20.56000 470.761
20.57000 477.149
20.58000 481.820
20.59000 474.817
20.60000 468.956
20.61000 466.870
20.62000 471.454
20.63000 476.166
20.64000 477.602
20.65000 475.166
20.66000 472.728
20.67000 470.979
20.68000 469.767
20.69000 468.704
20.70000 473.541
20.71000 481.441
20.72000 488.786
20.73000 486.922
20.74000 481.789
20.75000 477.075
20.76000 475.674
20.77000 475.135
20.78000 474.503
20.79000 473.351
20.80000 472.116
20.81000 468.654
20.82000 456.869
20.83000 444.294
20.84000 435.148
20.85000 446.531
20.86000 456.069
20.87000 467.073
20.88000 480.621
20.89000 494.215
20.90000 493.205
20.91000 475.249
20.92000 457.319
20.93000 449.759
20.94000 450.032
20.95000 450.662
20.96000 464.825
20.97000 485.890
20.98000 505.039
20.99000 493.362
21.00000 470.933
21.01000 450.374
21.02000 454.499
21.03000 463.359
21.04000 469.756
21.05000 462.513
21.06000 453.176
21.07000 447.463
21.08000 455.055
21.09000 463.877
21.10000 470.261
21.11000 457.970
21.12000 447.852
21.13000 444.067
21.14000 451.086
21.15000 458.288
21.16000 463.256
21.17000 465.684
21.18000 468.102
21.19000 466.554
21.20000 462.099
21.21000 457.815
21.22000 459.734
21.23000 464.762
21.24000 469.307
21.25000 466.328
21.26000 460.768
21.27000 455.684
21.28000 464.901
21.29000 476.037
21.30000 483.996
21.31000 474.688
21.32000 462.782
21.33000 455.162
21.34000 462.991
21.35000 472.213
21.36000 478.851
21.37000 467.332
21.38000 457.872
21.39000 454.308
21.40000 460.625
21.41000 467.098
21.42000 467.367
21.43000 460.709
21.44000 454.069
21.45000 458.911
21.46000 472.004
21.47000 484.547
21.48000 478.152
21.49000 462.425
21.50000 447.604
21.51000 446.499
21.52000 450.017
21.53000 453.227
21.54000 461.137
21.55000 469.102
21.56000 475.829
21.57000 475.961
21.58000 475.121
21.59000 473.957
21.60000 471.639
21.61000 469.220
21.62000 467.487
21.63000 470.705
21.64000 473.330
21.65000 475.155
21.66000 475.662
21.67000 476.149
21.68000 472.651
21.69000 464.788
21.70000 456.953
21.71000 456.662
21.72000 461.716
21.73000 466.810
21.74000 473.216
21.75000 480.259
21.76000 487.058
21.77000 490.278
21.78000 492.313
21.79000 494.165
21.80000 491.379
21.81000 487.996
21.82000 483.998
21.83000 476.781
21.84000 469.099
21.85000 464.844
21.86000 472.510
21.87000 481.196
21.88000 487.382
21.89000 496.760
21.90000 504.009
21.91000 508.431
21.92000 508.278
21.93000 508.062
21.94000 508.068
21.95000 508.312
21.96000 508.555
21.97000 508.084
21.98000 507.120
21.99000 506.350
22.00000 511.699
22.01000 519.961
22.02000 527.167
22.03000 519.317
22.04000 506.565
22.05000 494.984
22.06000 498.456
22.07000 504.435
22.08000 509.897
22.09000 512.709
22.10000 515.147
22.11000 516.554
22.12000 514.436
22.13000 512.025
22.14000 510.317
22.15000 508.003
22.16000 506.226
22.17000 505.536
22.18000 506.575
22.19000 507.635
22.20000 508.068
22.21000 507.839
22.22000 507.612
22.23000 503.453
22.24000 496.663
22.25000 490.017
22.26000 487.723
22.27000 487.466
22.28000 487.137
22.29000 485.811
22.30000 484.167
22.31000 482.676
22.32000 484.588
22.33000 486.917
22.34000 488.130
22.35000 483.725
22.36000 478.544
22.37000 474.813
22.38000 475.957
22.39000 477.497
22.40000 478.581
22.41000 474.063
22.42000 470.469
22.43000 467.887
22.44000 466.883
22.45000 465.898
22.46000 466.923
22.47000 470.021
22.48000 473.103
22.49000 470.802
22.50000 464.930
22.51000 459.210
22.52000 457.899
22.53000 458.617
22.54000 459.173
22.55000 457.550
22.56000 455.244
22.57000 453.159
22.58000 454.470
22.59000 456.253
22.60000 457.935
22.61000 459.122
22.62000 460.242
22.63000 461.114
22.64000 461.170
22.65000 461.162
22.66000 461.156
22.67000 470.213
22.68000 477.323
22.69000 477.983
22.70000 468.749
22.71000 459.407
22.72000 457.249
22.73000 462.359
22.74000 467.439
22.75000 465.300
22.76000 458.452
22.77000 451.674
22.78000 446.825
22.79000 442.848
22.80000 438.892
22.81000 435.207
22.82000 431.607
22.83000 428.360
22.84000 433.622
22.85000 439.788
22.86000 445.652
22.87000 450.059
22.88000 454.273
22.89000 456.270
22.90000 451.069
22.91000 445.317
22.92000 441.309
22.93000 441.954
22.94000 442.568
22.95000 441.148
22.96000 436.661
22.97000 432.144
22.98000 433.606
22.99000 440.997
23.00000 448.339
23.01000 451.991
23.02000 453.214
23.03000 454.294
23.04000 451.604
23.05000 447.237
23.06000 442.873
23.07000 438.534
23.08000 434.202
23.09000 430.308
23.10000 432.243
23.11000 434.976
23.12000 437.144
23.13000 436.627
23.14000 435.763
23.15000 434.953
23.16000 434.315
23.17000 433.690
23.18000 433.257
23.19000 437.735
23.20000 441.234
23.21000 446.938
23.22000 455.907
23.23000 464.905
23.24000 463.129
23.25000 450.883
23.26000 438.724
23.27000 434.722
23.28000 435.937
23.29000 437.277
23.30000 441.816
23.31000 447.753
23.32000 453.078
23.33000 450.828
23.34000 446.318
23.35000 442.273
23.36000 438.921
23.37000 436.113
23.38000 434.076
23.39000 435.637
23.40000 437.653
23.41000 439.180
23.42000 439.176
23.43000 439.060
23.44000 438.980
23.45000 437.761
23.46000 436.818
23.47000 436.932
23.48000 438.584
23.49000 440.249
23.50000 443.188
23.51000 447.340
23.52000 451.461
23.53000 444.604
23.54000 431.061
23.55000 418.290
23.56000 424.476
23.57000 438.804
23.58000 452.202
23.59000 454.380
23.60000 453.268
23.61000 452.274
23.62000 460.618
23.63000 469.490
23.64000 476.631
23.65000 475.850
23.66000 474.088
23.67000 473.086
23.68000 474.420
23.69000 475.918
23.70000 476.945
23.71000 477.386
23.72000 477.703
23.73000 477.870
23.74000 477.822
23.75000 477.774
23.76000 481.727
23.77000 489.418
23.78000 497.044
23.79000 499.986
23.80000 500.025
23.81000 500.049
23.82000 499.716
23.83000 499.234
23.84000 499.341
23.85000 506.367
23.86000 515.388
23.87000 523.437
23.88000 529.485
23.89000 534.415
23.90000 538.802
23.91000 540.750
23.92000 542.403
23.93000 543.808
23.94000 544.465
23.95000 545.070
23.96000 545.483
23.97000 556.561
23.98000 565.079
23.99000 564.954
24.00000 552.709
24.01000 540.384
24.02000 535.496
24.03000 537.420
24.04000 539.326
24.05000 537.470
24.06000 533.405
24.07000 529.246
24.08000 522.975
24.09000 515.827
24.10000 509.357
24.11000 510.632
24.12000 514.100
24.13000 517.186
24.14000 515.186
24.15000 512.618
24.16000 509.603
24.17000 504.613
24.18000 499.389
24.19000 493.886
24.20000 487.552
24.21000 481.164
24.22000 476.840
24.23000 490.189
24.24000 500.521
24.25000 498.897
24.26000 480.815
24.27000 462.637
24.28000 451.968
24.29000 448.043
24.30000 444.157
24.31000 442.903
24.32000 443.218
24.33000 443.349
24.34000 439.483
24.35000 433.984
24.36000 429.009
24.37000 429.860
24.38000 432.331
24.39000 434.524
24.40000 431.130
24.41000 427.296
24.42000 424.236
24.43000 424.532
24.44000 425.216
24.45000 427.945
24.46000 436.654
24.47000 445.749
24.48000 451.867
24.49000 452.072
24.50000 452.102
24.51000 447.023
24.52000 435.037
24.53000 423.024
24.54000 422.154
24.55000 431.102
24.56000 439.957
24.57000 443.325
24.58000 443.464
24.59000 443.429
24.60000 439.718
24.61000 434.532
24.62000 429.709
24.63000 428.828
24.64000 429.024
24.65000 429.197
24.66000 422.011
24.67000 414.644
24.68000 408.439
24.69000 407.174
24.70000 406.466
24.71000 405.975
24.72000 406.108
24.73000 406.280
24.74000 406.394
24.75000 409.237
24.76000 411.398
24.77000 415.343
24.78000 421.658
24.79000 427.972
24.80000 425.293
24.81000 414.842
24.82000 404.507
24.83000 397.515
24.84000 392.573
24.85000 388.020
24.86000 391.394
24.87000 397.895
24.88000 403.860
24.89000 404.168
24.90000 402.958
24.91000 401.889
24.92000 409.297
24.93000 416.987
24.94000 422.473
24.95000 418.754
24.96000 414.020
24.97000 410.485
24.98000 410.336
24.99000 410.392
25.00000 410.429
25.01000 407.580
25.02000 405.419
25.03000 403.367
25.04000 401.457
25.05000 399.550
25.06000 399.231
25.07000 400.256
25.08000 401.270
25.09000 406.053
25.10000 412.804
25.11000 419.258
25.12000 419.877
25.13000 418.233
25.14000 416.636
25.15000 415.515
25.16000 414.520
25.17000 413.644
25.18000 408.779
25.19000 403.993
25.20000 399.984
25.21000 399.163
25.22000 398.685
25.23000 398.069
25.24000 397.072
25.25000 396.053
25.26000 395.379
25.27000 401.711
25.28000 406.504
25.29000 410.011
25.30000 411.871
25.31000 413.720
25.32000 412.403
25.33000 408.455
25.34000 404.557
25.35000 403.272
25.36000 403.442
25.37000 403.696
25.38000 405.568
25.39000 408.057
25.40000 410.237
25.41000 409.303
25.42000 407.562
25.43000 406.034
25.44000 401.696
25.45000 397.557
25.46000 397.005
25.47000 410.894
25.48000 426.301
25.49000 434.670
25.50000 423.828
25.51000 411.896
25.52000 404.067
25.53000 402.743
25.54000 401.878
25.55000 401.771
25.56000 402.615
25.57000 403.463
25.58000 404.696
25.59000 406.242
25.60000 407.768
25.61000 403.532
25.62000 396.342
25.63000 389.525
25.64000 389.542
25.65000 392.121
25.66000 394.975
25.67000 400.536
25.68000 406.786
25.69000 412.257
25.70000 408.156
25.71000 403.267
25.72000 399.513
25.73000 400.247
25.74000 401.441
25.75000 403.965
25.76000 410.057
25.77000 416.344
25.78000 420.444
25.79000 400.569
25.80000 385.609
25.81000 380.763
25.82000 388.377
25.83000 395.995
25.84000 394.097
25.85000 384.575
25.86000 375.189
25.87000 377.947
25.88000 386.977
25.89000 395.409
25.90000 393.220
25.91000 387.119
25.92000 381.837
25.93000 384.412
25.94000 388.948
25.95000 392.908
25.96000 397.203
25.97000 400.926
25.98000 403.024
25.99000 398.818
26.00000 393.982
26.01000 390.899
26.02000 392.443
26.03000 394.232
26.04000 395.391
26.05000 396.754
26.06000 397.754
26.07000 396.857
26.08000 393.666
26.09000 390.480
26.10000 390.146
26.11000 392.055
26.12000 393.934
26.13000 399.488
26.14000 406.761
26.15000 413.245
26.16000 406.153
26.17000 394.148
26.18000 383.772
26.19000 388.646
26.20000 397.260
26.21000 404.757
26.22000 403.249
26.23000 400.728
26.24000 397.720
26.25000 392.856
26.26000 387.811
26.27000 385.226
26.28000 389.021
26.29000 393.144
26.30000 395.797
26.31000 394.783
26.32000 393.992
26.33000 391.696
26.34000 387.615
26.35000 383.534
26.36000 380.250
26.37000 377.582
26.38000 374.957
26.39000 374.413
26.40000 374.935
26.41000 375.873
26.42000 383.745
26.43000 394.084
26.44000 402.673
26.45000 395.289
26.46000 384.057
26.47000 374.310
26.48000 376.463
26.49000 379.891
26.50000 381.933
26.51000 378.784
26.52000 375.142
26.53000 372.463
26.54000 372.243
26.55000 372.144
26.56000 372.081
26.57000 389.482
26.58000 402.378
26.59000 404.897
26.60000 395.341
26.61000 385.790
26.62000 380.845
26.63000 379.390
26.64000 377.961
26.65000 375.222
26.66000 371.928
26.67000 368.820
26.68000 368.705
26.69000 369.637
26.70000 370.626
26.71000 372.124
26.72000 373.741
26.73000 375.140
26.74000 380.193
26.75000 384.966
26.76000 388.070
26.77000 385.031
26.78000 381.422
26.79000 378.731
26.80000 378.336
26.81000 378.052
26.82000 377.871
26.83000 383.958
26.84000 388.453
26.85000 389.059
26.86000 385.224
26.87000 381.399
26.88000 380.388
26.89000 381.471
26.90000 382.535
26.91000 381.546
26.92000 379.596
26.93000 377.814
26.94000 378.660
26.95000 380.410
26.96000 382.300
26.97000 385.418
26.98000 388.820
26.99000 391.754
27.00000 384.823
27.01000 377.681
27.02000 372.485
27.03000 374.320
27.04000 376.791
27.05000 378.328
27.06000 377.565
27.07000 376.694
27.08000 376.146
27.09000 375.925
27.10000 375.769
27.11000 374.642
27.12000 372.428
27.13000 370.259
27.14000 375.817
27.15000 387.018
27.16000 398.007
27.17000 393.289
27.18000 381.264
27.19000 369.861
27.20000 367.916
27.21000 369.166
27.22000 370.941
27.23000 377.180
27.24000 384.438
27.25000 390.678
27.26000 388.132
27.27000 384.878
27.28000 381.787
27.29000 379.273
27.30000 376.810
27.31000 375.326
27.32000 376.212
27.33000 377.203
27.34000 377.824
27.35000 375.767
27.36000 374.252
27.37000 373.250
27.38000 372.809
27.39000 372.351
27.40000 369.272
27.41000 364.314
27.42000 359.454
27.43000 360.153
27.44000 363.423
27.45000 366.798
27.46000 371.708
27.47000 377.127
27.48000 381.866
27.49000 380.938
27.50000 378.743
27.51000 376.860
27.52000 378.420
27.53000 380.158
27.54000 380.216
27.55000 374.413
27.56000 368.107
27.57000 362.978
27.58000 360.648
27.59000 358.438
27.60000 357.063
27.61000 362.764
27.62000 366.940
27.63000 372.503
27.64000 379.558
27.65000 386.575
27.66000 388.245
27.67000 386.152
27.68000 384.102
27.69000 383.458
27.70000 383.484
27.71000 383.462
27.72000 382.761
27.73000 381.838
27.74000 381.364
27.75000 384.539
27.76000 388.516
27.77000 391.914
27.78000 383.278
27.79000 374.565
27.80000 368.836
27.81000 373.337
27.82000 378.694
27.83000 381.112
27.84000 376.655
27.85000 371.914
27.86000 368.986
27.87000 369.777
27.88000 370.380
27.89000 369.783
27.90000 367.920
27.91000 366.096
27.92000 369.165
27.93000 375.618
27.94000 381.928
27.95000 375.129
27.96000 362.709
27.97000 351.101
27.98000 350.808
27.99000 354.144
28.00000 357.677
28.01000 362.780
28.02000 368.222
28.03000 372.857
28.04000 378.272
28.05000 382.916
28.06000 386.135
28.07000 384.558
28.08000 382.590
28.09000 378.492
28.10000 369.493
28.11000 360.299
28.12000 354.663
28.13000 360.363
28.14000 364.544
28.15000 367.034
28.16000 367.775
28.17000 368.536
28.18000 371.584
28.19000 376.184
28.20000 380.678
28.21000 378.418
28.22000 373.271
28.23000 368.313
28.24000 365.913
28.25000 364.318
28.26000 363.279
28.27000 366.555
28.28000 370.746
28.29000 374.303
28.30000 362.934
28.31000 351.698
28.32000 345.569
28.33000 356.347
28.34000 368.463
28.35000 375.828
28.36000 372.450
28.37000 368.664
28.38000 366.359
28.39000 368.879
28.40000 370.716
28.41000 372.723
28.42000 374.899
28.43000 377.026
28.44000 374.102
28.45000 367.807
28.46000 361.665
28.47000 359.279
28.48000 358.625
28.49000 358.113
28.50000 359.464
28.51000 361.393
28.52000 364.370
28.53000 375.324
28.54000 387.934
28.55000 398.605
28.56000 388.158
28.57000 377.068
28.58000 367.927
28.59000 365.122
28.60000 362.806
28.61000 360.636
28.62000 358.790
28.63000 356.956
28.64000 355.849
28.65000 355.351
28.66000 355.001
28.67000 356.236
28.68000 359.049
28.69000 361.841
28.70000 362.748
28.71000 362.420
28.72000 362.100
28.73000 363.882
28.74000 366.477
28.75000 368.698
28.76000 366.136
28.77000 362.117
28.78000 358.751
28.79000 360.243
28.80000 362.726
28.81000 364.819
28.82000 365.884
28.83000 366.662
28.84000 367.356
28.85000 367.781
28.86000 368.185
28.87000 367.993
28.88000 366.501
28.89000 364.963
28.90000 364.040
28.91000 359.881
28.92000 356.906
28.93000 356.823
28.94000 359.559
28.95000 362.300
28.96000 365.499
28.97000 368.992
28.98000 372.394
28.99000 370.652
29.00000 366.845
29.01000 362.993
29.02000 358.564
29.03000 353.963
29.04000 351.123
29.05000 361.113
29.06000 373.667
29.07000 384.218
29.08000 370.000
29.09000 355.530
29.10000 345.565
29.11000 349.750
29.12000 354.966
29.13000 359.022
29.14000 360.590
29.15000 362.074
29.16000 362.957
29.17000 360.011
29.18000 357.900
29.19000 358.385
29.20000 361.349
29.21000 364.343
29.22000 369.752
29.23000 376.686
29.24000 383.430
29.25000 379.222
29.26000 370.733
29.27000 362.861
29.28000 362.460
29.29000 364.255
29.30000 365.426
29.31000 362.153
29.32000 358.008
29.33000 354.536
29.34000 358.181
29.35000 361.946
29.36000 363.205
29.37000 356.729
29.38000 349.705
29.39000 348.337
29.40000 358.906
29.41000 369.859
29.42000 376.329
29.43000 366.027
29.44000 358.660
29.45000 354.785
29.46000 354.183
29.47000 353.628
29.48000 356.643
29.49000 361.877
29.50000 366.959
29.51000 370.526
29.52000 373.304
29.53000 375.215
29.54000 366.913
29.55000 355.663
29.56000 347.171
29.57000 357.929
29.58000 372.392
29.59000 384.465
29.60000 380.796
29.61000 376.167
29.62000 371.748
29.63000 367.968
29.64000 364.232
29.65000 362.373
29.66000 364.412
29.67000 366.571
29.68000 367.836
29.69000 361.555
29.70000 357.094
29.71000 352.078
29.72000 346.552
29.73000 341.190
29.74000 347.137
29.75000 359.984
29.76000 372.446
29.77000 375.894
29.78000 375.606
29.79000 375.239
29.80000 373.978
29.81000 372.464
29.82000 372.446
29.83000 382.654
29.84000 394.793
29.85000 404.890
29.86000 395.348
29.87000 385.520
29.88000 376.695
29.89000 370.858
29.90000 365.220
29.91000 361.649
29.92000 362.292
29.93000 363.059
29.94000 363.505
29.95000 367.212
29.96000 369.829
29.97000 371.860
29.98000 373.363
29.99000 374.857
30.00000 375.701
30.01000 376.155
30.02000 376.595
30.03000 383.949
30.04000 393.583
30.05000 402.126
30.06000 398.466
30.07000 391.405
30.08000 384.971
30.09000 382.741
30.10000 381.290
30.11000 380.086
30.12000 391.021
30.13000 401.214
30.14000 406.775
30.15000 398.755
30.16000 389.856
30.17000 381.617
30.18000 374.702
30.19000 367.823
30.20000 363.856
30.21000 365.552
30.22000 366.761
30.23000 366.080
30.24000 363.730
30.25000 361.438
30.26000 362.614
30.27000 365.833
30.28000 368.948
30.29000 372.959
30.30000 377.089
30.31000 380.780
30.32000 379.699
30.33000 377.311
30.34000 374.693
30.35000 370.575
30.36000 366.185
30.37000 362.559
30.38000 369.049
30.39000 375.341
30.40000 379.846
30.41000 379.202
30.42000 378.235
30.43000 376.396
30.44000 372.837
30.45000 369.233
30.46000 367.170
30.47000 368.419
30.48000 369.300
30.49000 368.974
30.50000 367.599
30.51000 366.267
30.52000 367.285
30.53000 369.663
30.54000 371.962
30.55000 372.603
30.56000 372.590
30.57000 372.493
30.58000 371.514
30.59000 370.298
30.60000 369.327
30.61000 369.930
30.62000 370.814
30.63000 371.541
30.64000 375.812
30.65000 379.645
30.66000 382.551
30.67000 382.831
30.68000 382.950
30.69000 383.780
30.70000 385.983
30.71000 388.221
30.72000 389.491
30.73000 395.289
30.74000 399.334
30.75000 399.584
30.76000 396.607
30.77000 393.670
30.78000 392.810
30.79000 393.131
30.80000 393.441
30.81000 396.136
30.82000 399.545
30.83000 402.680
30.84000 402.981
30.85000 402.534
30.86000 403.075
30.87000 409.822
30.88000 417.653
30.89000 424.074
30.90000 419.807
30.91000 415.360
30.92000 412.464
30.93000 413.883
30.94000 415.558
30.95000 418.206
30.96000 422.707
30.97000 427.253
30.98000 429.811
30.99000 450.732
31.00000 465.288
31.01000 472.183
31.02000 472.688
31.03000 473.352
31.04000 482.082
31.05000 495.322
31.06000 508.078
31.07000 519.267
31.08000 529.216
31.09000 540.269
31.10000 562.480
31.11000 587.588
31.12000 612.845
31.13000 639.022
31.14000 665.356
31.15000 686.868
31.16000 698.604
31.17000 707.365
31.18000 717.832
31.19000 732.968
31.20000 748.370
31.21000 769.901
31.22000 802.898
31.23000 836.159
31.24000 854.720
31.25000 882.191
31.26000 901.229
31.27000 922.018
31.28000 944.238
31.29000 966.258
31.30000 978.686
31.31000 985.843
31.32000 992.730
31.33000 1009.184
31.34000 1027.984
31.35000 1045.546
31.36000 1050.910
31.37000 1053.164
31.38000 1052.794
31.39000 1036.589
31.40000 1017.729
31.41000 1002.381
31.42000 994.231
31.43000 988.181
31.44000 979.659
31.45000 964.486
31.46000 948.946
31.47000 931.806
31.48000 911.726
31.49000 891.581
31.50000 880.435
31.51000 850.593
31.52000 829.961
31.53000 808.091
31.54000 785.227
31.55000 762.385
31.56000 740.569
31.57000 719.307
31.58000 698.880
31.59000 684.317
31.60000 672.711
31.61000 659.814
31.62000 634.506
31.63000 606.090
31.64000 578.900
31.65000 558.957
31.66000 540.205
31.67000 525.002
31.68000 516.178
31.69000 509.510
31.70000 502.802
31.71000 495.986
31.72000 489.165
31.73000 478.975
31.74000 462.699
31.75000 446.298
31.76000 437.302
31.77000 441.370
31.78000 444.171
31.79000 441.335
31.80000 434.057
31.81000 426.797
31.82000 420.273
31.83000 414.141
31.84000 408.258
31.85000 403.365
31.86000 399.129
31.87000 394.567
31.88000 386.943
31.89000 378.566
31.90000 372.354
31.91000 378.695
31.92000 387.056
31.93000 393.810
31.94000 382.411
31.95000 371.698
31.96000 364.328
31.97000 365.646
31.98000 367.412
31.99000 368.244
32.00000 367.419
32.01000 366.561
32.02000 366.094
32.03000 358.821
32.04000 353.836
32.05000 352.139
32.06000 352.985
32.07000 353.768
32.08000 352.020
32.09000 348.953
32.10000 346.014
32.11000 344.175
32.12000 342.826
32.13000 341.904
32.14000 344.902
32.15000 348.846
32.16000 352.217
32.17000 352.329
32.18000 351.927
32.19000 351.603
32.20000 354.430
32.21000 356.967
32.22000 360.219
32.23000 365.301
32.24000 370.473
32.25000 371.296
32.26000 364.526
32.27000 357.618
32.28000 353.895
32.29000 345.692
32.30000 340.097
32.31000 338.700
32.32000 340.492
32.33000 342.261
32.34000 343.113
32.35000 343.496
32.36000 343.863
32.37000 339.219
32.38000 333.261
32.39000 328.144
32.40000 330.549
32.41000 334.738
32.42000 338.143
32.43000 337.181
32.44000 335.544
32.45000 334.232
32.46000 332.185
32.47000 330.474
32.48000 329.763
32.49000 331.566
32.50000 333.489
32.51000 336.235
32.52000 340.390
32.53000 344.570
32.54000 346.802
32.55000 334.725
32.56000 326.534
32.57000 328.420
32.58000 337.821
32.59000 346.938
32.60000 345.649
32.61000 339.118
32.62000 332.880
32.63000 330.665
32.64000 329.894
32.65000 329.255
32.66000 329.762
32.67000 330.537
32.68000 331.153
32.69000 330.907
32.70000 330.529
32.71000 330.228
32.72000 328.889
32.73000 327.732
32.74000 325.665
32.75000 321.352
32.76000 316.936
32.77000 317.503
32.78000 326.467
32.79000 335.566
32.80000 340.381
32.81000 341.966
32.82000 343.016
32.83000 339.840
32.84000 333.570
32.85000 327.390
32.86000 324.349
32.87000 322.863
32.88000 321.447
32.89000 321.117
32.90000 321.153
32.91000 321.800
32.92000 327.661
32.93000 334.715
32.94000 338.928
32.95000 327.913
32.96000 314.642
32.97000 304.092
32.98000 308.026
32.99000 312.228
33.00000 314.709
33.01000 313.014
33.02000 311.133
33.03000 311.308
33.04000 314.888
33.05000 318.518
33.06000 320.422
33.07000 314.433
33.08000 310.375
33.09000 306.486
33.10000 302.717
33.11000 299.044
33.12000 298.558
33.13000 299.622
33.14000 300.635
33.15000 305.794
33.16000 311.845
33.17000 317.459
33.18000 319.415
33.19000 320.550
33.20000 320.057
33.21000 311.008
33.22000 300.717
33.23000 292.571
33.24000 296.768
33.25000 300.997
33.26000 304.564
33.27000 306.550
33.28000 308.468
33.29000 307.644
33.30000 302.360
33.31000 297.013
33.32000 294.236
33.33000 297.183
33.34000 299.178
33.35000 301.783
33.36000 304.818
33.37000 307.716
33.38000 306.244
33.39000 302.680
33.40000 299.293
33.41000 300.264
33.42000 302.477
33.43000 304.810
33.44000 308.113
33.45000 311.631
33.46000 314.157
33.47000 311.572
33.48000 308.261
33.49000 305.651
33.50000 306.422
33.51000 307.269
33.52000 306.750
33.53000 303.027
33.54000 299.171
33.55000 298.933
33.56000 304.474
33.57000 310.091
33.58000 312.980
33.59000 299.982
33.60000 291.322
33.61000 293.851
33.62000 304.137
33.63000 314.077
33.64000 313.471
33.65000 307.904
33.66000 302.623
33.67000 301.956
33.68000 302.708
33.69000 303.055
33.70000 300.155
33.71000 296.554
33.72000 294.220
33.73000 298.295
33.74000 303.261
33.75000 307.160
33.76000 305.751
33.77000 304.277
33.78000 304.188
33.79000 307.290
33.80000 310.519
33.81000 310.863
33.82000 306.674
33.83000 302.431
33.84000 300.269
33.85000 303.960
33.86000 306.458
33.87000 311.415
33.88000 318.047
33.89000 324.332
33.90000 320.518
33.91000 312.033
33.92000 303.998
33.93000 300.433
33.94000 298.453
33.95000 297.334
33.96000 302.943
33.97000 309.979
33.98000 315.643
33.99000 314.497
34.00000 312.424
34.01000 310.803
34.02000 315.952
34.03000 320.492
34.04000 323.045
34.05000 321.094
34.06000 318.970
34.07000 318.364
34.08000 320.100
34.09000 321.861
34.10000 322.750
34.11000 333.998
34.12000 341.431
34.13000 339.749
34.14000 331.970
34.15000 324.485
34.16000 325.215
34.17000 329.678
34.18000 333.898
34.19000 338.473
34.20000 342.778
34.21000 346.104
34.22000 341.962
34.23000 336.264
34.24000 332.118
34.25000 335.529
34.26000 339.946
34.27000 343.385
34.28000 331.657
34.29000 321.384
34.30000 315.475
34.31000 319.290
34.32000 323.463
34.33000 325.126
34.34000 322.987
34.35000 320.809
34.36000 322.578
34.37000 328.283
34.38000 333.935
34.39000 334.581
34.40000 331.939
34.41000 329.423
34.42000 330.305
34.43000 332.706
34.44000 334.972
34.45000 337.301
34.46000 339.455
34.47000 340.651
34.48000 334.702
34.49000 327.294
34.50000 322.448
34.51000 329.850
34.52000 338.846
34.53000 345.819
34.54000 334.890
34.55000 325.138
34.56000 317.573
34.57000 314.798
34.58000 312.191
34.59000 310.417
34.60000 309.881
34.61000 309.358
34.62000 306.969
34.63000 302.759
34.64000 298.587
34.65000 297.798
34.66000 299.191
34.67000 300.379
34.68000 296.277
34.69000 289.852
34.70000 283.800
34.71000 285.509
34.72000 289.203
34.73000 292.442
34.74000 292.358
34.75000 291.607
34.76000 289.873
34.77000 283.530
34.78000 276.599
34.79000 271.250
34.80000 274.651
34.81000 277.852
34.82000 280.648
34.83000 282.568
34.84000 284.459
34.85000 286.772
34.86000 289.701
34.87000 292.635
34.88000 292.198
34.89000 288.532
34.90000 284.879
34.91000 282.203
34.92000 280.148
34.93000 278.357
34.94000 283.119
34.95000 290.709
34.96000 297.846
34.97000 289.917
34.98000 278.621
34.99000 269.941
35.00000 279.966
35.01000 293.671
35.02000 304.935
35.03000 304.969
35.04000 303.604
35.05000 302.555
35.06000 292.129
35.07000 283.359
35.08000 279.536
35.09000 286.183
35.10000 293.169
35.11000 292.499
35.12000 280.842
35.13000 269.100
35.14000 266.018
35.15000 271.071
35.16000 276.050
35.17000 275.559
35.18000 271.662
35.19000 268.091
35.20000 272.306
35.21000 279.826
35.22000 286.883
35.23000 276.956
35.24000 263.426
35.25000 251.791
35.26000 253.419
35.27000 257.607
35.28000 262.204
35.29000 268.649
35.30000 275.318
35.31000 280.419
35.32000 273.317
35.33000 267.050
35.34000 262.417
35.35000 261.184
35.36000 260.056
35.37000 261.829
35.38000 267.691
35.39000 273.581
35.40000 275.782
35.41000 274.584
35.42000 273.384
35.43000 271.981
35.44000 270.453
35.45000 268.992
35.46000 269.058
35.47000 269.762
35.48000 270.422
35.49000 268.804
35.50000 266.743
35.51000 264.656
35.52000 262.391
35.53000 260.092
35.54000 258.090
35.55000 257.409
35.56000 256.885
35.57000 256.486
35.58000 257.822
35.59000 258.965
35.60000 261.728
35.61000 267.800
35.62000 273.971
35.63000 274.520
35.64000 267.289
35.65000 260.010
35.66000 256.519
35.67000 256.448
35.68000 256.348
35.69000 254.397
35.70000 251.332
35.71000 248.451
35.72000 249.649
35.73000 252.520
35.74000 255.204
35.75000 258.817
35.76000 262.333
35.77000 266.109
35.78000 271.627
35.79000 277.469
35.80000 280.640
35.81000 272.185
35.82000 262.378
35.83000 254.946
35.84000 263.504
35.85000 271.040
35.86000 273.671
35.87000 266.447
35.88000 258.944
35.89000 256.996
35.90000 262.598
35.91000 268.240
35.92000 268.667
35.93000 264.479
35.94000 260.330
35.95000 258.636
35.96000 258.390
35.97000 258.231
35.98000 259.917
35.99000 262.347
36.00000 264.614
36.01000 258.177
36.02000 250.180
36.03000 243.803
36.04000 248.073
36.05000 254.280
36.06000 260.087
36.07000 264.180
36.08000 268.079
36.09000 271.019
36.10000 264.140
36.11000 258.267
36.12000 255.915
36.13000 260.520
36.14000 265.311
36.15000 265.606
36.16000 259.903
36.17000 254.172
36.18000 255.623
36.19000 263.302
36.20000 270.796
36.21000 267.722
36.22000 258.516
36.23000 249.568
36.24000 245.957
36.25000 244.461
36.26000 243.068
36.27000 245.901
36.28000 249.492
36.29000 252.585
36.30000 252.469
36.31000 251.781
36.32000 252.095
36.33000 256.617
36.34000 261.606
36.35000 265.352
36.36000 265.995
36.37000 266.349
36.38000 266.980
36.39000 268.147
36.40000 269.328
36.41000 269.342
36.42000 267.829
36.43000 266.309
36.44000 266.134
36.45000 267.101
36.46000 268.020
36.47000 266.294
36.48000 263.059
36.49000 259.974
36.50000 259.885
36.51000 260.962
36.52000 261.964
36.53000 258.535
36.54000 254.382
36.55000 251.377
36.56000 255.611
36.57000 261.113
36.58000 265.887
36.59000 267.665
36.60000 269.117
36.61000 270.203
36.62000 272.722
36.63000 274.752
36.64000 274.129
36.65000 268.445
36.66000 262.637
36.67000 259.161
36.68000 258.682
36.69000 258.216
36.70000 255.863
36.71000 251.943
36.72000 248.095
36.73000 247.895
36.74000 249.739
36.75000 251.660
36.76000 255.064
36.77000 259.036
36.78000 262.719
36.79000 265.280
36.80000 267.323
36.81000 269.070
36.82000 268.990
36.83000 268.596
36.84000 267.480
36.85000 263.439
36.86000 259.088
36.87000 255.853
36.88000 262.458
36.89000 268.034
36.90000 269.887
36.91000 264.756
36.92000 259.463
36.93000 257.615
36.94000 260.113
36.95000 262.623
36.96000 265.969
36.97000 269.988
36.98000 273.905
36.99000 272.865
37.00000 269.096
37.01000 265.514
37.02000 265.411
37.03000 266.618
37.04000 267.735
37.05000 275.584
37.06000 284.184
37.07000 290.475
37.08000 282.787
37.09000 272.749
37.10000 265.403
37.11000 268.758
37.12000 273.218
37.13000 276.519
37.14000 264.682
37.15000 254.847
37.16000 248.795
37.17000 249.716
37.18000 250.790
37.19000 251.611
37.20000 252.118
37.21000 252.624
37.22000 256.562
37.23000 263.237
37.24000 269.809
37.25000 271.700
37.26000 271.058
37.27000 270.186
37.28000 265.192
37.29000 258.672
37.30000 252.651
37.31000 256.595
37.32000 262.377
37.33000 266.463
37.34000 260.487
37.35000 252.853
37.36000 247.380
37.37000 250.340
37.38000 254.150
37.39000 256.956
37.40000 255.753
37.41000 254.656
37.42000 253.984
37.43000 254.084
37.44000 254.200
37.45000 252.989
37.46000 250.165
37.47000 247.342
37.48000 248.404
37.49000 252.517
37.50000 256.631
37.51000 260.795
37.52000 264.984
37.53000 268.798
37.54000 266.090
37.55000 261.010
37.56000 256.328
37.57000 249.828
37.58000 243.607
37.59000 238.850
37.60000 242.597
37.61000 247.717
37.62000 251.297
37.63000 248.969
37.64000 246.061
37.65000 243.930
37.66000 245.791
37.67000 247.387
37.68000 248.217
37.69000 247.680
37.70000 247.117
37.71000 245.957
37.72000 244.084
37.73000 242.214
37.74000 241.461
37.75000 241.575
37.76000 241.750
37.77000 244.427
37.78000 248.412
37.79000 251.910
37.80000 247.208
37.81000 239.574
37.82000 232.555
37.83000 240.665
37.84000 251.182
37.85000 260.406
37.86000 262.257
37.87000 262.941
37.88000 263.176
37.89000 261.716
37.90000 260.094
37.91000 258.912
37.92000 257.208
37.93000 255.875
37.94000 255.999
37.95000 258.672
37.96000 261.392
37.97000 261.885
37.98000 259.772
37.99000 257.660
38.00000 260.090
38.01000 265.942
38.02000 271.518
38.03000 266.377
38.04000 255.728
38.05000 245.565
38.06000 243.330
38.07000 243.883
38.08000 244.390
38.09000 250.172
38.10000 256.443
38.11000 261.702
38.12000 261.298
38.13000 260.016
38.14000 260.459
38.15000 267.284
38.16000 274.707
38.17000 280.089
38.18000 277.106
38.19000 274.503
38.20000 274.088
38.21000 277.436
38.22000 280.848
38.23000 284.382
38.24000 288.055
38.25000 291.718
38.26000 288.709
38.27000 280.768
38.28000 273.048
38.29000 273.444
38.30000 277.939
38.31000 282.718
38.32000 291.971
38.33000 302.770
38.34000 312.656
38.35000 312.369
38.36000 310.001
38.37000 309.254
38.38000 317.390
38.39000 326.874
38.40000 335.638
38.41000 341.781
38.42000 347.685
38.43000 351.945
38.44000 370.954
38.45000 386.054
38.46000 397.335
38.47000 402.167
38.48000 406.893
38.49000 417.684
38.50000 435.302
38.51000 452.868
38.52000 472.424
38.53000 493.270
38.54000 513.939
38.55000 528.359
38.56000 539.676
38.57000 551.458
38.58000 570.381
38.59000 591.729
38.60000 611.225
38.61000 618.422
38.62000 622.308
38.63000 629.240
38.64000 652.538
38.65000 678.270
38.66000 699.840
38.67000 706.556
38.68000 711.953
38.69000 715.825
38.70000 727.469
38.71000 736.641
38.72000 733.800
38.73000 711.019
38.74000 687.935
38.75000 677.543
38.76000 681.167
38.77000 684.786
38.78000 677.847
38.79000 663.428
38.80000 648.641
38.81000 621.463
38.82000 588.238
38.83000 556.011
38.84000 538.626
38.85000 526.193
38.86000 514.865
38.87000 495.070
38.88000 475.846
38.89000 456.935
38.90000 439.677
38.91000 422.660
38.92000 405.827
38.93000 389.641
38.94000 373.511
38.95000 361.996
38.96000 354.666
38.97000 349.213
38.98000 342.998
38.99000 335.543
39.00000 328.071
39.01000 320.923
39.02000 314.128
39.03000 307.361
39.04000 300.414
39.05000 293.411
39.06000 286.425
39.07000 279.996
39.08000 273.833
39.09000 267.898
39.10000 265.239
39.11000 263.655
39.12000 262.215
39.13000 261.485
39.14000 260.979
39.15000 260.261
39.16000 258.447
39.17000 256.478
39.18000 254.609
39.19000 253.089
39.20000 251.598
39.21000 250.540
39.22000 251.084
39.23000 251.549
39.24000 251.426
39.25000 250.361
39.26000 249.284
39.27000 246.488
39.28000 241.867
39.29000 237.267
39.30000 239.447
39.31000 246.264
39.32000 252.863
39.33000 252.746
39.34000 249.464
39.35000 246.286
39.36000 244.589
39.37000 243.370
39.38000 242.264
39.39000 244.303
39.40000 246.704
39.41000 248.104
39.42000 244.431
39.43000 240.051
39.44000 237.677
39.45000 242.100
39.46000 247.081
39.47000 250.599
39.48000 247.770
39.49000 245.429
39.50000 242.260
39.51000 237.786
39.52000 233.297
39.53000 229.936
39.54000 227.749
39.55000 225.575
39.56000 227.413
39.57000 231.935
39.58000 236.307
39.59000 236.243
39.60000 234.122
39.61000 232.051
39.62000 230.653
39.63000 229.469
39.64000 228.397
39.65000 231.813
39.66000 235.660
39.67000 238.202
39.68000 234.246
39.69000 229.403
39.70000 227.482
39.71000 235.281
39.72000 243.857
39.73000 249.880
39.74000 249.772
39.75000 249.511
39.76000 246.860
39.77000 240.511
39.78000 234.121
39.79000 232.363
39.80000 235.332
39.81000 238.285
39.82000 238.765
39.83000 237.604
39.84000 236.323
39.85000 231.684
39.86000 225.515
39.87000 220.251
39.88000 226.991
39.89000 237.467
39.90000 246.922
39.91000 243.196
39.92000 237.504
39.93000 233.624
39.94000 238.596
39.95000 244.749
39.96000 249.128
39.97000 247.708
39.98000 245.837
39.99000 244.530
40.00000 236.396
40.01000 230.061
40.02000 226.394
40.03000 226.783
40.04000 227.213
40.05000 227.453
40.06000 227.501
40.07000 227.549
40.08000 229.148
40.09000 231.732
40.10000 234.087
40.11000 230.293
40.12000 223.744
40.13000 217.982
40.14000 222.356
40.15000 229.830
40.16000 236.559
40.17000 235.137
40.18000 232.426
40.19000 229.066
40.20000 222.598
40.21000 215.724
40.22000 212.244
40.23000 219.668
40.24000 227.916
40.25000 233.644
40.26000 229.723
40.27000 226.510
40.28000 225.539
40.29000 227.911
40.30000 230.316
40.31000 230.288
40.32000 227.877
40.33000 225.483
40.34000 224.077
40.35000 223.322
40.36000 222.674
40.37000 224.771
40.38000 228.078
40.39000 230.693
40.40000 224.640
40.41000 215.980
40.42000 208.204
40.43000 216.869
40.44000 227.343
40.45000 234.994
40.46000 229.380
40.47000 222.071
40.48000 216.483
40.49000 216.332
40.50000 216.579
40.51000 216.750
40.52000 218.636
40.53000 220.097
40.54000 219.900
40.55000 217.271
40.56000 214.622
40.57000 215.378
40.58000 219.406
40.59000 223.405
40.60000 223.595
40.61000 221.401
40.62000 219.236
40.63000 217.797
40.64000 216.671
40.65000 215.822
40.66000 218.340
40.67000 221.853
40.68000 224.999
40.69000 218.663
40.70000 211.499
40.71000 205.976
40.72000 208.028
40.73000 211.028
40.74000 212.876
40.75000 211.150
40.76000 209.169
40.77000 207.809
40.78000 211.217
40.79000 213.889
40.80000 214.917
40.81000 213.579
40.82000 212.223
40.83000 215.394
40.84000 222.832
40.85000 230.209
40.86000 228.802
40.87000 222.033
40.88000 215.326
40.89000 210.110
40.90000 205.529
40.91000 201.507
40.92000 204.128
40.93000 208.677
40.94000 212.741
40.95000 213.794
40.96000 214.203
40.97000 214.183
40.98000 212.215
40.99000 210.010
41.00000 208.226
41.01000 207.727
41.02000 207.316
41.03000 207.036
41.04000 213.608
41.05000 218.682
41.06000 218.057
41.07000 209.376
41.08000 200.639
41.09000 197.287
41.10000 198.910
41.11000 200.518
41.12000 200.284
41.13000 198.945
41.14000 197.852
41.15000 202.457
41.16000 209.445
41.17000 215.806
41.18000 214.919
41.19000 211.964
41.20000 209.332
41.21000 212.501
41.22000 216.214
41.23000 218.986
41.24000 217.583
41.25000 215.681
41.26000 213.084
41.27000 208.404
41.28000 203.584
41.29000 200.313
41.30000 202.974
41.31000 205.090
41.32000 207.314
41.33000 209.686
41.34000 212.057
41.35000 211.403
41.36000 208.008
41.37000 204.645
41.38000 203.963
41.39000 204.878
41.40000 205.936
41.41000 210.152
41.42000 215.668
41.43000 220.553
41.44000 218.342
41.45000 214.143
41.46000 210.411
41.47000 209.503
41.48000 209.172
41.49000 209.621
41.50000 213.476
41.51000 217.728
41.52000 220.489
41.53000 218.858
41.54000 216.940
41.55000 215.646
41.56000 218.038
41.57000 219.895
41.58000 221.001
41.59000 221.081
41.60000 221.154
41.61000 219.545
41.62000 216.442
41.63000 213.371
41.64000 208.430
41.65000 202.512
41.66000 196.999
41.67000 200.170
41.68000 206.852
41.69000 213.093
41.70000 214.502
41.71000 214.582
41.72000 214.652
41.73000 212.738
41.74000 210.767
41.75000 209.942
41.76000 214.023
41.77000 218.663
41.78000 220.907
41.79000 216.211
41.80000 211.076
41.81000 207.633
41.82000 215.076
41.83000 220.819
41.84000 222.869
41.85000 219.978
41.86000 217.064
41.87000 217.021
41.88000 219.480
41.89000 221.912
41.90000 222.349
41.91000 221.642
41.92000 220.880
41.93000 219.001
41.94000 216.677
41.95000 214.403
41.96000 212.666
41.97000 211.073
41.98000 209.666
41.99000 218.429
42.00000 227.572
42.01000 234.309
42.02000 230.925
42.03000 226.413
42.04000 223.261
42.05000 223.978
42.06000 224.933
42.07000 225.569
42.08000 219.245
42.09000 214.431
42.10000 214.021
42.11000 219.397
42.12000 224.794
42.13000 226.753
42.14000 225.772
42.15000 224.802
42.16000 223.124
42.17000 221.090
42.18000 219.053
42.19000 216.936
42.20000 214.788
42.21000 212.948
42.22000 214.314
42.23000 216.533
42.24000 218.489
42.25000 223.499
42.26000 228.280
42.27000 231.519
42.28000 228.385
42.29000 224.557
42.30000 220.780
42.31000 217.143
42.32000 213.514
42.33000 211.111
42.34000 219.700
42.35000 226.241
42.36000 230.951
42.37000 233.301
42.38000 235.631
42.39000 232.468
42.40000 224.696
42.41000 217.020
42.42000 214.946
42.43000 215.994
42.44000 216.678
42.45000 210.358
42.46000 201.347
42.47000 193.819
42.48000 201.375
42.49000 212.866
42.50000 222.967
42.51000 220.265
42.52000 216.046
42.53000 212.770
42.54000 213.322
42.55000 214.281
42.56000 215.044
42.57000 215.269
42.58000 215.464
42.59000 215.593
42.60000 213.381
42.61000 211.712
42.62000 210.035
42.63000 208.346
42.64000 206.659
42.65000 205.917
42.66000 205.953
42.67000 205.988
42.68000 208.913
42.69000 213.312
42.70000 217.630
42.71000 220.438
42.72000 222.676
42.73000 224.167
42.74000 218.245
42.75000 210.424
42.76000 203.568
42.77000 207.005
42.78000 211.444
42.79000 214.134
42.80000 209.858
42.81000 204.859
42.82000 201.644
42.83000 203.252
42.84000 205.130
42.85000 206.357
42.86000 202.848
42.87000 200.194
42.88000 200.485
42.89000 204.433
42.90000 208.383
42.91000 209.708
42.92000 208.911
42.93000 208.125
42.94000 205.099
42.95000 200.977
42.96000 196.948
42.97000 194.597
42.98000 192.868
42.99000 191.922
43.00000 198.546
43.01000 207.077
43.02000 214.533
43.03000 215.798
43.04000 216.006
43.05000 214.892
43.06000 208.610
43.07000 201.805
43.08000 196.946
43.09000 197.260
43.10000 197.853
43.11000 198.237
43.12000 204.338
43.13000 208.895
43.14000 208.453
43.15000 201.918
43.16000 195.378
43.17000 192.015
43.18000 191.170
43.19000 190.338
43.20000 194.368
43.21000 200.794
43.22000 206.855
43.23000 206.541
43.24000 203.902
43.25000 201.348
43.26000 199.594
43.27000 198.037
43.28000 196.680
43.29000 191.380
43.30000 186.305
43.31000 183.271
43.32000 188.080
43.33000 193.662
43.34000 199.688
43.35000 206.872
43.36000 214.116
43.37000 218.792
43.38000 216.994
43.39000 215.588
43.40000 213.166
43.41000 209.531
43.42000 205.892
43.43000 202.184
43.44000 198.421
43.45000 194.717
43.46000 195.416
43.47000 198.331
43.48000 200.950
43.49000 198.571
43.50000 194.401
43.51000 190.983
43.52000 194.505
43.53000 199.712
43.54000 204.236
43.55000 199.592
43.56000 194.392
43.57000 190.786
43.58000 193.201
43.59000 196.196
43.60000 197.832
43.61000 195.983
43.62000 193.958
43.63000 192.659
43.64000 184.732
43.65000 178.865
43.66000 177.311
43.67000 180.817
43.68000 184.326
43.69000 186.722
43.70000 188.267
43.71000 189.787
43.72000 194.858
43.73000 201.535
43.74000 207.844
43.75000 208.131
43.76000 206.296
43.77000 204.244
43.78000 200.236
43.79000 195.762
43.80000 191.887
43.81000 189.976
43.82000 188.610
43.83000 187.066
43.84000 184.862
43.85000 182.596
43.86000 182.327
43.87000 187.097
43.88000 192.112
43.89000 195.306
43.90000 205.301
43.91000 212.653
43.92000 213.244
43.93000 206.053
43.94000 198.880
43.95000 197.071
43.96000 199.284
43.97000 201.458
43.98000 202.172
43.99000 202.147
44.00000 202.151
44.01000 202.612
44.02000 203.232
44.03000 203.574
44.04000 201.479
44.05000 198.814
44.06000 196.512
44.07000 199.254
44.08000 202.234
44.09000 204.450
44.10000 203.887
44.11000 203.069
44.12000 202.292
44.13000 201.616
44.14000 200.943
44.15000 200.518
44.16000 198.194
44.17000 196.486
44.18000 195.850
44.19000 196.424
44.20000 197.008
44.21000 198.999
44.22000 202.027
44.23000 204.999
44.24000 205.545
44.25000 204.908
44.26000 204.246
44.27000 203.208
44.28000 202.041
44.29000 201.348
44.30000 204.733
44.31000 209.055
44.32000 212.775
44.33000 206.960
44.34000 200.829
44.35000 197.588
44.36000 204.689
44.37000 212.713
44.38000 218.216
44.39000 217.571
44.40000 216.648
44.41000 216.068
44.42000 205.574
44.43000 197.877
44.44000 198.465
44.45000 208.227
44.46000 217.929
44.47000 217.249
44.48000 209.066
44.49000 201.041
44.50000 202.759
44.51000 209.004
44.52000 214.722
44.53000 212.582
44.54000 207.812
44.55000 204.050
44.56000 208.757
44.57000 215.375
44.58000 221.055
44.59000 223.483
44.60000 225.135
44.61000 225.041
44.62000 218.806
44.63000 212.038
44.64000 208.277
44.65000 211.724
44.66000 215.486
44.67000 217.833
44.68000 217.874
44.69000 217.881
44.70000 218.951
44.71000 221.177
44.72000 223.390
44.73000 223.539
44.74000 222.224
44.75000 220.935
44.76000 219.903
44.77000 219.028
44.78000 218.361
44.79000 220.702
44.80000 224.032
44.81000 226.928
44.82000 226.254
44.83000 224.790
44.84000 223.537
44.85000 226.545
44.86000 229.596
44.87000 231.409
44.88000 228.947
44.89000 226.124
44.90000 224.711
44.91000 226.622
44.92000 228.674
44.93000 229.945
44.94000 226.943
44.95000 224.744
44.96000 224.166
44.97000 225.315
44.98000 226.471
44.99000 228.396
45.00000 230.856
45.01000 233.263
45.02000 235.517
45.03000 237.610
45.04000 239.594
45.05000 240.038
45.06000 239.985
45.07000 239.811
45.08000 238.664
45.09000 237.305
45.10000 236.147
45.11000 231.335
45.12000 226.855
45.13000 224.762
45.14000 230.773
45.15000 237.451
45.16000 240.074
45.17000 233.300
45.18000 226.147
45.19000 221.748
45.20000 225.606
45.21000 228.446
45.22000 230.066
45.23000 230.411
45.24000 230.743
45.25000 229.535
45.26000 227.274
45.27000 225.064
45.28000 223.793
45.29000 222.994
45.30000 222.169
45.31000 220.977
45.32000 219.669
45.33000 218.030
45.34000 213.790
45.35000 208.995
45.36000 204.918
45.37000 209.225
45.38000 213.804
45.39000 216.839
45.40000 214.720
45.41000 212.188
45.42000 210.720
45.43000 211.677
45.44000 212.727
45.45000 213.369
45.46000 205.180
45.47000 199.252
45.48000 194.648
45.49000 191.400
45.50000 188.213
45.51000 191.503
45.52000 199.147
45.53000 206.610
45.54000 208.857
45.55000 208.726
45.56000 208.480
45.57000 206.690
45.58000 204.419
45.59000 202.318
45.60000 201.529
45.61000 201.014
45.62000 200.577
45.63000 201.505
45.64000 202.436
45.65000 203.657
45.66000 205.824
45.67000 208.066
45.68000 207.431
45.69000 200.356
45.70000 193.041
45.71000 188.607
45.72000 191.528
45.73000 193.667
45.74000 193.358
45.75000 190.595
45.76000 187.860
45.77000 187.963
45.78000 189.940
45.79000 191.868
45.80000 193.126
45.81000 194.040
45.82000 194.818
45.83000 193.839
45.84000 192.321
45.85000 190.331
45.86000 184.784
45.87000 178.507
45.88000 173.206
45.89000 176.720
45.90000 180.624
45.91000 183.319
45.92000 182.119
45.93000 180.624
45.94000 178.779
45.95000 176.165
45.96000 173.523
45.97000 171.934
45.98000 170.730
45.99000 169.877
46.00000 172.317
46.01000 177.995
46.02000 183.599
46.03000 182.591
46.04000 177.293
46.05000 172.132
46.06000 174.211
46.07000 179.242
46.08000 183.794
46.09000 182.323
46.10000 179.037
46.11000 175.845
46.12000 173.342
46.13000 170.978
46.14000 168.988
46.15000 177.446
46.16000 185.619
46.17000 191.475
46.18000 189.994
46.19000 187.973
46.20000 186.310
46.21000 185.422
46.22000 184.561
46.23000 184.047
46.24000 183.204
46.25000 182.603
46.26000 181.247
46.27000 179.161
46.28000 177.095
46.29000 176.730
46.30000 177.449
46.31000 178.148
46.32000 179.256
46.33000 180.480
46.34000 181.567
46.35000 180.976
46.36000 179.887
46.37000 179.177
46.38000 181.182
46.39000 183.725
46.40000 185.858
46.41000 182.392
46.42000 178.924
46.43000 176.473
46.44000 177.187
46.45000 178.127
46.46000 178.096
46.47000 175.997
46.48000 173.831
46.49000 172.547
46.50000 167.377
46.51000 163.700
46.52000 166.098
46.53000 174.235
46.54000 182.307
46.55000 185.310
46.56000 185.141
46.57000 184.977
46.58000 179.645
46.59000 172.484
46.60000 166.296
46.61000 171.695
46.62000 180.466
46.63000 187.994
46.64000 186.764
46.65000 183.835
46.66000 181.386
46.67000 182.443
46.68000 183.677
46.69000 184.352
46.70000 183.316
46.71000 182.161
46.72000 180.890
46.73000 179.377
46.74000 177.856
46.75000 176.962
46.76000 175.617
46.77000 174.666
46.78000 173.255
46.79000 171.418
46.80000 169.615
46.81000 170.224
46.82000 172.318
46.83000 174.350
46.84000 174.421
46.85000 173.709
46.86000 172.998
46.87000 172.297
46.88000 171.599
46.89000 171.265
46.90000 173.432
46.91000 176.076
46.92000 178.278
46.93000 176.892
46.94000 175.386
46.95000 173.032
46.96000 168.128
46.97000 163.052
46.98000 162.459
46.99000 171.080
47.00000 179.976
47.01000 185.167
47.02000 177.074
47.03000 171.325
47.04000 170.853
47.05000 175.176
47.06000 179.423
47.07000 178.576
47.08000 174.652
47.09000 170.848
47.10000 170.037
47.11000 170.437
47.12000 170.679
47.13000 169.142
47.14000 167.105
47.15000 165.873
47.16000 170.070
47.17000 175.282
47.18000 179.608
47.19000 173.324
47.20000 167.103
47.21000 162.438
47.22000 162.375
47.23000 162.613
47.24000 162.782
47.25000 162.811
47.26000 162.835
47.27000 162.849
47.28000 161.207
47.29000 160.049
47.30000 159.778
47.31000 160.296
47.32000 160.816
47.33000 161.414
47.34000 162.058
47.35000 162.681
47.36000 160.973
47.37000 158.464
47.38000 156.052
47.39000 154.707
47.40000 153.656
47.41000 153.438
47.42000 158.732
47.43000 165.035
47.44000 170.248
47.45000 168.279
47.46000 165.976
47.47000 164.977
47.48000 167.765
47.49000 170.793
47.50000 172.556
47.51000 171.806
47.52000 170.988
47.53000 170.518
47.54000 173.663
47.55000 175.868
47.56000 172.575
47.57000 164.475
47.58000 156.453
47.59000 153.017
47.60000 152.255
47.61000 151.519
47.62000 156.186
47.63000 162.621
47.64000 168.687
47.65000 170.793
47.66000 171.826
47.67000 172.405
47.68000 170.046
47.69000 167.159
47.70000 164.780
47.71000 162.003
47.72000 159.681
47.73000 157.475
47.74000 155.604
47.75000 153.753
47.76000 153.473
47.77000 156.256
47.78000 159.119
47.79000 160.750
47.80000 168.794
47.81000 174.415
47.82000 175.382
47.83000 172.358
47.84000 169.293
47.85000 163.908
47.86000 157.195
47.87000 150.713
47.88000 152.293
47.89000 156.755
47.90000 160.943
47.91000 162.271
47.92000 162.837
47.93000 163.753
47.94000 166.890
47.95000 170.418
47.96000 173.315
47.97000 169.839
47.98000 166.413
47.99000 163.162
48.00000 160.398
48.01000 157.663
48.02000 157.122
48.03000 160.789
48.04000 164.560
48.05000 166.690
48.06000 162.694
48.07000 159.903
48.08000 159.018
48.09000 159.736
48.10000 160.433
48.11000 160.027
48.12000 158.999
48.13000 158.008
48.14000 159.306
48.15000 161.354
48.16000 163.124
48.17000 162.046
48.18000 160.223
48.19000 158.966
48.20000 161.230
48.21000 164.102
48.22000 166.452
48.23000 166.658
48.24000 166.640
48.25000 166.077
48.26000 164.010
48.27000 161.857
48.28000 160.499
48.29000 160.638
48.30000 160.812
48.31000 160.909
48.32000 161.308
48.33000 161.580
48.34000 159.839
48.35000 156.437
48.36000 153.158
48.37000 155.905
48.38000 161.988
48.39000 167.845
48.40000 165.486
48.41000 160.354
48.42000 155.850
48.43000 157.595
48.44000 160.947
48.45000 163.472
48.46000 160.962
48.47000 157.600
48.48000 154.859
48.49000 155.818
48.50000 156.917
48.51000 158.740
48.52000 162.526
48.53000 166.423
48.54000 168.285
48.55000 166.380
48.56000 164.390
48.57000 163.285
48.58000 162.373
48.59000 161.744
48.60000 161.217
48.61000 160.774
48.62000 160.364
48.63000 161.508
48.64000 163.498
48.65000 165.410
48.66000 162.146
48.67000 157.283
48.68000 153.001
48.69000 154.352
48.70000 157.125
48.71000 159.289
48.72000 157.816
48.73000 155.740
48.74000 154.054
48.75000 157.325
48.76000 160.404
48.77000 162.733
48.78000 163.068
48.79000 163.295
48.80000 161.730
48.81000 156.903
48.82000 152.007
48.83000 149.311
48.84000 148.667
48.85000 148.244
48.86000 153.380
48.87000 162.934
48.88000 172.202
48.89000 168.969
48.90000 159.053
48.91000 149.535
48.92000 151.137
48.93000 156.439
48.94000 161.223
48.95000 161.108
48.96000 159.778
48.97000 158.517
48.98000 157.658
48.99000 156.864
49.00000 156.222
49.01000 157.477
49.02000 158.651
49.03000 158.896
49.04000 156.711
49.05000 154.399
49.06000 154.190
49.07000 157.747
49.08000 161.377
49.09000 163.359
49.10000 162.541
49.11000 161.983
49.12000 163.570
49.13000 166.830
49.14000 170.042
49.15000 171.283
49.16000 171.488
49.17000 171.684
49.18000 166.371
49.19000 159.565
49.20000 153.304
49.21000 152.089
49.22000 152.104
49.23000 152.145
49.24000 152.344
49.25000 152.568
49.26000 152.748
49.27000 157.086
49.28000 160.935
49.29000 162.109
49.30000 156.401
49.31000 150.344
49.32000 146.662
49.33000 147.155
49.34000 147.726
49.35000 148.035
49.36000 150.108
49.37000 151.527
49.38000 152.272
49.39000 152.503
49.40000 152.773
49.41000 154.604
49.42000 157.240
49.43000 159.763
49.44000 158.447
49.45000 155.958
49.46000 153.957
49.47000 156.372
49.48000 159.843
49.49000 162.745
49.50000 162.443
49.51000 161.643
49.52000 161.000
49.53000 160.766
49.54000 160.608
49.55000 159.081
49.56000 154.090
49.57000 148.931
49.58000 145.561
49.59000 145.284
49.60000 145.061
49.61000 144.941
49.62000 145.405
49.63000 145.724
49.64000 146.522
49.65000 147.681
49.66000 148.810
49.67000 148.843
49.68000 148.319
49.69000 147.817
49.70000 147.844
49.71000 148.039
49.72000 148.376
49.73000 149.968
49.74000 151.854
49.75000 153.733
49.76000 155.563
49.77000 157.387
49.78000 158.845
49.79000 160.785
49.80000 162.388
49.81000 161.116
49.82000 152.689
49.83000 143.925
49.84000 140.953
49.85000 147.818
49.86000 154.845
49.87000 158.578
49.88000 157.041
49.89000 156.001
49.90000 156.680
49.91000 158.627
49.92000 160.493
49.93000 159.436
49.94000 156.922
49.95000 154.523
49.96000 150.845
49.97000 147.026
49.98000 143.874
49.99000 146.482
50.00000 150.417
50.01000 153.702
50.02000 153.473
50.03000 152.720
50.04000 152.120
50.05000 150.997
50.06000 150.055
50.07000 149.685
50.08000 150.716
50.09000 151.812
50.10000 152.514
50.11000 152.561
50.12000 152.598
50.13000 152.618
50.14000 149.777
50.15000 147.880
50.16000 151.151
50.17000 158.167
50.18000 164.946
50.19000 163.675
50.20000 158.454
50.21000 153.482
50.22000 155.380
50.23000 159.274
50.24000 162.639
50.25000 161.557
50.26000 159.467
50.27000 157.987
50.28000 159.730
50.29000 161.945
50.30000 163.703
50.31000 166.060
50.32000 167.999
50.33000 169.201
50.34000 168.630
50.35000 167.981
50.36000 166.686
50.37000 164.335
50.38000 161.968
50.39000 160.733
50.40000 155.015
50.41000 151.193
50.42000 153.988
50.43000 161.493
50.44000 168.837
50.45000 170.945
50.46000 170.530
50.47000 170.135
50.48000 171.347
50.49000 172.958
50.50000 174.431
50.51000 174.762
50.52000 174.840
50.53000 174.939
50.54000 175.151
50.55000 175.379
50.56000 175.560
50.57000 171.198
50.58000 167.387
50.59000 164.772
50.60000 164.983
50.61000 165.312
50.62000 164.588
50.63000 162.166
50.64000 159.722
50.65000 158.459
50.66000 163.070
50.67000 166.182
50.68000 169.686
50.69000 173.464
50.70000 177.075
50.71000 175.524
50.72000 171.527
50.73000 167.731
50.74000 170.023
50.75000 173.959
50.76000 177.184
50.77000 174.685
50.78000 170.939
50.79000 167.467
50.80000 165.399
50.81000 163.527
50.82000 162.054
50.83000 163.504
50.84000 164.858
50.85000 166.387
50.86000 168.323
50.87000 170.276
50.88000 170.105
50.89000 166.574
50.90000 163.002
50.91000 161.174
50.92000 154.974
50.93000 150.826
50.94000 148.682
50.95000 147.914
50.96000 147.142
50.97000 146.276
50.98000 145.366
50.99000 144.503
51.00000 147.880
51.01000 152.234
51.02000 155.782
51.03000 152.968
51.04000 148.794
51.05000 145.638
51.06000 147.580
51.07000 150.221
51.08000 152.290
51.09000 149.039
51.10000 146.100
51.11000 145.545
51.12000 150.436
51.13000 155.538
51.14000 158.301
51.15000 157.427
51.16000 156.511
51.17000 156.047
51.18000 150.107
51.19000 146.155
51.20000 144.920
51.21000 145.515
51.22000 146.130
51.23000 147.300
51.24000 148.726
51.25000 150.074
51.26000 147.433
51.27000 143.856
51.28000 140.841
51.29000 142.144
51.30000 144.355
51.31000 145.929
51.32000 144.375
51.33000 142.401
51.34000 140.861
51.35000 143.333
51.36000 145.553
51.37000 147.504
51.38000 148.850
51.39000 150.174
51.40000 151.448
51.41000 152.647
51.42000 153.845
51.43000 154.446
51.44000 149.906
51.45000 146.867
51.46000 142.839
51.47000 138.156
51.48000 133.766
51.49000 137.393
51.50000 144.630
51.51000 151.464
51.52000 154.512
51.53000 156.240
51.54000 157.214
51.55000 152.495
51.56000 146.604
51.57000 141.523
51.58000 140.343
51.59000 139.676
51.60000 139.158
51.61000 137.240
51.62000 135.630
51.63000 134.781
51.64000 135.611
51.65000 136.502
51.66000 139.714
51.67000 146.407
51.68000 153.133
51.69000 153.651
51.70000 148.046
51.71000 142.518
51.72000 143.923
51.73000 149.837
51.74000 155.427
51.75000 152.497
51.76000 145.798
51.77000 139.483
51.78000 139.929
51.79000 142.209
51.80000 144.440
51.81000 146.309
51.82000 148.105
51.83000 149.615
51.84000 149.773
51.85000 149.757
51.86000 149.744
51.87000 150.234
51.88000 150.652
51.89000 149.854
51.90000 146.420
51.91000 142.894
51.92000 142.033
51.93000 145.098
51.94000 148.198
51.95000 147.552
51.96000 143.285
51.97000 139.057
51.98000 138.014
51.99000 139.006
52.00000 139.948
52.01000 139.648
52.02000 138.806
52.03000 138.015
52.04000 139.164
52.05000 140.741
52.06000 142.084
52.07000 141.746
52.08000 141.074
52.09000 140.967
52.10000 143.477
52.11000 146.316
52.12000 148.502
52.13000 148.647
52.14000 148.646
52.15000 147.171
52.16000 142.556
52.17000 137.838
52.18000 137.344
52.19000 142.963
52.20000 148.631
52.21000 147.817
52.22000 140.862
52.23000 133.994
52.24000 133.903
52.25000 138.063
52.26000 142.109
52.27000 143.387
52.28000 143.480
52.29000 143.568
52.30000 142.493
52.31000 141.201
52.32000 139.674
52.33000 136.475
52.34000 132.950
52.35000 130.186
52.36000 130.883
52.37000 132.006
52.38000 132.866
52.39000 136.530
52.40000 139.578
52.41000 140.751
52.42000 137.994
52.43000 135.113
52.44000 133.637
52.45000 134.157
52.46000 134.692
52.47000 135.274
52.48000 135.899
52.49000 136.529
52.50000 137.551
52.51000 138.815
52.52000 139.993
52.53000 139.176
52.54000 137.520
52.55000 135.968
52.56000 136.885
52.57000 138.365
52.58000 139.221
52.59000 135.761
52.60000 131.477
52.61000 128.938
52.62000 134.200
52.63000 140.400
52.64000 145.130
52.65000 144.620
52.66000 143.937
52.67000 143.544
52.68000 143.748
52.69000 143.970
52.70000 143.329
52.71000 141.484
52.72000 139.631
52.73000 138.024
52.74000 136.642
52.75000 135.291
52.76000 136.072
52.77000 138.144
52.78000 140.105
52.79000 139.564
52.80000 137.990
52.81000 136.517
52.82000 137.089
52.83000 138.131
52.84000 139.129
52.85000 139.828
52.86000 140.470
52.87000 141.746
52.88000 145.802
52.89000 150.184
52.90000 153.512
52.91000 150.470
52.92000 147.749
52.93000 145.133
52.94000 142.728
52.95000 140.328
52.96000 137.775
52.97000 135.009
52.98000 132.244
52.99000 130.361
53.00000 129.267
53.01000 128.225
53.02000 130.515
53.03000 134.787
53.04000 139.034
53.05000 142.734
53.06000 146.211
53.07000 149.458
53.08000 146.797
53.09000 142.900
53.10000 140.017
53.11000 143.853
53.12000 148.922
53.13000 152.471
53.14000 149.472
53.15000 145.722
53.16000 142.886
53.17000 144.489
53.18000 145.967
53.19000 147.080
53.20000 147.463
53.21000 147.827
53.22000 147.651
53.23000 146.750
53.24000 145.845
53.25000 145.304
53.26000 145.082
53.27000 144.900
53.28000 147.129
53.29000 150.768
53.30000 154.164
53.31000 152.489
53.32000 148.788
53.33000 145.339
53.34000 144.553
53.35000 144.497
53.36000 144.263
53.37000 142.873
53.38000 141.275
53.39000 140.740
53.40000 144.703
53.41000 149.171
53.42000 152.533
53.43000 150.983
53.44000 149.533
53.45000 147.979
53.46000 146.222
53.47000 144.460
53.48000 143.756
53.49000 144.449
53.50000 145.149
53.51000 145.753
53.52000 146.275
53.53000 146.830
53.54000 149.277
53.55000 152.810
53.56000 155.968
53.57000 151.538
53.58000 144.129
53.59000 137.238
53.60000 137.963
53.61000 140.455
53.62000 142.445
53.63000 141.241
53.64000 139.473
53.65000 138.848
53.66000 142.968
53.67000 147.608
53.68000 151.083
53.69000 146.687
53.70000 142.887
53.71000 141.292
53.72000 143.936
53.73000 146.685
53.74000 145.872
53.75000 140.442
53.76000 134.999
53.77000 135.638
53.78000 141.393
53.79000 147.037
53.80000 146.891
53.81000 143.476
53.82000 140.285
53.83000 141.467
53.84000 144.335
53.85000 146.998
53.86000 146.623
53.87000 145.566
53.88000 144.635
53.89000 144.486
53.90000 144.473
53.91000 143.759
53.92000 140.188
53.93000 136.312
53.94000 133.424
53.95000 139.087
53.96000 143.883
53.97000 146.865
53.98000 146.421
53.99000 145.897
54.00000 143.211
54.01000 137.776
54.02000 132.339
54.03000 132.824
54.04000 138.195
54.05000 143.466
54.06000 143.833
54.07000 141.478
54.08000 139.163
54.09000 137.593
54.10000 136.305
54.11000 135.113
54.12000 136.777
54.13000 138.935
54.14000 140.421
54.15000 137.793
54.16000 134.467
54.17000 132.055
54.18000 133.298
54.19000 134.923
54.20000 136.128
54.21000 140.682
54.22000 144.365
54.23000 147.153
54.24000 148.277
54.25000 149.365
54.26000 148.544
54.27000 145.341
54.28000 142.136
54.29000 142.526
54.30000 145.823
54.31000 149.091
54.32000 151.001
54.33000 152.170
54.34000 153.149
54.35000 150.673
54.36000 146.910
54.37000 143.430
54.38000 142.781
54.39000 142.842
54.40000 142.503
54.41000 139.776
54.42000 136.652
54.43000 134.175
54.44000 134.244
54.45000 134.573
54.46000 134.815
54.47000 131.957
54.48000 129.612
54.49000 129.967
54.50000 135.248
54.51000 140.634
54.52000 140.813
54.53000 134.611
54.54000 128.404
54.55000 126.350
54.56000 127.602
54.57000 128.887
54.58000 131.664
54.59000 135.241
54.60000 138.614
54.61000 138.401
54.62000 136.874
54.63000 135.465
54.64000 134.795
54.65000 134.360
54.66000 133.777
54.67000 132.333
54.68000 130.748
54.69000 130.123
54.70000 133.203
54.71000 136.652
54.72000 139.184
54.73000 138.326
54.74000 137.525
54.75000 136.552
54.76000 135.272
54.77000 133.987
54.78000 136.455
54.79000 143.440
54.80000 150.419
54.81000 148.445
54.82000 139.514
54.83000 130.832
54.84000 132.541
54.85000 139.725
54.86000 146.743
54.87000 150.919
54.88000 154.072
54.89000 156.975
54.90000 152.866
54.91000 147.662
54.92000 143.129
54.93000 142.454
54.94000 142.395
54.95000 142.461
54.96000 143.004
54.97000 143.592
54.98000 144.022
54.99000 143.400
55.00000 142.878
55.01000 143.455
55.02000 145.966
55.03000 148.514
55.04000 151.395
55.05000 154.670
55.06000 157.938
55.07000 158.892
55.08000 158.075
55.09000 157.260
55.10000 156.530
55.11000 155.843
55.12000 155.119
55.13000 153.788
55.14000 152.241
55.15000 150.821
55.16000 151.438
55.17000 152.424
55.18000 152.622
55.19000 148.374
55.20000 143.431
55.21000 141.113
55.22000 148.580
55.23000 156.972
55.24000 163.073
55.25000 162.780
55.26000 162.314
55.27000 162.105
55.28000 162.341
55.29000 162.586
55.30000 162.022
55.31000 160.523
55.32000 159.026
55.33000 158.131
55.34000 157.693
55.35000 157.345
55.36000 160.422
55.37000 165.243
55.38000 169.885
55.39000 171.647
55.40000 172.408
55.41000 173.105
55.42000 171.621
55.43000 169.843
55.44000 168.839
55.45000 172.120
55.46000 176.056
55.47000 180.515
55.48000 186.885
55.49000 193.432
55.50000 198.167
55.51000 200.319
55.52000 201.877
55.53000 203.632
55.54000 205.723
55.55000 207.819
55.56000 210.330
55.57000 213.314
55.58000 216.289
55.59000 218.430
55.60000 219.943
55.61000 221.494
55.62000 224.415
55.63000 228.021
55.64000 231.702
55.65000 236.547
55.66000 241.791
55.67000 246.586
55.68000 254.770
55.69000 262.739
55.70000 268.920
55.71000 265.410
55.72000 260.446
55.73000 259.832
55.74000 274.873
55.75000 291.321
55.76000 303.153
55.77000 298.253
55.78000 293.917
55.79000 296.278
55.80000 309.842
55.81000 323.582
55.82000 329.891
55.83000 327.924
55.84000 325.958
55.85000 330.982
55.86000 340.998
55.87000 350.745
55.88000 351.249
55.89000 347.209
55.90000 343.528
55.91000 345.276
55.92000 348.848
55.93000 352.107
55.94000 356.618
55.95000 360.871
55.96000 363.784
55.97000 359.575
55.98000 354.320
55.99000 348.539
56.00000 340.895
56.01000 333.088
56.02000 327.502
56.03000 336.706
56.04000 344.233
56.05000 341.875
56.06000 323.274
56.07000 304.435
56.08000 295.340
56.09000 296.890
56.10000 298.438
56.11000 294.686
56.12000 287.224
56.13000 280.054
56.14000 282.427
56.15000 289.413
56.16000 295.229
56.17000 283.924
56.18000 266.961
56.19000 251.525
56.20000 243.663
56.21000 238.199
56.22000 232.842
56.23000 228.043
56.24000 223.324
56.25000 219.385
56.26000 218.158
56.27000 217.163
56.28000 216.454
56.29000 207.261
56.30000 199.983
56.31000 197.019
56.32000 201.022
56.33000 205.120
56.34000 204.299
56.35000 198.210
56.36000 192.146
56.37000 185.548
56.38000 178.650
56.39000 171.871
56.40000 168.845
56.41000 167.600
56.42000 166.303
56.43000 164.255
56.44000 161.964
56.45000 159.884
56.46000 157.907
56.47000 156.181
56.48000 155.250
56.49000 158.380
56.50000 162.082
56.51000 164.665
56.52000 163.429
56.53000 161.875
56.54000 160.776
56.55000 156.943
56.56000 153.946
56.57000 150.958
56.58000 147.984
56.59000 145.010
56.60000 142.388
56.61000 140.135
56.62000 137.893
56.63000 137.866
56.64000 139.344
56.65000 140.814
56.66000 142.068
56.67000 143.221
56.68000 144.435
56.69000 146.505
56.70000 148.849
56.71000 150.971
56.72000 149.144
56.73000 146.788
56.74000 144.711
56.75000 144.037
56.76000 143.556
56.77000 143.287
56.78000 143.728
56.79000 144.226
56.80000 144.577
56.81000 140.137
56.82000 136.629
56.83000 133.988
56.84000 132.695
56.85000 131.419
56.86000 131.001
56.87000 131.467
56.88000 131.930
56.89000 132.806
56.90000 133.945
56.91000 135.039
56.92000 134.822
56.93000 134.004
56.94000 133.118
56.95000 131.323
56.96000 129.244
56.97000 127.365
56.98000 128.347
56.99000 129.739
57.00000 130.623
57.01000 129.002
57.02000 127.044
57.03000 126.158
57.04000 128.808
57.05000 131.735
57.06000 133.785
57.07000 133.096
57.08000 132.497
57.09000 131.457
57.10000 129.742
57.11000 128.020
57.12000 128.925
57.13000 132.481
57.14000 136.016
57.15000 136.269
57.16000 134.371
57.17000 132.470
57.18000 130.470
57.19000 128.427
57.20000 126.608
57.21000 127.723
57.22000 129.743
57.23000 131.563
57.24000 133.319
57.25000 134.849
57.26000 135.808
57.27000 134.013
57.28000 131.855
57.29000 129.825
57.30000 128.215
57.31000 126.637
57.32000 125.538
57.33000 128.678
57.34000 131.163
57.35000 132.810
57.36000 133.199
57.37000 133.576
57.38000 133.181
57.39000 132.022
57.40000 130.870
57.41000 130.339
57.42000 130.213
57.43000 130.086
57.44000 129.933
57.45000 129.766
57.46000 129.460
57.47000 127.369
57.48000 124.738
57.49000 122.373
57.50000 125.911
57.51000 130.057
57.52000 133.118
57.53000 131.039
57.54000 128.296
57.55000 125.815
57.56000 124.163
57.57000 122.573
57.58000 121.472
57.59000 130.023
57.60000 136.709
57.61000 137.113
57.62000 128.238
57.63000 119.280
57.64000 117.264
57.65000 121.978
57.66000 126.658
57.67000 130.746
57.68000 134.394
57.69000 137.768
57.70000 134.199
57.71000 127.603
57.72000 121.490
57.73000 121.343
57.74000 122.972
57.75000 124.432
57.76000 124.506
57.77000 124.329
57.78000 124.674
57.79000 127.450
57.80000 130.532
57.81000 132.982
57.82000 133.455
57.83000 133.785
57.84000 134.012
57.85000 128.394
57.86000 124.031
57.87000 121.755
57.88000 122.505
57.89000 123.281
57.90000 124.757
57.91000 126.899
57.92000 129.025
57.93000 127.890
57.94000 124.759
57.95000 121.856
57.96000 124.540
57.97000 129.617
57.98000 133.993
57.99000 129.942
58.00000 123.425
58.01000 117.596
58.02000 120.524
58.03000 124.568
58.04000 127.620
58.05000 126.146
58.06000 124.113
58.07000 122.056
58.08000 119.926
58.09000 117.790
58.10000 116.329
58.11000 119.607
58.12000 122.174
58.13000 122.965
58.14000 121.226
58.15000 119.469
58.16000 120.840
58.17000 125.127
58.18000 129.377
58.19000 127.588
58.20000 122.166
58.21000 116.949
58.22000 116.542
58.23000 118.162
58.24000 119.756
58.25000 121.060
58.26000 122.279
58.27000 123.368
58.28000 119.860
58.29000 116.042
58.30000 113.768
58.31000 118.413
58.32000 123.892
58.33000 128.193
58.34000 128.933
58.35000 129.430
58.36000 129.768
58.37000 124.512
58.38000 120.460
58.39000 118.431
58.40000 119.232
58.41000 120.052
58.42000 121.566
58.43000 123.716
58.44000 125.845
58.45000 124.834
58.46000 121.971
58.47000 119.150
58.48000 117.254
58.49000 115.741
58.50000 114.288
58.51000 113.517
58.52000 112.938
58.53000 112.424
58.54000 113.951
58.55000 115.609
58.56000 116.874
58.57000 116.409
58.58000 115.739
58.59000 115.514
58.60000 116.610
58.61000 117.794
58.62000 118.594
58.63000 121.450
58.64000 123.622
58.65000 122.649
58.66000 117.355
58.67000 112.039
58.68000 113.022
58.69000 119.647
58.70000 126.208
58.71000 127.896
58.72000 126.700
58.73000 125.602
58.74000 126.634
58.75000 128.532
58.76000 129.856
58.77000 124.812
58.78000 118.001
58.79000 111.957
58.80000 111.211
58.81000 111.410
58.82000 112.159
58.83000 115.286
58.84000 118.685
58.85000 120.373
58.86000 117.064
58.87000 113.434
58.88000 110.994
58.89000 110.590
58.90000 110.331
58.91000 110.860
58.92000 112.449
58.93000 114.045
58.94000 116.203
58.95000 118.855
58.96000 121.480
58.97000 121.843
58.98000 120.901
58.99000 119.981
59.00000 119.516
59.01000 119.234
59.02000 119.106
59.03000 120.655
59.04000 122.661
59.05000 124.437
59.06000 121.553
59.07000 118.331
59.08000 115.945
59.09000 117.100
59.10000 118.653
59.11000 119.961
59.12000 120.568
59.13000 121.132
59.14000 121.509
59.15000 118.440
59.16000 116.098
59.17000 116.238
59.18000 119.662
59.19000 123.100
59.20000 124.537
59.21000 124.250
59.22000 123.967
59.23000 123.312
59.24000 122.464
59.25000 121.601
59.26000 120.437
59.27000 119.155
59.28000 117.805
59.29000 115.741
59.30000 113.487
59.31000 111.497
59.32000 117.539
59.33000 123.978
59.34000 128.531
59.35000 125.231
59.36000 121.067
59.37000 118.008
59.38000 118.063
59.39000 118.305
59.40000 118.466
59.41000 117.537
59.42000 116.830
59.43000 118.225
59.44000 122.353
59.45000 126.482
59.46000 124.656
59.47000 117.791
59.48000 111.009
59.49000 110.480
59.50000 113.417
59.51000 116.256
59.52000 117.172
59.53000 117.345
59.54000 117.629
59.55000 119.065
59.56000 120.804
59.57000 122.335
59.58000 121.493
59.59000 120.414
59.60000 119.847
59.61000 121.377
59.62000 123.132
59.63000 124.776
59.64000 126.111
59.65000 127.429
59.66000 128.298
59.67000 124.938
59.68000 122.387
59.69000 120.239
59.70000 118.608
59.71000 116.986
59.72000 118.813
59.73000 123.503
59.74000 128.133
59.75000 126.053
59.76000 120.393
59.77000 115.013
59.78000 114.930
59.79000 116.863
59.80000 118.812
59.81000 120.929
59.82000 123.089
59.83000 124.985
59.84000 125.408
59.85000 125.556
59.86000 125.731
59.87000 126.013
59.88000 126.306
59.89000 125.564
59.90000 122.003
59.91000 118.283
59.92000 115.844
59.93000 115.519
59.94000 115.315
59.95000 113.607
59.96000 110.015
59.97000 106.429
59.98000 107.673
59.99000 112.848
60.00000 117.954
60.01000 118.586
60.02000 116.822
60.03000 115.113
60.04000 114.421
60.05000 114.107
60.06000 113.911
60.07000 114.856
60.08000 116.091
60.09000 117.171
60.10000 118.048
60.11000 118.769
60.12000 119.383
60.13000 119.570
60.14000 119.713
60.15000 119.807
60.16000 119.770
60.17000 119.726
60.18000 119.697
60.19000 115.749
60.20000 112.792
60.21000 112.794
60.22000 116.430
60.23000 120.071
60.24000 121.872
60.25000 122.203
60.26000 122.528
60.27000 120.571
60.28000 117.478
60.29000 114.513
60.30000 113.791
60.31000 113.894
60.32000 113.938
60.33000 113.423
60.34000 112.768
60.35000 112.197
60.36000 116.759
60.37000 121.378
60.38000 124.604
60.39000 122.434
60.40000 119.726
60.41000 117.989
60.42000 118.809
60.43000 119.765
60.44000 120.384
60.45000 116.278
60.46000 113.205
60.47000 113.194
60.48000 116.877
60.49000 120.560
60.50000 122.279
60.51000 122.456
60.52000 122.631
60.53000 119.365
60.54000 114.437
60.55000 109.971
60.56000 113.433
60.57000 119.759
60.58000 125.441
60.59000 125.124
60.60000 123.338
60.61000 121.785
60.62000 123.604
60.63000 125.618
60.64000 126.478
60.65000 122.947
60.66000 118.989
60.67000 116.142
60.68000 116.170
60.69000 116.345
60.70000 116.457
60.71000 122.624
60.72000 127.207
60.73000 126.284
60.74000 118.844
60.75000 111.419
60.76000 110.346
60.77000 114.163
60.78000 117.919
60.79000 120.787
60.80000 123.118
60.81000 125.202
60.82000 123.209
60.83000 119.768
60.84000 116.837
60.85000 118.547
60.86000 121.372
60.87000 123.822
60.88000 123.241
60.89000 122.340
60.90000 121.037
60.91000 118.228
60.92000 115.276
60.93000 114.087
60.94000 117.383
60.95000 120.900
60.96000 123.147
60.97000 125.763
60.98000 127.671
60.99000 125.557
61.00000 118.775
61.01000 112.010
61.02000 110.181
61.03000 112.082
61.04000 113.951
61.05000 118.624
61.06000 124.523
61.07000 129.927
61.08000 127.351
61.09000 121.990
61.10000 117.352
61.11000 119.149
61.12000 122.464
61.13000 125.331
61.14000 123.918
61.15000 122.159
61.16000 121.122
61.17000 122.736
61.18000 124.595
61.19000 127.077
61.20000 131.116
61.21000 135.230
61.22000 137.839
61.23000 133.832
61.24000 130.842
61.25000 128.948
61.26000 128.300
61.27000 127.667
61.28000 129.672
61.29000 133.634
61.30000 137.525
61.31000 136.052
61.32000 132.036
61.33000 128.054
61.34000 124.603
61.35000 121.335
61.36000 118.819
61.37000 122.830
61.38000 128.354
61.39000 133.117
61.40000 128.767
61.41000 123.916
61.42000 120.179
61.43000 120.465
61.44000 121.113
61.45000 123.280
61.46000 129.180
61.47000 135.251
61.48000 139.077
61.49000 140.868
61.50000 142.141
61.51000 150.612
61.52000 167.121
61.53000 183.596
61.54000 193.237
61.55000 197.900
61.56000 202.474
61.57000 213.204
61.58000 226.467
61.59000 239.721
61.60000 252.818
61.61000 265.862
61.62000 277.978
61.63000 282.212
61.64000 284.654
61.65000 286.752
61.66000 285.176
61.67000 283.385
61.68000 283.367
61.69000 289.634
61.70000 296.454
61.71000 301.344
61.72000 301.572
61.73000 301.592
61.74000 301.606
61.75000 288.338
61.76000 278.619
61.77000 265.421
61.78000 248.410
61.79000 231.411
61.80000 216.293
61.81000 202.520
61.82000 189.024
61.83000 178.638
61.84000 170.096
61.85000 161.816
61.86000 157.379
61.87000 154.215
61.88000 150.710
61.89000 144.364
61.90000 137.384
61.91000 131.404
61.92000 129.499
61.93000 128.386
61.94000 128.306
61.95000 131.821
61.96000 135.644
61.97000 137.303
61.98000 133.825
61.99000 130.128
62.00000 127.830
62.01000 128.544
62.02000 129.088
62.03000 130.451
62.04000 132.693
62.05000 134.930
62.06000 136.509
62.07000 137.625
62.08000 138.718
62.09000 135.118
62.10000 129.511
62.11000 124.476
62.12000 127.582
62.13000 133.341
62.14000 138.382
62.15000 137.602
62.16000 135.546
62.17000 133.790
62.18000 134.508
62.19000 135.408
62.20000 135.857
62.21000 134.767
62.22000 133.549
62.23000 132.365
62.24000 131.258
62.25000 130.154
62.26000 129.473
62.27000 131.372
62.28000 132.759
62.29000 132.070
62.30000 129.195
62.31000 126.334
62.32000 125.167
62.33000 125.170
62.34000 125.173
62.35000 127.079
62.36000 129.761
62.37000 132.189
62.38000 131.100
62.39000 128.886
62.40000 127.294
62.41000 130.636
62.42000 135.040
62.43000 138.789
62.44000 136.763
62.45000 134.390
62.46000 131.208
62.47000 125.308
62.48000 119.187
62.49000 116.417
62.50000 121.335
62.51000 126.557
62.52000 129.755
62.53000 126.302
62.54000 123.772
62.55000 125.547
62.56000 131.765
62.57000 137.919
62.58000 137.009
62.59000 131.312
62.60000 125.747
62.61000 127.173
62.62000 131.618
62.63000 135.784
62.64000 136.177
62.65000 135.383
62.66000 134.833
62.67000 136.177
62.68000 137.920
62.69000 139.400
62.70000 136.798
62.71000 134.153
62.72000 132.184
62.73000 132.446
62.74000 132.884
62.75000 132.338
62.76000 129.574
62.77000 126.725
62.78000 124.993
62.79000 119.814
62.80000 116.089
62.81000 117.257
62.82000 123.378
62.83000 129.440
62.84000 129.563
62.85000 125.733
62.86000 121.997
62.87000 124.662
62.88000 129.979
62.89000 135.070
62.90000 137.210
62.91000 138.438
62.92000 139.611
62.93000 140.362
62.94000 141.025
62.95000 141.585
62.96000 137.134
62.97000 132.855
62.98000 129.284
62.99000 128.014
63.00000 126.920
63.01000 127.809
63.02000 133.096
63.03000 138.543
63.04000 141.831
63.05000 138.992
63.06000 136.927
63.07000 137.427
63.08000 140.470
63.09000 143.481
63.10000 143.458
63.11000 141.452
63.12000 139.496
63.13000 137.801
63.14000 136.295
63.15000 135.183
63.16000 139.105
63.17000 144.556
63.18000 149.578
63.19000 151.423
63.20000 152.622
63.21000 153.632
63.22000 147.428
63.23000 141.468
63.24000 136.727
63.25000 135.876
63.26000 135.315
63.27000 134.050
63.28000 131.252
63.29000 128.400
63.30000 126.691
63.31000 132.053
63.32000 135.906
63.33000 136.332
63.34000 133.426
63.35000 130.567
63.36000 131.787
63.37000 135.627
63.38000 139.364
63.39000 141.715
63.40000 143.377
63.41000 144.827
63.42000 143.649
63.43000 141.686
63.44000 139.405
63.45000 134.806
63.46000 129.744
63.47000 125.492
63.48000 130.099
63.49000 134.873
63.50000 138.586
63.51000 138.980
63.52000 139.133
63.53000 138.783
63.54000 137.358
63.55000 135.896
63.56000 135.027
63.57000 135.286
63.58000 135.475
63.59000 133.277
63.60000 128.801
63.61000 124.389
63.62000 125.011
63.63000 128.807
63.64000 132.499
63.65000 135.363
63.66000 137.749
63.67000 139.926
63.68000 139.575
63.69000 138.483
63.70000 137.545
63.71000 137.697
63.72000 138.064
63.73000 138.371
63.74000 139.316
63.75000 140.167
63.76000 141.101
63.77000 142.290
63.78000 143.496
63.79000 143.962
63.80000 142.870
63.81000 141.727
63.82000 141.053
63.83000 138.027
63.84000 135.878
63.85000 137.830
63.86000 143.612
63.87000 149.314
63.88000 149.161
63.89000 145.377
63.90000 141.703
63.91000 143.334
63.92000 147.009
63.93000 150.155
63.94000 147.093
63.95000 142.241
63.96000 138.473
63.97000 142.253
63.98000 147.482
63.99000 151.845
64.00000 149.378
64.01000 146.648
64.02000 144.230
64.03000 142.761
64.04000 141.357
64.05000 142.185
64.06000 147.638
64.07000 153.232
64.08000 156.507
64.09000 151.018
64.10000 147.112
64.11000 147.361
64.12000 151.417
64.13000 155.397
64.14000 154.110
64.15000 149.617
64.16000 145.259
64.17000 144.178
64.18000 144.444
64.19000 145.084
64.20000 150.004
64.21000 156.135
64.22000 161.363
64.23000 160.437
64.24000 158.352
64.25000 156.618
64.26000 152.199
64.27000 148.279
64.28000 146.785
64.29000 152.514
64.30000 158.723
64.31000 163.021
64.32000 163.433
64.33000 163.731
64.34000 163.904
64.35000 161.761
64.36000 160.246
64.37000 159.373
64.38000 159.076
64.39000 158.771
64.40000 158.013
64.41000 156.985
64.42000 155.988
64.43000 159.996
64.44000 165.719
64.45000 170.717
64.46000 167.631
64.47000 162.296
64.48000 157.494
64.49000 156.249
64.50000 155.660
64.51000 155.173
64.52000 156.182
64.53000 157.157
64.54000 157.826
64.55000 157.598
64.56000 157.312
64.57000 156.950
64.58000 156.437
64.59000 155.919
64.60000 155.620
64.61000 164.554
64.62000 170.841
64.63000 174.441
64.64000 175.670
64.65000 176.830
64.66000 173.773
64.67000 168.236
64.68000 162.879
64.69000 163.095
64.70000 165.411
64.71000 167.787
64.72000 170.821
64.73000 174.036
64.74000 176.553
64.75000 174.519
64.76000 171.660
64.77000 169.299
64.78000 170.988
64.79000 172.757
64.80000 173.631
64.81000 171.937
64.82000 170.081
64.83000 169.858
64.84000 172.844
64.85000 175.914
64.86000 177.670
64.87000 175.950
64.88000 174.741
64.89000 175.404
64.90000 177.687
64.91000 179.991
64.92000 183.557
64.93000 187.850
64.94000 191.998
64.95000 187.747
64.96000 180.616
64.97000 174.467
64.98000 178.720
64.99000 185.766
65.00000 192.957
65.01000 201.078
65.02000 209.364
65.03000 216.180
65.04000 209.169
65.05000 202.152
65.06000 198.217
65.07000 202.989
65.08000 208.289
65.09000 210.857
65.10000 208.145
65.11000 205.299
65.12000 203.686
65.13000 201.759
65.14000 200.424
65.15000 203.039
65.16000 209.006
65.17000 214.849
65.18000 214.198
65.19000 209.859
65.20000 205.674
65.21000 210.849
65.22000 219.135
65.23000 226.662
65.24000 226.350
65.25000 223.971
65.26000 222.016
65.27000 222.723
65.28000 223.893
65.29000 224.852
65.30000 232.578
65.31000 239.512
65.32000 244.634
65.33000 244.722
65.34000 244.514
65.35000 243.036
65.36000 239.148
65.37000 235.201
65.38000 232.982
65.39000 247.657
65.40000 257.880
65.41000 266.450
65.42000 273.643
65.43000 280.730
65.44000 282.503
65.45000 281.311
65.46000 280.163
65.47000 279.918
65.48000 280.013
65.49000 280.816
65.50000 288.763
65.51000 298.561
65.52000 307.511
65.53000 311.254
65.54000 314.109
65.55000 316.440
65.56000 317.983
65.57000 319.177
65.58000 325.422
65.59000 345.457
65.60000 366.276
65.61000 386.159
65.62000 404.293
65.63000 422.388
65.64000 432.475
65.65000 471.345
65.66000 498.338
65.67000 539.718
65.68000 592.846
65.69000 646.605
65.70000 730.189
65.71000 830.125
65.72000 926.259
65.73000 1053.582
65.74000 1183.920
65.75000 1312.815
65.76000 1427.534
65.77000 1538.646
65.78000 1644.039
65.79000 1715.003
65.80000 1780.209
65.81000 1833.251
65.82000 1867.729
65.83000 1894.323
65.84000 1916.748
65.85000 1927.986
65.86000 1938.608
65.87000 1942.729
65.88000 1934.922
65.89000 1926.857
65.90000 1922.400
65.91000 1883.500
65.92000 1856.469
65.93000 1784.576
65.94000 1676.730
65.95000 1568.627
65.96000 1449.037
65.97000 1323.258
65.98000 1202.439
65.99000 1084.303
66.00000 974.665
66.01000 867.058
66.02000 778.916
66.03000 695.639
66.04000 616.725
66.05000 563.560
66.06000 514.615
66.07000 474.952
66.08000 449.107
66.09000 429.182
66.10000 412.876
66.11000 406.119
66.12000 399.870
66.13000 392.113
66.14000 381.636
66.15000 371.104
66.16000 365.333
66.17000 368.143
66.18000 370.091
66.19000 372.490
66.20000 375.245
66.21000 377.988
66.22000 380.227
66.23000 382.199
66.24000 384.090
66.25000 404.661
66.26000 430.197
66.27000 454.786
66.28000 470.510
66.29000 484.059
66.30000 498.488
66.31000 518.004
66.32000 538.337
66.33000 554.750
66.34000 582.979
66.35000 606.859
66.36000 624.433
66.37000 625.655
66.38000 626.037
66.39000 624.206
66.40000 618.451
66.41000 612.621
66.42000 609.454
66.43000 617.936
66.44000 623.742
66.45000 623.690
66.46000 619.114
66.47000 614.403
66.48000 604.222
66.49000 591.193
66.50000 578.716
66.51000 559.376
66.52000 539.065
66.53000 517.686
66.54000 486.547
66.55000 453.056
66.56000 423.308
66.57000 414.781
66.58000 409.592
66.59000 405.420
66.60000 397.582
66.61000 390.944
66.62000 382.719
66.63000 370.449
66.64000 357.978
66.65000 349.371
66.66000 347.493
66.67000 345.736
66.68000 344.791
66.69000 336.133
66.70000 330.258
66.71000 335.076
66.72000 348.001
66.73000 360.662
66.74000 363.286
66.75000 360.775
66.76000 358.374
66.77000 359.378
66.78000 361.422
66.79000 363.532
66.80000 366.238
66.81000 369.085
66.82000 370.433
66.83000 363.445
66.84000 355.172
66.85000 348.546
66.86000 350.307
66.87000 352.362
66.88000 353.467
66.89000 352.195
66.90000 350.808
66.91000 349.185
66.92000 347.155
66.93000 345.118
66.94000 344.032
66.95000 361.174
66.96000 372.810
66.97000 373.632
66.98000 366.408
66.99000 359.437
67.00000 361.669
67.01000 368.529
67.02000 375.078
67.03000 374.309
67.04000 371.256
67.05000 368.581
67.06000 369.203
67.07000 370.590
67.08000 371.261
67.09000 368.023
67.10000 364.196
67.11000 361.143
67.12000 373.887
67.13000 385.327
67.14000 393.150
67.15000 392.060
67.16000 390.558
67.17000 388.317
67.18000 384.831
67.19000 381.326
67.20000 379.473
67.21000 388.218
67.22000 394.169
67.23000 401.207
67.24000 409.038
67.25000 416.572
67.26000 413.807
67.27000 405.953
67.28000 398.467
67.29000 389.970
67.30000 381.774
67.31000 374.931
67.32000 379.609
67.33000 386.914
67.34000 394.968
67.35000 407.025
67.36000 419.674
67.37000 429.724
67.38000 422.782
67.39000 415.984
67.40000 412.546
67.41000 417.243
67.42000 422.304
67.43000 422.445
67.44000 414.460
67.45000 406.353
67.46000 402.109
67.47000 424.815
67.48000 440.133
67.49000 445.273
67.50000 443.115
67.51000 440.965
67.52000 439.117
67.53000 437.416
67.54000 435.796
67.55000 434.542
67.56000 433.494
67.57000 432.659
67.58000 433.596
67.59000 434.931
67.60000 436.361
67.61000 438.287
67.62000 440.285
67.63000 441.866
67.64000 445.512
67.65000 448.585
67.66000 448.626
67.67000 441.449
67.68000 433.963
67.69000 435.099
67.70000 450.229
67.71000 465.553
67.72000 473.502
67.73000 462.928
67.74000 455.794
67.75000 449.475
67.76000 443.729
67.77000 438.436
67.78000 447.482
67.79000 463.376
67.80000 478.475
67.81000 481.594
67.82000 480.861
67.83000 480.291
67.84000 481.046
67.85000 482.092
67.86000 482.119
67.87000 476.912
67.88000 470.963
67.89000 466.275
67.90000 480.929
67.91000 493.974
67.92000 502.889
67.93000 502.138
67.94000 500.989
67.95000 502.184
67.96000 507.119
67.97000 512.103
67.98000 514.663
67.99000 516.049
68.00000 516.953
68.01000 514.353
68.02000 509.327
68.03000 504.579
68.04000 508.250
68.05000 515.872
68.06000 523.101
68.07000 520.532
68.08000 515.266
68.09000 511.551
68.10000 520.179
68.11000 531.470
68.12000 540.582
68.13000 538.700
68.14000 535.294
68.15000 532.621
68.16000 534.066
68.17000 535.489
68.18000 539.417
68.19000 549.107
68.20000 559.026
68.21000 563.892
68.22000 560.841
68.23000 557.695
68.24000 556.094
68.25000 563.210
68.26000 568.011
68.27000 576.115
68.28000 586.464
68.29000 596.430
68.30000 595.305
68.31000 589.062
68.32000 583.151
68.33000 590.290
68.34000 600.645
68.35000 609.899
68.36000 610.574
68.37000 609.434
68.38000 609.421
68.39000 614.995
68.40000 621.327
68.41000 626.275
68.42000 639.214
68.43000 650.043
68.44000 660.286
68.45000 669.202
68.46000 678.067
68.47000 686.841
68.48000 695.473
68.49000 704.104
68.50000 708.451
68.51000 702.900
68.52000 699.401
68.53000 717.500
68.54000 750.012
68.55000 782.145
68.56000 803.741
68.57000 820.558
68.58000 836.452
68.59000 845.199
68.60000 851.198
68.61000 860.866
68.62000 898.463
68.63000 941.863
68.64000 984.996
68.65000 1026.831
68.66000 1068.493
68.67000 1100.907
68.68000 1150.927
68.69000 1191.827
68.70000 1234.517
68.71000 1281.188
68.72000 1328.004
68.73000 1370.670
68.74000 1407.060
68.75000 1443.386
68.76000 1488.261
68.77000 1541.641
68.78000 1595.032
68.79000 1649.474
68.80000 1704.605
68.81000 1759.937
68.82000 1820.628
68.83000 1883.708
68.84000 1943.221
68.85000 2036.378
68.86000 2131.157
68.87000 2237.330
68.88000 2428.364
68.89000 2636.699
68.90000 2904.874
68.91000 3458.258
68.92000 4048.686
68.93000 4506.065
68.94000 6377.862
68.95000 7948.644
68.96000 9943.278
68.97000 12864.176
68.98000 15817.626
68.99000 18995.471
69.00000 22506.486
69.01000 26020.539
69.02000 29234.383
69.03000 32155.334
69.04000 35068.020
69.05000 37263.645
69.06000 38997.590
69.07000 40700.660
69.08000 41611.438
69.09000 42174.961
69.10000 42705.648
69.11000 43356.949
69.12000 43985.781
69.13000 44638.648
69.14000 45466.699
69.15000 46329.793
69.16000 47079.250
69.17000 47297.176
69.18000 47447.574
69.19000 47563.574
69.20000 45812.617
69.21000 44317.488
69.22000 42275.918
69.23000 39060.492
69.24000 35805.535
69.25000 32933.203
69.26000 30618.838
69.27000 28309.377
69.28000 26444.539
69.29000 25004.957
69.30000 23572.822
69.31000 22738.645
69.32000 22282.680
69.33000 21831.717
69.34000 21504.125
69.35000 21229.688
69.36000 20971.715
69.37000 20265.549
69.38000 19500.490
69.39000 18640.074
69.40000 17099.584
69.41000 15425.630
69.42000 13714.175
69.43000 11830.557
69.44000 9925.554
69.45000 8462.824
69.46000 6819.414
69.47000 5510.192
69.48000 4387.175
69.49000 3657.352
69.50000 2940.204
69.51000 2391.639
69.52000 2084.508
69.53000 1779.286
69.54000 1563.434
69.55000 1431.384
69.56000 1299.918
69.57000 1212.032
69.58000 1151.226
69.59000 1091.093
69.60000 1046.918
69.61000 1009.502
69.62000 974.396
69.63000 942.499
69.64000 914.279
69.65000 887.304
69.66000 869.021
69.67000 852.410
69.68000 833.822
69.69000 806.322
69.70000 777.740
69.71000 755.892
69.72000 749.492
69.73000 745.282
69.74000 732.232
69.75000 700.833
69.76000 668.868
69.77000 647.583
69.78000 641.319
69.79000 635.162
69.80000 628.851
69.81000 622.403
69.82000 615.827
69.83000 600.347
69.84000 579.431
69.85000 559.287
69.86000 556.773
69.87000 561.599
69.88000 566.119
69.89000 555.502
69.90000 541.939
69.91000 529.222
69.92000 522.293
69.93000 516.457
69.94000 510.553
69.95000 504.350
69.96000 498.112
69.97000 493.365
69.98000 492.865
69.99000 492.694
70.00000 490.742
