20.00000 453.437
20.01000 460.869
20.02000 469.363
20.03000 476.472
20.04000 478.117
20.05000 479.204
20.06000 480.007
20.07000 474.871
20.08000 470.639
20.09000 471.734
20.10000 482.572
20.11000 493.619
20.12000 494.619
20.13000 483.280
20.14000 471.928
20.15000 465.082
20.16000 461.851
20.17000 458.793
20.18000 463.450
20.19000 472.251
20.20000 480.560
20.21000 480.172
20.22000 476.589
20.23000 473.283
20.24000 466.806
20.25000 460.294
20.26000 455.170
20.27000 458.212
20.28000 462.588
20.29000 467.414
20.30000 473.987
20.31000 480.735
20.32000 485.692
20.33000 479.272
20.34000 473.844
20.35000 468.191
20.36000 462.137
20.37000 456.075
20.38000 455.023
20.39000 460.012
20.40000 465.004
20.41000 467.562
20.42000 468.207
20.43000 468.764
20.44000 465.595
20.45000 460.460
20.46000 455.484
20.47000 453.256
20.48000 452.019
20.49000 450.880
20.50000 461.995
20.51000 474.617
20.52000 485.014
20.53000 482.586
20.54000 478.106
20.55000 474.142
20.56000 472.143
20.57000 470.335
20.58000 469.013
20.59000 461.715
20.60000 455.850
20.61000 453.987
20.62000 459.194
20.63000 464.536
20.64000 466.530
20.65000 464.564
20.66000 462.596
20.67000 464.357
20.68000 468.963
20.69000 473.479
20.70000 474.458
20.71000 473.601
20.72000 472.437
20.73000 466.171
20.74000 458.095
20.75000 450.677
20.76000 452.897
20.77000 456.944
20.78000 461.015
20.79000 465.221
20.80000 469.447
20.81000 471.895
20.82000 467.696
20.83000 462.866
20.84000 459.353
20.85000 456.458
20.86000 454.253
20.87000 455.741
20.88000 463.642
20.89000 471.657
20.90000 476.132
20.91000 476.498
20.92000 476.857
20.93000 469.081
20.94000 455.252
20.95000 441.720
20.96000 439.439
20.97000 442.897
20.98000 446.641
20.99000 454.980
21.00000 464.922
21.01000 474.035
21.02000 465.137
21.03000 453.430
21.04000 443.420
21.05000 442.821
21.06000 443.667
21.07000 445.137
21.08000 448.895
21.09000 452.865
21.10000 455.737
21.11000 462.883
21.12000 468.524
21.13000 471.535
21.14000 470.061
21.15000 468.512
21.16000 471.046
21.17000 478.229
21.18000 485.394
21.19000 482.890
21.20000 473.287
21.21000 463.815
21.22000 459.117
21.23000 456.812
21.24000 454.573
21.25000 453.362
21.26000 452.505
21.27000 451.721
21.28000 456.404
21.29000 461.692
21.30000 467.314
21.31000 474.752
21.32000 482.463
21.33000 486.695
21.34000 478.380
21.35000 468.933
21.36000 462.134
21.37000 459.562
21.38000 457.742
21.39000 457.800
21.40000 461.007
21.41000 464.265
21.42000 467.367
21.43000 470.295
21.44000 473.214
21.45000 473.274
21.46000 471.269
21.47000 469.239
21.48000 466.336
21.49000 463.003
21.50000 460.030
21.51000 462.494
21.52000 466.791
21.53000 470.711
21.54000 464.204
21.55000 456.329
21.56000 449.707
21.57000 449.754
21.58000 450.784
21.59000 453.512
21.60000 462.254
21.61000 471.523
21.62000 478.161
21.63000 472.863
21.64000 468.413
21.65000 466.884
21.66000 470.167
21.67000 473.520
21.68000 475.685
21.69000 476.546
21.70000 477.404
21.71000 478.466
21.72000 479.663
21.73000 480.810
21.74000 480.284
21.75000 478.948
21.76000 477.953
21.77000 481.964
21.78000 487.633
21.79000 492.793
21.80000 492.268
21.81000 490.682
21.82000 490.605
21.83000 498.418
21.84000 507.370
21.85000 513.837
21.86000 511.658
21.87000 508.740
21.88000 506.661
21.89000 515.990
21.90000 523.470
21.91000 533.709
21.92000 548.413
21.93000 563.179
21.94000 569.896
21.95000 567.971
21.96000 566.052
21.97000 569.992
21.98000 577.962
21.99000 585.609
22.00000 583.106
22.01000 575.770
22.02000 569.240
22.03000 574.193
22.04000 582.885
22.05000 590.778
22.06000 586.010
22.07000 579.347
22.08000 574.757
22.09000 580.785
22.10000 588.313
22.11000 593.529
22.12000 590.839
22.13000 587.491
22.14000 585.119
22.15000 587.312
22.16000 589.121
22.17000 589.862
22.18000 588.904
22.19000 587.924
22.20000 581.647
22.21000 569.793
22.22000 557.995
22.23000 549.088
22.24000 542.252
22.25000 535.272
22.26000 523.967
22.27000 510.638
22.28000 498.572
22.29000 503.995
22.30000 515.012
22.31000 524.994
22.32000 518.645
22.33000 509.953
22.34000 501.911
22.35000 497.136
22.36000 492.813
22.37000 489.052
22.38000 487.178
22.39000 485.457
22.40000 484.244
22.41000 469.740
22.42000 458.344
22.43000 456.586
22.44000 469.883
22.45000 483.357
22.46000 486.468
22.47000 478.884
22.48000 471.339
22.49000 464.596
22.50000 458.473
22.51000 452.529
22.52000 451.754
22.53000 453.357
22.54000 454.505
22.55000 449.523
22.56000 442.614
22.57000 436.370
22.58000 446.946
22.59000 459.371
22.60000 468.053
22.61000 458.262
22.62000 445.974
22.63000 438.723
22.64000 448.103
22.65000 458.795
22.66000 466.287
22.67000 462.851
22.68000 459.940
22.69000 453.024
22.70000 439.966
22.71000 426.841
22.72000 421.042
22.73000 422.653
22.74000 424.255
22.75000 426.188
22.76000 428.312
22.77000 430.474
22.78000 433.688
22.79000 437.379
22.80000 440.485
22.81000 435.943
22.82000 429.038
22.83000 422.813
22.84000 424.245
22.85000 426.893
22.86000 429.576
22.87000 432.427
22.88000 435.301
22.89000 438.709
22.90000 443.850
22.91000 449.124
22.92000 452.799
22.93000 452.294
22.94000 451.798
22.95000 450.411
22.96000 447.679
22.97000 444.935
22.98000 442.233
22.99000 439.574
23.00000 436.932
23.01000 436.079
23.02000 436.390
23.03000 436.474
23.04000 430.528
23.05000 421.902
23.06000 413.991
23.07000 415.170
23.08000 419.109
23.09000 422.652
23.10000 426.645
23.11000 430.223
23.12000 432.669
23.13000 429.741
23.14000 426.118
23.15000 424.673
23.16000 430.177
23.17000 436.199
23.18000 440.371
23.19000 434.707
23.20000 430.186
23.21000 429.350
23.22000 433.969
23.23000 438.639
23.24000 442.635
23.25000 445.978
23.26000 449.296
23.27000 448.565
23.28000 445.286
23.29000 441.945
23.30000 437.030
23.31000 431.427
23.32000 426.098
23.33000 424.163
23.34000 423.240
23.35000 422.413
23.36000 423.401
23.37000 424.581
23.38000 426.303
23.39000 430.553
23.40000 435.124
23.41000 439.099
23.42000 441.206
23.43000 443.178
23.44000 444.536
23.45000 438.903
23.46000 434.499
23.47000 430.696
23.48000 427.768
23.49000 424.849
23.50000 426.085
23.51000 431.281
23.52000 436.436
23.53000 439.416
23.54000 440.997
23.55000 442.406
23.56000 439.610
23.57000 435.008
23.58000 430.890
23.59000 432.600
23.60000 436.018
23.61000 439.077
23.62000 430.405
23.63000 420.839
23.64000 413.481
23.65000 416.223
23.66000 420.216
23.67000 424.076
23.68000 427.528
23.69000 430.951
23.70000 433.295
23.71000 425.996
23.72000 420.299
23.73000 419.464
23.74000 425.573
23.75000 431.735
23.76000 439.988
23.77000 450.192
23.78000 460.311
23.79000 453.124
23.80000 435.542
23.81000 418.703
23.82000 419.372
23.83000 427.434
23.84000 435.238
23.85000 440.009
23.86000 443.907
23.87000 447.385
23.88000 442.514
23.89000 436.879
23.90000 434.539
23.91000 447.004
23.92000 461.259
23.93000 469.081
23.94000 457.433
23.95000 444.453
23.96000 435.616
23.97000 429.574
23.98000 425.125
23.99000 425.627
24.00000 433.069
24.01000 440.556
24.02000 443.248
24.03000 441.549
24.04000 439.864
24.05000 444.430
24.06000 452.637
24.07000 460.548
24.08000 461.730
24.09000 460.118
24.10000 458.444
24.11000 456.055
24.12000 453.463
24.13000 451.156
24.14000 442.843
24.15000 434.642
24.16000 427.514
24.17000 425.121
24.18000 423.288
24.19000 423.900
24.20000 431.783
24.21000 440.150
24.22000 445.812
24.23000 435.459
24.24000 427.396
24.25000 423.367
24.26000 424.890
24.27000 426.446
24.28000 426.204
24.29000 424.346
24.30000 422.507
24.31000 421.210
24.32000 420.259
24.33000 419.215
24.34000 416.145
24.35000 412.250
24.36000 408.584
24.37000 407.476
24.38000 407.080
24.39000 406.728
24.40000 410.319
24.41000 414.062
24.42000 418.850
24.43000 428.167
24.44000 438.006
24.45000 442.151
24.46000 429.644
24.47000 416.065
24.48000 406.930
24.49000 418.312
24.50000 427.196
24.51000 427.585
24.52000 416.491
24.53000 405.345
24.54000 405.677
24.55000 416.121
24.56000 426.457
24.57000 426.686
24.58000 421.101
24.59000 415.600
24.60000 411.863
24.61000 408.835
24.62000 406.700
24.63000 414.271
24.64000 424.493
24.65000 433.542
24.66000 430.392
24.67000 425.759
24.68000 422.395
24.69000 424.430
24.70000 427.073
24.71000 426.358
24.72000 415.988
24.73000 405.015
24.74000 397.679
24.75000 400.337
24.76000 402.503
24.77000 403.644
24.78000 403.421
24.79000 403.190
24.80000 401.649
24.81000 398.976
24.82000 396.332
24.83000 402.940
24.84000 414.613
24.85000 425.566
24.86000 421.869
24.87000 412.395
24.88000 403.647
24.89000 402.579
24.90000 403.572
24.91000 404.449
24.92000 407.944
24.93000 411.361
24.94000 412.379
24.95000 403.384
24.96000 393.286
24.97000 388.776
24.98000 400.050
24.99000 412.280
25.00000 420.407
25.01000 408.796
25.02000 399.842
25.03000 394.688
25.04000 394.484
25.05000 394.300
25.06000 393.616
25.07000 392.506
25.08000 391.410
25.09000 396.879
25.10000 405.846
25.11000 414.521
25.12000 417.444
25.13000 418.137
25.14000 418.555
25.15000 416.127
25.16000 412.949
25.17000 410.151
25.18000 403.496
25.19000 397.187
25.20000 392.656
25.21000 395.412
25.22000 398.952
25.23000 402.099
25.24000 404.153
25.25000 406.143
25.26000 407.457
25.27000 403.873
25.28000 401.143
25.29000 396.738
25.30000 390.192
25.31000 383.648
25.32000 381.837
25.33000 383.963
25.34000 386.061
25.35000 394.598
25.36000 406.408
25.37000 417.429
25.38000 413.438
25.39000 403.727
25.40000 395.003
25.41000 396.216
25.42000 400.002
25.43000 403.325
25.44000 399.831
25.45000 395.830
25.46000 394.018
25.47000 401.016
25.48000 408.940
25.49000 412.376
25.50000 403.564
25.51000 394.057
25.52000 387.818
25.53000 397.280
25.54000 404.503
25.55000 404.585
25.56000 395.705
25.57000 386.825
25.58000 389.231
25.59000 400.850
25.60000 412.312
25.61000 410.286
25.62000 401.127
25.63000 392.464
25.64000 392.924
25.65000 396.801
25.66000 400.280
25.67000 399.847
25.68000 398.419
25.69000 397.169
25.70000 397.459
25.71000 397.929
25.72000 399.301
25.73000 404.237
25.74000 409.539
25.75000 410.186
25.76000 398.342
25.77000 385.813
25.78000 377.644
25.79000 366.540
25.80000 358.348
25.81000 359.840
25.82000 373.263
25.83000 386.696
25.84000 393.127
25.85000 393.949
25.86000 394.759
25.87000 396.320
25.88000 398.227
25.89000 399.911
25.90000 397.613
25.91000 393.848
25.92000 390.666
25.93000 393.065
25.94000 396.858
25.95000 400.169
25.96000 399.209
25.97000 397.790
25.98000 395.668
25.99000 390.822
26.00000 385.703
26.01000 383.424
26.02000 388.635
26.03000 394.245
26.04000 397.878
26.05000 389.923
26.06000 383.930
26.07000 383.645
26.08000 390.260
26.09000 396.858
26.10000 394.425
26.11000 384.891
26.12000 375.501
26.13000 374.816
26.14000 378.620
26.15000 381.938
26.16000 376.879
26.17000 368.789
26.18000 362.236
26.19000 370.062
26.20000 381.415
26.21000 391.296
26.22000 393.621
26.23000 394.571
26.24000 394.751
26.25000 391.991
26.26000 388.944
26.27000 386.810
26.28000 387.043
26.29000 387.398
26.30000 387.626
26.31000 381.745
26.32000 377.367
26.33000 373.773
26.34000 371.110
26.35000 368.455
26.36000 367.443
26.37000 367.700
26.38000 367.952
26.39000 372.323
26.40000 378.629
26.41000 384.679
26.42000 386.439
26.43000 386.673
26.44000 386.517
26.45000 382.803
26.46000 378.232
26.47000 374.265
26.48000 376.304
26.49000 378.845
26.50000 379.969
26.51000 375.786
26.52000 371.099
26.53000 370.125
26.54000 378.617
26.55000 387.578
26.56000 393.307
26.57000 384.816
26.58000 378.448
26.59000 376.492
26.60000 379.670
26.61000 382.844
26.62000 383.537
26.63000 382.349
26.64000 381.181
26.65000 383.126
26.66000 386.546
26.67000 389.681
26.68000 388.220
26.69000 385.150
26.70000 381.911
26.71000 377.159
26.72000 372.048
26.73000 367.626
26.74000 377.944
26.75000 388.645
26.76000 396.841
26.77000 395.820
26.78000 393.945
26.79000 388.846
26.80000 375.674
26.81000 362.115
26.82000 353.506
26.83000 362.780
26.84000 369.733
26.85000 374.821
26.86000 377.782
26.87000 380.720
26.88000 380.041
26.89000 376.670
26.90000 373.360
26.91000 370.755
26.92000 368.584
26.93000 366.456
26.94000 365.019
26.95000 363.820
26.96000 363.249
26.97000 368.165
26.98000 374.354
26.99000 379.692
27.00000 382.777
27.01000 385.106
27.02000 385.720
27.03000 380.139
27.04000 373.997
27.05000 369.918
27.06000 370.921
27.07000 372.158
27.08000 372.938
27.09000 369.532
27.10000 367.018
27.11000 369.170
27.12000 376.546
27.13000 383.872
27.14000 382.096
27.15000 373.673
27.16000 365.410
27.17000 370.517
27.18000 381.805
27.19000 392.557
27.20000 395.141
27.21000 394.966
27.22000 394.325
27.23000 389.717
27.24000 384.205
27.25000 379.465
27.26000 380.112
27.27000 381.334
27.28000 381.875
27.29000 380.000
27.30000 377.913
27.31000 377.103
27.32000 379.387
27.33000 381.808
27.34000 383.325
27.35000 382.270
27.36000 381.480
27.37000 378.802
27.38000 374.051
27.39000 369.329
27.40000 369.256
27.41000 372.515
27.42000 375.710
27.43000 377.843
27.44000 379.400
27.45000 380.783
27.46000 379.595
27.47000 377.553
27.48000 375.926
27.49000 377.753
27.50000 380.353
27.51000 382.582
27.52000 378.521
27.53000 374.324
27.54000 371.145
27.55000 371.521
27.56000 372.202
27.57000 375.343
27.58000 384.340
27.59000 393.588
27.60000 399.340
27.61000 380.762
27.62000 367.140
27.63000 363.471
27.64000 370.518
27.65000 377.559
27.66000 383.209
27.67000 387.879
27.68000 392.452
27.69000 390.091
27.70000 384.644
27.71000 379.345
27.72000 376.176
27.73000 373.701
27.74000 371.554
27.75000 372.070
27.76000 373.171
27.77000 374.111
27.78000 370.909
27.79000 367.717
27.80000 364.505
27.81000 361.226
27.82000 357.942
27.83000 358.265
27.84000 367.027
27.85000 376.137
27.86000 381.762
27.87000 382.728
27.88000 383.378
27.89000 379.662
27.90000 371.336
27.91000 363.058
27.92000 360.861
27.93000 362.868
27.94000 364.831
27.95000 360.351
27.96000 353.155
27.97000 346.966
27.98000 354.786
27.99000 367.099
28.00000 377.824
28.01000 375.926
28.02000 371.305
28.03000 367.369
28.04000 367.797
28.05000 368.665
28.06000 369.082
28.07000 367.976
28.08000 366.745
28.09000 364.740
28.10000 360.954
28.11000 357.096
28.12000 354.731
28.13000 368.445
28.14000 378.405
28.15000 380.302
28.16000 373.851
28.17000 367.439
28.18000 365.277
28.19000 366.003
28.20000 366.713
28.21000 366.105
28.22000 364.941
28.23000 364.132
28.24000 368.106
28.25000 373.589
28.26000 378.164
28.27000 375.675
28.28000 371.691
28.29000 368.309
28.30000 368.916
28.31000 369.879
28.32000 370.953
28.33000 372.399
28.34000 373.873
28.35000 373.002
28.36000 366.829
28.37000 360.454
28.38000 356.574
28.39000 364.882
28.40000 370.913
28.41000 370.955
28.42000 364.921
28.43000 358.941
28.44000 358.477
28.45000 361.691
28.46000 364.829
28.47000 363.838
28.48000 361.101
28.49000 358.476
28.50000 357.324
28.51000 356.629
28.52000 355.582
28.53000 351.869
28.54000 347.602
28.55000 343.991
28.56000 354.679
28.57000 365.213
28.58000 372.044
28.59000 366.830
28.60000 360.687
28.61000 355.554
28.62000 352.664
28.63000 349.855
28.64000 348.158
28.65000 362.932
28.66000 373.575
28.67000 376.070
28.68000 370.461
28.69000 364.917
28.70000 365.446
28.71000 369.954
28.72000 374.348
28.73000 372.499
28.74000 368.080
28.75000 364.276
28.76000 368.339
28.77000 374.798
28.78000 379.589
28.79000 371.972
28.80000 361.826
28.81000 353.269
28.82000 348.137
28.83000 344.222
28.84000 342.090
28.85000 345.654
28.86000 349.646
28.87000 353.235
28.88000 355.943
28.89000 358.621
28.90000 360.227
28.91000 356.063
28.92000 353.067
28.93000 353.877
28.94000 358.398
28.95000 362.853
28.96000 361.569
28.97000 356.593
28.98000 351.749
28.99000 352.151
29.00000 354.724
29.01000 357.247
29.02000 359.138
29.03000 360.840
29.04000 361.471
29.05000 354.292
29.06000 345.551
29.07000 338.205
29.08000 347.292
29.09000 356.602
29.10000 363.346
29.11000 362.023
29.12000 360.113
29.13000 359.093
29.14000 359.985
29.15000 360.941
29.16000 361.510
29.17000 357.162
29.18000 354.053
29.19000 352.968
29.20000 353.818
29.21000 354.670
29.22000 355.679
29.23000 356.788
29.24000 357.866
29.25000 355.836
29.26000 352.632
29.27000 349.584
29.28000 348.430
29.29000 347.831
29.30000 347.576
29.31000 349.766
29.32000 352.436
29.33000 354.672
29.34000 348.467
29.35000 342.435
29.36000 338.438
29.37000 340.722
29.38000 343.451
29.39000 347.311
29.40000 353.561
29.41000 359.887
29.42000 363.623
29.43000 351.237
29.44000 342.401
29.45000 339.563
29.46000 342.343
29.47000 345.103
29.48000 346.339
29.49000 346.628
29.50000 346.909
29.51000 347.007
29.52000 347.026
29.53000 347.154
29.54000 348.552
29.55000 350.316
29.56000 351.276
29.57000 346.620
29.58000 340.883
29.59000 336.094
29.60000 338.157
29.61000 340.560
29.62000 344.495
29.63000 353.080
29.64000 361.984
29.65000 366.052
29.66000 360.084
29.67000 353.808
29.68000 350.129
29.69000 352.760
29.70000 354.644
29.71000 356.993
29.72000 359.768
29.73000 362.595
29.74000 369.078
29.75000 377.791
29.76000 386.242
29.77000 385.244
29.78000 380.571
29.79000 376.325
29.80000 376.988
29.81000 379.044
29.82000 381.808
29.83000 389.406
29.84000 397.917
29.85000 404.996
29.86000 407.215
29.87000 408.574
29.88000 409.000
29.89000 406.645
29.90000 404.104
29.91000 403.689
29.92000 407.607
29.93000 411.652
29.94000 414.004
29.95000 412.810
29.96000 411.956
29.97000 410.834
29.98000 409.472
29.99000 408.117
30.00000 407.217
30.01000 406.591
30.02000 405.985
30.03000 405.961
30.04000 406.164
30.05000 406.771
30.06000 411.885
30.07000 418.255
30.08000 423.863
30.09000 424.368
30.10000 423.930
30.11000 423.566
30.12000 415.085
30.13000 407.304
30.14000 400.859
30.15000 398.335
30.16000 396.064
30.17000 397.450
30.18000 406.169
30.19000 415.094
30.20000 420.241
30.21000 408.171
30.22000 399.656
30.23000 397.025
30.24000 399.594
30.25000 402.066
30.26000 398.661
30.27000 391.792
30.28000 385.147
30.29000 382.444
30.30000 381.388
30.31000 380.796
30.32000 385.243
30.33000 391.070
30.34000 395.274
30.35000 388.845
30.36000 380.484
30.37000 373.580
30.38000 371.926
30.39000 371.053
30.40000 371.584
30.41000 376.158
30.42000 380.986
30.43000 382.129
30.44000 376.010
30.45000 369.697
30.46000 366.085
30.47000 364.098
30.48000 362.717
30.49000 361.944
30.50000 361.698
30.51000 361.425
30.52000 359.615
30.53000 356.915
30.54000 354.306
30.55000 357.351
30.56000 362.329
30.57000 367.314
30.58000 372.373
30.59000 377.451
30.60000 381.551
30.61000 379.371
30.62000 376.074
30.63000 373.361
30.64000 380.483
30.65000 387.233
30.66000 392.024
30.67000 391.263
30.68000 390.165
30.69000 387.806
30.70000 383.005
30.71000 378.141
30.72000 375.382
30.73000 370.627
30.74000 367.325
30.75000 373.183
30.76000 386.827
30.77000 400.354
30.78000 407.585
30.79000 411.236
30.80000 414.758
30.81000 410.858
30.82000 404.473
30.83000 399.135
30.84000 404.636
30.85000 413.002
30.86000 419.673
30.87000 415.691
30.88000 409.851
30.89000 405.063
30.90000 406.055
30.91000 407.381
30.92000 413.145
30.93000 431.262
30.94000 450.106
30.95000 465.022
30.96000 472.463
30.97000 479.723
30.98000 483.809
30.99000 510.132
31.00000 528.462
31.01000 546.444
31.02000 564.135
31.03000 582.040
31.04000 610.710
31.05000 645.400
31.06000 678.823
31.07000 711.510
31.08000 741.955
31.09000 774.271
31.10000 825.481
31.11000 881.596
31.12000 938.238
31.13000 998.123
31.14000 1058.563
31.15000 1107.936
31.16000 1171.906
31.17000 1225.527
31.18000 1285.451
31.19000 1362.623
31.20000 1440.779
31.21000 1511.731
31.22000 1569.208
31.23000 1626.377
31.24000 1658.279
31.25000 1763.127
31.26000 1835.844
31.27000 1902.997
31.28000 1965.596
31.29000 2027.883
31.30000 2075.354
31.31000 2114.686
31.32000 2152.529
31.33000 2173.930
31.34000 2188.210
31.35000 2202.581
31.36000 2217.844
31.37000 2233.336
31.38000 2243.171
31.39000 2218.868
31.40000 2188.843
31.41000 2164.407
31.42000 2124.414
31.43000 2090.445
31.44000 2051.577
31.45000 1999.531
31.46000 1946.758
31.47000 1882.617
31.48000 1797.575
31.49000 1712.081
31.50000 1664.778
31.51000 1558.009
31.52000 1484.228
31.53000 1412.724
31.54000 1343.049
31.55000 1273.252
31.56000 1197.913
31.57000 1119.582
31.58000 1044.327
31.59000 989.324
31.60000 944.833
31.61000 899.013
31.62000 840.421
31.63000 778.629
31.64000 720.749
31.65000 686.004
31.66000 655.060
31.67000 629.973
31.68000 596.099
31.69000 567.779
31.70000 543.795
31.71000 531.272
31.72000 519.361
31.73000 505.961
31.74000 489.870
31.75000 473.724
31.76000 464.868
31.77000 450.069
31.78000 439.882
31.79000 430.797
31.80000 422.581
31.81000 414.414
31.82000 408.303
31.83000 403.283
31.84000 398.467
31.85000 394.715
31.86000 391.569
31.87000 388.334
31.88000 384.263
31.89000 379.987
31.90000 375.869
31.91000 372.669
31.92000 369.616
31.93000 367.151
31.94000 364.586
31.95000 362.494
31.96000 359.892
31.97000 355.966
31.98000 351.973
31.99000 349.581
32.00000 350.033
32.01000 350.541
32.02000 350.817
32.03000 346.062
32.04000 342.801
32.05000 340.970
32.06000 340.246
32.07000 339.536
32.08000 339.382
32.09000 339.520
32.10000 339.651
32.11000 343.033
32.12000 347.268
32.13000 350.314
32.14000 342.459
32.15000 331.971
32.16000 323.634
32.17000 327.524
32.18000 333.342
32.19000 338.022
32.20000 339.225
32.21000 339.931
32.22000 341.023
32.23000 343.104
32.24000 345.235
32.25000 346.175
32.26000 345.037
32.27000 343.862
32.28000 343.228
32.29000 342.737
32.30000 342.385
32.31000 338.552
32.32000 332.074
32.33000 325.793
32.34000 327.055
32.35000 332.185
32.36000 337.091
32.37000 330.003
32.38000 319.491
32.39000 310.051
32.40000 310.197
32.41000 312.616
32.42000 315.119
32.43000 318.081
32.44000 321.115
32.45000 323.547
32.46000 320.339
32.47000 317.318
32.48000 317.371
32.49000 325.147
32.50000 333.295
32.51000 336.920
32.52000 332.791
32.53000 328.529
32.54000 326.253
32.55000 327.575
32.56000 328.462
32.57000 326.178
32.58000 321.528
32.59000 316.977
32.60000 316.035
32.61000 316.913
32.62000 317.750
32.63000 318.335
32.64000 318.798
32.65000 319.066
32.66000 317.632
32.67000 315.801
32.68000 314.097
32.69000 313.087
32.70000 312.182
32.71000 311.460
32.72000 309.768
32.73000 308.331
32.74000 307.605
32.75000 308.633
32.76000 309.744
32.77000 309.850
32.78000 308.266
32.79000 306.654
32.80000 305.802
32.81000 310.888
32.82000 314.347
32.83000 317.596
32.84000 320.693
32.85000 323.647
32.86000 321.595
32.87000 317.064
32.88000 312.744
32.89000 313.883
32.90000 316.653
32.91000 319.292
32.92000 320.799
32.93000 322.048
32.94000 322.574
32.95000 319.221
32.96000 315.293
32.97000 312.171
32.98000 319.754
32.99000 326.625
33.00000 329.919
33.01000 324.532
33.02000 318.756
33.03000 314.149
33.04000 311.476
33.05000 308.831
33.06000 307.445
33.07000 301.160
33.08000 296.933
33.09000 297.599
33.10000 301.783
33.11000 305.976
33.12000 310.486
33.13000 315.152
33.14000 319.592
33.15000 317.833
33.16000 314.294
33.17000 311.021
33.18000 309.968
33.19000 309.415
33.20000 308.263
33.21000 303.971
33.22000 299.223
33.23000 295.464
33.24000 298.881
33.25000 302.125
33.26000 304.886
33.27000 306.494
33.28000 308.053
33.29000 307.115
33.30000 302.117
33.31000 297.062
33.32000 294.437
33.33000 297.963
33.34000 300.311
33.35000 297.964
33.36000 292.301
33.37000 286.782
33.38000 285.797
33.39000 286.981
33.40000 288.107
33.41000 291.834
33.42000 296.064
33.43000 299.502
33.44000 296.475
33.45000 292.023
33.46000 288.802
33.47000 291.924
33.48000 295.947
33.49000 299.119
33.50000 292.818
33.51000 287.128
33.52000 284.473
33.53000 288.935
33.54000 293.692
33.55000 296.309
33.56000 295.506
33.57000 294.659
33.58000 294.223
33.59000 286.310
33.60000 281.040
33.61000 282.853
33.62000 289.576
33.63000 296.257
33.64000 301.673
33.65000 306.494
33.66000 311.067
33.67000 306.973
33.68000 300.628
33.69000 295.045
33.70000 295.540
33.71000 297.349
33.72000 299.354
33.73000 302.342
33.74000 305.467
33.75000 307.921
33.76000 305.759
33.77000 303.728
33.78000 301.680
33.79000 299.592
33.80000 297.503
33.81000 294.010
33.82000 288.312
33.83000 282.589
33.84000 279.673
33.85000 284.443
33.86000 287.650
33.87000 291.705
33.88000 296.337
33.89000 300.902
33.90000 303.522
33.91000 305.242
33.92000 306.870
33.93000 307.164
33.94000 307.047
33.95000 306.077
33.96000 298.459
33.97000 289.430
33.98000 283.552
33.99000 293.311
34.00000 305.198
34.01000 314.491
34.02000 312.448
34.03000 310.099
34.04000 311.725
34.05000 322.359
34.06000 333.339
34.07000 336.908
34.08000 329.046
34.09000 321.057
34.10000 317.028
34.11000 311.579
34.12000 307.993
34.13000 310.440
34.14000 316.922
34.15000 323.182
34.16000 323.263
34.17000 320.534
34.18000 317.955
34.19000 320.605
34.20000 324.531
34.21000 327.380
34.22000 322.009
34.23000 314.925
34.24000 309.357
34.25000 311.172
34.26000 313.969
34.27000 316.147
34.28000 321.686
34.29000 326.303
34.30000 330.279
34.31000 332.826
34.32000 335.319
34.33000 334.874
34.34000 329.977
34.35000 325.035
34.36000 322.515
34.37000 322.412
34.38000 322.347
34.39000 325.854
34.40000 331.707
34.41000 337.405
34.42000 338.921
34.43000 338.569
34.44000 338.237
34.45000 336.183
34.46000 333.818
34.47000 331.317
34.48000 327.803
34.49000 324.081
34.50000 320.535
34.51000 317.832
34.52000 315.240
34.53000 313.230
34.54000 315.335
34.55000 317.254
34.56000 318.074
34.57000 316.490
34.58000 314.821
34.59000 313.074
34.60000 311.210
34.61000 309.345
34.62000 313.506
34.63000 323.555
34.64000 333.464
34.65000 331.126
34.66000 320.886
34.67000 310.709
34.68000 302.196
34.69000 294.412
34.70000 287.080
34.71000 283.851
34.72000 282.021
34.73000 281.073
34.74000 286.560
34.75000 293.338
34.76000 298.408
34.77000 295.468
34.78000 291.507
34.79000 288.451
34.80000 292.797
34.81000 296.670
34.82000 298.245
34.83000 294.871
34.84000 291.330
34.85000 288.456
34.86000 286.559
34.87000 284.671
34.88000 281.816
34.89000 278.035
34.90000 274.270
34.91000 271.771
34.92000 270.074
34.93000 268.556
34.94000 271.462
34.95000 276.278
34.96000 280.806
34.97000 281.919
34.98000 282.017
34.99000 281.436
35.00000 275.997
35.01000 269.602
35.02000 265.272
35.03000 270.448
35.04000 276.808
35.05000 281.693
35.06000 280.381
35.07000 278.995
35.08000 275.592
35.09000 267.919
35.10000 260.109
35.11000 257.661
35.12000 262.911
35.13000 268.221
35.14000 272.370
35.15000 275.430
35.16000 278.456
35.17000 279.066
35.18000 278.171
35.19000 277.308
35.20000 277.212
35.21000 277.440
35.22000 277.655
35.23000 271.213
35.24000 263.586
35.25000 257.413
35.26000 261.427
35.27000 267.406
35.28000 272.918
35.29000 276.315
35.30000 279.454
35.31000 281.855
35.32000 283.634
35.33000 285.004
35.34000 280.816
35.35000 265.069
35.36000 248.964
35.37000 245.102
35.38000 258.499
35.39000 272.015
35.40000 276.926
35.41000 273.912
35.42000 270.898
35.43000 267.793
35.44000 264.633
35.45000 261.562
35.46000 260.536
35.47000 260.364
35.48000 260.203
35.49000 257.951
35.50000 255.361
35.51000 253.320
35.52000 255.035
35.53000 257.461
35.54000 260.680
35.55000 267.414
35.56000 274.567
35.57000 280.013
35.58000 272.940
35.59000 266.714
35.60000 261.468
35.61000 258.224
35.62000 255.039
35.63000 254.824
35.64000 258.720
35.65000 262.641
35.66000 265.619
35.67000 267.744
35.68000 269.800
35.69000 267.401
35.70000 262.324
35.71000 257.554
35.72000 259.606
35.73000 264.457
35.74000 268.991
35.75000 266.527
35.76000 262.516
35.77000 258.567
35.78000 255.042
35.79000 251.596
35.80000 249.334
35.81000 252.223
35.82000 255.712
35.83000 258.356
35.84000 260.185
35.85000 261.579
35.86000 260.833
35.87000 255.788
35.88000 250.621
35.89000 249.407
35.90000 253.563
35.91000 257.747
35.92000 261.062
35.93000 263.604
35.94000 266.100
35.95000 265.831
35.96000 263.929
35.97000 262.062
35.98000 260.953
35.99000 260.150
36.00000 259.400
36.01000 256.480
36.02000 253.296
36.03000 251.047
36.04000 254.954
36.05000 259.981
36.06000 263.805
36.07000 262.488
36.08000 260.586
36.09000 259.151
36.10000 261.688
36.11000 263.870
36.12000 266.636
36.13000 270.552
36.14000 274.499
36.15000 275.643
36.16000 273.046
36.17000 270.433
36.18000 267.741
36.19000 264.987
36.20000 262.257
36.21000 260.913
36.22000 260.375
36.23000 259.750
36.24000 257.354
36.25000 254.256
36.26000 251.371
36.27000 256.465
36.28000 263.016
36.29000 268.486
36.30000 266.994
36.31000 264.259
36.32000 262.622
36.33000 265.593
36.34000 269.075
36.35000 271.690
36.36000 268.142
36.37000 265.075
36.38000 261.816
36.39000 258.183
36.40000 254.541
36.41000 254.426
36.42000 258.934
36.43000 263.458
36.44000 264.190
36.45000 261.695
36.46000 259.253
36.47000 259.679
36.48000 261.742
36.49000 263.768
36.50000 265.065
36.51000 266.078
36.52000 267.020
36.53000 263.125
36.54000 258.454
36.55000 254.570
36.56000 255.646
36.57000 257.592
36.58000 259.489
36.59000 261.188
36.60000 262.865
36.61000 264.118
36.62000 263.057
36.63000 262.123
36.64000 262.144
36.65000 263.989
36.66000 265.879
36.67000 265.013
36.68000 260.607
36.69000 256.191
36.70000 254.446
36.71000 254.932
36.72000 255.398
36.73000 254.844
36.74000 253.719
36.75000 252.775
36.76000 255.340
36.77000 259.249
36.78000 262.873
36.79000 256.742
36.80000 248.933
36.81000 243.219
36.82000 250.445
36.83000 259.890
36.84000 268.392
36.85000 273.077
36.86000 277.359
36.87000 280.542
36.88000 278.130
36.89000 276.005
36.90000 274.396
36.91000 273.754
36.92000 273.134
36.93000 274.935
36.94000 279.793
36.95000 284.654
36.96000 286.447
36.97000 285.722
36.98000 284.940
36.99000 281.374
37.00000 276.274
37.01000 271.396
37.02000 270.638
37.03000 271.430
37.04000 272.164
37.05000 276.724
37.06000 281.702
37.07000 285.325
37.08000 280.749
37.09000 274.795
37.10000 270.010
37.11000 269.872
37.12000 270.213
37.13000 270.466
37.14000 273.059
37.15000 275.171
37.16000 275.653
37.17000 273.129
37.18000 270.540
37.19000 266.667
37.20000 261.205
37.21000 255.746
37.22000 257.830
37.23000 265.957
37.24000 273.824
37.25000 269.953
37.26000 259.726
37.27000 250.076
37.28000 250.780
37.29000 255.315
37.30000 259.503
37.31000 257.457
37.32000 254.218
37.33000 251.072
37.34000 248.474
37.35000 245.967
37.36000 245.539
37.37000 253.224
37.38000 261.728
37.39000 267.990
37.40000 265.378
37.41000 262.988
37.42000 260.425
37.43000 257.550
37.44000 254.669
37.45000 251.510
37.46000 248.014
37.47000 244.524
37.48000 247.933
37.49000 256.752
37.50000 265.323
37.51000 263.187
37.52000 255.357
37.53000 247.905
37.54000 247.044
37.55000 248.580
37.56000 249.996
37.57000 251.579
37.58000 253.033
37.59000 254.971
37.60000 259.728
37.61000 264.940
37.62000 268.352
37.63000 264.862
37.64000 260.693
37.65000 257.638
37.66000 253.736
37.67000 250.689
37.68000 250.466
37.69000 255.271
37.70000 260.175
37.71000 261.201
37.72000 257.604
37.73000 254.005
37.74000 255.413
37.75000 260.677
37.76000 265.782
37.77000 264.417
37.78000 259.670
37.79000 254.974
37.80000 251.147
37.81000 247.630
37.82000 244.397
37.83000 249.619
37.84000 256.112
37.85000 261.103
37.86000 257.534
37.87000 252.610
37.88000 248.441
37.89000 247.114
37.90000 246.059
37.91000 245.291
37.92000 247.453
37.93000 249.231
37.94000 250.150
37.95000 249.566
37.96000 248.955
37.97000 252.863
37.98000 262.060
37.99000 271.242
38.00000 271.908
38.01000 266.124
38.02000 260.451
38.03000 259.055
38.04000 259.856
38.05000 260.439
38.06000 257.443
38.07000 253.189
38.08000 249.287
38.09000 247.573
38.10000 246.509
38.11000 246.284
38.12000 250.745
38.13000 255.932
38.14000 259.835
38.15000 258.986
38.16000 257.694
38.17000 256.756
38.18000 263.617
38.19000 269.179
38.20000 274.617
38.21000 279.841
38.22000 285.062
38.23000 291.110
38.24000 298.106
38.25000 305.084
38.26000 310.883
38.27000 315.764
38.28000 320.639
38.29000 325.260
38.30000 329.752
38.31000 334.268
38.32000 339.171
38.33000 344.208
38.34000 348.819
38.35000 368.305
38.36000 388.729
38.37000 407.025
38.38000 413.661
38.39000 418.528
38.40000 425.574
38.41000 440.539
38.42000 456.225
38.43000 467.543
38.44000 483.081
38.45000 495.144
38.46000 517.633
38.47000 557.735
38.48000 598.123
38.49000 630.176
38.50000 652.846
38.51000 675.432
38.52000 689.292
38.53000 696.685
38.54000 704.438
38.55000 724.864
38.56000 751.584
38.57000 777.770
38.58000 795.778
38.59000 811.008
38.60000 824.919
38.61000 849.230
38.62000 872.929
38.63000 897.115
38.64000 923.914
38.65000 951.101
38.66000 970.455
38.67000 961.850
38.68000 950.761
38.69000 942.802
38.70000 953.572
38.71000 962.452
38.72000 970.826
38.73000 978.361
38.74000 985.882
38.75000 973.081
38.76000 937.835
38.77000 902.706
38.78000 887.669
38.79000 887.120
38.80000 885.848
38.81000 860.282
38.82000 822.861
38.83000 786.052
38.84000 758.348
38.85000 733.682
38.86000 711.207
38.87000 683.192
38.88000 657.267
38.89000 631.303
38.90000 605.133
38.91000 578.932
38.92000 553.242
38.93000 529.343
38.94000 505.599
38.95000 488.648
38.96000 457.471
38.97000 433.217
38.98000 409.748
38.99000 387.560
39.00000 365.390
39.01000 349.450
39.02000 340.256
39.03000 331.103
39.04000 323.518
39.05000 317.107
39.06000 310.631
39.07000 302.079
39.08000 292.532
39.09000 283.525
39.10000 282.313
39.11000 283.659
39.12000 284.882
39.13000 273.221
39.14000 260.395
39.15000 249.168
39.16000 246.205
39.17000 244.420
39.18000 243.568
39.19000 245.932
39.20000 248.568
39.21000 250.440
39.22000 249.772
39.23000 249.184
39.24000 248.209
39.25000 246.616
39.26000 245.014
39.27000 244.236
39.28000 244.332
39.29000 244.427
39.30000 243.052
39.31000 240.681
39.32000 238.281
39.33000 235.005
39.34000 231.316
39.35000 227.950
39.36000 229.114
39.37000 231.738
39.38000 234.119
39.39000 232.991
39.40000 231.325
39.41000 230.754
39.42000 235.740
39.43000 241.500
39.44000 245.640
39.45000 244.295
39.46000 242.500
39.47000 241.232
39.48000 240.567
39.49000 240.080
39.50000 238.827
39.51000 236.367
39.52000 233.893
39.53000 233.475
39.54000 235.200
39.55000 236.915
39.56000 235.067
39.57000 230.837
39.58000 226.758
39.59000 227.108
39.60000 229.513
39.61000 231.603
39.62000 229.425
39.63000 225.894
39.64000 222.699
39.65000 224.602
39.66000 227.232
39.67000 229.063
39.68000 226.919
39.69000 224.231
39.70000 222.748
39.71000 225.272
39.72000 228.116
39.73000 230.113
39.74000 224.965
39.75000 220.858
39.76000 220.385
39.77000 225.533
39.78000 230.743
39.79000 232.985
39.80000 232.197
39.81000 231.412
39.82000 231.807
39.83000 232.978
39.84000 234.079
39.85000 233.253
39.86000 231.549
39.87000 229.646
39.88000 225.114
39.89000 219.762
39.90000 214.932
39.91000 225.525
39.92000 237.661
39.93000 247.047
39.94000 243.002
39.95000 237.164
39.96000 231.694
39.97000 227.429
39.98000 223.257
39.99000 220.343
40.00000 226.462
40.01000 231.337
40.02000 233.661
40.03000 232.109
40.04000 230.516
40.05000 230.134
40.06000 230.963
40.07000 231.787
40.08000 231.104
40.09000 229.453
40.10000 227.678
40.11000 222.563
40.12000 215.950
40.13000 210.071
40.14000 213.629
40.15000 220.075
40.16000 225.879
40.17000 226.619
40.18000 226.358
40.19000 226.163
40.20000 226.282
40.21000 226.442
40.22000 226.336
40.23000 225.372
40.24000 224.343
40.25000 223.629
40.26000 222.009
40.27000 220.764
40.28000 218.154
40.29000 213.508
40.30000 208.842
40.31000 209.323
40.32000 214.850
40.33000 220.339
40.34000 223.148
40.35000 224.207
40.36000 225.217
40.37000 224.978
40.38000 224.188
40.39000 223.385
40.40000 222.418
40.41000 221.401
40.42000 220.488
40.43000 219.469
40.44000 218.559
40.45000 217.679
40.46000 216.940
40.47000 216.220
40.48000 216.450
40.49000 219.679
40.50000 223.129
40.51000 225.511
40.52000 221.765
40.53000 218.794
40.54000 215.258
40.55000 210.896
40.56000 206.526
40.57000 206.965
40.58000 212.024
40.59000 217.046
40.60000 217.026
40.61000 213.854
40.62000 210.808
40.63000 210.877
40.64000 212.294
40.65000 213.862
40.66000 217.270
40.67000 221.222
40.68000 224.762
40.69000 221.668
40.70000 217.823
40.71000 215.005
40.72000 216.923
40.73000 219.432
40.74000 220.545
40.75000 217.323
40.76000 213.791
40.77000 211.367
40.78000 212.159
40.79000 212.832
40.80000 213.970
40.81000 215.777
40.82000 217.589
40.83000 216.933
40.84000 213.952
40.85000 210.995
40.86000 210.935
40.87000 212.654
40.88000 214.198
40.89000 211.571
40.90000 207.168
40.91000 203.268
40.92000 205.320
40.93000 209.100
40.94000 212.477
40.95000 212.542
40.96000 212.040
40.97000 212.439
40.98000 216.922
40.99000 221.904
41.00000 223.800
41.01000 216.281
41.02000 208.111
41.03000 202.534
41.04000 203.778
41.05000 204.868
41.06000 204.185
41.07000 200.999
41.08000 197.797
41.09000 198.918
41.10000 204.033
41.11000 209.103
41.12000 212.264
41.13000 214.215
41.14000 215.984
41.15000 213.527
41.16000 209.304
41.17000 205.542
41.18000 207.116
41.19000 210.211
41.20000 212.969
41.21000 212.359
41.22000 211.274
41.23000 210.458
41.24000 210.841
41.25000 211.368
41.26000 212.853
41.27000 217.211
41.28000 221.761
41.29000 224.849
41.30000 223.620
41.31000 222.608
41.32000 221.000
41.33000 218.567
41.34000 216.128
41.35000 214.218
41.36000 212.785
41.37000 211.366
41.38000 206.703
41.39000 200.220
41.40000 194.242
41.41000 199.497
41.42000 209.370
41.43000 218.110
41.44000 214.076
41.45000 206.462
41.46000 199.695
41.47000 201.209
41.48000 203.860
41.49000 206.309
41.50000 207.882
41.51000 209.352
41.52000 209.762
41.53000 207.047
41.54000 204.129
41.55000 202.160
41.56000 205.726
41.57000 208.495
41.58000 207.926
41.59000 202.808
41.60000 197.667
41.61000 197.022
41.62000 200.373
41.63000 203.691
41.64000 205.850
41.65000 207.291
41.66000 208.648
41.67000 208.211
41.68000 207.048
41.69000 206.079
41.70000 207.239
41.71000 208.986
41.72000 210.534
41.73000 206.927
41.74000 202.991
41.75000 200.199
41.76000 202.316
41.77000 204.993
41.78000 207.111
41.79000 207.609
41.80000 208.006
41.81000 208.271
41.82000 204.801
41.83000 202.151
41.84000 202.532
41.85000 206.968
41.86000 211.419
41.87000 211.750
41.88000 208.489
41.89000 205.263
41.90000 205.388
41.91000 207.415
41.92000 209.347
41.93000 209.302
41.94000 208.471
41.95000 207.638
41.96000 206.771
41.97000 205.896
41.98000 205.122
41.99000 207.364
42.00000 209.767
42.01000 211.531
42.02000 210.605
42.03000 209.380
42.04000 208.917
42.05000 210.621
42.06000 212.458
42.07000 213.683
42.08000 213.506
42.09000 213.348
42.10000 212.409
42.11000 210.442
42.12000 208.474
42.13000 209.118
42.14000 211.993
42.15000 214.836
42.16000 212.258
42.17000 206.718
42.18000 201.565
42.19000 204.140
42.20000 209.735
42.21000 214.700
42.22000 213.099
42.23000 209.753
42.24000 206.804
42.25000 207.968
42.26000 209.592
42.27000 210.231
42.28000 206.797
42.29000 202.919
42.30000 199.596
42.31000 197.824
42.32000 196.144
42.33000 195.031
42.34000 196.683
42.35000 197.953
42.36000 198.038
42.37000 196.595
42.38000 195.149
42.39000 195.323
42.40000 196.856
42.41000 198.370
42.42000 200.752
42.43000 203.549
42.44000 206.250
42.45000 207.116
42.46000 207.277
42.47000 207.153
42.48000 204.129
42.49000 200.348
42.50000 197.025
42.51000 201.147
42.52000 205.794
42.53000 208.532
42.54000 203.521
42.55000 197.686
42.56000 194.946
42.57000 200.714
42.58000 206.973
42.59000 211.091
42.60000 211.938
42.61000 212.506
42.62000 210.212
42.63000 204.295
42.64000 198.382
42.65000 199.611
42.66000 206.719
42.67000 213.734
42.68000 215.547
42.69000 214.518
42.70000 213.391
42.71000 210.440
42.72000 206.800
42.73000 202.991
42.74000 197.489
42.75000 191.555
42.76000 186.353
42.77000 189.536
42.78000 193.481
42.79000 196.561
42.80000 196.195
42.81000 195.470
42.82000 196.110
42.83000 200.437
42.84000 204.969
42.85000 207.932
42.86000 207.944
42.87000 207.904
42.88000 205.972
42.89000 201.687
42.90000 197.399
42.91000 194.129
42.92000 191.680
42.93000 189.266
42.94000 194.759
42.95000 204.266
42.96000 213.198
42.97000 211.750
42.98000 206.452
42.99000 201.844
43.00000 203.924
43.01000 207.688
43.02000 210.978
43.03000 203.389
43.04000 195.351
43.05000 189.514
43.06000 192.294
43.07000 195.946
43.08000 199.045
43.09000 200.676
43.10000 202.227
43.11000 203.235
43.12000 203.198
43.13000 203.154
43.14000 202.589
43.15000 201.386
43.16000 200.183
43.17000 199.549
43.18000 199.365
43.19000 199.184
43.20000 200.954
43.21000 203.682
43.22000 206.107
43.23000 203.258
43.24000 198.484
43.25000 194.286
43.26000 195.515
43.27000 198.086
43.28000 200.326
43.29000 201.041
43.30000 201.440
43.31000 201.374
43.32000 199.516
43.33000 197.482
43.34000 195.822
43.35000 195.139
43.36000 194.507
43.37000 194.099
43.38000 198.218
43.39000 201.293
43.40000 199.649
43.41000 192.361
43.42000 185.083
43.43000 183.394
43.44000 186.055
43.45000 188.674
43.46000 194.628
43.47000 202.090
43.48000 209.058
43.49000 207.662
43.50000 203.268
43.51000 198.738
43.52000 192.957
43.53000 186.872
43.54000 181.585
43.55000 186.797
43.56000 192.661
43.57000 197.428
43.58000 198.048
43.59000 198.268
43.60000 199.315
43.61000 202.483
43.62000 205.758
43.63000 207.858
43.64000 207.402
43.65000 207.035
43.66000 204.141
43.67000 198.283
43.68000 192.435
43.69000 190.002
43.70000 190.175
43.71000 190.346
43.72000 191.567
43.73000 193.270
43.74000 194.831
43.75000 194.042
43.76000 192.425
43.77000 190.891
43.78000 190.107
43.79000 189.501
43.80000 188.976
43.81000 188.252
43.82000 187.611
43.83000 187.536
43.84000 189.566
43.85000 191.794
43.86000 194.728
43.87000 199.444
43.88000 204.247
43.89000 207.306
43.90000 201.422
43.91000 197.032
43.92000 195.418
43.93000 197.002
43.94000 198.591
43.95000 200.683
43.96000 203.152
43.97000 205.578
43.98000 203.077
43.99000 198.252
44.00000 193.781
44.01000 194.924
44.02000 198.012
44.03000 200.945
44.04000 202.516
44.05000 203.768
44.06000 204.849
44.07000 200.585
44.08000 196.274
44.09000 193.378
44.10000 195.639
44.11000 198.372
44.12000 199.650
44.13000 197.318
44.14000 194.817
44.15000 193.234
44.16000 194.475
44.17000 195.407
44.18000 197.172
44.19000 199.877
44.20000 202.570
44.21000 203.075
44.22000 201.969
44.23000 200.883
44.24000 200.004
44.25000 199.254
44.26000 198.597
44.27000 199.366
44.28000 200.621
44.29000 201.818
44.30000 202.523
44.31000 203.114
44.32000 203.623
44.33000 201.455
44.34000 199.280
44.35000 196.000
44.36000 188.761
44.37000 181.169
44.38000 178.556
44.39000 188.089
44.40000 198.170
44.41000 204.504
44.42000 203.026
44.43000 201.870
44.44000 202.622
44.45000 205.486
44.46000 208.338
44.47000 209.064
44.48000 208.253
44.49000 207.458
44.50000 208.632
44.51000 210.690
44.52000 212.531
44.53000 211.132
44.54000 208.648
44.55000 206.812
44.56000 210.408
44.57000 215.231
44.58000 219.371
44.59000 221.175
44.60000 222.412
44.61000 223.235
44.62000 222.601
44.63000 221.840
44.64000 222.055
44.65000 224.607
44.66000 227.261
44.67000 228.917
44.68000 230.584
44.69000 231.785
44.70000 231.616
44.71000 229.958
44.72000 228.338
44.73000 232.219
44.74000 240.004
44.75000 247.630
44.76000 253.447
44.77000 258.202
44.78000 262.929
44.79000 267.237
44.80000 271.407
44.81000 274.634
44.82000 270.112
44.83000 263.875
44.84000 258.537
44.85000 266.144
44.86000 274.119
44.87000 280.707
44.88000 282.500
44.89000 283.888
44.90000 285.303
44.91000 286.781
44.92000 288.261
44.93000 289.179
44.94000 302.163
44.95000 311.615
44.96000 316.101
44.97000 315.300
44.98000 314.467
44.99000 309.832
45.00000 302.548
45.01000 295.420
45.02000 298.331
45.03000 305.682
45.04000 312.451
45.05000 311.029
45.06000 306.960
45.07000 302.953
45.08000 299.443
45.09000 296.041
45.10000 293.139
45.11000 293.016
45.12000 293.239
45.13000 292.359
45.14000 287.733
45.15000 282.799
45.16000 277.554
45.17000 271.591
45.18000 265.598
45.19000 261.913
45.20000 267.060
45.21000 270.830
45.22000 269.271
45.23000 262.148
45.24000 255.056
45.25000 251.591
45.26000 250.608
45.27000 249.647
45.28000 250.277
45.29000 251.589
45.30000 252.708
45.31000 251.190
45.32000 248.834
45.33000 246.902
45.34000 248.301
45.35000 250.409
45.36000 252.202
45.37000 246.459
45.38000 240.770
45.39000 235.667
45.40000 232.519
45.41000 229.528
45.42000 226.125
45.43000 221.781
45.44000 217.401
45.45000 214.727
45.46000 218.586
45.47000 221.399
45.48000 222.751
45.49000 222.606
45.50000 222.476
45.51000 223.834
45.52000 226.192
45.53000 228.495
45.54000 227.262
45.55000 224.536
45.56000 222.044
45.57000 222.652
45.58000 224.228
45.59000 225.428
45.60000 223.749
45.61000 221.467
45.62000 219.532
45.63000 214.366
45.64000 209.674
45.65000 205.884
45.66000 205.053
45.67000 204.452
45.68000 203.115
45.69000 200.126
45.70000 197.075
45.71000 195.226
45.72000 196.382
45.73000 197.230
45.74000 198.838
45.75000 201.210
45.76000 203.576
45.77000 205.290
45.78000 206.574
45.79000 207.826
45.80000 208.335
45.81000 208.502
45.82000 208.195
45.83000 201.742
45.84000 193.404
45.85000 185.987
45.86000 185.485
45.87000 186.405
45.88000 187.182
45.89000 192.695
45.90000 197.823
45.91000 201.012
45.92000 197.954
45.93000 194.423
45.94000 190.519
45.95000 185.794
45.96000 181.040
45.97000 178.180
45.98000 183.267
45.99000 186.940
46.00000 188.960
46.01000 189.354
46.02000 189.690
46.03000 184.910
46.04000 176.810
46.05000 168.920
46.06000 168.846
46.07000 172.065
46.08000 175.189
46.09000 177.122
46.10000 178.696
46.11000 180.332
46.12000 182.419
46.13000 184.597
46.14000 186.430
46.15000 184.119
46.16000 181.749
46.17000 179.161
46.18000 175.887
46.19000 172.562
46.20000 170.989
46.21000 173.206
46.22000 175.553
46.23000 176.955
46.24000 174.103
46.25000 172.053
46.26000 170.931
46.27000 170.702
46.28000 170.499
46.29000 172.387
46.30000 175.608
46.31000 178.741
46.32000 175.324
46.33000 169.366
46.34000 163.861
46.35000 163.889
46.36000 165.556
46.37000 167.588
46.38000 172.246
46.39000 177.423
46.40000 181.766
46.41000 184.072
46.42000 185.778
46.43000 186.137
46.44000 182.304
46.45000 178.171
46.46000 174.650
46.47000 172.430
46.48000 170.252
46.49000 168.962
46.50000 172.568
46.51000 175.145
46.52000 175.919
46.53000 174.987
46.54000 174.049
46.55000 172.571
46.56000 170.757
46.57000 168.993
46.58000 165.936
46.59000 162.506
46.60000 159.692
46.61000 164.216
46.62000 170.877
46.63000 176.498
46.64000 174.796
46.65000 171.673
46.66000 169.062
46.67000 174.125
46.68000 179.111
46.69000 182.182
46.70000 179.397
46.71000 176.204
46.72000 174.995
46.73000 177.932
46.74000 180.999
46.75000 182.803
46.76000 180.566
46.77000 178.967
46.78000 177.273
46.79000 175.488
46.80000 173.709
46.81000 172.239
46.82000 170.960
46.83000 169.719
46.84000 170.257
46.85000 171.475
46.86000 172.831
46.87000 175.788
46.88000 179.202
46.89000 182.249
46.90000 182.762
46.91000 182.793
46.92000 182.819
46.93000 176.644
46.94000 170.911
46.95000 167.399
46.96000 170.559
46.97000 174.169
46.98000 175.639
46.99000 172.711
47.00000 169.651
47.01000 167.866
47.02000 164.469
47.03000 162.074
47.04000 161.210
47.05000 161.738
47.06000 162.232
47.07000 160.470
47.08000 157.346
47.09000 154.317
47.10000 153.892
47.11000 154.507
47.12000 155.392
47.13000 159.340
47.14000 164.148
47.15000 168.068
47.16000 165.985
47.17000 162.781
47.18000 160.122
47.19000 162.719
47.20000 165.375
47.21000 167.133
47.22000 166.237
47.23000 165.168
47.24000 164.581
47.25000 164.969
47.26000 165.386
47.27000 165.627
47.28000 168.546
47.29000 170.603
47.30000 171.431
47.31000 171.164
47.32000 170.915
47.33000 171.822
47.34000 173.416
47.35000 174.958
47.36000 173.705
47.37000 171.450
47.38000 169.493
47.39000 170.818
47.40000 173.050
47.41000 174.742
47.42000 172.865
47.43000 170.334
47.44000 168.241
47.45000 169.925
47.46000 171.670
47.47000 173.582
47.48000 175.975
47.49000 178.400
47.50000 178.199
47.51000 172.785
47.52000 167.229
47.53000 164.039
47.54000 162.740
47.55000 161.841
47.56000 162.413
47.57000 164.272
47.58000 166.091
47.59000 165.654
47.60000 163.899
47.61000 162.202
47.62000 162.685
47.63000 163.959
47.64000 165.432
47.65000 169.037
47.66000 173.220
47.67000 176.729
47.68000 175.873
47.69000 174.234
47.70000 172.883
47.71000 166.928
47.72000 161.604
47.73000 158.099
47.74000 159.787
47.75000 161.794
47.76000 160.670
47.77000 153.435
47.78000 146.042
47.79000 141.831
47.80000 151.938
47.81000 159.022
47.82000 161.303
47.83000 159.466
47.84000 157.661
47.85000 157.632
47.86000 158.623
47.87000 159.579
47.88000 159.101
47.89000 158.122
47.90000 157.451
47.91000 160.008
47.92000 163.425
47.93000 166.627
47.94000 168.467
47.95000 170.067
47.96000 171.381
47.97000 170.038
47.98000 168.696
47.99000 167.408
48.00000 166.270
48.01000 165.142
48.02000 163.514
48.03000 160.928
48.04000 158.319
48.05000 156.845
48.06000 162.901
48.07000 167.124
48.08000 167.634
48.09000 165.019
48.10000 162.421
48.11000 160.686
48.12000 159.437
48.13000 158.233
48.14000 157.757
48.15000 157.574
48.16000 157.559
48.17000 159.268
48.18000 161.427
48.19000 163.691
48.20000 166.608
48.21000 169.637
48.22000 172.116
48.23000 169.953
48.24000 167.775
48.25000 165.436
48.26000 162.653
48.27000 159.844
48.28000 158.077
48.29000 158.275
48.30000 158.518
48.31000 158.655
48.32000 166.766
48.33000 172.391
48.34000 170.854
48.35000 163.407
48.36000 156.093
48.37000 155.249
48.38000 157.988
48.39000 160.625
48.40000 161.974
48.41000 162.783
48.42000 163.381
48.43000 161.891
48.44000 159.865
48.45000 157.920
48.46000 156.475
48.47000 155.114
48.48000 154.005
48.49000 157.627
48.50000 160.990
48.51000 163.835
48.52000 165.277
48.53000 166.640
48.54000 165.076
48.55000 158.088
48.56000 150.979
48.57000 147.031
48.58000 154.296
48.59000 159.337
48.60000 163.441
48.61000 166.787
48.62000 170.009
48.63000 167.463
48.64000 161.780
48.65000 156.317
48.66000 158.308
48.67000 162.771
48.68000 166.659
48.69000 164.955
48.70000 161.840
48.71000 159.648
48.72000 162.971
48.73000 167.207
48.74000 170.647
48.75000 163.955
48.76000 157.657
48.77000 152.746
48.78000 151.525
48.79000 150.504
48.80000 151.528
48.81000 156.274
48.82000 161.098
48.83000 163.755
48.84000 155.240
48.85000 149.369
48.86000 147.916
48.87000 149.976
48.88000 151.939
48.89000 149.666
48.90000 145.128
48.91000 140.773
48.92000 141.079
48.93000 142.959
48.94000 144.807
48.95000 146.347
48.96000 147.811
48.97000 149.216
48.98000 150.271
48.99000 151.270
49.00000 152.078
49.01000 144.794
49.02000 138.213
49.03000 135.107
49.04000 141.098
49.05000 147.566
49.06000 151.159
49.07000 149.607
49.08000 147.952
49.09000 147.049
49.10000 146.657
49.11000 146.403
49.12000 149.910
49.13000 156.350
49.14000 162.716
49.15000 165.950
49.16000 167.538
49.17000 169.061
49.18000 164.210
49.19000 157.545
49.20000 151.222
49.21000 148.075
49.22000 145.702
49.23000 143.929
49.24000 145.604
49.25000 147.827
49.26000 149.619
49.27000 152.753
49.28000 155.403
49.29000 157.227
49.30000 156.925
49.31000 156.515
49.32000 155.950
49.33000 155.112
49.34000 154.269
49.35000 153.814
49.36000 152.797
49.37000 152.105
49.38000 152.185
49.39000 152.858
49.40000 153.557
49.41000 155.271
49.42000 157.508
49.43000 159.649
49.44000 157.670
49.45000 154.470
49.46000 151.549
49.47000 151.155
49.48000 151.365
49.49000 152.499
49.50000 158.826
49.51000 165.964
49.52000 171.693
49.53000 158.439
49.54000 146.254
49.55000 139.293
49.56000 145.553
49.57000 152.459
49.58000 157.852
49.59000 160.630
49.60000 163.363
49.61000 164.828
49.62000 156.695
49.63000 151.157
49.64000 149.790
49.65000 151.560
49.66000 153.254
49.67000 152.136
49.68000 149.589
49.69000 147.156
49.70000 145.149
49.71000 143.420
49.72000 142.030
49.73000 143.629
49.74000 145.929
49.75000 148.166
49.76000 150.055
49.77000 151.891
49.78000 153.359
49.79000 153.048
49.80000 152.666
49.81000 151.946
49.82000 150.389
49.83000 148.792
49.84000 148.020
49.85000 148.650
49.86000 149.303
49.87000 149.650
49.88000 143.077
49.89000 138.629
49.90000 139.437
49.91000 144.125
49.92000 148.740
49.93000 150.765
49.94000 151.498
49.95000 152.197
49.96000 153.803
49.97000 155.581
49.98000 156.975
49.99000 155.046
50.00000 152.351
50.01000 150.575
50.02000 153.766
50.03000 157.700
50.04000 160.833
50.05000 158.492
50.06000 156.210
50.07000 154.625
50.08000 154.742
50.09000 154.937
50.10000 156.000
50.11000 158.510
50.12000 161.042
50.13000 162.375
50.14000 162.652
50.15000 162.830
50.16000 161.408
50.17000 158.826
50.18000 156.303
50.19000 155.802
50.20000 156.293
50.21000 156.761
50.22000 155.645
50.23000 154.119
50.24000 153.339
50.25000 158.852
50.26000 165.788
50.27000 171.766
50.28000 172.659
50.29000 172.808
50.30000 172.925
50.31000 176.541
50.32000 179.695
50.33000 181.849
50.34000 181.603
50.35000 181.251
50.36000 181.210
50.37000 181.681
50.38000 182.159
50.39000 182.408
50.40000 178.370
50.41000 175.678
50.42000 178.695
50.43000 185.776
50.44000 192.706
50.45000 194.737
50.46000 194.407
50.47000 194.093
50.48000 195.904
50.49000 198.227
50.50000 200.204
50.51000 199.327
50.52000 197.817
50.53000 196.790
50.54000 198.277
50.55000 200.125
50.56000 201.585
50.57000 199.558
50.58000 197.694
50.59000 197.601
50.60000 201.695
50.61000 205.966
50.62000 209.422
50.63000 211.566
50.64000 213.693
50.65000 214.792
50.66000 211.488
50.67000 209.260
50.68000 207.030
50.69000 204.798
50.70000 202.678
50.71000 204.078
50.72000 207.144
50.73000 210.056
50.74000 206.897
50.75000 202.166
50.76000 198.179
50.77000 200.176
50.78000 203.478
50.79000 206.129
50.80000 205.457
50.81000 204.318
50.82000 203.423
50.83000 192.583
50.84000 183.244
50.85000 177.706
50.86000 180.997
50.87000 184.646
50.88000 182.903
50.89000 172.629
50.90000 162.248
50.91000 156.937
50.92000 165.764
50.93000 171.648
50.94000 171.941
50.95000 168.396
50.96000 164.981
50.97000 165.395
50.98000 167.593
50.99000 169.677
51.00000 166.651
51.01000 162.366
51.02000 158.953
51.03000 162.417
51.04000 167.352
51.05000 170.519
51.06000 164.845
51.07000 157.957
51.08000 152.561
51.09000 153.604
51.10000 154.851
51.11000 155.991
51.12000 156.887
51.13000 157.774
51.14000 158.758
51.15000 159.895
51.16000 161.033
51.17000 161.610
51.18000 158.161
51.19000 155.854
51.20000 153.841
51.21000 152.026
51.22000 150.268
51.23000 150.108
51.24000 150.680
51.25000 151.222
51.26000 153.109
51.27000 155.232
51.28000 156.910
51.29000 155.157
51.30000 152.683
51.31000 150.955
51.32000 152.889
51.33000 155.314
51.34000 157.206
51.35000 154.898
51.36000 152.797
51.37000 150.225
51.38000 146.599
51.39000 142.933
51.40000 140.685
51.41000 140.603
51.42000 140.545
51.43000 140.515
51.44000 138.148
51.45000 136.584
51.46000 136.565
51.47000 137.570
51.48000 138.666
51.49000 142.230
51.50000 146.906
51.51000 151.322
51.52000 149.041
51.53000 145.058
51.54000 141.407
51.55000 140.261
51.56000 139.631
51.57000 139.287
51.58000 140.321
51.59000 141.537
51.60000 142.481
51.61000 147.710
51.62000 152.127
51.63000 155.251
51.64000 155.521
51.65000 155.688
51.66000 153.931
51.67000 149.288
51.68000 144.616
51.69000 142.527
51.70000 142.984
51.71000 143.422
51.72000 142.168
51.73000 139.815
51.74000 137.466
51.75000 135.201
51.76000 132.975
51.77000 130.876
51.78000 134.922
51.79000 140.328
51.80000 145.332
51.81000 147.371
51.82000 148.810
51.83000 148.990
51.84000 143.215
51.85000 136.673
51.86000 131.616
51.87000 137.840
51.88000 143.440
51.89000 146.405
51.90000 143.653
51.91000 140.703
51.92000 138.616
51.93000 137.799
51.94000 136.994
51.95000 134.539
51.96000 130.489
51.97000 126.504
51.98000 127.870
51.99000 132.654
52.00000 137.282
52.01000 137.963
52.02000 136.927
52.03000 135.953
52.04000 136.706
52.05000 137.862
52.06000 138.672
52.07000 136.975
52.08000 134.782
52.09000 133.352
52.10000 135.466
52.11000 138.025
52.12000 139.996
52.13000 143.813
52.14000 146.939
52.15000 147.082
52.16000 140.865
52.17000 134.438
52.18000 132.699
52.19000 137.741
52.20000 142.839
52.21000 143.594
52.22000 140.235
52.23000 136.922
52.24000 137.188
52.25000 139.702
52.26000 142.125
52.27000 142.360
52.28000 141.660
52.29000 141.003
52.30000 138.881
52.31000 136.555
52.32000 134.889
52.33000 137.881
52.34000 141.780
52.35000 145.017
52.36000 145.243
52.37000 145.099
52.38000 144.988
52.39000 144.829
52.40000 144.701
52.41000 144.012
52.42000 142.146
52.43000 140.243
52.44000 139.559
52.45000 140.605
52.46000 141.664
52.47000 141.468
52.48000 140.106
52.49000 138.748
52.50000 137.555
52.51000 136.466
52.52000 135.379
52.53000 134.372
52.54000 133.398
52.55000 132.485
52.56000 130.674
52.57000 128.790
52.58000 127.910
52.59000 133.975
52.60000 141.364
52.61000 147.346
52.62000 147.035
52.63000 145.967
52.64000 145.152
52.65000 138.274
52.66000 132.531
52.67000 128.981
52.68000 129.950
52.69000 131.056
52.70000 131.076
52.71000 129.580
52.72000 128.074
52.73000 128.745
52.74000 131.397
52.75000 134.016
52.76000 134.430
52.77000 133.509
52.78000 132.602
52.79000 131.996
52.80000 131.515
52.81000 131.065
52.82000 130.477
52.83000 129.907
52.84000 129.946
52.85000 134.111
52.86000 139.049
52.87000 143.359
52.88000 144.915
52.89000 146.147
52.90000 147.083
52.91000 141.690
52.92000 137.124
52.93000 134.662
52.94000 136.460
52.95000 138.380
52.96000 138.631
52.97000 136.594
52.98000 134.544
52.99000 136.765
53.00000 142.796
53.01000 148.772
53.02000 151.350
53.03000 151.905
53.04000 152.371
53.05000 150.909
53.06000 148.665
53.07000 146.569
53.08000 147.981
53.09000 150.142
53.10000 151.922
53.11000 151.175
53.12000 149.965
53.13000 149.461
53.14000 152.002
53.15000 154.892
53.16000 157.077
53.17000 157.767
53.18000 158.232
53.19000 158.507
53.20000 158.400
53.21000 158.282
53.22000 159.459
53.23000 162.377
53.24000 165.302
53.25000 166.775
53.26000 166.975
53.27000 167.144
53.28000 165.527
53.29000 162.866
53.30000 160.221
53.31000 157.907
53.32000 155.725
53.33000 153.691
53.34000 156.413
53.35000 160.046
53.36000 163.001
53.37000 161.550
53.38000 159.307
53.39000 158.319
53.40000 162.647
53.41000 167.571
53.42000 171.276
53.43000 167.853
53.44000 164.830
53.45000 162.047
53.46000 159.733
53.47000 157.430
53.48000 157.559
53.49000 160.898
53.50000 164.249
53.51000 163.538
53.52000 159.344
53.53000 155.118
53.54000 149.122
53.55000 142.110
53.56000 135.729
53.57000 142.096
53.58000 153.468
53.59000 164.045
53.60000 160.844
53.61000 154.628
53.62000 149.126
53.63000 148.159
53.64000 147.993
53.65000 147.562
53.66000 146.028
53.67000 144.374
53.68000 143.136
53.69000 140.717
53.70000 138.774
53.71000 139.549
53.72000 145.551
53.73000 151.684
53.74000 154.041
53.75000 151.504
53.76000 148.949
53.77000 148.639
53.78000 150.217
53.79000 151.761
53.80000 151.509
53.81000 150.243
53.82000 148.888
53.83000 145.782
53.84000 142.001
53.85000 138.491
53.86000 138.020
53.87000 138.313
53.88000 138.402
53.89000 137.218
53.90000 135.813
53.91000 135.140
53.92000 137.454
53.93000 140.089
53.94000 142.052
53.95000 143.197
53.96000 144.052
53.97000 143.346
53.98000 139.689
53.99000 135.963
54.00000 134.156
54.01000 134.789
54.02000 135.430
54.03000 136.163
54.04000 136.969
54.05000 137.775
54.06000 138.616
54.07000 139.475
54.08000 140.137
54.09000 137.103
54.10000 132.667
54.11000 128.558
54.12000 131.811
54.13000 136.444
54.14000 140.626
54.15000 142.052
54.16000 143.010
54.17000 143.762
54.18000 143.684
54.19000 143.520
54.20000 143.398
54.21000 150.703
54.22000 156.702
54.23000 158.447
54.24000 152.291
54.25000 145.958
54.26000 141.503
54.27000 139.392
54.28000 137.292
54.29000 137.837
54.30000 140.520
54.31000 143.139
54.32000 142.841
54.33000 140.951
54.34000 139.178
54.35000 139.536
54.36000 140.689
54.37000 141.755
54.38000 142.068
54.39000 142.179
54.40000 141.936
54.41000 139.573
54.42000 136.858
54.43000 134.789
54.44000 135.263
54.45000 135.996
54.46000 136.537
54.47000 133.920
54.48000 131.760
54.49000 131.699
54.50000 135.472
54.51000 139.326
54.52000 140.389
54.53000 138.032
54.54000 135.669
54.55000 135.321
54.56000 136.571
54.57000 137.776
54.58000 137.022
54.59000 135.218
54.60000 133.591
54.61000 135.089
54.62000 137.732
54.63000 140.171
54.64000 141.682
54.65000 142.829
54.66000 143.635
54.67000 142.437
54.68000 140.913
54.69000 139.861
54.70000 140.630
54.71000 141.580
54.72000 142.278
54.73000 146.572
54.74000 150.038
54.75000 151.050
54.76000 147.661
54.77000 144.184
54.78000 143.285
54.79000 145.489
54.80000 147.695
54.81000 147.445
54.82000 145.286
54.83000 143.267
54.84000 147.106
54.85000 154.031
54.86000 160.559
54.87000 160.303
54.88000 157.602
54.89000 155.117
54.90000 152.643
54.91000 150.432
54.92000 148.706
54.93000 149.759
54.94000 151.257
54.95000 152.640
54.96000 153.588
54.97000 154.494
54.98000 155.156
54.99000 147.001
55.00000 140.366
55.01000 137.277
55.02000 140.442
55.03000 143.724
55.04000 146.696
55.05000 149.301
55.06000 151.899
55.07000 151.617
55.08000 149.139
55.09000 146.734
55.10000 147.259
55.11000 149.300
55.12000 151.207
55.13000 150.907
55.14000 149.825
55.15000 148.831
55.16000 150.689
55.17000 152.956
55.18000 155.250
55.19000 157.696
55.20000 160.165
55.21000 161.993
55.22000 161.432
55.23000 160.645
55.24000 160.074
55.25000 166.682
55.26000 172.038
55.27000 175.589
55.28000 176.016
55.29000 176.388
55.30000 176.036
55.31000 174.845
55.32000 173.658
55.33000 175.417
55.34000 179.372
55.35000 183.344
55.36000 187.996
55.37000 192.994
55.38000 197.910
55.39000 201.495
55.40000 204.617
55.41000 207.478
55.42000 216.324
55.43000 225.454
55.44000 234.762
55.45000 245.055
55.46000 255.498
55.47000 262.868
55.48000 258.980
55.49000 254.055
55.50000 250.493
55.51000 271.734
55.52000 288.937
55.53000 303.750
55.54000 314.494
55.55000 325.170
55.56000 338.295
55.57000 354.200
55.58000 370.057
55.59000 380.450
55.60000 386.749
55.61000 393.282
55.62000 408.261
55.63000 427.466
55.64000 446.602
55.65000 464.687
55.66000 482.412
55.67000 498.616
55.68000 510.606
55.69000 520.395
55.70000 530.949
55.71000 545.651
55.72000 560.976
55.73000 573.680
55.74000 576.956
55.75000 579.384
55.76000 581.131
55.77000 602.460
55.78000 619.474
55.79000 637.028
55.80000 655.488
55.81000 673.961
55.82000 681.994
55.83000 678.397
55.84000 674.804
55.85000 677.679
55.86000 685.189
55.87000 692.458
55.88000 691.502
55.89000 686.500
55.90000 681.818
55.91000 681.968
55.92000 683.742
55.93000 685.360
55.94000 668.748
55.95000 650.349
55.96000 634.082
55.97000 629.143
55.98000 625.868
55.99000 619.485
56.00000 602.114
56.01000 583.782
56.02000 570.664
56.03000 553.125
56.04000 539.583
56.05000 526.198
56.06000 513.070
56.07000 499.947
56.08000 482.824
56.09000 461.331
56.10000 439.922
56.11000 429.842
56.12000 427.863
56.13000 425.555
56.14000 412.463
56.15000 394.158
56.16000 376.296
56.17000 364.913
56.18000 355.672
56.19000 347.263
56.20000 338.693
56.21000 331.078
56.22000 321.643
56.23000 302.719
56.24000 282.431
56.25000 265.444
56.26000 259.925
56.27000 255.384
56.28000 252.151
56.29000 239.369
56.30000 229.323
56.31000 220.841
56.32000 214.884
56.33000 208.962
56.34000 206.530
56.35000 207.837
56.36000 209.140
56.37000 204.471
56.38000 195.712
56.39000 187.115
56.40000 183.588
56.41000 182.470
56.42000 181.288
56.43000 179.198
56.44000 176.813
56.45000 174.648
56.46000 166.168
56.47000 157.460
56.48000 150.172
56.49000 150.138
56.50000 151.125
56.51000 152.838
56.52000 157.026
56.53000 161.420
56.54000 164.530
56.55000 152.435
56.56000 142.771
56.57000 139.589
56.58000 146.688
56.59000 153.918
56.60000 157.178
56.61000 156.268
56.62000 155.363
56.63000 150.516
56.64000 143.046
56.65000 135.856
56.66000 137.097
56.67000 142.276
56.68000 147.186
56.69000 148.392
56.70000 148.416
56.71000 148.438
56.72000 142.174
56.73000 135.465
56.74000 130.359
56.75000 133.297
56.76000 137.344
56.77000 140.326
56.78000 139.736
56.79000 138.858
56.80000 138.240
56.81000 131.692
56.82000 126.552
56.83000 124.181
56.84000 126.126
56.85000 128.121
56.86000 129.871
56.87000 131.367
56.88000 132.856
56.89000 131.883
56.90000 129.280
56.91000 126.660
56.92000 123.570
56.93000 120.263
56.94000 117.376
56.95000 120.115
56.96000 124.619
56.97000 128.689
56.98000 131.203
56.99000 133.126
57.00000 134.683
57.01000 134.436
57.02000 133.946
57.03000 133.773
57.04000 134.644
57.05000 135.596
57.06000 136.263
57.07000 132.809
57.08000 130.080
57.09000 127.896
57.10000 126.545
57.11000 125.204
57.12000 126.530
57.13000 130.550
57.14000 134.545
57.15000 135.493
57.16000 134.433
57.17000 133.364
57.18000 132.071
57.19000 130.677
57.20000 129.402
57.21000 129.684
57.22000 130.445
57.23000 131.131
57.24000 130.941
57.25000 130.616
57.26000 130.296
57.27000 130.009
57.28000 129.725
57.29000 129.925
57.30000 131.692
57.31000 133.579
57.32000 134.893
57.33000 129.013
57.34000 124.382
57.35000 121.428
57.36000 120.997
57.37000 120.590
57.38000 122.247
57.39000 125.945
57.40000 129.619
57.41000 130.282
57.42000 129.001
57.43000 127.828
57.44000 129.493
57.45000 132.418
57.46000 134.995
57.47000 133.164
57.48000 129.997
57.49000 127.151
57.50000 128.894
57.51000 131.235
57.52000 132.619
57.53000 129.465
57.54000 125.725
57.55000 122.526
57.56000 121.046
57.57000 119.694
57.58000 118.757
57.59000 125.879
57.60000 131.447
57.61000 132.902
57.62000 128.282
57.63000 123.606
57.64000 121.631
57.65000 122.273
57.66000 122.911
57.67000 124.206
57.68000 125.896
57.69000 127.476
57.70000 126.285
57.71000 123.886
57.72000 121.735
57.73000 122.652
57.74000 124.482
57.75000 126.124
57.76000 128.500
57.77000 130.705
57.78000 132.085
57.79000 129.630
57.80000 126.690
57.81000 124.878
57.82000 126.592
57.83000 128.560
57.84000 129.915
57.85000 126.787
57.86000 124.328
57.87000 122.022
57.88000 119.939
57.89000 117.857
57.90000 116.263
57.91000 115.132
57.92000 114.010
57.93000 113.002
57.94000 112.083
57.95000 111.232
57.96000 112.068
57.97000 113.627
57.98000 115.432
57.99000 120.184
58.00000 125.798
58.01000 130.820
58.02000 133.208
58.03000 134.842
58.04000 135.361
58.05000 130.788
58.06000 125.587
58.07000 121.936
58.08000 123.047
58.09000 124.491
58.10000 125.480
58.11000 124.598
58.12000 123.894
58.13000 122.791
58.14000 121.120
58.15000 119.446
58.16000 121.099
58.17000 125.850
58.18000 130.562
58.19000 130.971
58.20000 128.761
58.21000 126.563
58.22000 124.627
58.23000 122.803
58.24000 121.411
58.25000 125.082
58.26000 130.209
58.27000 134.782
58.28000 130.905
58.29000 126.124
58.30000 122.135
58.31000 121.694
58.32000 121.680
58.33000 121.676
58.34000 121.701
58.35000 121.727
58.36000 121.745
58.37000 122.990
58.38000 123.947
58.39000 124.123
58.40000 123.205
58.41000 122.281
58.42000 122.525
58.43000 123.836
58.44000 125.136
58.45000 123.581
58.46000 120.357
58.47000 117.270
58.48000 117.294
58.49000 118.608
58.50000 119.835
58.51000 120.070
58.52000 120.025
58.53000 119.985
58.54000 119.141
58.55000 118.277
58.56000 118.129
58.57000 121.136
58.58000 124.515
58.59000 126.984
58.60000 126.753
58.61000 126.343
58.62000 126.066
58.63000 123.990
58.64000 122.404
58.65000 120.007
58.66000 116.495
58.67000 112.979
58.68000 114.022
58.69000 119.150
58.70000 124.228
58.71000 123.611
58.72000 119.678
58.73000 115.956
58.74000 116.811
58.75000 119.531
58.76000 122.169
58.77000 123.894
58.78000 125.367
58.79000 126.673
58.80000 122.072
58.81000 117.143
58.82000 113.438
58.83000 115.018
58.84000 117.208
58.85000 119.257
58.86000 120.897
58.87000 122.511
58.88000 123.596
58.89000 120.199
58.90000 117.584
58.91000 115.669
58.92000 114.699
58.93000 113.736
58.94000 113.384
58.95000 113.572
58.96000 113.757
58.97000 114.427
58.98000 115.360
58.99000 116.282
59.00000 116.972
59.01000 117.568
59.02000 118.193
59.03000 119.124
59.04000 120.139
59.05000 121.037
59.06000 122.084
59.07000 123.012
59.08000 123.707
59.09000 123.408
59.10000 122.997
59.11000 122.169
59.12000 120.146
59.13000 118.049
59.14000 116.648
59.15000 118.747
59.16000 120.371
59.17000 121.279
59.18000 121.239
59.19000 121.195
59.20000 121.572
59.21000 122.312
59.22000 123.043
59.23000 123.865
59.24000 124.718
59.25000 125.469
59.26000 124.162
59.27000 122.046
59.28000 119.940
59.29000 117.947
59.30000 115.986
59.31000 114.255
59.32000 115.168
59.33000 116.360
59.34000 117.479
59.35000 118.294
59.36000 119.075
59.37000 118.646
59.38000 114.806
59.39000 110.760
59.40000 108.074
59.41000 109.754
59.42000 111.077
59.43000 111.780
59.44000 111.680
59.45000 111.579
59.46000 113.272
59.47000 116.483
59.48000 119.655
59.49000 120.173
59.50000 119.213
59.51000 118.192
59.52000 115.972
59.53000 113.288
59.54000 110.897
59.55000 111.510
59.56000 112.913
59.57000 114.148
59.58000 114.782
59.59000 115.237
59.60000 115.630
59.61000 115.769
59.62000 115.880
59.63000 115.350
59.64000 113.043
59.65000 110.633
59.66000 109.043
59.67000 115.981
59.68000 121.246
59.69000 122.197
59.70000 117.646
59.71000 113.083
59.72000 112.939
59.73000 116.461
59.74000 119.939
59.75000 120.365
59.76000 119.127
59.77000 117.887
59.78000 116.598
59.79000 115.289
59.80000 114.078
59.81000 113.840
59.82000 113.853
59.83000 113.864
59.84000 114.785
59.85000 115.708
59.86000 116.241
59.87000 115.205
59.88000 114.005
59.89000 113.010
59.90000 112.575
59.91000 112.170
59.92000 111.905
59.93000 112.209
59.94000 112.441
59.95000 112.999
59.96000 113.965
59.97000 114.928
59.98000 114.109
59.99000 111.840
60.00000 109.602
60.01000 109.972
60.02000 111.719
60.03000 113.475
60.04000 115.394
60.05000 117.374
60.06000 119.195
60.07000 119.449
60.08000 119.306
60.09000 119.181
60.10000 119.625
60.11000 120.086
60.12000 119.714
60.13000 116.052
60.14000 112.053
60.15000 110.403
60.16000 115.044
60.17000 120.029
60.18000 123.276
60.19000 120.219
60.20000 117.879
60.21000 118.286
60.22000 122.069
60.23000 125.850
60.24000 125.996
60.25000 123.236
60.26000 120.516
60.27000 117.883
60.28000 115.373
60.29000 112.844
60.30000 109.994
60.31000 107.027
60.32000 104.622
60.33000 107.580
60.34000 111.876
60.35000 115.624
60.36000 114.494
60.37000 112.845
60.38000 111.394
60.39000 110.710
60.40000 110.103
60.41000 110.038
60.42000 111.402
60.43000 112.842
60.44000 113.774
60.45000 117.482
60.46000 120.236
60.47000 122.253
60.48000 123.381
60.49000 124.496
60.50000 122.679
60.51000 118.561
60.52000 114.507
60.53000 112.587
60.54000 111.819
60.55000 111.210
60.56000 113.329
60.57000 116.433
60.58000 119.508
60.59000 122.314
60.60000 125.053
60.61000 127.437
60.62000 124.004
60.63000 120.280
60.64000 117.631
60.65000 119.075
60.66000 120.916
60.67000 121.840
60.68000 120.387
60.69000 118.812
60.70000 117.800
60.71000 120.588
60.72000 122.675
60.73000 123.078
60.74000 121.489
60.75000 119.897
60.76000 118.509
60.77000 117.279
60.78000 116.068
60.79000 113.231
60.80000 109.668
60.81000 106.829
60.82000 116.044
60.83000 129.537
60.84000 141.224
60.85000 136.472
60.86000 127.770
60.87000 120.221
60.88000 118.810
60.89000 118.427
60.90000 118.391
60.91000 119.649
60.92000 121.030
60.93000 122.058
60.94000 122.188
60.95000 122.274
60.96000 122.329
60.97000 119.301
60.98000 117.057
60.99000 114.365
61.00000 111.153
61.01000 107.958
61.02000 108.454
61.03000 111.741
61.04000 114.972
61.05000 118.014
61.06000 120.861
61.07000 123.671
61.08000 125.879
61.09000 127.878
61.10000 129.473
61.11000 127.478
61.12000 124.635
61.13000 122.177
61.14000 121.298
61.15000 120.758
61.16000 121.219
61.17000 125.354
61.18000 129.829
61.19000 132.647
61.20000 131.320
61.21000 129.796
61.22000 128.829
61.23000 128.415
61.24000 128.122
61.25000 126.269
61.26000 122.639
61.27000 119.008
61.28000 115.422
61.29000 111.868
61.30000 108.378
61.31000 111.990
61.32000 118.912
61.33000 125.408
61.34000 125.249
61.35000 122.807
61.36000 120.621
61.37000 120.661
61.38000 121.218
61.39000 121.698
61.40000 120.293
61.41000 118.860
61.42000 118.745
61.43000 123.378
61.44000 128.439
61.45000 131.430
61.46000 129.330
61.47000 126.997
61.48000 125.527
61.49000 138.318
61.50000 147.740
61.51000 154.432
61.52000 158.074
61.53000 161.734
61.54000 168.766
61.55000 178.253
61.56000 187.560
61.57000 197.512
61.58000 207.408
61.59000 218.012
61.60000 239.333
61.61000 264.267
61.62000 287.139
61.63000 292.511
61.64000 293.902
61.65000 295.098
61.66000 297.956
61.67000 300.582
61.68000 302.546
61.69000 302.162
61.70000 301.572
61.71000 301.229
61.72000 301.479
61.73000 301.756
61.74000 301.930
61.75000 308.164
61.76000 312.728
61.77000 310.550
61.78000 300.986
61.79000 291.362
61.80000 273.322
61.81000 249.260
61.82000 225.681
61.83000 208.077
61.84000 193.926
61.85000 180.063
61.86000 170.433
61.87000 162.205
61.88000 154.510
61.89000 151.238
61.90000 148.954
61.91000 146.997
61.92000 143.401
61.93000 140.166
61.94000 137.507
61.95000 136.853
61.96000 136.371
61.97000 135.856
61.98000 135.263
61.99000 134.667
62.00000 134.297
62.01000 136.982
62.02000 138.945
62.03000 138.581
62.04000 135.718
62.05000 132.867
62.06000 131.866
62.07000 132.164
62.08000 132.455
62.09000 130.075
62.10000 126.568
62.11000 123.559
62.12000 127.676
62.13000 134.114
62.14000 139.570
62.15000 137.070
62.16000 132.825
62.17000 129.200
62.18000 122.298
62.19000 116.095
62.20000 112.747
62.21000 119.169
62.22000 126.404
62.23000 130.910
62.24000 129.045
62.25000 126.918
62.26000 125.606
62.27000 127.290
62.28000 128.527
62.29000 127.552
62.30000 124.247
62.31000 120.966
62.32000 120.682
62.33000 122.467
62.34000 124.213
62.35000 125.426
62.36000 126.352
62.37000 127.073
62.38000 124.960
62.39000 121.939
62.40000 119.442
62.41000 121.103
62.42000 123.658
62.43000 125.833
62.44000 126.026
62.45000 125.958
62.46000 126.020
62.47000 126.520
62.48000 127.055
62.49000 127.433
62.50000 127.447
62.51000 127.448
62.52000 127.448
62.53000 125.671
62.54000 124.383
62.55000 124.297
62.56000 125.451
62.57000 126.599
62.58000 127.092
62.59000 127.141
62.60000 127.189
62.61000 125.861
62.62000 123.984
62.63000 122.391
62.64000 124.628
62.65000 128.070
62.66000 130.906
62.67000 129.038
62.68000 126.176
62.69000 123.747
62.70000 127.527
62.71000 131.401
62.72000 134.632
62.73000 135.740
62.74000 136.679
62.75000 136.180
62.76000 132.433
62.77000 128.563
62.78000 126.209
62.79000 127.385
62.80000 128.251
62.81000 129.866
62.82000 132.236
62.83000 134.603
62.84000 136.596
62.85000 138.340
62.86000 140.041
62.87000 136.921
62.88000 131.854
62.89000 126.976
62.90000 124.579
62.91000 122.949
62.92000 121.310
62.93000 119.607
62.94000 117.890
62.95000 116.438
62.96000 123.558
62.97000 130.465
62.98000 135.966
62.99000 136.904
63.00000 137.492
63.01000 137.164
63.02000 134.803
63.03000 132.368
63.04000 130.898
63.05000 128.964
63.06000 127.584
63.07000 127.181
63.08000 127.748
63.09000 128.302
63.10000 127.644
63.11000 126.193
63.12000 124.779
63.13000 123.489
63.14000 122.309
63.15000 121.538
63.16000 125.964
63.17000 131.969
63.18000 137.233
63.19000 137.003
63.20000 135.656
63.21000 134.521
63.22000 130.635
63.23000 127.094
63.24000 125.371
63.25000 129.449
63.26000 133.960
63.27000 136.971
63.28000 136.712
63.29000 136.338
63.30000 136.114
63.31000 138.464
63.32000 140.149
63.33000 140.629
63.34000 139.938
63.35000 139.233
63.36000 137.413
63.37000 134.876
63.38000 132.407
63.39000 132.848
63.40000 134.480
63.41000 135.868
63.42000 134.225
63.43000 131.677
63.44000 129.586
63.45000 130.815
63.46000 132.706
63.47000 134.295
63.48000 139.744
63.49000 144.690
63.50000 147.768
63.51000 144.986
63.52000 141.778
63.53000 138.938
63.54000 136.886
63.55000 134.861
63.56000 133.656
63.57000 137.266
63.58000 139.851
63.59000 139.237
63.60000 135.576
63.61000 131.964
63.62000 132.233
63.63000 134.949
63.64000 137.589
63.65000 138.549
63.66000 138.775
63.67000 139.045
63.68000 139.843
63.69000 140.795
63.70000 141.627
63.71000 141.602
63.72000 141.410
63.73000 141.249
63.74000 140.358
63.75000 139.543
63.76000 138.619
63.77000 137.359
63.78000 136.076
63.79000 135.688
63.80000 137.186
63.81000 138.745
63.82000 139.664
63.83000 135.449
63.84000 132.445
63.85000 130.884
63.86000 130.672
63.87000 130.484
63.88000 132.095
63.89000 134.821
63.90000 137.468
63.91000 140.316
63.92000 143.101
63.93000 145.745
63.94000 146.745
63.95000 147.271
63.96000 147.908
63.97000 149.316
63.98000 150.871
63.99000 152.169
64.00000 151.214
64.01000 150.196
64.02000 149.321
64.03000 148.881
64.04000 148.471
64.05000 147.956
64.06000 147.226
64.07000 146.490
64.08000 146.059
64.09000 147.479
64.10000 148.489
64.11000 150.434
64.12000 153.236
64.13000 155.993
64.14000 155.660
64.15000 153.445
64.16000 151.297
64.17000 149.379
64.18000 147.652
64.19000 146.022
64.20000 145.513
64.21000 145.320
64.22000 145.653
64.23000 149.565
64.24000 154.151
64.25000 157.965
64.26000 154.930
64.27000 151.748
64.28000 148.854
64.29000 146.818
64.30000 144.838
64.31000 145.090
64.32000 149.884
64.33000 154.812
64.34000 157.673
64.35000 161.185
64.36000 163.651
64.37000 162.745
64.38000 158.809
64.39000 154.917
64.40000 153.813
64.41000 154.379
64.42000 154.927
64.43000 157.075
64.44000 159.725
64.45000 162.370
64.46000 164.969
64.47000 167.554
64.48000 169.531
64.49000 167.454
64.50000 164.628
64.51000 162.286
64.52000 162.288
64.53000 162.513
64.54000 164.778
64.55000 173.010
64.56000 181.626
64.57000 185.205
64.58000 178.705
64.59000 171.924
64.60000 168.017
64.61000 168.035
64.62000 168.062
64.63000 166.999
64.64000 164.977
64.65000 162.994
64.66000 163.402
64.67000 165.215
64.68000 166.970
64.69000 168.641
64.70000 170.188
64.71000 171.765
64.72000 173.658
64.73000 175.637
64.74000 177.649
64.75000 179.867
64.76000 182.122
64.77000 183.984
64.78000 176.691
64.79000 169.830
64.80000 166.630
64.81000 173.954
64.82000 181.935
64.83000 187.492
64.84000 188.282
64.85000 188.946
64.86000 189.326
64.87000 194.089
64.88000 197.423
64.89000 196.722
64.90000 192.532
64.91000 188.370
64.92000 185.841
64.93000 184.254
64.94000 182.721
64.95000 187.660
64.96000 194.723
64.97000 201.419
64.98000 204.228
64.99000 205.993
65.00000 207.859
65.01000 210.375
65.02000 213.006
65.03000 215.170
65.04000 210.024
65.05000 205.131
65.06000 202.849
65.07000 207.944
65.08000 213.487
65.09000 218.046
65.10000 220.704
65.11000 223.314
65.12000 224.794
65.13000 224.937
65.14000 225.044
65.15000 231.410
65.16000 243.085
65.17000 254.525
65.18000 253.432
65.19000 245.226
65.20000 237.310
65.21000 244.131
65.22000 255.927
65.23000 266.865
65.24000 268.957
65.25000 268.715
65.26000 269.079
65.27000 273.233
65.28000 278.047
65.29000 281.992
65.30000 287.851
65.31000 292.825
65.32000 296.338
65.33000 295.792
65.34000 295.007
65.35000 296.947
65.36000 304.064
65.37000 311.304
65.38000 315.375
65.39000 323.505
65.40000 329.151
65.41000 332.175
65.42000 333.015
65.43000 333.868
65.44000 335.392
65.45000 337.289
65.46000 339.117
65.47000 343.727
65.48000 349.053
65.49000 354.396
65.50000 359.911
65.51000 365.471
65.52000 370.990
65.53000 376.254
65.54000 381.476
65.55000 385.739
65.56000 392.436
65.57000 398.125
65.58000 404.163
65.59000 411.152
65.60000 418.194
65.61000 426.686
65.62000 437.883
65.63000 449.141
65.64000 455.417
65.65000 487.785
65.66000 510.264
65.67000 543.435
65.68000 585.337
65.69000 627.785
65.70000 696.067
65.71000 778.510
65.72000 857.818
65.73000 965.324
65.74000 1076.030
65.75000 1187.469
65.76000 1306.106
65.77000 1426.575
65.78000 1548.108
65.79000 1676.051
65.80000 1805.066
65.81000 1910.013
65.82000 1992.009
65.83000 2057.030
65.84000 2111.510
65.85000 2137.701
65.86000 2162.337
65.87000 2178.902
65.88000 2180.659
65.89000 2182.097
65.90000 2182.892
65.91000 2162.477
65.92000 2148.273
65.93000 2106.485
65.94000 2042.591
65.95000 1977.831
65.96000 1874.363
65.97000 1750.038
65.98000 1630.616
65.99000 1484.132
66.00000 1337.709
66.01000 1194.736
66.02000 1084.848
66.03000 983.225
66.04000 883.392
66.05000 794.118
66.06000 706.574
66.07000 635.632
66.08000 572.063
66.09000 520.884
66.10000 477.122
66.11000 452.928
66.12000 429.775
66.13000 412.556
66.14000 406.038
66.15000 399.738
66.16000 396.286
66.17000 388.893
66.18000 383.803
66.19000 378.801
66.20000 373.867
66.21000 369.064
66.22000 369.796
66.23000 373.459
66.24000 376.972
66.25000 394.036
66.26000 414.561
66.27000 434.840
66.28000 452.821
66.29000 470.239
66.30000 489.237
66.31000 517.376
66.32000 546.982
66.33000 570.882
66.34000 580.759
66.35000 587.673
66.36000 595.807
66.37000 607.106
66.38000 618.566
66.39000 629.776
66.40000 640.541
66.41000 651.298
66.42000 657.140
66.43000 666.280
66.44000 672.526
66.45000 672.668
66.46000 668.096
66.47000 663.395
66.48000 653.477
66.49000 640.845
66.50000 628.747
66.51000 606.553
66.52000 582.506
66.53000 558.642
66.54000 536.451
66.55000 514.661
66.56000 493.651
66.57000 477.057
66.58000 461.157
66.59000 448.372
66.60000 429.336
66.61000 413.416
66.62000 399.148
66.63000 389.089
66.64000 379.240
66.65000 371.169
66.66000 366.197
66.67000 361.281
66.68000 358.634
66.69000 371.353
66.70000 380.021
66.71000 379.907
66.72000 373.137
66.73000 366.357
66.74000 359.158
66.75000 351.745
66.76000 344.657
66.77000 349.323
66.78000 357.493
66.79000 364.929
66.80000 365.814
66.81000 365.149
66.82000 364.045
66.83000 360.501
66.84000 356.581
66.85000 353.441
66.86000 359.835
66.87000 365.725
66.88000 369.582
66.89000 368.346
66.90000 366.867
66.91000 366.184
66.92000 366.867
66.93000 367.573
66.94000 367.949
66.95000 365.998
66.96000 364.669
66.97000 363.866
66.98000 363.455
66.99000 363.224
67.00000 369.617
67.01000 379.340
67.02000 388.623
67.03000 389.332
67.04000 387.253
67.05000 385.453
67.06000 386.088
67.07000 387.289
67.08000 388.415
67.09000 389.136
67.10000 389.796
67.11000 390.322
67.12000 383.680
67.13000 377.796
67.14000 373.895
67.15000 374.882
67.16000 376.094
67.17000 376.104
67.18000 374.093
67.19000 372.049
67.20000 370.969
67.21000 386.438
67.22000 396.928
67.23000 402.903
67.24000 405.580
67.25000 408.042
67.26000 403.044
67.27000 394.358
67.28000 386.079
67.29000 385.686
67.30000 387.793
67.31000 390.821
67.32000 401.696
67.33000 414.361
67.34000 425.081
67.35000 425.401
67.36000 424.184
67.37000 423.218
67.38000 413.368
67.39000 404.804
67.40000 402.630
67.41000 415.930
67.42000 429.919
67.43000 433.802
67.44000 420.993
67.45000 407.934
67.46000 401.097
67.47000 410.241
67.48000 416.461
67.49000 426.127
67.50000 438.263
67.51000 449.953
67.52000 446.862
67.53000 436.590
67.54000 426.815
67.55000 426.764
67.56000 429.707
67.57000 432.383
67.58000 432.846
67.59000 432.813
67.60000 434.339
67.61000 444.037
67.62000 454.918
67.63000 463.528
67.64000 461.374
67.65000 458.900
67.66000 458.243
67.67000 461.912
67.68000 465.767
67.69000 469.551
67.70000 473.220
67.71000 476.888
67.72000 478.790
67.73000 466.069
67.74000 457.521
67.75000 454.498
67.76000 455.368
67.77000 456.147
67.78000 454.054
67.79000 450.589
67.80000 447.296
67.81000 453.050
67.82000 461.093
67.83000 469.458
67.84000 480.445
67.85000 492.009
67.86000 501.018
67.87000 496.881
67.88000 490.883
67.89000 486.156
67.90000 486.840
67.91000 487.751
67.92000 491.326
67.93000 501.135
67.94000 511.202
67.95000 515.655
67.96000 511.153
67.97000 506.535
67.98000 504.163
67.99000 495.791
68.00000 490.248
68.01000 495.725
68.02000 508.825
68.03000 521.484
68.04000 520.777
68.05000 513.795
68.06000 507.173
68.07000 510.436
68.08000 516.367
68.09000 521.830
68.10000 523.556
68.11000 524.476
68.12000 524.538
68.13000 520.275
68.14000 515.413
68.15000 511.597
68.16000 512.945
68.17000 514.360
68.18000 516.251
68.19000 519.235
68.20000 522.263
68.21000 529.901
68.22000 544.759
68.23000 559.704
68.24000 567.307
68.25000 565.882
68.26000 564.948
68.27000 566.577
68.28000 569.948
68.29000 573.413
68.30000 579.636
68.31000 587.131
68.32000 594.227
68.33000 599.587
68.34000 604.015
68.35000 608.063
68.36000 609.155
68.37000 609.621
68.38000 610.859
68.39000 615.919
68.40000 621.498
68.41000 625.857
68.42000 639.027
68.43000 650.092
68.44000 655.654
68.45000 648.771
68.46000 641.413
68.47000 642.627
68.48000 657.033
68.49000 671.586
68.50000 678.916
68.51000 699.801
68.52000 713.713
68.53000 722.979
68.54000 729.144
68.55000 735.943
68.56000 760.381
68.57000 792.819
68.58000 823.478
68.59000 830.540
68.60000 830.310
68.61000 833.534
68.62000 863.048
68.63000 898.025
68.64000 935.671
68.65000 986.280
68.66000 1038.610
68.67000 1079.324
68.68000 1132.389
68.69000 1175.390
68.70000 1221.240
68.71000 1273.424
68.72000 1325.841
68.73000 1368.289
68.74000 1395.668
68.75000 1422.894
68.76000 1467.337
68.77000 1528.908
68.78000 1590.288
68.79000 1633.596
68.80000 1665.060
68.81000 1697.017
68.82000 1742.170
68.83000 1793.206
68.84000 1841.355
68.85000 1930.114
68.86000 2022.805
68.87000 2121.614
68.88000 2265.990
68.89000 2419.656
68.90000 2595.249
68.91000 2875.346
68.92000 3169.018
68.93000 3396.512
68.94000 4559.135
68.95000 5538.158
68.96000 6908.833
68.97000 9135.402
68.98000 11392.051
68.99000 14204.837
69.00000 17843.354
69.01000 21489.504
69.02000 25203.504
69.03000 28983.438
69.04000 32756.189
69.05000 35905.840
69.06000 38654.301
69.07000 41366.746
69.08000 43154.973
69.09000 44538.121
69.10000 45840.688
69.11000 46764.258
69.12000 47505.391
69.13000 48257.230
69.14000 49087.121
69.15000 49932.621
69.16000 50738.969
69.17000 51362.168
69.18000 51962.105
69.19000 52424.813
69.20000 52044.277
69.21000 51694.090
69.22000 50658.699
69.23000 48151.371
69.24000 45594.473
69.25000 42819.879
69.26000 39727.828
69.27000 36633.273
69.28000 33937.809
69.29000 31624.244
69.30000 29319.027
69.31000 27683.873
69.32000 26472.539
69.33000 25283.072
69.34000 24633.080
69.35000 24215.518
69.36000 23823.006
69.37000 23332.051
69.38000 22857.373
69.39000 22310.984
69.40000 21253.162
69.41000 20094.971
69.42000 18797.219
69.43000 16858.746
69.44000 14840.684
69.45000 13291.145
69.46000 10993.424
69.47000 9135.225
69.48000 7465.460
69.49000 6193.603
69.50000 4934.571
69.51000 3929.450
69.52000 3287.967
69.53000 2649.384
69.54000 2206.254
69.55000 1946.387
69.56000 1687.819
69.57000 1526.117
69.58000 1424.607
69.59000 1323.893
69.60000 1242.086
69.61000 1168.287
69.62000 1099.045
69.63000 1042.438
69.64000 994.183
69.65000 949.218
69.66000 927.216
69.67000 909.635
69.68000 891.165
69.69000 868.690
69.70000 845.730
69.71000 828.179
69.72000 791.865
69.73000 762.209
69.74000 736.717
69.75000 719.867
69.76000 703.284
69.77000 692.633
69.78000 690.323
69.79000 688.073
69.80000 678.226
69.81000 661.410
69.82000 644.773
69.83000 640.602
69.84000 644.041
69.85000 646.737
69.86000 632.474
69.87000 611.151
69.88000 591.182
69.89000 584.941
69.90000 582.809
69.91000 579.999
69.92000 572.551
69.93000 564.228
69.94000 556.417
69.95000 550.870
69.96000 545.593
69.97000 541.577
69.98000 535.562
69.99000 530.724
70.00000 526.313
