20.00000 481.449
20.01000 478.402
20.02000 474.919
20.03000 472.878
20.04000 476.521
20.05000 480.744
20.06000 483.862
20.07000 485.743
20.08000 487.148
20.09000 487.901
20.10000 487.461
20.11000 486.995
20.12000 490.158
20.13000 497.779
20.14000 505.398
20.15000 507.284
20.16000 504.600
20.17000 501.927
20.18000 499.729
20.19000 497.784
20.20000 495.586
20.21000 488.899
20.22000 480.563
20.23000 472.871
20.24000 480.989
20.25000 491.792
20.26000 500.018
20.27000 493.092
20.28000 483.691
20.29000 475.859
20.30000 474.097
20.31000 472.942
20.32000 472.093
20.33000 466.585
20.34000 462.136
20.35000 459.744
20.36000 461.048
20.37000 462.428
20.38000 468.786
20.39000 481.144
20.40000 493.491
20.41000 496.465
20.42000 492.112
20.43000 487.751
20.44000 483.025
20.45000 478.108
20.46000 473.273
20.47000 469.846
20.48000 466.928
20.49000 464.242
20.50000 467.226
20.51000 471.136
20.52000 473.862
20.53000 469.762
20.54000 464.571
20.55000 461.589
20.56000 467.014
20.57000 473.258
20.58000 477.822
20.59000 469.677
20.60000 462.894
20.61000 462.304
20.62000 472.654
20.63000 483.212
20.64000 485.281
20.65000 477.307
20.66000 469.334
20.67000 469.717
20.68000 476.490
20.69000 482.931
20.70000 476.096
20.71000 462.371
20.72000 449.419
20.73000 449.286
20.74000 453.703
20.75000 457.761
20.76000 473.408
20.77000 489.858
20.78000 501.854
20.79000 488.677
20.80000 471.553
20.81000 457.247
20.82000 453.473
20.83000 450.697
20.84000 448.678
20.85000 458.143
20.86000 465.861
20.87000 472.678
20.88000 477.930
20.89000 483.154
20.90000 486.605
20.91000 487.999
20.92000 489.387
20.93000 486.017
20.94000 479.098
20.95000 472.280
20.96000 469.264
20.97000 468.186
20.98000 467.286
20.99000 469.247
21.00000 472.207
21.01000 474.920
21.02000 483.903
21.03000 493.221
21.04000 500.575
21.05000 497.051
21.06000 491.858
21.07000 486.574
21.08000 480.961
21.09000 475.318
21.10000 471.235
21.11000 468.573
21.12000 466.582
21.13000 466.631
21.14000 470.159
21.15000 473.745
21.16000 473.414
21.17000 468.624
21.18000 463.845
21.19000 461.656
21.20000 461.391
21.21000 461.242
21.22000 465.278
21.23000 471.413
21.24000 476.995
21.25000 473.952
21.26000 467.950
21.27000 462.462
21.28000 463.302
21.29000 465.351
21.30000 467.119
21.31000 467.354
21.32000 467.359
21.33000 466.694
21.34000 463.610
21.35000 460.308
21.36000 457.931
21.37000 453.719
21.38000 450.428
21.39000 451.497
21.40000 459.872
21.41000 468.363
21.42000 473.157
21.43000 473.822
21.44000 474.483
21.45000 474.524
21.46000 474.117
21.47000 473.631
21.48000 470.402
21.49000 465.822
21.50000 461.365
21.51000 458.757
21.52000 456.773
21.53000 454.963
21.54000 459.574
21.55000 464.958
21.56000 469.303
21.57000 468.106
21.58000 466.094
21.59000 465.151
21.60000 467.997
21.61000 471.175
21.62000 473.452
21.63000 462.978
21.64000 454.547
21.65000 453.484
21.66000 464.559
21.67000 475.812
21.68000 480.890
21.69000 479.205
21.70000 477.524
21.71000 471.812
21.72000 463.300
21.73000 455.184
21.74000 460.119
21.75000 471.377
21.76000 482.226
21.77000 487.085
21.78000 489.959
21.79000 492.575
21.80000 496.374
21.81000 499.970
21.82000 503.674
21.83000 507.941
21.84000 512.289
21.85000 513.095
21.86000 501.568
21.87000 488.986
21.88000 480.025
21.89000 499.058
21.90000 514.471
21.91000 521.872
21.92000 516.309
21.93000 510.568
21.94000 509.635
21.95000 513.864
21.96000 518.077
21.97000 519.516
21.98000 519.013
21.99000 518.425
22.00000 515.172
22.01000 510.649
22.02000 506.379
22.03000 505.707
22.04000 506.205
22.05000 506.658
22.06000 512.321
22.07000 518.333
22.08000 521.999
22.09000 513.644
22.10000 503.592
22.11000 495.581
22.12000 494.545
22.13000 494.090
22.14000 493.768
22.15000 493.957
22.16000 494.117
22.17000 497.166
22.18000 504.808
22.19000 512.509
22.20000 517.747
22.21000 520.393
22.22000 523.026
22.23000 518.678
22.24000 509.622
22.25000 500.737
22.26000 497.044
22.27000 495.779
22.28000 494.547
22.29000 493.759
22.30000 493.114
22.31000 492.529
22.32000 490.264
22.33000 487.949
22.34000 485.976
22.35000 485.722
22.36000 485.705
22.37000 484.127
22.38000 477.302
22.39000 470.052
22.40000 464.944
22.41000 466.036
22.42000 467.049
22.43000 468.585
22.44000 470.934
22.45000 473.294
22.46000 471.937
22.47000 466.745
22.48000 461.581
22.49000 459.815
22.50000 460.344
22.51000 460.903
22.52000 462.327
22.53000 464.148
22.54000 465.354
22.55000 458.278
22.56000 448.598
22.57000 439.849
22.58000 446.272
22.59000 454.738
22.60000 461.959
22.61000 463.033
22.62000 463.275
22.63000 462.518
22.64000 458.458
22.65000 454.138
22.66000 451.112
22.67000 457.271
22.68000 462.193
22.69000 459.542
22.70000 445.274
22.71000 430.878
22.72000 427.653
22.73000 435.728
22.74000 443.755
22.75000 450.213
22.76000 455.553
22.77000 460.641
22.78000 458.746
22.79000 453.691
22.80000 449.112
22.81000 450.743
22.82000 454.295
22.83000 457.496
22.84000 457.364
22.85000 456.642
22.86000 456.198
22.87000 457.104
22.88000 458.188
22.89000 459.152
22.90000 459.727
22.91000 460.271
22.92000 460.651
22.93000 458.298
22.94000 456.448
22.95000 453.377
22.96000 448.465
22.97000 443.535
22.98000 439.592
22.99000 436.628
23.00000 433.683
23.01000 437.170
23.02000 444.748
23.03000 452.189
23.04000 456.020
23.05000 458.245
23.06000 460.247
23.07000 459.406
23.08000 457.703
23.09000 456.171
23.10000 450.878
23.11000 445.572
23.12000 440.813
23.13000 438.650
23.14000 436.823
23.15000 434.625
23.16000 431.241
23.17000 427.769
23.18000 425.363
23.19000 430.469
23.20000 434.510
23.21000 437.964
23.22000 440.550
23.23000 443.129
23.24000 445.117
23.25000 446.531
23.26000 447.936
23.27000 449.424
23.28000 450.940
23.29000 452.442
23.30000 453.582
23.31000 454.563
23.32000 455.396
23.33000 454.391
23.34000 452.839
23.35000 451.446
23.36000 451.122
23.37000 451.025
23.38000 451.254
23.39000 453.009
23.40000 454.957
23.41000 457.962
23.42000 464.275
23.43000 470.829
23.44000 475.343
23.45000 467.424
23.46000 461.166
23.47000 453.360
23.48000 443.304
23.49000 433.231
23.50000 431.919
23.51000 438.955
23.52000 445.937
23.53000 450.721
23.54000 454.062
23.55000 457.197
23.56000 455.283
23.57000 451.200
23.58000 447.978
23.59000 455.131
23.60000 465.326
23.61000 474.447
23.62000 476.151
23.63000 476.372
23.64000 477.446
23.65000 482.423
23.66000 487.884
23.67000 489.932
23.68000 481.467
23.69000 472.262
23.70000 465.958
23.71000 479.430
23.72000 489.993
23.73000 498.691
23.74000 504.728
23.75000 510.743
23.76000 512.321
23.77000 509.754
23.78000 507.208
23.79000 513.258
23.80000 524.425
23.81000 535.093
23.82000 534.004
23.83000 527.948
23.84000 523.254
23.85000 534.536
23.86000 550.420
23.87000 564.594
23.88000 556.746
23.89000 546.237
23.90000 537.722
23.91000 538.170
23.92000 539.703
23.93000 542.456
23.94000 548.906
23.95000 555.609
23.96000 560.172
23.97000 564.816
23.98000 568.286
23.99000 570.382
24.00000 570.549
24.01000 570.702
24.02000 567.589
24.03000 561.485
24.04000 555.436
24.05000 551.582
24.06000 549.112
24.07000 546.552
24.08000 541.922
24.09000 536.433
24.10000 531.477
24.11000 532.612
24.12000 535.471
24.13000 538.015
24.14000 530.514
24.15000 522.357
24.16000 515.006
24.17000 511.212
24.18000 507.839
24.19000 503.691
24.20000 497.239
24.21000 490.635
24.22000 486.165
24.23000 487.451
24.24000 488.535
24.25000 483.294
24.26000 469.344
24.27000 455.347
24.28000 449.732
24.29000 451.646
24.30000 453.541
24.31000 455.406
24.32000 457.214
24.33000 458.998
24.34000 460.250
24.35000 461.286
24.36000 462.079
24.37000 460.172
24.38000 457.514
24.39000 455.155
24.40000 449.885
24.41000 444.852
24.42000 440.263
24.43000 437.597
24.44000 435.153
24.45000 434.183
24.46000 437.522
24.47000 441.139
24.48000 443.572
24.49000 435.214
24.50000 428.779
24.51000 424.709
24.52000 423.836
24.53000 422.984
24.54000 426.496
24.55000 433.852
24.56000 441.132
24.57000 440.379
24.58000 435.026
24.59000 429.854
24.60000 428.512
24.61000 428.706
24.62000 428.922
24.63000 429.361
24.64000 429.861
24.65000 430.304
24.66000 427.290
24.67000 424.142
24.68000 422.480
24.69000 427.128
24.70000 432.489
24.71000 434.145
24.72000 425.154
24.73000 415.498
24.74000 409.042
24.75000 412.777
24.76000 415.746
24.77000 417.772
24.78000 418.545
24.79000 419.304
24.80000 414.315
24.81000 404.358
24.82000 394.512
24.83000 398.154
24.84000 409.317
24.85000 419.994
24.86000 420.749
24.87000 417.591
24.88000 414.622
24.89000 413.650
24.90000 413.213
24.91000 412.828
24.92000 408.776
24.93000 404.719
24.94000 402.751
24.95000 409.503
24.96000 417.218
24.97000 421.980
24.98000 418.403
24.99000 414.321
25.00000 411.609
25.01000 413.360
25.02000 414.738
25.03000 413.184
25.04000 407.809
25.05000 402.424
25.06000 400.441
25.07000 401.343
25.08000 402.234
25.09000 404.762
25.10000 408.132
25.11000 411.084
25.12000 405.805
25.13000 397.334
25.14000 390.244
25.15000 397.389
25.16000 408.286
25.17000 417.880
25.18000 417.361
25.19000 415.400
25.20000 413.129
25.21000 409.594
25.22000 405.923
25.23000 403.835
25.24000 406.143
25.25000 408.708
25.26000 410.402
25.27000 402.102
25.28000 395.803
25.29000 394.175
25.30000 398.520
25.31000 402.881
25.32000 404.726
25.33000 404.479
25.34000 404.234
25.35000 405.531
25.36000 407.632
25.37000 409.767
25.38000 412.574
25.39000 415.638
25.40000 417.995
25.41000 413.253
25.42000 406.673
25.43000 400.897
25.44000 399.753
25.45000 399.449
25.46000 400.195
25.47000 405.172
25.48000 410.593
25.49000 414.206
25.50000 412.886
25.51000 411.286
25.52000 410.236
25.53000 415.122
25.54000 418.816
25.55000 418.069
25.56000 411.746
25.57000 405.424
25.58000 405.903
25.59000 411.934
25.60000 417.885
25.61000 414.751
25.62000 406.862
25.63000 399.064
25.64000 392.918
25.65000 387.391
25.66000 382.865
25.67000 388.159
25.68000 395.950
25.69000 402.771
25.70000 393.047
25.71000 382.338
25.72000 375.459
25.73000 383.722
25.74000 393.538
25.75000 401.936
25.76000 406.528
25.77000 410.911
25.78000 413.769
25.79000 411.479
25.80000 409.718
25.81000 408.076
25.82000 406.582
25.83000 405.084
25.84000 402.654
25.85000 399.477
25.86000 396.345
25.87000 394.516
25.88000 393.422
25.89000 392.443
25.90000 393.526
25.91000 395.370
25.92000 396.895
25.93000 395.366
25.94000 393.075
25.95000 391.075
25.96000 390.893
25.97000 390.992
25.98000 390.928
25.99000 390.236
26.00000 389.481
26.01000 391.353
26.02000 400.155
26.03000 409.325
26.04000 415.265
26.05000 405.808
26.06000 398.658
26.07000 394.122
26.08000 392.747
26.09000 391.390
26.10000 393.314
26.11000 397.818
26.12000 402.253
26.13000 401.073
26.14000 397.047
26.15000 393.035
26.16000 389.251
26.17000 385.550
26.18000 382.214
26.19000 382.279
26.20000 383.180
26.21000 383.963
26.22000 387.995
26.23000 391.882
26.24000 394.778
26.25000 393.894
26.26000 392.641
26.27000 391.102
26.28000 388.823
26.29000 386.505
26.30000 385.013
26.31000 383.995
26.32000 383.259
26.33000 387.559
26.34000 397.833
26.35000 408.082
26.36000 409.436
26.37000 403.926
26.38000 398.504
26.39000 392.961
26.40000 387.532
26.41000 382.257
26.42000 379.543
26.43000 377.740
26.44000 376.315
26.45000 378.333
26.46000 381.181
26.47000 383.652
26.48000 390.096
26.49000 396.117
26.50000 400.182
26.51000 396.921
26.52000 392.961
26.53000 391.322
26.54000 395.593
26.55000 400.158
26.56000 403.076
26.57000 388.556
26.58000 377.758
26.59000 372.928
26.60000 375.043
26.61000 377.183
26.62000 382.595
26.63000 390.488
26.64000 398.246
26.65000 399.519
26.66000 397.543
26.67000 395.449
26.68000 391.429
26.69000 386.736
26.70000 382.381
26.71000 381.044
26.72000 380.420
26.73000 379.880
26.74000 383.637
26.75000 387.394
26.76000 389.954
26.77000 388.110
26.78000 385.858
26.79000 386.309
26.80000 393.532
26.81000 401.079
26.82000 405.871
26.83000 394.756
26.84000 386.490
26.85000 384.160
26.86000 388.605
26.87000 393.037
26.88000 393.710
26.89000 391.586
26.90000 389.500
26.91000 386.779
26.92000 383.845
26.93000 381.157
26.94000 382.323
26.95000 384.815
26.96000 386.115
26.97000 377.041
26.98000 365.558
26.99000 355.654
27.00000 361.157
27.01000 367.795
27.02000 373.782
27.03000 377.418
27.04000 380.840
27.05000 384.024
27.06000 386.620
27.07000 389.189
27.08000 390.810
27.09000 379.238
27.10000 370.708
27.11000 366.644
27.12000 367.583
27.13000 368.534
27.14000 371.038
27.15000 374.675
27.16000 378.243
27.17000 378.666
27.18000 377.575
27.19000 376.541
27.20000 376.369
27.21000 376.488
27.22000 376.656
27.23000 377.244
27.24000 377.929
27.25000 378.517
27.26000 382.189
27.27000 385.682
27.28000 387.625
27.29000 384.064
27.30000 380.018
27.31000 376.195
27.32000 372.914
27.33000 369.657
27.34000 367.617
27.35000 372.583
27.36000 376.244
27.37000 378.001
27.38000 377.667
27.39000 377.320
27.40000 375.215
27.41000 371.849
27.42000 368.550
27.43000 367.674
27.44000 367.963
27.45000 368.104
27.46000 366.053
27.47000 363.274
27.48000 360.946
27.49000 362.359
27.50000 364.609
27.51000 366.538
27.52000 365.426
27.53000 364.116
27.54000 364.637
27.55000 371.546
27.56000 379.003
27.57000 383.541
27.58000 381.131
27.59000 378.423
27.60000 376.739
27.61000 385.285
27.62000 391.542
27.63000 389.642
27.64000 378.958
27.65000 368.328
27.66000 365.490
27.67000 368.138
27.68000 370.730
27.69000 366.512
27.70000 359.336
27.71000 352.919
27.72000 357.354
27.73000 365.331
27.74000 372.787
27.75000 376.005
27.76000 378.292
27.77000 380.247
27.78000 372.847
27.79000 365.496
27.80000 361.193
27.81000 367.335
27.82000 374.352
27.83000 378.387
27.84000 375.449
27.85000 372.223
27.86000 370.231
27.87000 378.771
27.88000 385.003
27.89000 386.178
27.90000 382.015
27.91000 377.869
27.92000 375.788
27.93000 375.136
27.94000 374.499
27.95000 378.072
27.96000 383.394
27.97000 387.731
27.98000 378.376
27.99000 364.629
28.00000 352.915
28.01000 357.366
28.02000 365.304
28.03000 372.065
28.04000 374.226
28.05000 375.508
28.06000 374.284
28.07000 364.618
28.08000 354.266
28.09000 348.386
28.10000 352.790
28.11000 357.602
28.12000 360.553
28.13000 363.534
28.14000 365.669
28.15000 367.890
28.16000 370.199
28.17000 372.493
28.18000 373.065
28.19000 372.468
28.20000 371.885
28.21000 371.354
28.22000 370.869
28.23000 370.234
28.24000 367.563
28.25000 364.250
28.26000 361.610
28.27000 364.198
28.28000 367.892
28.29000 371.027
28.30000 370.747
28.31000 370.123
28.32000 369.323
28.33000 367.941
28.34000 366.512
28.35000 365.953
28.36000 367.357
28.37000 368.836
28.38000 369.737
28.39000 358.419
28.40000 350.238
28.41000 351.621
28.42000 362.705
28.43000 373.711
28.44000 376.669
28.45000 374.257
28.46000 371.904
28.47000 372.218
28.48000 373.674
28.49000 374.950
28.50000 373.862
28.51000 372.042
28.52000 370.069
28.53000 366.942
28.54000 363.576
28.55000 360.727
28.56000 371.085
28.57000 381.221
28.58000 386.712
28.59000 377.090
28.60000 366.305
28.61000 360.629
28.62000 366.308
28.63000 372.403
28.64000 376.085
28.65000 369.508
28.66000 364.749
28.67000 363.919
28.68000 366.996
28.69000 370.056
28.70000 371.431
28.71000 371.702
28.72000 371.966
28.73000 368.878
28.74000 364.505
28.75000 360.475
28.76000 360.829
28.77000 362.517
28.78000 363.886
28.79000 362.881
28.80000 361.392
28.81000 360.136
28.82000 364.431
28.83000 368.621
28.84000 370.149
28.85000 363.171
28.86000 355.555
28.87000 355.043
28.88000 370.049
28.89000 385.599
28.90000 394.924
28.91000 377.713
28.92000 365.312
28.93000 360.021
28.94000 361.659
28.95000 363.299
28.96000 365.182
28.97000 367.219
28.98000 369.204
28.99000 368.456
29.00000 366.602
29.01000 364.918
29.02000 365.336
29.03000 366.384
29.04000 366.950
29.05000 364.009
29.06000 360.368
29.07000 357.308
29.08000 357.030
29.09000 357.093
29.10000 356.502
29.11000 353.857
29.12000 351.062
29.13000 349.131
29.14000 349.056
29.15000 349.043
29.16000 349.035
29.17000 362.715
29.18000 372.487
29.19000 371.904
29.20000 361.428
29.21000 351.077
29.22000 350.742
29.23000 356.740
29.24000 362.573
29.25000 361.174
29.26000 356.879
29.27000 352.687
29.28000 349.734
29.29000 347.146
29.30000 345.565
29.31000 351.167
29.32000 358.179
29.33000 364.052
29.34000 354.422
29.35000 344.815
29.36000 338.429
29.37000 341.987
29.38000 346.248
29.39000 349.388
29.40000 350.159
29.41000 350.854
29.42000 351.265
29.43000 347.278
29.44000 344.440
29.45000 347.391
29.46000 355.765
29.47000 364.053
29.48000 366.044
29.49000 364.122
29.50000 362.256
29.51000 359.109
29.52000 355.606
29.53000 352.441
29.54000 353.253
29.55000 355.215
29.56000 357.193
29.57000 359.288
29.58000 361.406
29.59000 363.173
29.60000 360.133
29.61000 357.126
29.62000 356.800
29.63000 364.610
29.64000 372.979
29.65000 375.513
29.66000 365.940
29.67000 355.994
29.68000 350.166
29.69000 355.715
29.70000 359.679
29.71000 361.417
29.72000 361.112
29.73000 360.805
29.74000 360.403
29.75000 359.943
29.76000 359.497
29.77000 360.468
29.78000 361.948
29.79000 363.387
29.80000 364.367
29.81000 365.217
29.82000 365.399
29.83000 361.018
29.84000 355.777
29.85000 351.417
29.86000 359.341
29.87000 367.107
29.88000 372.839
29.89000 372.504
29.90000 371.765
29.91000 372.306
29.92000 375.458
29.93000 378.687
29.94000 380.565
29.95000 382.096
29.96000 383.172
29.97000 386.292
29.98000 391.254
29.99000 396.163
30.00000 397.642
30.01000 397.066
30.02000 396.507
30.03000 394.867
30.04000 392.897
30.05000 390.702
30.06000 385.998
30.07000 380.593
30.08000 375.582
30.09000 373.200
30.10000 371.305
30.11000 369.734
30.12000 374.565
30.13000 379.168
30.14000 381.508
30.15000 377.217
30.16000 372.496
30.17000 371.905
30.18000 379.592
30.19000 387.510
30.20000 392.078
30.21000 388.063
30.22000 385.217
30.23000 382.278
30.24000 379.257
30.25000 376.349
30.26000 380.359
30.27000 388.445
30.28000 396.268
30.29000 393.456
30.30000 386.761
30.31000 380.119
30.32000 374.060
30.33000 368.161
30.34000 363.311
30.35000 365.338
30.36000 368.614
30.37000 371.319
30.38000 366.696
30.39000 362.202
30.40000 359.223
30.41000 360.609
30.42000 362.268
30.43000 365.996
30.44000 373.800
30.45000 381.713
30.46000 386.240
30.47000 365.603
30.48000 351.122
30.49000 349.700
30.50000 359.595
30.51000 369.381
30.52000 372.964
30.53000 372.955
30.54000 372.948
30.55000 373.747
30.56000 374.802
30.57000 375.945
30.58000 378.028
30.59000 380.364
30.60000 381.883
30.61000 378.164
30.62000 373.513
30.63000 369.686
30.64000 372.072
30.65000 374.599
30.66000 376.159
30.67000 374.977
30.68000 373.628
30.69000 373.107
30.70000 374.188
30.71000 375.309
30.72000 375.946
30.73000 382.065
30.74000 386.337
30.75000 387.538
30.76000 386.128
30.77000 384.748
30.78000 384.977
30.79000 386.121
30.80000 387.225
30.81000 391.788
30.82000 397.348
30.83000 402.397
30.84000 402.151
30.85000 400.507
30.86000 399.947
30.87000 406.204
30.88000 413.650
30.89000 419.755
30.90000 424.875
30.91000 428.987
30.92000 433.032
30.93000 436.889
30.94000 440.735
30.95000 445.236
30.96000 450.987
30.97000 456.767
30.98000 460.020
30.99000 479.969
31.00000 493.848
31.01000 500.954
31.02000 502.410
31.03000 504.008
31.04000 512.797
31.05000 525.605
31.06000 537.946
31.07000 554.607
31.08000 571.810
31.09000 588.003
31.10000 593.979
31.11000 597.304
31.12000 604.346
31.13000 634.290
31.14000 668.151
31.15000 695.811
31.16000 728.126
31.17000 754.977
31.18000 780.198
31.19000 800.956
31.20000 821.460
31.21000 841.112
31.22000 859.172
31.23000 877.195
31.24000 887.252
31.25000 911.911
31.26000 928.996
31.27000 939.725
31.28000 945.251
31.29000 950.954
31.30000 965.119
31.31000 983.932
31.32000 1002.032
31.33000 1017.981
31.34000 1032.179
31.35000 1045.842
31.36000 1054.222
31.37000 1061.255
31.38000 1064.632
31.39000 1045.941
31.40000 1023.550
31.41000 1005.327
31.42000 1002.733
31.43000 1001.930
31.44000 993.902
31.45000 966.448
31.46000 937.920
31.47000 913.729
31.48000 897.510
31.49000 881.464
31.50000 872.586
31.51000 851.262
31.52000 836.508
31.53000 815.882
31.54000 790.540
31.55000 765.124
31.56000 736.361
31.57000 705.789
31.58000 676.418
31.59000 659.575
31.60000 648.138
31.61000 635.481
31.62000 611.103
31.63000 583.790
31.64000 558.034
31.65000 541.490
31.66000 526.459
31.67000 514.273
31.68000 502.023
31.69000 492.037
31.70000 481.530
31.71000 469.648
31.72000 457.691
31.73000 449.804
31.74000 449.268
31.75000 448.883
31.76000 448.671
31.77000 452.231
31.78000 454.644
31.79000 444.897
31.80000 425.563
31.81000 406.474
31.82000 397.804
31.83000 394.663
31.84000 391.651
31.85000 391.461
31.86000 392.240
31.87000 392.660
31.88000 389.713
31.89000 385.938
31.90000 383.444
31.91000 388.380
31.92000 394.512
31.93000 399.464
31.94000 384.344
31.95000 370.452
31.96000 360.996
31.97000 363.068
31.98000 365.736
31.99000 366.268
32.00000 363.007
32.01000 359.673
32.02000 357.860
32.03000 356.154
32.04000 355.001
32.05000 358.064
32.06000 364.391
32.07000 370.441
32.08000 365.294
32.09000 354.308
32.10000 343.784
32.11000 346.104
32.12000 352.541
32.13000 358.020
32.14000 354.722
32.15000 349.306
32.16000 345.024
32.17000 347.191
32.18000 350.375
32.19000 352.937
32.20000 358.344
32.21000 362.949
32.22000 362.091
32.23000 347.275
32.24000 331.762
32.25000 325.857
32.26000 336.717
32.27000 347.882
32.28000 353.899
32.29000 357.527
32.30000 359.979
32.31000 356.886
32.32000 349.579
32.33000 342.515
32.34000 344.812
32.35000 351.908
32.36000 358.694
32.37000 358.439
32.38000 355.903
32.39000 352.554
32.40000 341.935
32.41000 329.592
32.42000 319.739
32.43000 323.771
32.44000 329.947
32.45000 334.896
32.46000 326.235
32.47000 318.199
32.48000 315.137
32.49000 324.565
32.50000 334.595
32.51000 340.053
32.52000 337.671
32.53000 335.154
32.54000 333.810
32.55000 333.208
32.56000 332.778
32.57000 328.414
32.58000 321.116
32.59000 314.002
32.60000 313.662
32.61000 316.736
32.62000 319.670
32.63000 321.858
32.64000 323.653
32.65000 325.198
32.66000 324.564
32.67000 323.422
32.68000 322.563
32.69000 323.246
32.70000 324.162
32.71000 324.893
32.72000 323.003
32.73000 321.285
32.74000 319.590
32.75000 317.951
32.76000 316.315
32.77000 316.034
32.78000 318.034
32.79000 320.070
32.80000 321.148
32.81000 321.933
32.82000 322.448
32.83000 319.797
32.84000 314.830
32.85000 310.245
32.86000 319.007
32.87000 334.380
32.88000 349.036
32.89000 339.160
32.90000 322.296
32.91000 307.428
32.92000 309.623
32.93000 315.719
32.94000 320.609
32.95000 319.038
32.96000 316.510
32.97000 314.500
32.98000 314.905
32.99000 315.404
33.00000 314.826
33.01000 311.638
33.02000 308.333
33.03000 304.494
33.04000 299.770
33.05000 295.033
33.06000 292.549
33.07000 303.083
33.08000 310.189
33.09000 312.072
33.10000 310.198
33.11000 308.385
33.12000 308.557
33.13000 309.697
33.14000 310.782
33.15000 311.102
33.16000 311.163
33.17000 311.359
33.18000 312.677
33.19000 314.248
33.20000 315.436
33.21000 314.613
33.22000 313.498
33.23000 312.615
33.24000 312.854
33.25000 313.123
33.26000 312.073
33.27000 307.874
33.28000 303.540
33.29000 299.406
33.30000 295.598
33.31000 291.795
33.32000 289.820
33.33000 294.959
33.34000 298.423
33.35000 300.914
33.36000 302.716
33.37000 304.385
33.38000 301.771
33.39000 297.107
33.40000 292.676
33.41000 295.503
33.42000 300.308
33.43000 304.826
33.44000 306.989
33.45000 308.635
33.46000 309.513
33.47000 306.437
33.48000 302.800
33.49000 299.932
33.50000 303.763
33.51000 307.286
33.52000 309.348
33.53000 307.984
33.54000 306.477
33.55000 303.662
33.56000 298.756
33.57000 293.822
33.58000 291.284
33.59000 296.831
33.60000 300.583
33.61000 306.608
33.62000 314.210
33.63000 321.443
33.64000 317.449
33.65000 308.174
33.66000 299.376
33.67000 296.569
33.68000 295.758
33.69000 295.365
33.70000 298.312
33.71000 301.982
33.72000 305.557
33.73000 308.651
33.74000 311.679
33.75000 314.057
33.76000 309.319
33.77000 305.065
33.78000 302.028
33.79000 301.801
33.80000 301.686
33.81000 304.535
33.82000 312.038
33.83000 319.598
33.84000 323.449
33.85000 319.569
33.86000 316.967
33.87000 314.389
33.88000 311.828
33.89000 309.342
33.90000 309.040
33.91000 309.748
33.92000 310.419
33.93000 310.884
33.94000 311.252
33.95000 311.600
33.96000 311.788
33.97000 311.942
33.98000 311.846
33.99000 310.509
34.00000 309.002
34.01000 307.824
34.02000 313.949
34.03000 319.301
34.04000 323.256
34.05000 324.046
34.06000 324.715
34.07000 326.831
34.08000 331.179
34.09000 335.552
34.10000 337.757
34.11000 334.689
34.12000 332.665
34.13000 333.554
34.14000 336.392
34.15000 339.038
34.16000 336.345
34.17000 331.225
34.18000 326.385
34.19000 328.080
34.20000 331.501
34.21000 334.941
34.22000 338.521
34.23000 342.130
34.24000 345.241
34.25000 345.926
34.26000 346.288
34.27000 346.569
34.28000 341.990
34.29000 338.044
34.30000 335.350
34.31000 335.448
34.32000 335.648
34.33000 335.998
34.34000 336.577
34.35000 337.158
34.36000 338.110
34.37000 339.433
34.38000 340.728
34.39000 339.328
34.40000 336.158
34.41000 333.068
34.42000 332.099
34.43000 332.078
34.44000 332.059
34.45000 333.780
34.46000 335.846
34.47000 336.677
34.48000 328.286
34.49000 318.011
34.50000 310.479
34.51000 316.051
34.52000 323.329
34.53000 328.970
34.54000 330.140
34.55000 330.802
34.56000 330.785
34.57000 329.278
34.58000 327.718
34.59000 323.354
34.60000 314.818
34.61000 306.243
34.62000 307.039
34.63000 316.995
34.64000 326.853
34.65000 328.180
34.66000 324.001
34.67000 319.828
34.68000 315.819
34.69000 311.882
34.70000 308.173
34.71000 306.395
34.72000 305.297
34.73000 303.715
34.74000 298.591
34.75000 292.759
34.76000 287.889
34.77000 287.536
34.78000 287.758
34.79000 287.929
34.80000 285.189
34.81000 282.848
34.82000 281.050
34.83000 280.421
34.84000 279.831
34.85000 277.895
34.86000 273.991
34.87000 270.070
34.88000 269.089
34.89000 270.925
34.90000 272.781
34.91000 276.190
34.92000 280.583
34.93000 284.793
34.94000 284.454
34.95000 282.152
34.96000 279.987
34.97000 284.495
34.98000 290.409
34.99000 294.774
35.00000 288.070
35.01000 279.188
35.02000 272.672
35.03000 277.045
35.04000 282.773
35.05000 287.174
35.06000 282.583
35.07000 278.448
35.08000 273.080
35.09000 265.105
35.10000 257.045
35.11000 257.670
35.12000 270.760
35.13000 283.946
35.14000 286.404
35.15000 278.786
35.16000 271.253
35.17000 270.097
35.18000 272.912
35.19000 275.531
35.20000 273.454
35.21000 269.384
35.22000 265.564
35.23000 267.824
35.24000 271.487
35.25000 274.183
35.26000 270.107
35.27000 264.723
35.28000 260.726
35.29000 262.987
35.30000 266.011
35.31000 268.324
35.32000 262.422
35.33000 257.318
35.34000 254.260
35.35000 255.454
35.36000 256.779
35.37000 257.719
35.38000 258.115
35.39000 258.508
35.40000 258.694
35.41000 258.691
35.42000 258.730
35.43000 261.645
35.44000 266.320
35.45000 270.933
35.46000 274.130
35.47000 276.736
35.48000 279.177
35.49000 282.882
35.50000 286.579
35.51000 288.398
35.52000 277.343
35.53000 263.851
35.54000 252.988
35.55000 253.779
35.56000 255.958
35.57000 257.616
35.58000 262.993
35.59000 267.421
35.60000 271.225
35.61000 273.751
35.62000 276.240
35.63000 276.249
35.64000 272.825
35.65000 269.380
35.66000 263.744
35.67000 256.135
35.68000 248.634
35.69000 248.180
35.70000 251.963
35.71000 255.801
35.72000 260.852
35.73000 266.399
35.74000 271.585
35.75000 263.492
35.76000 252.774
35.77000 243.824
35.78000 246.734
35.79000 251.845
35.80000 256.958
35.81000 262.080
35.82000 267.203
35.83000 271.085
35.84000 266.135
35.85000 261.797
35.86000 258.943
35.87000 259.069
35.88000 259.279
35.89000 259.441
35.90000 259.536
35.91000 259.630
35.92000 258.790
35.93000 257.123
35.94000 255.553
35.95000 259.916
35.96000 267.784
35.97000 275.316
35.98000 275.688
35.99000 273.174
36.00000 270.829
36.01000 274.081
36.02000 278.421
36.03000 281.286
36.04000 274.459
36.05000 265.869
36.06000 258.289
36.07000 255.031
36.08000 252.264
36.09000 250.177
36.10000 259.181
36.11000 266.781
36.12000 271.305
36.13000 269.751
36.14000 268.033
36.15000 265.284
36.16000 261.159
36.17000 257.030
36.18000 255.996
36.19000 257.651
36.20000 259.330
36.21000 262.453
36.22000 266.413
36.23000 269.950
36.24000 264.776
36.25000 256.150
36.26000 248.117
36.27000 249.158
36.28000 252.313
36.29000 255.743
36.30000 260.943
36.31000 266.459
36.32000 270.822
36.33000 270.343
36.34000 269.327
36.35000 268.563
36.36000 261.467
36.37000 255.620
36.38000 252.269
36.39000 253.768
36.40000 255.390
36.41000 254.467
36.42000 250.208
36.43000 245.938
36.44000 242.260
36.45000 239.095
36.46000 236.031
36.47000 238.386
36.48000 243.833
36.49000 249.315
36.50000 255.505
36.51000 261.971
36.52000 267.979
36.53000 266.599
36.54000 263.586
36.55000 260.728
36.56000 258.840
36.57000 257.121
36.58000 255.393
36.59000 253.620
36.60000 251.843
36.61000 250.515
36.62000 255.179
36.63000 259.091
36.64000 260.834
36.65000 258.438
36.66000 255.942
36.67000 257.506
36.68000 264.292
36.69000 271.090
36.70000 271.473
36.71000 266.502
36.72000 261.546
36.73000 257.271
36.74000 253.379
36.75000 249.686
36.76000 249.807
36.77000 251.389
36.78000 252.856
36.79000 260.253
36.80000 268.305
36.81000 275.058
36.82000 273.795
36.83000 271.157
36.84000 269.358
36.85000 270.956
36.86000 272.913
36.87000 274.369
36.88000 275.593
36.89000 276.535
36.90000 277.866
36.91000 279.926
36.92000 282.002
36.93000 279.210
36.94000 270.273
36.95000 261.328
36.96000 262.551
36.97000 272.085
36.98000 281.491
36.99000 284.680
37.00000 284.446
37.01000 284.176
37.02000 283.251
37.03000 282.079
37.04000 280.994
37.05000 282.548
37.06000 284.550
37.07000 285.795
37.08000 282.457
37.09000 278.349
37.10000 275.181
37.11000 275.750
37.12000 276.705
37.13000 277.412
37.14000 272.617
37.15000 268.660
37.16000 266.280
37.17000 266.806
37.18000 267.396
37.19000 267.320
37.20000 266.418
37.21000 265.515
37.22000 263.244
37.23000 259.883
37.24000 256.521
37.25000 253.079
37.26000 249.592
37.27000 246.470
37.28000 249.889
37.29000 255.730
37.30000 261.124
37.31000 256.837
37.32000 250.813
37.33000 245.685
37.34000 245.871
37.35000 246.933
37.36000 247.162
37.37000 244.137
37.38000 240.784
37.39000 238.316
37.40000 249.012
37.41000 257.838
37.42000 262.556
37.43000 259.833
37.44000 256.956
37.45000 255.878
37.46000 256.988
37.47000 258.101
37.48000 256.463
37.49000 252.670
37.50000 248.942
37.51000 248.012
37.52000 248.572
37.53000 249.403
37.54000 254.973
37.55000 262.266
37.56000 268.986
37.57000 265.620
37.58000 260.382
37.59000 255.513
37.60000 252.799
37.61000 250.433
37.62000 248.821
37.63000 250.101
37.64000 251.666
37.65000 252.813
37.66000 259.078
37.67000 264.121
37.68000 265.994
37.69000 262.224
37.70000 258.343
37.71000 258.428
37.72000 263.242
37.73000 268.054
37.74000 265.391
37.75000 256.973
37.76000 248.729
37.77000 247.557
37.78000 250.083
37.79000 252.740
37.80000 257.603
37.81000 263.255
37.82000 268.452
37.83000 265.527
37.84000 261.157
37.85000 256.633
37.86000 251.230
37.87000 245.688
37.88000 242.304
37.89000 247.041
37.90000 252.558
37.91000 256.580
37.92000 265.210
37.93000 272.036
37.94000 275.905
37.95000 274.600
37.96000 273.201
37.97000 270.516
37.98000 266.326
37.99000 262.146
38.00000 261.012
38.01000 262.192
38.02000 263.322
38.03000 262.536
38.04000 260.764
38.05000 259.085
38.06000 258.897
38.07000 259.234
38.08000 259.543
38.09000 257.113
38.10000 254.366
38.11000 252.671
38.12000 256.857
38.13000 261.956
38.14000 265.854
38.15000 265.315
38.16000 264.361
38.17000 263.669
38.18000 271.078
38.19000 277.073
38.20000 281.261
38.21000 282.343
38.22000 283.372
38.23000 284.283
38.24000 285.060
38.25000 285.835
38.26000 284.372
38.27000 281.259
38.28000 278.266
38.29000 279.699
38.30000 283.369
38.31000 287.300
38.32000 295.359
38.33000 304.844
38.34000 313.527
38.35000 323.024
38.36000 331.642
38.37000 340.250
38.38000 348.808
38.39000 357.358
38.40000 364.605
38.41000 367.120
38.42000 369.203
38.43000 370.705
38.44000 401.874
38.45000 426.828
38.46000 446.818
38.47000 458.423
38.48000 469.892
38.49000 485.664
38.50000 506.282
38.51000 526.835
38.52000 548.036
38.53000 569.537
38.54000 591.147
38.55000 616.621
38.56000 644.014
38.57000 671.170
38.58000 694.718
38.59000 717.039
38.60000 737.426
38.61000 756.093
38.62000 772.314
38.63000 788.128
38.64000 801.748
38.65000 815.042
38.66000 826.865
38.67000 833.436
38.68000 839.541
38.69000 843.922
38.70000 837.677
38.71000 832.535
38.72000 830.851
38.73000 834.904
38.74000 839.045
38.75000 831.075
38.76000 809.732
38.77000 788.459
38.78000 765.104
38.79000 740.471
38.80000 715.962
38.81000 695.590
38.82000 677.238
38.83000 658.774
38.84000 638.638
38.85000 617.945
38.86000 599.089
38.87000 569.532
38.88000 541.213
38.89000 513.743
38.90000 490.742
38.91000 468.393
38.92000 448.692
38.93000 438.284
38.94000 428.679
38.95000 421.822
38.96000 393.434
38.97000 371.066
38.98000 355.856
38.99000 352.322
39.00000 348.954
39.01000 336.716
39.02000 314.872
39.03000 293.116
39.04000 283.370
39.05000 282.139
39.06000 280.859
39.07000 278.045
39.08000 274.496
39.09000 271.387
39.10000 274.650
39.11000 280.004
39.12000 284.870
39.13000 278.328
39.14000 270.316
39.15000 262.585
39.16000 256.307
39.17000 250.236
39.18000 247.016
39.19000 253.622
39.20000 261.057
39.21000 266.336
39.22000 261.284
39.23000 257.112
39.24000 253.366
39.25000 250.304
39.26000 247.251
39.27000 245.806
39.28000 246.068
39.29000 246.330
39.30000 246.496
39.31000 246.595
39.32000 246.672
39.33000 246.057
39.34000 245.118
39.35000 244.497
39.36000 248.352
39.37000 253.650
39.38000 258.454
39.39000 255.315
39.40000 251.027
39.41000 246.502
39.42000 240.779
39.43000 234.890
39.44000 230.810
39.45000 232.860
39.46000 235.413
39.47000 237.216
39.48000 246.279
39.49000 253.380
39.50000 255.329
39.51000 249.169
39.52000 242.910
39.53000 239.330
39.54000 238.539
39.55000 237.752
39.56000 238.149
39.57000 239.339
39.58000 240.499
39.59000 240.772
39.60000 240.635
39.61000 240.296
39.62000 237.215
39.63000 233.264
39.64000 229.690
39.65000 230.812
39.66000 232.680
39.67000 234.518
39.68000 236.211
39.69000 237.884
39.70000 239.076
39.71000 238.668
39.72000 238.131
39.73000 237.755
39.74000 238.258
39.75000 238.664
39.76000 236.939
39.77000 231.917
39.78000 226.858
39.79000 226.551
39.80000 231.094
39.81000 235.612
39.82000 235.827
39.83000 233.192
39.84000 230.599
39.85000 229.154
39.86000 228.233
39.87000 227.336
39.88000 226.743
39.89000 226.245
39.90000 225.796
39.91000 229.319
39.92000 233.144
39.93000 236.424
39.94000 237.049
39.95000 237.319
39.96000 236.622
39.97000 232.764
39.98000 228.660
39.99000 225.794
40.00000 226.283
40.01000 226.747
40.02000 227.437
40.03000 228.471
40.04000 229.507
40.05000 233.554
40.06000 240.611
40.07000 247.624
40.08000 247.492
40.09000 242.721
40.10000 238.072
40.11000 236.712
40.12000 236.825
40.13000 236.906
40.14000 236.559
40.15000 236.081
40.16000 235.652
40.17000 231.520
40.18000 227.232
40.19000 223.385
40.20000 221.647
40.21000 220.184
40.22000 219.494
40.23000 221.286
40.24000 223.267
40.25000 224.642
40.26000 220.605
40.27000 217.418
40.28000 218.264
40.29000 225.128
40.30000 232.049
40.31000 233.740
40.32000 230.306
40.33000 226.895
40.34000 222.270
40.35000 216.945
40.36000 211.861
40.37000 213.057
40.38000 217.017
40.39000 220.299
40.40000 215.087
40.41000 207.320
40.42000 200.345
40.43000 206.028
40.44000 213.227
40.45000 219.943
40.46000 224.396
40.47000 228.559
40.48000 232.171
40.49000 234.039
40.50000 235.780
40.51000 236.982
40.52000 231.977
40.53000 228.055
40.54000 225.593
40.55000 225.268
40.56000 224.961
40.57000 223.261
40.58000 220.222
40.59000 217.205
40.60000 217.253
40.61000 219.218
40.62000 221.187
40.63000 223.299
40.64000 225.471
40.65000 227.121
40.66000 222.401
40.67000 215.799
40.68000 209.885
40.69000 214.811
40.70000 220.979
40.71000 225.658
40.72000 223.466
40.73000 220.414
40.74000 219.126
40.75000 223.310
40.76000 227.884
40.77000 231.024
40.78000 224.901
40.79000 220.084
40.80000 216.150
40.81000 213.485
40.82000 210.832
40.83000 212.730
40.84000 218.917
40.85000 225.055
40.86000 226.668
40.87000 225.477
40.88000 224.301
40.89000 223.462
40.90000 222.767
40.91000 221.992
40.92000 220.268
40.93000 218.269
40.94000 216.483
40.95000 213.166
40.96000 210.018
40.97000 207.904
40.98000 210.473
40.99000 213.615
41.00000 216.489
41.01000 218.545
41.02000 220.545
41.03000 221.910
41.04000 219.190
41.05000 217.061
41.06000 216.840
41.07000 219.315
41.08000 221.806
41.09000 218.316
41.10000 209.299
41.11000 200.361
41.12000 202.742
41.13000 211.891
41.14000 220.841
41.15000 225.211
41.16000 227.666
41.17000 229.558
41.18000 224.944
41.19000 218.475
41.20000 212.711
41.21000 214.034
41.22000 216.354
41.23000 218.030
41.24000 216.843
41.25000 215.314
41.26000 213.311
41.27000 209.882
41.28000 206.358
41.29000 203.967
41.30000 207.347
41.31000 209.997
41.32000 210.536
41.33000 208.146
41.34000 205.740
41.35000 206.368
41.36000 209.746
41.37000 213.092
41.38000 212.950
41.39000 210.751
41.40000 208.455
41.41000 204.008
41.42000 198.676
41.43000 193.657
41.44000 192.163
41.45000 191.657
41.46000 191.207
41.47000 207.212
41.48000 223.753
41.49000 236.780
41.50000 234.468
41.51000 230.365
41.52000 226.791
41.53000 224.771
41.54000 222.854
41.55000 221.560
41.56000 223.697
41.57000 225.359
41.58000 224.122
41.59000 218.933
41.60000 213.724
41.61000 210.648
41.62000 209.467
41.63000 208.299
41.64000 212.209
41.65000 218.977
41.66000 225.272
41.67000 221.429
41.68000 213.488
41.69000 206.222
41.70000 206.368
41.71000 208.554
41.72000 210.491
41.73000 212.167
41.74000 213.576
41.75000 214.823
41.76000 215.376
41.77000 215.849
41.78000 216.067
41.79000 215.545
41.80000 214.975
41.81000 214.593
41.82000 212.374
41.83000 210.691
41.84000 209.738
41.85000 209.764
41.86000 209.798
41.87000 212.002
41.88000 216.098
41.89000 220.150
41.90000 222.061
41.91000 222.710
41.92000 223.141
41.93000 219.039
41.94000 213.136
41.95000 208.214
41.96000 213.773
41.97000 222.168
41.98000 229.587
41.99000 227.794
42.00000 224.822
42.01000 221.943
42.02000 219.464
42.03000 217.029
42.04000 216.188
42.05000 219.887
42.06000 223.863
42.07000 226.513
42.08000 223.814
42.09000 221.715
42.10000 221.493
42.11000 223.736
42.12000 225.989
42.13000 226.752
42.14000 226.241
42.15000 225.737
42.16000 224.120
42.17000 221.923
42.18000 220.006
42.19000 223.695
42.20000 229.574
42.21000 235.047
42.22000 236.289
42.23000 236.407
42.24000 236.511
42.25000 231.489
42.26000 226.385
42.27000 222.296
42.28000 222.400
42.29000 222.960
42.30000 223.858
42.31000 225.699
42.32000 227.596
42.33000 228.853
42.34000 228.860
42.35000 228.843
42.36000 228.237
42.37000 226.873
42.38000 225.508
42.39000 224.655
42.40000 224.232
42.41000 223.814
42.42000 220.251
42.43000 215.056
42.44000 210.082
42.45000 209.361
42.46000 210.273
42.47000 211.148
42.48000 211.649
42.49000 212.051
42.50000 212.405
42.51000 215.166
42.52000 217.897
42.53000 220.009
42.54000 219.610
42.55000 218.945
42.56000 216.927
42.57000 211.190
42.58000 205.239
42.59000 201.323
42.60000 210.078
42.61000 216.743
42.62000 217.225
42.63000 209.885
42.64000 202.540
42.65000 204.849
42.66000 215.105
42.67000 225.226
42.68000 224.491
42.69000 217.942
42.70000 211.599
42.71000 209.103
42.72000 208.059
42.73000 207.137
42.74000 207.423
42.75000 208.018
42.76000 208.540
42.77000 210.989
42.78000 213.370
42.79000 214.467
42.80000 210.449
42.81000 205.901
42.82000 203.619
42.83000 207.463
42.84000 211.649
42.85000 214.385
42.86000 210.006
42.87000 206.674
42.88000 206.739
42.89000 211.023
42.90000 215.310
42.91000 216.565
42.92000 215.371
42.93000 214.194
42.94000 210.314
42.95000 205.118
42.96000 200.160
42.97000 199.493
42.98000 200.417
42.99000 201.742
43.00000 206.948
43.01000 213.132
43.02000 218.536
43.03000 212.478
43.04000 205.668
43.05000 200.381
43.06000 201.053
43.07000 202.328
43.08000 202.016
43.09000 197.489
43.10000 192.735
43.11000 189.647
43.12000 194.225
43.13000 197.697
43.14000 201.926
43.15000 207.078
43.16000 212.213
43.17000 211.426
43.18000 205.944
43.19000 200.544
43.20000 197.393
43.21000 195.501
43.22000 193.660
43.23000 192.723
43.24000 192.116
43.25000 191.367
43.26000 189.268
43.27000 186.836
43.28000 184.716
43.29000 190.750
43.30000 197.036
43.31000 201.190
43.32000 197.157
43.33000 192.316
43.34000 190.311
43.35000 195.716
43.36000 201.507
43.37000 205.245
43.38000 208.586
43.39000 211.021
43.40000 208.276
43.41000 199.335
43.42000 190.412
43.43000 189.620
43.44000 195.154
43.45000 200.600
43.46000 198.775
43.47000 193.313
43.48000 188.304
43.49000 190.942
43.50000 196.322
43.51000 201.089
43.52000 200.203
43.53000 197.943
43.54000 195.980
43.55000 194.547
43.56000 193.398
43.57000 193.705
43.58000 199.513
43.59000 205.851
43.60000 208.262
43.61000 200.590
43.62000 192.411
43.63000 187.167
43.64000 188.806
43.65000 190.094
43.66000 193.281
43.67000 198.698
43.68000 204.093
43.69000 203.701
43.70000 198.890
43.71000 194.160
43.72000 193.562
43.73000 195.043
43.74000 196.455
43.75000 196.739
43.76000 196.625
43.77000 196.153
43.78000 192.462
43.79000 188.004
43.80000 184.142
43.81000 189.249
43.82000 194.780
43.83000 199.154
43.84000 199.233
43.85000 198.910
43.86000 198.476
43.87000 197.761
43.88000 197.032
43.89000 196.569
43.90000 197.853
43.91000 198.808
43.92000 198.873
43.93000 197.913
43.94000 196.955
43.95000 196.745
43.96000 197.095
43.97000 197.439
43.98000 194.718
43.99000 190.592
44.00000 186.850
44.01000 189.231
44.02000 193.731
44.03000 197.992
44.04000 200.137
44.05000 201.787
44.06000 203.213
44.07000 201.782
44.08000 200.197
44.09000 198.132
44.10000 194.311
44.11000 190.331
44.12000 190.217
44.13000 199.698
44.14000 209.630
44.15000 215.912
44.16000 212.925
44.17000 210.650
44.18000 208.912
44.19000 207.780
44.20000 206.642
44.21000 204.398
44.22000 201.340
44.23000 198.339
44.24000 200.140
44.25000 204.183
44.26000 207.762
44.27000 204.187
44.28000 198.177
44.29000 193.281
44.30000 197.957
44.31000 204.834
44.32000 210.754
44.33000 212.042
44.34000 212.547
44.35000 213.255
44.36000 214.687
44.37000 216.185
44.38000 215.984
44.39000 211.640
44.40000 207.109
44.41000 204.263
44.42000 201.536
44.43000 199.566
44.44000 199.052
44.45000 200.151
44.46000 201.257
44.47000 203.461
44.48000 206.456
44.49000 209.394
44.50000 212.387
44.51000 215.295
44.52000 218.000
44.53000 217.679
44.54000 216.345
44.55000 215.445
44.56000 218.196
44.57000 221.770
44.58000 224.838
44.59000 224.293
44.60000 223.386
44.61000 222.670
44.62000 222.623
44.63000 222.634
44.64000 222.904
44.65000 223.795
44.66000 224.714
44.67000 225.286
44.68000 225.192
44.69000 225.118
44.70000 226.334
44.71000 228.953
44.72000 231.562
44.73000 232.752
44.74000 232.936
44.75000 233.115
44.76000 231.070
44.77000 228.074
44.78000 225.470
44.79000 228.550
44.80000 233.499
44.81000 238.573
44.82000 244.666
44.83000 250.986
44.84000 256.392
44.85000 250.113
44.86000 243.408
44.87000 238.297
44.88000 238.690
44.89000 239.550
44.90000 241.284
44.91000 245.079
44.92000 248.961
44.93000 251.366
44.94000 246.041
44.95000 242.138
44.96000 240.592
44.97000 241.555
44.98000 242.504
44.99000 241.652
45.00000 239.544
45.01000 237.482
45.02000 234.894
45.03000 232.171
45.04000 229.801
45.05000 232.389
45.06000 236.580
45.07000 240.194
45.08000 239.169
45.09000 237.136
45.10000 235.402
45.11000 237.060
45.12000 238.854
45.13000 239.209
45.14000 234.676
45.15000 229.740
45.16000 226.973
45.17000 229.232
45.18000 231.693
45.19000 233.207
45.20000 232.112
45.21000 231.304
45.22000 228.944
45.23000 224.964
45.24000 221.003
45.25000 219.252
45.26000 219.013
45.27000 218.779
45.28000 216.429
45.29000 213.235
45.30000 210.675
45.31000 216.800
45.32000 225.683
45.33000 233.481
45.34000 232.766
45.35000 230.234
45.36000 228.082
45.37000 226.711
45.38000 225.650
45.39000 223.944
45.40000 220.088
45.41000 216.059
45.42000 214.968
45.43000 220.572
45.44000 226.435
45.45000 230.015
45.46000 233.076
45.47000 235.261
45.48000 230.786
45.49000 219.493
45.50000 208.243
45.51000 201.526
45.52000 197.856
45.53000 194.273
45.54000 196.506
45.55000 201.184
45.56000 205.498
45.57000 204.954
45.58000 202.894
45.59000 200.629
45.60000 196.785
45.61000 192.610
45.62000 189.073
45.63000 188.558
45.64000 188.466
45.65000 189.496
45.66000 194.201
45.67000 199.193
45.68000 202.760
45.69000 203.136
45.70000 203.393
45.71000 203.549
45.72000 193.614
45.73000 186.452
45.74000 182.613
45.75000 182.109
45.76000 181.621
45.77000 182.792
45.78000 185.057
45.79000 187.266
45.80000 182.849
45.81000 175.787
45.82000 169.451
45.83000 172.501
45.84000 178.430
45.85000 183.626
45.86000 183.306
45.87000 181.853
45.88000 180.626
45.89000 185.521
45.90000 190.285
45.91000 192.401
45.92000 185.990
45.93000 178.932
45.94000 175.874
45.95000 181.621
45.96000 187.683
45.97000 191.330
45.98000 184.847
45.99000 180.167
46.00000 179.324
46.01000 182.253
46.02000 185.173
46.03000 187.262
46.04000 188.813
46.05000 190.324
46.06000 186.411
46.07000 180.398
46.08000 174.790
46.09000 174.281
46.10000 175.309
46.11000 176.444
46.12000 178.363
46.13000 180.440
46.14000 182.189
46.15000 179.339
46.16000 176.471
46.17000 174.353
46.18000 174.612
46.19000 175.047
46.20000 174.897
46.21000 173.485
46.22000 172.030
46.23000 171.161
46.24000 178.328
46.25000 183.461
46.26000 183.772
46.27000 179.435
46.28000 175.126
46.29000 173.103
46.30000 172.535
46.31000 171.983
46.32000 174.058
46.33000 177.117
46.34000 180.000
46.35000 180.737
46.36000 180.838
46.37000 181.331
46.38000 184.646
46.39000 188.519
46.40000 191.769
46.41000 181.028
46.42000 170.629
46.43000 164.900
46.44000 173.699
46.45000 183.539
46.46000 187.786
46.47000 180.138
46.48000 172.100
46.49000 167.336
46.50000 175.731
46.51000 181.742
46.52000 183.893
46.53000 182.396
46.54000 180.932
46.55000 181.983
46.56000 184.608
46.57000 187.159
46.58000 186.685
46.59000 185.007
46.60000 183.176
46.61000 179.504
46.62000 175.297
46.63000 172.194
46.64000 176.864
46.65000 183.043
46.66000 188.208
46.67000 186.646
46.68000 184.665
46.69000 182.259
46.70000 178.553
46.71000 174.757
46.72000 173.854
46.73000 178.999
46.74000 184.334
46.75000 187.471
46.76000 181.840
46.77000 177.823
46.78000 174.430
46.79000 171.613
46.80000 168.845
46.81000 169.540
46.82000 172.364
46.83000 175.104
46.84000 177.155
46.85000 178.827
46.86000 180.288
46.87000 179.311
46.88000 177.638
46.89000 175.958
46.90000 174.237
46.91000 172.507
46.92000 171.066
46.93000 168.884
46.94000 167.002
46.95000 166.033
46.96000 167.803
46.97000 169.759
46.98000 171.608
46.99000 173.237
47.00000 174.859
47.01000 175.805
47.02000 172.856
47.03000 170.765
47.04000 170.232
47.05000 171.113
47.06000 171.986
47.07000 172.274
47.08000 172.208
47.09000 172.145
47.10000 169.227
47.11000 165.351
47.12000 161.777
47.13000 161.617
47.14000 162.416
47.15000 163.327
47.16000 164.991
47.17000 166.795
47.18000 168.293
47.19000 162.336
47.20000 156.689
47.21000 154.545
47.22000 162.745
47.23000 171.624
47.24000 175.628
47.25000 169.786
47.26000 163.663
47.27000 160.118
47.28000 162.148
47.29000 163.595
47.30000 165.835
47.31000 168.780
47.32000 171.687
47.33000 172.192
47.34000 171.271
47.35000 170.380
47.36000 168.333
47.37000 165.955
47.38000 164.001
47.39000 166.722
47.40000 170.733
47.41000 173.882
47.42000 171.338
47.43000 167.752
47.44000 164.785
47.45000 160.406
47.46000 156.661
47.47000 154.139
47.48000 155.169
47.49000 156.425
47.50000 158.977
47.51000 164.104
47.52000 169.300
47.53000 172.284
47.54000 167.542
47.55000 164.202
47.56000 163.962
47.57000 166.431
47.58000 168.839
47.59000 167.658
47.60000 164.383
47.61000 161.217
47.62000 160.723
47.63000 161.261
47.64000 161.743
47.65000 161.626
47.66000 161.346
47.67000 160.973
47.68000 160.003
47.69000 158.926
47.70000 158.038
47.71000 163.139
47.72000 167.888
47.73000 170.168
47.74000 165.400
47.75000 160.197
47.76000 157.820
47.77000 160.955
47.78000 164.234
47.79000 166.101
47.80000 166.365
47.81000 166.542
47.82000 165.244
47.83000 162.682
47.84000 160.230
47.85000 163.799
47.86000 170.820
47.87000 177.599
47.88000 171.873
47.89000 161.868
47.90000 152.930
47.91000 155.168
47.92000 160.382
47.93000 165.000
47.94000 165.838
47.95000 166.010
47.96000 166.151
47.97000 167.150
47.98000 168.047
47.99000 167.809
48.00000 164.387
48.01000 160.774
48.02000 159.349
48.03000 162.117
48.04000 164.990
48.05000 166.612
48.06000 160.097
48.07000 155.553
48.08000 155.080
48.09000 158.031
48.10000 160.981
48.11000 163.906
48.12000 166.816
48.13000 169.622
48.14000 166.456
48.15000 161.319
48.16000 156.712
48.17000 157.526
48.18000 159.758
48.19000 162.265
48.20000 166.477
48.21000 170.983
48.22000 174.670
48.23000 171.990
48.24000 169.238
48.25000 166.011
48.26000 161.476
48.27000 156.866
48.28000 155.377
48.29000 159.774
48.30000 164.308
48.31000 166.848
48.32000 163.725
48.33000 161.552
48.34000 161.361
48.35000 162.804
48.36000 164.212
48.37000 163.844
48.38000 162.492
48.39000 161.191
48.40000 162.169
48.41000 163.897
48.42000 165.448
48.43000 165.245
48.44000 164.590
48.45000 164.171
48.46000 165.185
48.47000 166.442
48.48000 167.466
48.49000 166.278
48.50000 165.118
48.51000 164.335
48.52000 164.572
48.53000 164.866
48.54000 163.880
48.55000 160.522
48.56000 157.112
48.57000 155.218
48.58000 157.882
48.59000 159.729
48.60000 160.257
48.61000 159.717
48.62000 159.215
48.63000 160.446
48.64000 162.620
48.65000 164.710
48.66000 166.043
48.67000 167.028
48.68000 167.805
48.69000 166.555
48.70000 164.793
48.71000 163.554
48.72000 165.429
48.73000 167.822
48.74000 169.764
48.75000 172.551
48.76000 174.893
48.77000 174.897
48.78000 168.670
48.79000 162.106
48.80000 159.129
48.81000 162.682
48.82000 166.373
48.83000 168.405
48.84000 163.189
48.85000 159.594
48.86000 159.122
48.87000 161.134
48.88000 163.097
48.89000 162.931
48.90000 161.628
48.91000 160.376
48.92000 161.936
48.93000 164.356
48.94000 166.629
48.95000 167.510
48.96000 168.046
48.97000 168.129
48.98000 165.560
48.99000 162.560
49.00000 160.133
49.01000 161.168
49.02000 162.288
49.03000 164.076
49.04000 167.609
49.05000 171.233
49.06000 171.238
49.07000 164.765
49.08000 158.164
49.09000 154.561
49.10000 160.831
49.11000 165.144
49.12000 167.598
49.13000 168.603
49.14000 169.466
49.15000 164.425
49.16000 156.282
49.17000 148.477
49.18000 149.640
49.19000 153.734
49.20000 157.881
49.21000 162.513
49.22000 167.263
49.23000 170.814
49.24000 167.483
49.25000 163.057
49.26000 159.491
49.27000 163.186
49.28000 166.755
49.29000 168.589
49.30000 165.954
49.31000 163.092
49.32000 161.936
49.33000 163.778
49.34000 165.675
49.35000 166.702
49.36000 163.799
49.37000 161.810
49.38000 160.819
49.39000 160.590
49.40000 160.318
49.41000 158.341
49.42000 155.483
49.43000 152.748
49.44000 152.790
49.45000 153.744
49.46000 154.879
49.47000 157.652
49.48000 160.817
49.49000 162.933
49.50000 159.152
49.51000 154.453
49.52000 150.681
49.53000 152.733
49.54000 154.839
49.55000 155.675
49.56000 153.293
49.57000 150.755
49.58000 150.781
49.59000 155.239
49.60000 159.775
49.61000 162.207
49.62000 158.908
49.63000 156.651
49.64000 154.396
49.65000 152.143
49.66000 149.953
49.67000 150.114
49.68000 151.469
49.69000 152.764
49.70000 154.129
49.71000 155.421
49.72000 156.873
49.73000 159.742
49.74000 162.944
49.75000 165.389
49.76000 163.667
49.77000 161.309
49.78000 159.423
49.79000 156.610
49.80000 154.267
49.81000 152.319
49.82000 151.352
49.83000 150.431
49.84000 148.810
49.85000 146.001
49.86000 143.173
49.87000 141.670
49.88000 146.088
49.89000 149.108
49.90000 154.032
49.91000 160.363
49.92000 166.531
49.93000 166.889
49.94000 164.349
49.95000 161.925
49.96000 158.315
49.97000 154.587
49.98000 151.161
49.99000 150.335
50.00000 150.108
50.01000 150.323
50.02000 152.935
50.03000 155.905
50.04000 158.270
50.05000 157.856
50.06000 157.321
50.07000 156.378
50.08000 154.434
50.09000 152.445
50.10000 151.414
50.11000 151.984
50.12000 152.579
50.13000 152.892
50.14000 159.246
50.15000 163.538
50.16000 164.444
50.17000 162.897
50.18000 161.417
50.19000 162.263
50.20000 164.248
50.21000 166.139
50.22000 162.432
50.23000 157.257
50.24000 152.710
50.25000 153.463
50.26000 155.415
50.27000 157.161
50.28000 157.817
50.29000 158.314
50.30000 158.707
50.31000 157.883
50.32000 157.135
50.33000 156.781
50.34000 157.377
50.35000 158.015
50.36000 159.818
50.37000 163.532
50.38000 167.273
50.39000 169.224
50.40000 159.575
50.41000 153.084
50.42000 151.747
50.43000 154.079
50.44000 156.457
50.45000 160.325
50.46000 164.910
50.47000 169.271
50.48000 171.160
50.49000 172.154
50.50000 172.974
50.51000 172.357
50.52000 171.422
50.53000 169.971
50.54000 165.843
50.55000 161.330
50.56000 157.766
50.57000 159.305
50.58000 160.889
50.59000 162.622
50.60000 164.708
50.61000 166.808
50.62000 168.209
50.63000 168.483
50.64000 168.741
50.65000 168.874
50.66000 166.439
50.67000 164.796
50.68000 163.064
50.69000 161.268
50.70000 159.540
50.71000 159.889
50.72000 161.223
50.73000 162.489
50.74000 167.034
50.75000 172.210
50.76000 176.682
50.77000 175.483
50.78000 173.047
50.79000 170.808
50.80000 169.570
50.81000 168.472
50.82000 167.609
50.83000 169.580
50.84000 171.346
50.85000 171.148
50.86000 166.390
50.87000 161.446
50.88000 157.757
50.89000 156.054
50.90000 154.375
50.91000 153.517
50.92000 149.261
50.93000 146.442
50.94000 148.297
50.95000 153.362
50.96000 158.246
50.97000 157.776
50.98000 154.812
50.99000 152.003
51.00000 150.143
51.01000 148.708
51.02000 147.109
51.03000 144.219
51.04000 141.052
51.05000 138.585
51.06000 139.616
51.07000 141.127
51.08000 142.310
51.09000 147.059
51.10000 151.082
51.11000 154.474
51.12000 156.425
51.13000 158.320
51.14000 157.666
51.15000 153.052
51.16000 148.391
51.17000 146.030
51.18000 150.487
51.19000 153.440
51.20000 152.948
51.21000 150.136
51.22000 147.366
51.23000 145.827
51.24000 144.852
51.25000 143.929
51.26000 141.490
51.27000 138.810
51.28000 136.782
51.29000 139.769
51.30000 143.810
51.31000 147.079
51.32000 146.562
51.33000 145.537
51.34000 144.737
51.35000 145.311
51.36000 145.854
51.37000 147.027
51.38000 149.613
51.39000 152.252
51.40000 154.277
51.41000 155.365
51.42000 156.442
51.43000 156.982
51.44000 153.602
51.45000 151.334
51.46000 147.857
51.47000 143.578
51.48000 139.582
51.49000 143.282
51.50000 150.448
51.51000 157.215
51.52000 154.279
51.53000 148.848
51.54000 143.636
51.55000 140.080
51.56000 136.865
51.57000 135.165
51.58000 140.759
51.59000 147.313
51.60000 152.402
51.61000 143.848
51.62000 136.219
51.63000 131.235
51.64000 132.087
51.65000 133.150
51.66000 134.916
51.67000 137.739
51.68000 140.572
51.69000 140.392
51.70000 137.239
51.71000 134.137
51.72000 135.654
51.73000 140.176
51.74000 144.464
51.75000 142.628
51.76000 138.082
51.77000 133.796
51.78000 136.432
51.79000 140.762
51.80000 144.581
51.81000 144.630
51.82000 143.918
51.83000 143.372
51.84000 143.613
51.85000 143.954
51.86000 144.219
51.87000 144.447
51.88000 144.626
51.89000 145.175
51.90000 146.527
51.91000 147.906
51.92000 146.502
51.93000 140.996
51.94000 135.454
51.95000 135.139
51.96000 139.877
51.97000 144.599
51.98000 148.029
51.99000 150.634
52.00000 153.120
52.01000 152.588
52.02000 150.744
52.03000 149.008
52.04000 145.732
52.05000 142.320
52.06000 139.334
52.07000 139.424
52.08000 140.123
52.09000 140.779
52.10000 141.231
52.11000 141.658
52.12000 141.986
52.13000 138.369
52.14000 135.281
52.15000 134.833
52.16000 140.013
52.17000 145.380
52.18000 147.991
52.19000 146.615
52.20000 145.207
52.21000 144.238
52.22000 143.684
52.23000 143.141
52.24000 143.442
52.25000 144.274
52.26000 145.255
52.27000 149.861
52.28000 156.018
52.29000 161.800
52.30000 157.235
52.31000 150.316
52.32000 144.192
52.33000 143.680
52.34000 144.260
52.35000 144.005
52.36000 139.948
52.37000 135.423
52.38000 131.955
52.39000 140.003
52.40000 146.995
52.41000 151.232
52.42000 149.695
52.43000 147.977
52.44000 146.762
52.45000 146.264
52.46000 145.771
52.47000 146.328
52.48000 147.861
52.49000 149.361
52.50000 148.529
52.51000 146.261
52.52000 144.000
52.53000 141.908
52.54000 139.888
52.55000 137.994
52.56000 139.128
52.57000 140.951
52.58000 142.586
52.59000 142.921
52.60000 143.008
52.61000 142.686
52.62000 140.541
52.63000 138.177
52.64000 136.374
52.65000 134.453
52.66000 132.934
52.67000 132.817
52.68000 135.591
52.69000 138.452
52.70000 140.337
52.71000 140.859
52.72000 141.373
52.73000 141.631
52.74000 141.658
52.75000 141.679
52.76000 141.359
52.77000 140.832
52.78000 140.318
52.79000 140.098
52.80000 140.000
52.81000 139.909
52.82000 143.352
52.83000 147.386
52.84000 150.797
52.85000 149.998
52.86000 148.410
52.87000 146.487
52.88000 143.091
52.89000 139.522
52.90000 136.811
52.91000 138.869
52.92000 140.733
52.93000 142.660
52.94000 144.716
52.95000 146.776
52.96000 146.506
52.97000 143.046
52.98000 139.568
52.99000 138.545
53.00000 139.717
53.01000 140.904
53.02000 143.120
53.03000 145.947
53.04000 148.758
53.05000 151.203
53.06000 153.500
53.07000 155.645
53.08000 150.462
53.09000 143.923
53.10000 138.502
53.11000 140.495
53.12000 143.848
53.13000 147.400
53.14000 151.806
53.15000 156.309
53.16000 159.713
53.17000 156.820
53.18000 154.237
53.19000 150.754
53.20000 145.483
53.21000 140.162
53.22000 140.719
53.23000 149.182
53.24000 157.683
53.25000 159.215
53.26000 154.647
53.27000 150.150
53.28000 149.802
53.29000 151.881
53.30000 153.787
53.31000 152.060
53.32000 148.882
53.33000 145.920
53.34000 151.074
53.35000 157.734
53.36000 163.010
53.37000 159.288
53.38000 153.947
53.39000 149.316
53.40000 147.695
53.41000 146.411
53.42000 145.445
53.43000 151.474
53.44000 156.528
53.45000 159.603
53.46000 158.804
53.47000 157.904
53.48000 156.509
53.49000 154.462
53.50000 152.414
53.51000 149.770
53.52000 146.621
53.53000 143.568
53.54000 145.785
53.55000 151.032
53.56000 155.936
53.57000 153.922
53.58000 149.191
53.59000 144.790
53.60000 146.882
53.61000 150.338
53.62000 153.162
53.63000 151.976
53.64000 150.082
53.65000 148.751
53.66000 149.761
53.67000 151.026
53.68000 151.973
53.69000 153.013
53.70000 153.828
53.71000 152.908
53.72000 148.651
53.73000 144.310
53.74000 142.467
53.75000 143.860
53.76000 145.266
53.77000 146.186
53.78000 146.695
53.79000 147.205
53.80000 147.695
53.81000 148.174
53.82000 148.549
53.83000 146.909
53.84000 144.490
53.85000 142.245
53.86000 142.969
53.87000 144.324
53.88000 145.743
53.89000 147.561
53.90000 149.448
53.91000 149.200
53.92000 140.244
53.93000 130.356
53.94000 122.988
53.95000 129.279
53.96000 134.795
53.97000 139.431
53.98000 142.402
53.99000 145.334
54.00000 145.369
54.01000 141.717
54.02000 138.056
54.03000 138.438
54.04000 142.153
54.05000 145.816
54.06000 146.872
54.07000 146.481
54.08000 146.004
54.09000 143.890
54.10000 141.156
54.11000 138.623
54.12000 139.577
54.13000 141.244
54.14000 141.989
54.15000 137.108
54.16000 131.272
54.17000 127.179
54.18000 130.066
54.19000 133.682
54.20000 136.364
54.21000 137.543
54.22000 138.393
54.23000 138.791
54.24000 138.348
54.25000 137.886
54.26000 137.913
54.27000 138.550
54.28000 139.188
54.29000 140.380
54.30000 142.016
54.31000 143.558
54.32000 140.717
54.33000 135.485
54.34000 130.653
54.35000 133.096
54.36000 138.251
54.37000 143.017
54.38000 144.351
54.39000 144.770
54.40000 144.735
54.41000 141.987
54.42000 138.789
54.43000 136.781
54.44000 139.458
54.45000 142.611
54.46000 144.939
54.47000 143.064
54.48000 141.435
54.49000 140.309
54.50000 140.102
54.51000 139.915
54.52000 142.579
54.53000 148.738
54.54000 154.895
54.55000 153.068
54.56000 144.916
54.57000 136.908
54.58000 135.262
54.59000 137.028
54.60000 138.879
54.61000 142.229
54.62000 146.128
54.63000 149.725
54.64000 150.449
54.65000 150.458
54.66000 149.768
54.67000 144.975
54.68000 139.514
54.69000 135.144
54.70000 134.987
54.71000 135.249
54.72000 135.442
54.73000 139.470
54.74000 142.739
54.75000 145.147
54.76000 146.006
54.77000 146.835
54.78000 148.096
54.79000 149.876
54.80000 151.653
54.81000 150.615
54.82000 147.392
54.83000 144.278
54.84000 145.706
54.85000 149.527
54.86000 152.902
54.87000 148.645
54.88000 141.639
54.89000 135.191
54.90000 136.769
54.91000 139.931
54.92000 143.324
54.93000 148.042
54.94000 152.972
54.95000 156.606
54.96000 155.322
54.97000 153.561
54.98000 152.274
54.99000 153.495
55.00000 154.534
55.01000 155.031
55.02000 154.571
55.03000 154.092
55.04000 152.842
55.05000 150.680
55.06000 148.521
55.07000 148.007
55.08000 148.752
55.09000 149.499
55.10000 150.362
55.11000 151.285
55.12000 152.146
55.13000 151.972
55.14000 151.431
55.15000 150.934
55.16000 151.861
55.17000 152.992
55.18000 154.194
55.19000 155.789
55.20000 157.447
55.21000 158.757
55.22000 158.770
55.23000 158.660
55.24000 158.580
55.25000 170.120
55.26000 179.436
55.27000 182.483
55.28000 174.671
55.29000 166.666
55.30000 163.777
55.31000 166.809
55.32000 169.841
55.33000 170.524
55.34000 169.443
55.35000 168.452
55.36000 170.883
55.37000 175.054
55.38000 179.177
55.39000 182.506
55.40000 185.559
55.41000 188.357
55.42000 191.009
55.43000 193.341
55.44000 194.982
55.45000 192.810
55.46000 190.053
55.47000 188.600
55.48000 191.921
55.49000 195.681
55.50000 198.400
55.51000 203.260
55.52000 207.066
55.53000 211.211
55.54000 215.930
55.55000 220.659
55.56000 225.262
55.57000 229.722
55.58000 234.168
55.59000 240.093
55.60000 247.059
55.61000 253.978
55.62000 259.206
55.63000 263.587
55.64000 268.108
55.65000 274.783
55.66000 282.195
55.67000 288.971
55.68000 291.111
55.69000 292.061
55.70000 294.544
55.71000 305.333
55.72000 317.368
55.73000 329.158
55.74000 340.068
55.75000 350.898
55.76000 358.690
55.77000 363.546
55.78000 367.160
55.79000 368.831
55.80000 367.250
55.81000 365.618
55.82000 369.985
55.83000 381.035
55.84000 392.050
55.85000 400.526
55.86000 407.100
55.87000 413.464
55.88000 412.639
55.89000 408.278
55.90000 404.548
55.91000 410.330
55.92000 419.311
55.93000 427.503
55.94000 430.279
55.95000 431.651
55.96000 430.928
55.97000 419.066
55.98000 405.567
55.99000 394.444
56.00000 391.714
56.01000 389.719
56.02000 388.292
56.03000 387.833
56.04000 387.516
56.05000 387.115
56.06000 386.579
56.07000 386.040
56.08000 382.973
56.09000 377.143
56.10000 371.334
56.11000 356.617
56.12000 335.746
56.13000 315.406
56.14000 312.457
56.15000 317.914
56.16000 322.328
56.17000 311.485
56.18000 295.600
56.19000 281.144
56.20000 272.153
56.21000 265.273
56.22000 259.151
56.23000 256.972
56.24000 255.360
56.25000 252.217
56.26000 243.751
56.27000 234.831
56.28000 228.482
56.29000 225.582
56.30000 223.484
56.31000 221.251
56.32000 218.801
56.33000 216.347
56.34000 212.441
56.35000 206.980
56.36000 201.543
56.37000 196.412
56.38000 191.547
56.39000 186.731
56.40000 183.445
56.41000 180.885
56.42000 178.271
56.43000 174.881
56.44000 171.238
56.45000 167.932
56.46000 168.866
56.47000 170.509
56.48000 170.926
56.49000 165.070
56.50000 158.332
56.51000 152.557
56.52000 150.070
56.53000 147.856
56.54000 146.289
56.55000 149.255
56.56000 151.649
56.57000 153.554
56.58000 154.683
56.59000 155.802
56.60000 152.992
56.61000 146.055
56.62000 139.152
56.63000 138.097
56.64000 141.033
56.65000 143.920
56.66000 145.378
56.67000 146.167
56.68000 146.991
56.69000 148.284
56.70000 149.726
56.71000 151.033
56.72000 149.385
56.73000 147.375
56.74000 145.034
56.75000 141.027
56.76000 136.791
56.77000 133.826
56.78000 135.123
56.79000 136.764
56.80000 137.920
56.81000 143.952
56.82000 148.670
56.83000 147.785
56.84000 138.171
56.85000 128.454
56.86000 128.886
56.87000 139.769
56.88000 150.592
56.89000 152.041
56.90000 147.216
56.91000 142.541
56.92000 142.175
56.93000 143.786
56.94000 145.151
56.95000 143.199
56.96000 140.207
56.97000 137.504
56.98000 138.009
56.99000 139.047
57.00000 139.981
57.01000 140.404
57.02000 140.758
57.03000 140.912
57.04000 140.406
57.05000 139.849
57.06000 139.458
57.07000 136.095
57.08000 133.467
57.09000 132.920
57.10000 135.558
57.11000 138.230
57.12000 137.414
57.13000 133.078
57.14000 128.767
57.15000 129.546
57.16000 133.646
57.17000 137.523
57.18000 135.290
57.19000 130.299
57.20000 125.653
57.21000 125.498
57.22000 126.727
57.23000 127.835
57.24000 129.166
57.25000 130.375
57.26000 131.339
57.27000 131.124
57.28000 130.754
57.29000 130.626
57.30000 131.284
57.31000 132.002
57.32000 132.503
57.33000 131.512
57.34000 130.724
57.35000 129.767
57.36000 128.556
57.37000 127.342
57.38000 127.744
57.39000 129.744
57.40000 131.731
57.41000 130.221
57.42000 126.487
57.43000 122.828
57.44000 121.147
57.45000 120.344
57.46000 119.688
57.47000 120.892
57.48000 122.659
57.49000 124.249
57.50000 126.046
57.51000 127.656
57.52000 128.623
57.53000 126.538
57.54000 124.058
57.55000 122.507
57.56000 123.912
57.57000 125.536
57.58000 126.660
57.59000 130.337
57.60000 133.170
57.61000 134.636
57.62000 134.080
57.63000 133.507
57.64000 129.571
57.65000 122.375
57.66000 115.230
57.67000 117.009
57.68000 124.383
57.69000 131.485
57.70000 131.681
57.71000 128.864
57.72000 126.197
57.73000 125.369
57.74000 125.088
57.75000 124.836
57.76000 121.855
57.77000 118.776
57.78000 116.812
57.79000 120.040
57.80000 123.924
57.81000 126.458
57.82000 124.768
57.83000 122.773
57.84000 121.400
57.85000 118.117
57.86000 115.605
57.87000 114.619
57.88000 115.846
57.89000 117.091
57.90000 117.596
57.91000 117.398
57.92000 117.201
57.93000 118.445
57.94000 120.557
57.95000 122.553
57.96000 121.729
57.97000 119.695
57.98000 118.111
57.99000 121.935
58.00000 127.340
58.01000 132.175
58.02000 128.844
58.03000 124.550
58.04000 120.720
58.05000 119.016
58.06000 117.573
58.07000 117.007
58.08000 119.133
58.09000 121.448
58.10000 123.032
58.11000 123.719
58.12000 124.212
58.13000 123.415
58.14000 120.781
58.15000 118.134
58.16000 119.619
58.17000 124.955
58.18000 130.245
58.19000 128.514
58.20000 122.554
58.21000 116.842
58.22000 116.966
58.23000 119.551
58.24000 121.944
58.25000 122.093
58.26000 121.596
58.27000 121.153
58.28000 121.435
58.29000 121.801
58.30000 122.210
58.31000 122.812
58.32000 123.436
58.33000 123.864
58.34000 123.696
58.35000 123.487
58.36000 123.345
58.37000 127.740
58.38000 131.126
58.39000 132.866
58.40000 132.304
58.41000 131.725
58.42000 129.469
58.43000 125.679
58.44000 121.923
58.45000 121.400
58.46000 122.812
58.47000 124.082
58.48000 122.141
58.49000 118.871
58.50000 115.821
58.51000 115.290
58.52000 115.471
58.53000 115.632
58.54000 116.786
58.55000 117.950
58.56000 119.582
58.57000 123.273
58.58000 127.206
58.59000 130.077
58.60000 129.793
58.61000 129.301
58.62000 128.967
58.63000 123.276
58.64000 118.920
58.65000 115.946
58.66000 114.869
58.67000 113.806
58.68000 116.467
58.69000 122.464
58.70000 128.403
58.71000 125.639
58.72000 117.848
58.73000 110.483
58.74000 112.417
58.75000 118.137
58.76000 123.298
58.77000 122.251
58.78000 119.482
58.79000 117.025
58.80000 117.271
58.81000 117.916
58.82000 118.891
58.83000 121.296
58.84000 123.865
58.85000 125.632
58.86000 125.059
58.87000 124.336
58.88000 123.850
58.89000 115.059
58.90000 108.356
58.91000 107.701
58.92000 115.200
58.93000 122.742
58.94000 127.774
58.95000 130.602
58.96000 133.401
58.97000 131.265
58.98000 126.346
58.99000 121.602
59.00000 120.510
59.01000 120.880
59.02000 121.224
59.03000 121.274
59.04000 121.245
59.05000 121.219
59.06000 120.649
59.07000 120.071
59.08000 120.251
59.09000 123.649
59.10000 127.410
59.11000 129.458
59.12000 126.595
59.13000 123.427
59.14000 121.310
59.15000 121.205
59.16000 121.166
59.17000 122.063
59.18000 124.199
59.19000 126.338
59.20000 126.414
59.21000 124.712
59.22000 123.029
59.23000 122.438
59.24000 122.477
59.25000 122.342
59.26000 118.691
59.27000 113.658
59.28000 109.356
59.29000 112.775
59.30000 118.262
59.31000 123.103
59.32000 126.257
59.33000 128.720
59.34000 129.666
59.35000 124.294
59.36000 118.227
59.37000 114.505
59.38000 117.393
59.39000 120.679
59.40000 122.862
59.41000 123.132
59.42000 123.297
59.43000 121.066
59.44000 115.720
59.45000 110.369
59.46000 109.266
59.47000 111.757
59.48000 114.218
59.49000 117.196
59.50000 120.386
59.51000 123.458
59.52000 124.206
59.53000 124.056
59.54000 124.078
59.55000 125.864
59.56000 128.114
59.57000 130.094
59.58000 128.786
59.59000 127.168
59.60000 125.203
59.61000 121.814
59.62000 118.273
59.63000 117.321
59.64000 123.544
59.65000 130.186
59.66000 134.569
59.67000 122.685
59.68000 113.639
59.69000 108.955
59.70000 109.838
59.71000 110.744
59.72000 113.290
59.73000 117.198
59.74000 121.056
59.75000 119.077
59.76000 113.987
59.77000 109.251
59.78000 111.216
59.79000 115.729
59.80000 119.815
59.81000 119.615
59.82000 118.308
59.83000 117.161
59.84000 116.751
59.85000 116.507
59.86000 116.946
59.87000 120.128
59.88000 123.599
59.89000 125.980
59.90000 125.396
59.91000 124.644
59.92000 124.150
59.93000 121.199
59.94000 118.988
59.95000 117.441
59.96000 116.726
59.97000 116.019
59.98000 117.460
59.99000 120.650
60.00000 123.796
60.01000 125.235
60.02000 125.727
60.03000 126.081
60.04000 123.903
60.05000 120.779
60.06000 117.680
60.07000 114.828
60.08000 112.039
60.09000 109.599
60.10000 110.195
60.11000 111.139
60.12000 112.139
60.13000 113.357
60.14000 114.597
60.15000 116.021
60.16000 117.934
60.17000 119.874
60.18000 121.137
60.19000 121.257
60.20000 121.328
60.21000 119.314
60.22000 114.739
60.23000 110.171
60.24000 110.154
60.25000 113.774
60.26000 117.342
60.27000 120.389
60.28000 123.076
60.29000 125.426
60.30000 121.793
60.31000 115.963
60.32000 110.822
60.33000 112.273
60.34000 115.367
60.35000 118.066
60.36000 120.299
60.37000 122.144
60.38000 123.947
60.39000 125.591
60.40000 127.220
60.41000 127.795
60.42000 125.600
60.43000 123.258
60.44000 121.742
60.45000 121.409
60.46000 121.184
60.47000 120.556
60.48000 119.443
60.49000 118.328
60.50000 116.984
60.51000 115.458
60.52000 113.956
60.53000 117.281
60.54000 122.978
60.55000 128.331
60.56000 127.793
60.57000 125.126
60.58000 122.329
60.59000 118.310
60.60000 113.992
60.61000 110.235
60.62000 112.596
60.63000 115.447
60.64000 118.617
60.65000 122.999
60.66000 127.499
60.67000 129.764
60.68000 126.247
60.69000 122.435
60.70000 119.984
60.71000 120.864
60.72000 121.552
60.73000 122.608
60.74000 124.101
60.75000 125.584
60.76000 124.559
60.77000 121.602
60.78000 118.693
60.79000 118.569
60.80000 119.848
60.81000 121.148
60.82000 122.783
60.83000 124.538
60.84000 125.938
60.85000 124.110
60.86000 121.505
60.87000 119.246
60.88000 121.543
60.89000 124.109
60.90000 125.616
60.91000 123.167
60.92000 120.342
60.93000 120.056
60.94000 126.226
60.95000 132.714
60.96000 136.859
60.97000 127.363
60.98000 120.275
60.99000 118.834
61.00000 123.950
61.01000 129.037
61.02000 126.120
61.03000 117.152
61.04000 108.338
61.05000 106.903
61.06000 109.156
61.07000 111.479
61.08000 114.947
61.09000 118.813
61.10000 122.388
61.11000 123.376
61.12000 123.754
61.13000 124.081
61.14000 123.895
61.15000 123.671
61.16000 123.895
61.17000 125.768
61.18000 127.794
61.19000 129.260
61.20000 129.329
61.21000 129.331
61.22000 129.333
61.23000 128.545
61.24000 127.963
61.25000 127.627
61.26000 127.572
61.27000 127.530
61.28000 129.815
61.29000 133.826
61.30000 137.765
61.31000 136.291
61.32000 132.248
61.33000 128.328
61.34000 126.324
61.35000 124.977
61.36000 124.237
61.37000 128.763
61.38000 134.510
61.39000 139.465
61.40000 136.596
61.41000 133.166
61.42000 131.041
61.43000 133.625
61.44000 136.634
61.45000 137.900
61.46000 134.882
61.47000 131.668
61.48000 129.643
61.49000 141.716
61.50000 150.616
61.51000 160.992
61.52000 173.016
61.53000 185.028
61.54000 194.752
61.55000 202.808
61.56000 210.711
61.57000 222.554
61.58000 235.839
61.59000 248.890
61.60000 258.422
61.61000 266.768
61.62000 274.697
61.63000 279.087
61.64000 282.672
61.65000 285.753
61.66000 289.695
61.67000 293.137
61.68000 295.812
61.69000 295.771
61.70000 295.492
61.71000 295.423
61.72000 295.866
61.73000 296.331
61.74000 296.623
61.75000 276.580
61.76000 261.895
61.77000 249.083
61.78000 238.322
61.79000 227.554
61.80000 215.381
61.81000 202.205
61.82000 189.292
61.83000 178.502
61.84000 169.111
61.85000 160.140
61.86000 157.344
61.87000 156.594
61.88000 155.502
61.89000 151.569
61.90000 147.002
61.91000 143.090
61.92000 141.280
61.93000 140.009
61.94000 138.144
61.95000 134.207
61.96000 130.094
61.97000 128.204
61.98000 131.597
61.99000 135.215
62.00000 137.463
62.01000 130.873
62.02000 126.041
62.03000 126.234
62.04000 131.824
62.05000 137.370
62.06000 136.734
62.07000 131.754
62.08000 126.878
62.09000 127.032
62.10000 129.480
62.11000 131.947
62.12000 134.692
62.13000 137.528
62.14000 139.565
62.15000 135.119
62.16000 129.252
62.17000 124.241
62.18000 126.807
62.19000 129.871
62.20000 132.887
62.21000 135.746
62.22000 138.591
62.23000 139.508
62.24000 135.927
62.25000 132.161
62.26000 129.837
62.27000 131.496
62.28000 132.723
62.29000 133.423
62.30000 133.566
62.31000 133.696
62.32000 132.161
62.33000 129.477
62.34000 126.853
62.35000 130.519
62.36000 136.858
62.37000 142.659
62.38000 140.993
62.39000 136.936
62.40000 133.538
62.41000 135.359
62.42000 138.303
62.43000 140.810
62.44000 131.708
62.45000 122.709
62.46000 115.855
62.47000 116.210
62.48000 117.150
62.49000 118.986
62.50000 122.881
62.51000 126.857
62.52000 129.293
62.53000 137.405
62.54000 143.262
62.55000 145.006
62.56000 142.505
62.57000 139.998
62.58000 136.891
62.59000 133.378
62.60000 129.946
62.61000 127.744
62.62000 126.178
62.63000 124.919
62.64000 127.792
62.65000 131.964
62.66000 135.642
62.67000 135.481
62.68000 134.508
62.69000 133.684
62.70000 131.373
62.71000 129.266
62.72000 126.933
62.73000 123.853
62.74000 120.713
62.75000 119.127
62.76000 121.047
62.77000 123.100
62.78000 124.348
62.79000 130.347
62.80000 134.667
62.81000 136.046
62.82000 134.447
62.83000 132.858
62.84000 132.217
62.85000 132.208
62.86000 132.199
62.87000 133.573
62.88000 135.485
62.89000 137.363
62.90000 138.796
62.91000 140.091
62.92000 141.229
62.93000 141.165
62.94000 140.852
62.95000 140.588
62.96000 137.551
62.97000 134.703
62.98000 132.512
62.99000 132.455
63.00000 132.561
63.01000 132.376
63.02000 131.544
63.03000 130.688
63.04000 130.172
63.05000 129.817
63.06000 129.566
63.07000 130.731
63.08000 133.301
63.09000 135.854
63.10000 136.738
63.11000 136.533
63.12000 136.333
63.13000 135.352
63.14000 134.084
63.15000 133.173
63.16000 136.796
63.17000 141.796
63.18000 146.132
63.19000 145.534
63.20000 143.933
63.21000 142.583
63.22000 139.841
63.23000 137.400
63.24000 136.390
63.25000 139.941
63.26000 143.832
63.27000 145.651
63.28000 142.951
63.29000 140.094
63.30000 138.383
63.31000 138.371
63.32000 138.374
63.33000 138.038
63.34000 137.373
63.35000 136.697
63.36000 135.061
63.37000 132.807
63.38000 130.614
63.39000 129.985
63.40000 130.038
63.41000 130.325
63.42000 133.517
63.43000 137.575
63.44000 140.741
63.45000 137.423
63.46000 132.812
63.47000 128.937
63.48000 129.420
63.49000 130.282
63.50000 130.465
63.51000 128.518
63.52000 126.417
63.53000 126.880
63.54000 132.839
63.55000 138.982
63.56000 142.635
63.57000 140.184
63.58000 138.412
63.59000 134.511
63.60000 128.580
63.61000 122.753
63.62000 125.088
63.63000 132.573
63.64000 139.851
63.65000 142.558
63.66000 143.264
63.67000 143.953
63.68000 144.442
63.69000 144.872
63.70000 145.271
63.71000 145.453
63.72000 145.592
63.73000 145.709
63.74000 139.839
63.75000 134.343
63.76000 131.984
63.77000 139.288
63.78000 147.274
63.79000 152.573
63.80000 152.214
63.81000 151.673
63.82000 151.354
63.83000 143.088
63.84000 137.210
63.85000 137.321
63.86000 143.028
63.87000 148.666
63.88000 149.249
63.89000 146.699
63.90000 144.222
63.91000 144.059
63.92000 144.833
63.93000 145.612
63.94000 146.465
63.95000 147.339
63.96000 148.291
63.97000 149.781
63.98000 151.375
63.99000 152.705
64.00000 151.659
64.01000 150.553
64.02000 148.974
64.03000 145.961
64.04000 142.850
64.05000 141.891
64.06000 145.388
64.07000 149.021
64.08000 151.148
64.09000 148.606
64.10000 146.794
64.11000 145.380
64.12000 144.330
64.13000 143.263
64.14000 140.960
64.15000 137.905
64.16000 134.942
64.17000 139.442
64.18000 146.644
64.19000 153.033
64.20000 150.122
64.21000 144.578
64.22000 140.427
64.23000 145.768
64.24000 152.896
64.25000 158.823
64.26000 157.993
64.27000 156.645
64.28000 155.922
64.29000 157.059
64.30000 158.319
64.31000 157.284
64.32000 151.575
64.33000 145.730
64.34000 142.335
64.35000 147.360
64.36000 150.925
64.37000 154.827
64.38000 159.032
64.39000 163.171
64.40000 163.077
64.41000 160.452
64.42000 157.909
64.43000 157.075
64.44000 156.947
64.45000 156.987
64.46000 158.898
64.47000 161.329
64.48000 163.454
64.49000 163.535
64.50000 163.239
64.51000 162.993
64.52000 164.461
64.53000 165.837
64.54000 166.388
64.55000 164.524
64.56000 162.504
64.57000 162.301
64.58000 165.731
64.59000 169.263
64.60000 171.298
64.61000 165.514
64.62000 161.437
64.63000 159.900
64.64000 160.600
64.65000 161.306
64.66000 162.369
64.67000 163.642
64.68000 164.874
64.69000 166.689
64.70000 168.625
64.71000 170.215
64.72000 168.055
64.73000 164.869
64.74000 162.445
64.75000 164.994
64.76000 168.443
64.77000 171.291
64.78000 165.294
64.79000 159.530
64.80000 155.147
64.81000 154.735
64.82000 154.571
64.83000 156.583
64.84000 162.875
64.85000 169.280
64.86000 172.941
64.87000 173.614
64.88000 174.076
64.89000 176.512
64.90000 180.654
64.91000 184.748
64.92000 186.083
64.93000 185.824
64.94000 185.573
64.95000 186.361
64.96000 187.489
64.97000 188.376
64.98000 186.707
64.99000 184.351
65.00000 182.692
65.01000 185.494
65.02000 189.087
65.03000 192.043
65.04000 193.570
65.05000 194.695
65.06000 193.843
65.07000 187.404
65.08000 180.626
65.09000 179.807
65.10000 190.503
65.11000 201.489
65.12000 207.718
65.13000 199.942
65.14000 194.498
65.15000 195.101
65.16000 200.832
65.17000 206.530
65.18000 210.479
65.19000 213.435
65.20000 216.287
65.21000 220.934
65.22000 225.962
65.23000 230.413
65.24000 228.901
65.25000 225.816
65.26000 222.858
65.27000 220.695
65.28000 218.670
65.29000 217.010
65.30000 220.201
65.31000 223.245
65.32000 228.734
65.33000 241.009
65.34000 253.682
65.35000 260.021
65.36000 254.327
65.37000 248.344
65.38000 244.980
65.39000 252.065
65.40000 257.004
65.41000 260.259
65.42000 262.114
65.43000 264.020
65.44000 268.532
65.45000 274.497
65.46000 280.243
65.47000 280.765
65.48000 279.386
65.49000 278.233
65.50000 279.364
65.51000 281.086
65.52000 283.521
65.53000 290.327
65.54000 297.879
65.55000 304.046
65.56000 316.286
65.57000 326.825
65.58000 338.085
65.59000 351.318
65.60000 364.662
65.61000 378.745
65.62000 394.209
65.63000 409.704
65.64000 418.342
65.65000 474.073
65.66000 512.753
65.67000 558.633
65.68000 610.391
65.69000 662.891
65.70000 750.473
65.71000 857.289
65.72000 960.042
65.73000 1090.002
65.74000 1221.414
65.75000 1348.871
65.76000 1437.479
65.77000 1516.205
65.78000 1594.531
65.79000 1670.457
65.80000 1745.982
65.81000 1807.417
65.82000 1866.537
65.83000 1914.611
65.84000 1946.879
65.85000 1936.727
65.86000 1924.243
65.87000 1917.394
65.88000 1920.885
65.89000 1924.598
65.90000 1926.650
65.91000 1835.735
65.92000 1772.798
65.93000 1692.375
65.94000 1597.937
65.95000 1503.094
65.96000 1390.106
65.97000 1267.342
65.98000 1149.419
65.99000 1036.604
66.00000 932.781
66.01000 830.315
66.02000 740.852
66.03000 654.639
66.04000 575.248
66.05000 536.114
66.06000 503.578
66.07000 477.212
66.08000 451.828
66.09000 431.231
66.10000 413.030
66.11000 401.152
66.12000 389.610
66.13000 381.682
66.14000 380.269
66.15000 378.989
66.16000 378.288
66.17000 369.082
66.18000 362.765
66.19000 363.939
66.20000 371.004
66.21000 378.024
66.22000 383.156
66.23000 387.289
66.24000 391.252
66.25000 408.375
66.26000 428.822
66.27000 449.020
66.28000 466.886
66.29000 484.179
66.30000 502.050
66.31000 523.266
66.32000 545.020
66.33000 562.581
66.34000 584.598
66.35000 602.847
66.36000 618.856
66.37000 629.058
66.38000 638.962
66.39000 644.788
66.40000 643.388
66.41000 641.849
66.42000 641.013
66.43000 623.080
66.44000 610.766
66.45000 599.113
66.46000 587.970
66.47000 577.004
66.48000 573.169
66.49000 573.045
66.50000 572.926
66.51000 550.007
66.52000 521.070
66.53000 492.272
66.54000 464.750
66.55000 437.537
66.56000 412.620
66.57000 400.721
66.58000 390.870
66.59000 382.950
66.60000 373.877
66.61000 366.432
66.62000 360.147
66.63000 356.821
66.64000 353.642
66.65000 348.346
66.66000 339.365
66.67000 330.317
66.68000 325.446
66.69000 343.644
66.70000 356.057
66.71000 358.152
66.72000 352.427
66.73000 346.762
66.74000 343.406
66.75000 341.231
66.76000 339.152
66.77000 344.208
66.78000 351.237
66.79000 357.169
66.80000 353.309
66.81000 347.132
66.82000 342.509
66.83000 346.523
66.84000 351.868
66.85000 356.148
66.86000 354.544
66.87000 352.803
66.88000 353.057
66.89000 358.310
66.90000 363.802
66.91000 366.248
66.92000 363.482
66.93000 360.628
66.94000 359.105
66.95000 367.899
66.96000 373.875
66.97000 375.420
66.98000 373.667
66.99000 372.007
67.00000 373.707
67.01000 377.098
67.02000 380.335
67.03000 383.090
67.04000 385.494
67.05000 387.215
67.06000 382.973
67.07000 377.347
67.08000 372.646
67.09000 372.986
67.10000 374.086
67.11000 374.965
67.12000 385.322
67.13000 394.375
67.14000 399.387
67.15000 394.442
67.16000 389.038
67.17000 387.361
67.18000 391.952
67.19000 396.643
67.20000 399.122
67.21000 389.459
67.22000 382.936
67.23000 384.433
67.24000 391.788
67.25000 398.942
67.26000 399.104
67.27000 395.810
67.28000 392.671
67.29000 392.091
67.30000 392.356
67.31000 392.554
67.32000 392.176
67.33000 391.668
67.34000 391.944
67.35000 396.413
67.36000 401.502
67.37000 405.546
67.38000 405.552
67.39000 405.271
67.40000 404.378
67.41000 402.006
67.42000 399.567
67.43000 400.078
67.44000 405.459
67.45000 410.914
67.46000 413.769
67.47000 413.193
67.48000 412.816
67.49000 414.717
67.50000 418.251
67.51000 421.715
67.52000 422.879
67.53000 422.924
67.54000 422.967
67.55000 426.060
67.56000 429.860
67.57000 433.629
67.58000 437.137
67.59000 440.586
67.60000 443.601
67.61000 444.338
67.62000 444.746
67.63000 445.069
67.64000 440.375
67.65000 436.257
67.66000 433.667
67.67000 434.715
67.68000 435.920
67.69000 439.490
67.70000 446.898
67.71000 454.359
67.72000 458.230
67.73000 466.281
67.74000 471.642
67.75000 467.061
67.76000 455.478
67.77000 444.279
67.78000 445.293
67.79000 452.138
67.80000 458.642
67.81000 461.438
67.82000 462.903
67.83000 464.703
67.84000 469.219
67.85000 474.333
67.86000 479.818
67.87000 487.210
67.88000 494.871
67.89000 500.908
67.90000 496.896
67.91000 493.007
67.92000 488.312
67.93000 481.731
67.94000 475.074
67.95000 473.890
67.96000 481.434
67.97000 489.092
67.98000 493.025
67.99000 499.890
68.00000 504.479
68.01000 505.387
68.02000 503.749
68.03000 502.066
68.04000 499.021
68.05000 495.338
68.06000 491.844
68.07000 508.373
68.08000 529.533
68.09000 547.470
68.10000 539.752
68.11000 526.500
68.12000 515.372
68.13000 514.953
68.14000 516.021
68.15000 516.858
68.16000 530.664
68.17000 542.551
68.18000 550.894
68.19000 551.085
68.20000 550.952
68.21000 551.027
68.22000 551.428
68.23000 551.833
68.24000 552.038
68.25000 566.655
68.26000 576.393
68.27000 578.958
68.28000 576.649
68.29000 574.358
68.30000 572.565
68.31000 571.001
68.32000 569.520
68.33000 577.243
68.34000 587.021
68.35000 596.825
68.36000 606.840
68.37000 616.900
68.38000 625.672
68.39000 628.075
68.40000 629.612
68.41000 630.814
68.42000 638.894
68.43000 645.777
68.44000 654.116
68.45000 665.748
68.46000 677.506
68.47000 683.559
68.48000 680.833
68.49000 678.010
68.50000 676.588
68.51000 703.065
68.52000 720.705
68.53000 732.629
68.54000 740.740
68.55000 748.867
68.56000 757.467
68.57000 766.280
68.58000 774.610
68.59000 809.719
68.60000 849.582
68.61000 888.661
68.62000 921.763
68.63000 953.624
68.64000 986.289
68.65000 1022.861
68.66000 1059.951
68.67000 1088.808
68.68000 1145.704
68.69000 1192.718
68.70000 1241.323
68.71000 1293.466
68.72000 1345.740
68.73000 1393.628
68.74000 1434.889
68.75000 1476.082
68.76000 1513.791
68.77000 1548.032
68.78000 1582.443
68.79000 1632.777
68.80000 1693.548
68.81000 1754.214
68.82000 1812.094
68.83000 1868.732
68.84000 1922.167
68.85000 2035.352
68.86000 2155.774
68.87000 2286.455
68.88000 2493.538
68.89000 2716.199
68.90000 3007.036
68.91000 3622.821
68.92000 4280.810
68.93000 4790.525
68.94000 6850.577
68.95000 8578.962
68.96000 10717.531
68.97000 13752.492
68.98000 16818.957
68.99000 20076.721
69.00000 23618.518
69.01000 27162.895
69.02000 30289.127
69.03000 33007.484
69.04000 35716.801
69.05000 37641.910
69.06000 39062.105
69.07000 40459.879
69.08000 41282.371
69.09000 41852.723
69.10000 42389.848
69.11000 43054.305
69.12000 43697.012
69.13000 44353.727
69.14000 45112.504
69.15000 45891.703
69.16000 46552.977
69.17000 46662.664
69.18000 46702.277
69.19000 46732.832
69.20000 44466.926
69.21000 42538.984
69.22000 40269.332
69.23000 37265.617
69.24000 34237.180
69.25000 31568.582
69.26000 29424.721
69.27000 27285.469
69.28000 25565.617
69.29000 24246.893
69.30000 22934.979
69.31000 22169.703
69.32000 21750.182
69.33000 21334.830
69.34000 21022.346
69.35000 20754.182
69.36000 20502.105
69.37000 19689.525
69.38000 18797.160
69.39000 17818.451
69.40000 16223.958
69.41000 14508.617
69.42000 12772.314
69.43000 10939.772
69.44000 9095.276
69.45000 7679.006
69.46000 6179.326
69.47000 4989.165
69.48000 3969.423
69.49000 3309.549
69.50000 2661.274
69.51000 2176.861
69.52000 1927.123
69.53000 1679.234
69.54000 1507.303
69.55000 1406.594
69.56000 1306.158
69.57000 1226.180
69.58000 1158.913
69.59000 1092.497
69.60000 1046.271
69.61000 1008.596
69.62000 973.248
69.63000 936.511
69.64000 902.672
69.65000 870.312
69.66000 848.282
69.67000 828.240
69.68000 807.377
69.69000 782.812
69.70000 757.797
69.71000 738.676
69.72000 719.466
69.73000 704.312
69.74000 690.426
69.75000 679.171
69.76000 667.998
69.77000 658.216
69.78000 650.389
69.79000 642.578
69.80000 629.476
69.81000 611.522
69.82000 593.671
69.83000 582.885
69.84000 576.413
69.85000 570.294
69.86000 572.249
69.87000 577.566
69.88000 582.544
69.89000 571.731
69.90000 557.820
69.91000 544.196
69.92000 532.536
69.93000 521.246
69.94000 512.196
69.95000 513.055
69.96000 515.089
69.97000 516.638
69.98000 512.562
69.99000 509.059
70.00000 504.223
