20.00000 472.277
20.01000 474.618
20.02000 477.293
20.03000 479.057
20.04000 477.230
20.05000 475.035
20.06000 473.415
20.07000 476.625
20.08000 479.317
20.09000 479.154
20.10000 473.769
20.11000 468.272
20.12000 465.428
20.13000 465.843
20.14000 466.266
20.15000 468.368
20.16000 471.796
20.17000 475.185
20.18000 476.827
20.19000 477.530
20.20000 478.169
20.21000 477.671
20.22000 476.756
20.23000 475.911
20.24000 471.144
20.25000 465.996
20.26000 461.648
20.27000 462.003
20.28000 463.127
20.29000 464.787
20.30000 468.525
20.31000 472.470
20.32000 475.368
20.33000 470.374
20.34000 466.189
20.35000 466.089
20.36000 473.329
20.37000 480.717
20.38000 482.815
20.39000 478.536
20.40000 474.252
20.41000 470.299
20.42000 466.623
20.43000 463.056
20.44000 464.040
20.45000 467.428
20.46000 470.616
20.47000 470.388
20.48000 468.926
20.49000 467.580
20.50000 470.487
20.51000 474.018
20.52000 477.486
20.53000 480.602
20.54000 483.661
20.55000 484.636
20.56000 477.688
20.57000 469.969
20.58000 464.325
20.59000 465.324
20.60000 466.356
20.61000 467.975
20.62000 470.630
20.63000 473.305
20.64000 475.619
20.65000 477.507
20.66000 479.389
20.67000 477.742
20.68000 473.403
20.69000 468.991
20.70000 461.645
20.71000 452.777
20.72000 444.507
20.73000 446.166
20.74000 451.348
20.75000 456.108
20.76000 459.382
20.77000 461.985
20.78000 464.140
20.79000 463.767
20.80000 462.997
20.81000 462.422
20.82000 462.571
20.83000 462.789
20.84000 462.948
20.85000 467.588
20.86000 471.328
20.87000 474.226
20.88000 475.664
20.89000 477.074
20.90000 474.650
20.91000 467.774
20.92000 460.911
20.93000 461.840
20.94000 468.611
20.95000 475.332
20.96000 480.162
20.97000 484.028
20.98000 487.576
20.99000 486.006
21.00000 482.652
21.01000 479.578
21.02000 475.921
21.03000 472.541
21.04000 468.841
21.05000 463.363
21.06000 457.613
21.07000 454.616
21.08000 461.721
21.09000 469.761
21.10000 475.578
21.11000 469.421
21.12000 464.258
21.13000 458.893
21.14000 453.185
21.15000 447.471
21.16000 446.450
21.17000 450.769
21.18000 455.081
21.19000 463.569
21.20000 475.067
21.21000 486.192
21.22000 483.801
21.23000 474.635
21.24000 465.533
21.25000 457.434
21.26000 449.680
21.27000 442.588
21.28000 459.598
21.29000 479.676
21.30000 495.063
21.31000 484.960
21.32000 471.023
21.33000 459.984
21.34000 459.392
21.35000 459.743
21.36000 459.995
21.37000 466.472
21.38000 471.652
21.39000 474.159
21.40000 472.188
21.41000 470.146
21.42000 468.918
21.43000 468.599
21.44000 468.281
21.45000 468.807
21.46000 469.938
21.47000 470.998
21.48000 469.582
21.49000 466.947
21.50000 464.704
21.51000 468.394
21.52000 474.084
21.53000 479.276
21.54000 478.099
21.55000 475.771
21.56000 474.095
21.57000 475.892
21.58000 478.201
21.59000 478.565
21.60000 472.041
21.61000 464.912
21.62000 459.807
21.63000 457.009
21.64000 454.950
21.65000 459.254
21.66000 474.039
21.67000 488.978
21.68000 492.330
21.69000 482.996
21.70000 473.691
21.71000 468.695
21.72000 466.799
21.73000 465.024
21.74000 467.239
21.75000 471.386
21.76000 475.823
21.77000 484.515
21.78000 494.616
21.79000 503.811
21.80000 502.803
21.81000 499.895
21.82000 497.529
21.83000 497.992
21.84000 498.864
21.85000 499.567
21.86000 499.685
21.87000 499.753
21.88000 499.801
21.89000 515.117
21.90000 527.285
21.91000 533.561
21.92000 530.307
21.93000 526.921
21.94000 529.129
21.95000 537.343
21.96000 545.522
21.97000 545.755
21.98000 540.463
21.99000 535.353
22.00000 535.976
22.01000 539.329
22.02000 542.450
22.03000 542.263
22.04000 541.000
22.05000 539.852
22.06000 535.047
22.07000 530.095
22.08000 524.474
22.09000 515.424
22.10000 505.891
22.11000 499.396
22.12000 503.297
22.13000 508.062
22.14000 511.439
22.15000 517.562
22.16000 522.302
22.17000 526.310
22.18000 529.154
22.19000 531.982
22.20000 530.273
22.21000 523.786
22.22000 517.329
22.23000 511.031
22.24000 504.913
22.25000 499.025
22.26000 500.029
22.27000 504.258
22.28000 508.115
22.29000 506.809
22.30000 503.850
22.31000 501.170
22.32000 489.982
22.33000 478.508
22.34000 468.761
22.35000 467.705
22.36000 467.850
22.37000 468.216
22.38000 469.324
22.39000 470.492
22.40000 471.315
22.41000 477.238
22.42000 481.881
22.43000 481.151
22.44000 472.029
22.45000 462.808
22.46000 459.504
22.47000 462.307
22.48000 465.096
22.49000 465.730
22.50000 464.916
22.51000 464.083
22.52000 462.706
22.53000 461.079
22.54000 459.728
22.55000 462.104
22.56000 465.652
22.57000 468.858
22.58000 461.964
22.59000 454.026
22.60000 448.232
22.61000 453.021
22.62000 459.240
22.63000 463.389
22.64000 460.702
22.65000 457.475
22.66000 455.215
22.67000 453.498
22.68000 452.215
22.69000 448.056
22.70000 439.487
22.71000 430.869
22.72000 430.309
22.73000 437.901
22.74000 445.448
22.75000 447.803
22.76000 446.720
22.77000 445.481
22.78000 439.967
22.79000 432.518
22.80000 425.884
22.81000 429.901
22.82000 437.209
22.83000 443.798
22.84000 440.540
22.85000 435.890
22.86000 432.087
22.87000 432.385
22.88000 433.226
22.89000 433.569
22.90000 432.297
22.91000 430.900
22.92000 429.928
22.93000 447.746
22.94000 461.707
22.95000 463.912
22.96000 448.401
22.97000 432.712
22.98000 428.000
22.99000 434.170
23.00000 440.301
23.01000 443.672
23.02000 445.216
23.03000 446.688
23.04000 446.223
23.05000 444.897
23.06000 443.746
23.07000 444.827
23.08000 446.586
23.09000 448.168
23.10000 455.693
23.11000 463.344
23.12000 468.919
23.13000 464.638
23.14000 459.082
23.15000 453.561
23.16000 448.148
23.17000 442.744
23.18000 438.999
23.19000 442.455
23.20000 445.246
23.21000 447.751
23.22000 449.834
23.23000 451.914
23.24000 452.792
23.25000 452.502
23.26000 452.215
23.27000 448.194
23.28000 441.879
23.29000 435.870
23.30000 437.689
23.31000 442.929
23.32000 447.527
23.33000 444.192
23.34000 438.490
23.35000 433.375
23.36000 441.387
23.37000 450.677
23.38000 456.759
23.39000 447.874
23.40000 437.096
23.41000 428.409
23.42000 426.278
23.43000 424.621
23.44000 423.480
23.45000 435.086
23.46000 444.119
23.47000 447.393
23.48000 442.293
23.49000 437.123
23.50000 435.558
23.51000 437.426
23.52000 439.279
23.53000 440.872
23.54000 442.275
23.55000 443.579
23.56000 442.428
23.57000 440.223
23.58000 438.221
23.59000 438.656
23.60000 439.806
23.61000 440.835
23.62000 449.087
23.63000 457.517
23.64000 463.507
23.65000 458.322
23.66000 451.755
23.67000 447.380
23.68000 449.753
23.69000 452.602
23.70000 454.553
23.71000 460.918
23.72000 465.792
23.73000 467.513
23.74000 464.736
23.75000 461.926
23.76000 465.705
23.77000 475.640
23.78000 485.492
23.79000 488.632
23.80000 487.631
23.81000 486.821
23.82000 490.498
23.83000 496.071
23.84000 501.398
23.85000 503.853
23.86000 505.480
23.87000 506.932
23.88000 510.369
23.89000 513.692
23.90000 516.574
23.91000 517.468
23.92000 518.123
23.93000 518.525
23.94000 518.161
23.95000 517.745
23.96000 517.462
23.97000 506.165
23.98000 497.475
23.99000 496.121
24.00000 505.052
24.01000 514.050
24.02000 514.650
24.03000 507.558
24.04000 500.530
24.05000 496.761
24.06000 495.011
24.07000 493.468
24.08000 496.622
24.09000 501.727
24.10000 506.308
24.11000 504.899
24.12000 501.794
24.13000 499.031
24.14000 494.501
24.15000 490.277
24.16000 485.519
24.17000 478.404
24.18000 471.012
24.19000 463.083
24.20000 453.559
24.21000 443.929
24.22000 437.412
24.23000 438.600
24.24000 439.654
24.25000 440.218
24.26000 440.109
24.27000 439.999
24.28000 443.908
24.29000 451.426
24.30000 458.871
24.31000 460.008
24.32000 457.428
24.33000 454.934
24.34000 454.338
24.35000 454.517
24.36000 454.489
24.37000 452.159
24.38000 449.189
24.39000 446.552
24.40000 439.417
24.41000 432.514
24.42000 426.887
24.43000 426.790
24.44000 427.332
24.45000 427.300
24.46000 425.594
24.47000 423.779
24.48000 422.558
24.49000 426.882
24.50000 430.211
24.51000 430.764
24.52000 427.567
24.53000 424.353
24.54000 425.328
24.55000 429.992
24.56000 434.608
24.57000 435.517
24.58000 434.276
24.59000 433.017
24.60000 431.397
24.61000 429.632
24.62000 427.887
24.63000 426.357
24.64000 424.885
24.65000 423.583
24.66000 418.776
24.67000 414.071
24.68000 411.562
24.69000 418.393
24.70000 426.279
24.71000 429.976
24.72000 421.636
24.73000 412.546
24.74000 406.467
24.75000 403.149
24.76000 400.743
24.77000 399.047
24.78000 398.292
24.79000 397.546
24.80000 399.957
24.81000 405.096
24.82000 410.178
24.83000 408.567
24.84000 403.219
24.85000 398.070
24.86000 396.965
24.87000 397.455
24.88000 398.226
24.89000 401.979
24.90000 406.531
24.91000 410.550
24.92000 407.462
24.93000 403.708
24.94000 402.043
24.95000 409.092
24.96000 417.102
24.97000 422.084
24.98000 418.514
24.99000 414.426
25.00000 411.710
25.01000 410.155
25.02000 409.028
25.03000 407.400
25.04000 405.122
25.05000 402.840
25.06000 399.817
25.07000 396.167
25.08000 392.560
25.09000 393.188
25.10000 396.144
25.11000 399.020
25.12000 400.322
25.13000 401.013
25.14000 401.716
25.15000 402.528
25.16000 403.370
25.17000 404.111
25.18000 411.388
25.19000 418.634
25.20000 422.717
25.21000 413.833
25.22000 403.552
25.23000 396.291
25.24000 397.413
25.25000 399.027
25.26000 400.093
25.27000 396.822
25.28000 394.333
25.29000 393.828
25.30000 395.861
25.31000 397.907
25.32000 401.497
25.33000 406.371
25.34000 411.183
25.35000 408.397
25.36000 401.558
25.37000 395.072
25.38000 395.328
25.39000 398.153
25.40000 400.471
25.41000 397.695
25.42000 393.598
25.43000 390.003
25.44000 389.785
25.45000 390.094
25.46000 390.066
25.47000 388.685
25.48000 387.161
25.49000 386.845
25.50000 389.828
25.51000 392.998
25.52000 395.078
25.53000 396.200
25.54000 397.010
25.55000 398.138
25.56000 399.664
25.57000 401.197
25.58000 405.128
25.59000 411.017
25.60000 416.827
25.61000 417.867
25.62000 416.337
25.63000 414.596
25.64000 408.969
25.65000 401.887
25.66000 395.283
25.67000 393.371
25.68000 392.653
25.69000 392.023
25.70000 391.769
25.71000 391.604
25.72000 389.732
25.73000 381.106
25.74000 371.788
25.75000 368.586
25.76000 381.793
25.77000 395.902
25.78000 405.100
25.79000 394.440
25.80000 386.305
25.81000 382.080
25.82000 382.671
25.83000 383.292
25.84000 389.425
25.85000 399.974
25.86000 410.371
25.87000 409.751
25.88000 403.385
25.89000 397.514
25.90000 400.424
25.91000 406.568
25.92000 412.084
25.93000 411.589
25.94000 409.591
25.95000 407.848
25.96000 400.651
25.97000 393.730
25.98000 389.636
25.99000 396.523
26.00000 404.510
26.01000 408.957
26.02000 404.073
26.03000 398.693
26.04000 395.208
26.05000 384.087
26.06000 375.836
26.07000 375.819
26.08000 385.753
26.09000 395.689
26.10000 399.691
26.11000 399.029
26.12000 398.377
26.13000 397.163
26.14000 395.697
26.15000 394.108
26.16000 390.398
26.17000 385.919
26.18000 382.745
26.19000 391.768
26.20000 403.783
26.21000 414.239
26.22000 403.351
26.23000 391.131
26.24000 382.087
26.25000 385.152
26.26000 389.400
26.27000 392.762
26.28000 393.829
26.29000 394.778
26.30000 395.389
26.31000 389.095
26.32000 384.405
26.33000 382.097
26.34000 382.615
26.35000 383.159
26.36000 389.106
26.37000 399.222
26.38000 409.176
26.39000 408.155
26.40000 401.638
26.41000 395.260
26.42000 391.198
26.43000 387.960
26.44000 385.045
26.45000 385.088
26.46000 385.843
26.47000 386.499
26.48000 387.478
26.49000 388.355
26.50000 389.812
26.51000 393.437
26.52000 397.268
26.53000 399.340
26.54000 396.931
26.55000 394.298
26.56000 392.616
26.57000 384.790
26.58000 379.012
26.59000 375.873
26.60000 375.806
26.61000 375.761
26.62000 379.483
26.63000 386.059
26.64000 392.523
26.65000 388.089
26.66000 378.414
26.67000 369.663
26.68000 375.835
26.69000 387.227
26.70000 397.282
26.71000 395.422
26.72000 390.744
26.73000 386.697
26.74000 379.745
26.75000 373.455
26.76000 369.050
26.77000 371.577
26.78000 374.748
26.79000 375.642
26.80000 370.831
26.81000 365.747
26.82000 362.519
26.83000 369.726
26.84000 375.087
26.85000 376.215
26.86000 372.512
26.87000 368.820
26.88000 368.230
26.89000 369.947
26.90000 371.633
26.91000 369.683
26.92000 366.037
26.93000 362.519
26.94000 361.010
26.95000 360.192
26.96000 359.769
26.97000 362.792
26.98000 366.615
26.99000 369.912
27.00000 378.958
27.01000 387.367
27.02000 392.662
27.03000 386.702
27.04000 379.724
27.05000 376.777
27.06000 383.754
27.07000 391.189
27.08000 395.878
27.09000 391.401
27.10000 388.055
27.11000 388.520
27.12000 393.254
27.13000 397.945
27.14000 394.844
27.15000 386.054
27.16000 377.429
27.17000 376.361
27.18000 378.930
27.19000 381.232
27.20000 379.479
27.21000 376.357
27.22000 373.622
27.23000 374.189
27.24000 375.508
27.25000 376.642
27.26000 375.552
27.27000 374.351
27.28000 374.044
27.29000 376.910
27.30000 380.056
27.31000 381.417
27.32000 378.456
27.33000 375.302
27.34000 373.327
27.35000 372.889
27.36000 372.590
27.37000 371.958
27.38000 370.962
27.39000 369.983
27.40000 371.536
27.41000 374.903
27.42000 378.204
27.43000 380.757
27.44000 382.863
27.45000 384.739
27.46000 383.206
27.47000 380.542
27.48000 378.192
27.49000 378.461
27.50000 379.317
27.51000 380.051
27.52000 379.230
27.53000 378.347
27.54000 376.839
27.55000 373.148
27.56000 369.270
27.57000 366.409
27.58000 365.968
27.59000 365.631
27.60000 365.422
27.61000 357.562
27.62000 351.826
27.63000 351.678
27.64000 357.549
27.65000 363.430
27.66000 370.405
27.67000 378.151
27.68000 385.735
27.69000 381.747
27.70000 372.611
27.71000 364.039
27.72000 363.564
27.73000 365.732
27.74000 367.896
27.75000 370.038
27.76000 372.176
27.77000 374.002
27.78000 369.014
27.79000 363.998
27.80000 362.540
27.81000 373.278
27.82000 385.037
27.83000 390.015
27.84000 379.131
27.85000 367.592
27.86000 360.467
27.87000 364.752
27.88000 367.935
27.89000 370.599
27.90000 372.715
27.91000 374.824
27.92000 376.112
27.93000 376.834
27.94000 377.540
27.95000 374.353
27.96000 369.545
27.97000 364.814
27.98000 361.155
27.99000 357.840
28.00000 355.936
28.01000 365.253
28.02000 376.991
28.03000 386.987
28.04000 379.768
28.05000 371.693
28.06000 364.864
28.07000 362.232
28.08000 359.941
28.09000 359.645
28.10000 363.936
28.11000 368.409
28.12000 371.151
28.13000 365.822
28.14000 361.935
28.15000 359.419
28.16000 358.321
28.17000 357.266
28.18000 361.064
28.19000 368.158
28.20000 375.089
28.21000 368.191
28.22000 355.477
28.23000 344.060
28.24000 350.172
28.25000 361.809
28.26000 372.450
28.27000 375.337
28.28000 376.583
28.29000 377.641
28.30000 382.442
28.31000 386.896
28.32000 387.516
28.33000 375.443
28.34000 362.365
28.35000 355.387
28.36000 362.198
28.37000 369.535
28.38000 374.001
28.39000 369.756
28.40000 366.656
28.41000 363.442
28.42000 360.113
28.43000 356.831
28.44000 358.351
28.45000 363.075
28.46000 367.684
28.47000 370.262
28.48000 371.845
28.49000 373.430
28.50000 375.048
28.51000 376.677
28.52000 377.286
28.53000 370.136
28.54000 361.374
28.55000 353.961
28.56000 358.408
28.57000 363.447
28.58000 366.887
28.59000 365.126
28.60000 362.964
28.61000 363.036
28.62000 368.070
28.63000 373.287
28.64000 376.439
28.65000 371.427
28.66000 367.798
28.67000 368.017
28.68000 372.061
28.69000 376.007
28.70000 370.769
28.71000 359.512
28.72000 348.540
28.73000 347.299
28.74000 350.253
28.75000 352.719
28.76000 348.938
28.77000 343.255
28.78000 338.737
28.79000 342.891
28.80000 348.812
28.81000 353.806
28.82000 350.321
28.83000 346.492
28.84000 344.880
28.85000 350.359
28.86000 356.370
28.87000 359.358
28.88000 355.746
28.89000 351.902
28.90000 349.597
28.91000 358.879
28.92000 365.549
28.93000 364.412
28.94000 355.667
28.95000 347.033
28.96000 348.107
28.97000 355.428
28.98000 362.556
28.99000 365.955
29.00000 367.639
29.01000 368.982
29.02000 366.097
29.03000 361.948
29.04000 358.084
29.05000 356.290
29.06000 354.910
29.07000 353.750
29.08000 348.056
29.09000 342.831
29.10000 339.343
29.11000 341.310
29.12000 343.675
29.13000 347.110
29.14000 352.842
29.15000 358.652
29.16000 362.110
29.17000 347.356
29.18000 336.796
29.19000 334.654
29.20000 340.555
29.21000 346.387
29.22000 346.742
29.23000 343.632
29.24000 340.609
29.25000 343.838
29.26000 349.471
29.27000 354.492
29.28000 352.107
29.29000 347.545
29.30000 343.685
29.31000 344.826
29.32000 346.949
29.33000 348.727
29.34000 342.433
29.35000 336.367
29.36000 334.088
29.37000 343.503
29.38000 353.745
29.39000 360.465
29.40000 359.751
29.41000 358.798
29.42000 358.235
29.43000 354.222
29.44000 351.369
29.45000 349.972
29.46000 349.939
29.47000 349.969
29.48000 354.683
29.49000 362.306
29.50000 369.710
29.51000 361.140
29.52000 346.580
29.53000 333.508
29.54000 337.950
29.55000 347.451
29.56000 355.937
29.57000 357.341
29.58000 357.382
29.59000 357.417
29.60000 352.629
29.61000 348.171
29.62000 346.309
29.63000 352.322
29.64000 358.876
29.65000 364.048
29.66000 366.352
29.67000 368.567
29.68000 369.865
29.69000 364.649
29.70000 360.944
29.71000 358.425
29.72000 356.997
29.73000 355.588
29.74000 355.537
29.75000 356.315
29.76000 357.070
29.77000 359.979
29.78000 363.587
29.79000 367.292
29.80000 372.113
29.81000 377.251
29.82000 381.361
29.83000 378.457
29.84000 374.229
29.85000 370.711
29.86000 372.880
29.87000 375.233
29.88000 377.357
29.89000 378.797
29.90000 380.191
29.91000 383.109
29.92000 389.134
29.93000 395.250
29.94000 398.806
29.95000 387.828
29.96000 380.056
29.97000 375.813
29.98000 374.749
29.99000 373.670
30.00000 371.638
30.01000 369.034
30.02000 366.512
30.03000 365.558
30.04000 365.263
30.05000 365.471
30.06000 371.311
30.07000 378.721
30.08000 384.634
30.09000 380.526
30.10000 374.563
30.11000 369.621
30.12000 371.961
30.13000 374.590
30.14000 375.459
30.15000 371.166
30.16000 366.538
30.17000 365.886
30.18000 373.201
30.19000 380.740
30.20000 385.089
30.21000 379.186
30.22000 375.009
30.23000 368.519
30.24000 359.984
30.25000 351.538
30.26000 348.425
30.27000 348.456
30.28000 348.486
30.29000 353.993
30.30000 361.275
30.31000 367.620
30.32000 363.763
30.33000 357.111
30.34000 351.637
30.35000 353.875
30.36000 357.513
30.37000 360.518
30.38000 358.792
30.39000 356.929
30.40000 356.053
30.41000 358.023
30.42000 360.171
30.43000 362.027
30.44000 363.310
30.45000 364.578
30.46000 365.303
30.47000 364.243
30.48000 363.498
30.49000 363.254
30.50000 363.444
30.51000 363.560
30.52000 359.440
30.53000 352.868
30.54000 346.519
30.55000 347.569
30.56000 351.318
30.57000 355.411
30.58000 363.162
30.59000 371.897
30.60000 378.962
30.61000 375.310
30.62000 369.751
30.63000 365.176
30.64000 371.465
30.65000 377.625
30.66000 380.246
30.67000 372.846
30.68000 364.837
30.69000 361.477
30.70000 367.122
30.71000 372.995
30.72000 376.328
30.73000 369.650
30.74000 364.980
30.75000 367.114
30.76000 375.031
30.77000 382.830
30.78000 384.284
30.79000 382.129
30.80000 380.050
30.81000 380.322
30.82000 381.439
30.83000 382.311
30.84000 380.655
30.85000 378.330
30.86000 376.900
30.87000 381.087
30.88000 386.254
30.89000 390.491
30.90000 391.175
30.91000 391.421
30.92000 394.392
30.93000 404.952
30.94000 415.960
30.95000 423.732
30.96000 425.346
30.97000 426.811
30.98000 427.636
30.99000 441.566
31.00000 451.268
31.01000 459.180
31.02000 465.601
31.03000 472.178
31.04000 486.647
31.05000 505.526
31.06000 523.717
31.07000 535.494
31.08000 544.258
31.09000 553.985
31.10000 573.452
31.11000 595.448
31.12000 617.145
31.13000 637.008
31.14000 656.558
31.15000 672.528
31.16000 692.072
31.17000 708.377
31.18000 729.819
31.19000 765.316
31.20000 801.615
31.21000 836.147
31.22000 867.376
31.23000 898.530
31.24000 915.915
31.25000 974.695
31.26000 1015.432
31.27000 1039.756
31.28000 1050.648
31.29000 1061.735
31.30000 1082.165
31.31000 1107.728
31.32000 1132.323
31.33000 1150.496
31.34000 1165.277
31.35000 1180.746
31.36000 1202.987
31.37000 1226.956
31.38000 1243.468
31.39000 1214.977
31.40000 1178.941
31.41000 1149.614
31.42000 1149.352
31.43000 1151.582
31.44000 1150.042
31.45000 1138.364
31.46000 1126.127
31.47000 1104.736
31.48000 1066.516
31.49000 1027.930
31.50000 1006.581
31.51000 972.961
31.52000 949.717
31.53000 919.254
31.54000 882.992
31.55000 846.746
31.56000 811.197
31.57000 776.026
31.58000 742.235
31.59000 716.295
31.60000 694.726
31.61000 673.078
31.62000 650.683
31.63000 628.100
31.64000 605.754
31.65000 584.814
31.66000 564.104
31.67000 547.313
31.68000 525.491
31.69000 507.298
31.70000 490.765
31.71000 478.618
31.72000 466.706
31.73000 454.178
31.74000 440.537
31.75000 426.874
31.76000 419.380
31.77000 422.387
31.78000 424.442
31.79000 417.421
31.80000 403.247
31.81000 389.381
31.82000 388.712
31.83000 395.047
31.84000 401.123
31.85000 397.937
31.86000 391.820
31.87000 385.635
31.88000 378.814
31.89000 371.837
31.90000 366.174
31.91000 368.131
31.92000 371.313
31.93000 373.884
31.94000 370.493
31.95000 367.262
31.96000 363.364
31.97000 357.734
31.98000 352.015
31.99000 348.730
32.00000 349.768
32.01000 350.890
32.02000 351.500
32.03000 349.136
32.04000 347.487
32.05000 339.970
32.06000 327.912
32.07000 316.207
32.08000 318.830
32.09000 328.926
32.10000 338.596
32.11000 346.279
32.12000 352.784
32.13000 358.528
32.14000 357.294
32.15000 354.375
32.16000 350.995
32.17000 344.989
32.18000 338.568
32.19000 333.403
32.20000 329.708
32.21000 326.825
32.22000 327.471
32.23000 337.133
32.24000 347.244
32.25000 351.489
32.26000 345.495
32.27000 339.315
32.28000 335.985
32.29000 332.358
32.30000 329.900
32.31000 332.453
32.32000 338.812
32.33000 345.010
32.34000 345.031
32.35000 341.886
32.36000 338.878
32.37000 334.985
32.38000 331.073
32.39000 327.676
32.40000 328.884
32.41000 331.184
32.42000 332.553
32.43000 328.736
32.44000 324.118
32.45000 320.417
32.46000 325.492
32.47000 330.261
32.48000 334.193
32.49000 336.023
32.50000 337.752
32.51000 334.958
32.52000 324.410
32.53000 313.728
32.54000 308.024
32.55000 318.002
32.56000 324.791
32.57000 327.036
32.58000 325.892
32.59000 324.778
32.60000 324.762
32.61000 325.300
32.62000 325.814
32.63000 322.466
32.64000 318.120
32.65000 314.257
32.66000 314.616
32.67000 315.959
32.68000 317.633
32.69000 321.118
32.70000 324.877
32.71000 327.877
32.72000 330.259
32.73000 332.137
32.74000 332.042
32.75000 327.075
32.76000 321.883
32.77000 317.335
32.78000 313.874
32.79000 310.431
32.80000 308.609
32.81000 315.971
32.82000 320.937
32.83000 318.799
32.84000 311.458
32.85000 304.380
32.86000 306.484
32.87000 313.135
32.88000 319.477
32.89000 324.509
32.90000 328.764
32.91000 332.232
32.92000 328.980
32.93000 324.192
32.94000 319.512
32.95000 315.415
32.96000 311.404
32.97000 308.215
32.98000 315.158
32.99000 321.473
33.00000 323.913
33.01000 316.949
33.02000 309.564
33.03000 304.928
33.04000 304.846
33.05000 304.833
33.06000 304.825
33.07000 306.221
33.08000 307.173
33.09000 309.120
33.10000 311.784
33.11000 314.344
33.12000 313.435
33.13000 310.839
33.14000 308.368
33.15000 305.819
33.16000 303.436
33.17000 301.397
33.18000 302.233
33.19000 303.713
33.20000 305.648
33.21000 309.970
33.22000 314.639
33.23000 318.335
33.24000 307.503
33.25000 297.790
33.26000 291.093
33.27000 291.591
33.28000 292.399
33.29000 295.804
33.30000 303.434
33.31000 311.123
33.32000 315.116
33.33000 310.251
33.34000 306.994
33.35000 307.888
33.36000 311.713
33.37000 315.422
33.38000 315.475
33.39000 313.779
33.40000 312.166
33.41000 308.648
33.42000 304.821
33.43000 301.480
33.44000 302.106
33.45000 303.605
33.46000 304.550
33.47000 302.641
33.48000 300.325
33.49000 298.500
33.50000 294.993
33.51000 292.067
33.52000 289.397
33.53000 287.330
33.54000 285.287
33.55000 286.706
33.56000 293.657
33.57000 300.681
33.58000 304.293
33.59000 287.744
33.60000 276.727
33.61000 280.989
33.62000 295.845
33.63000 310.393
33.64000 315.559
33.65000 316.311
33.66000 317.025
33.67000 317.143
33.68000 317.076
33.69000 316.432
33.70000 311.199
33.71000 304.973
33.72000 299.840
33.73000 300.234
33.74000 301.398
33.75000 302.311
33.76000 308.183
33.77000 313.205
33.78000 314.333
33.79000 306.487
33.80000 298.283
33.81000 294.623
33.82000 298.096
33.83000 301.656
33.84000 303.469
33.85000 306.101
33.86000 307.855
33.87000 308.372
33.88000 308.047
33.89000 307.811
33.90000 310.197
33.91000 313.796
33.92000 317.203
33.93000 319.489
33.94000 321.267
33.95000 322.364
33.96000 318.146
33.97000 312.800
33.98000 308.397
33.99000 308.672
34.00000 309.583
34.01000 310.296
34.02000 313.750
34.03000 316.682
34.04000 319.144
34.05000 320.544
34.06000 321.902
34.07000 323.112
34.08000 324.091
34.09000 325.067
34.10000 325.559
34.11000 329.520
34.12000 332.120
34.13000 329.696
34.14000 323.912
34.15000 318.347
34.16000 318.931
34.17000 322.309
34.18000 325.502
34.19000 334.046
34.20000 343.420
34.21000 351.630
34.22000 350.959
34.23000 348.438
34.24000 347.166
34.25000 351.972
34.26000 357.587
34.27000 361.958
34.28000 358.237
34.29000 354.776
34.30000 353.459
34.31000 356.918
34.32000 360.553
34.33000 360.367
34.34000 354.392
34.35000 348.358
34.36000 349.121
34.37000 356.664
34.38000 364.140
34.39000 365.283
34.40000 362.266
34.41000 359.383
34.42000 360.077
34.43000 362.369
34.44000 364.532
34.45000 363.470
34.46000 361.594
34.47000 359.567
34.48000 356.409
34.49000 353.021
34.50000 349.551
34.51000 345.696
34.52000 341.791
34.53000 338.764
34.54000 339.690
34.55000 340.662
34.56000 343.763
34.57000 351.527
34.58000 359.456
34.59000 360.408
34.60000 350.979
34.61000 341.452
34.62000 334.690
34.63000 330.631
34.64000 326.616
34.65000 326.439
34.66000 328.739
34.67000 330.843
34.68000 327.867
34.69000 322.661
34.70000 317.757
34.71000 312.187
34.72000 306.907
34.73000 302.464
34.74000 304.132
34.75000 307.025
34.76000 309.336
34.77000 308.922
34.78000 308.162
34.79000 307.575
34.80000 297.075
34.81000 288.178
34.82000 285.250
34.83000 295.172
34.84000 305.528
34.85000 309.082
34.86000 302.694
34.87000 296.221
34.88000 292.825
34.89000 292.378
34.90000 291.903
34.91000 289.260
34.92000 285.242
34.93000 281.389
34.94000 281.646
34.95000 283.677
34.96000 285.587
34.97000 283.514
34.98000 280.551
34.99000 277.793
35.00000 276.512
35.01000 275.521
35.02000 274.725
35.03000 274.833
35.04000 275.052
35.05000 275.221
35.06000 276.154
35.07000 276.934
35.08000 277.606
35.09000 278.048
35.10000 278.482
35.11000 277.008
35.12000 272.796
35.13000 268.564
35.14000 263.544
35.15000 257.787
35.16000 252.183
35.17000 258.034
35.18000 271.018
35.19000 283.668
35.20000 288.336
35.21000 289.616
35.22000 290.817
35.23000 287.368
35.24000 282.999
35.25000 279.306
35.26000 280.345
35.27000 282.298
35.28000 283.570
35.29000 281.764
35.30000 279.584
35.31000 277.916
35.32000 280.456
35.33000 282.689
35.34000 283.834
35.35000 282.715
35.36000 281.525
35.37000 280.537
35.38000 279.834
35.39000 279.133
35.40000 278.801
35.41000 278.810
35.42000 278.807
35.43000 277.936
35.44000 276.534
35.45000 275.192
35.46000 275.221
35.47000 275.822
35.48000 276.384
35.49000 278.646
35.50000 281.144
35.51000 283.501
35.52000 284.895
35.53000 286.107
35.54000 286.135
35.55000 280.910
35.56000 275.059
35.57000 270.605
35.58000 274.289
35.59000 277.618
35.60000 276.972
35.61000 268.200
35.62000 259.186
35.63000 257.337
35.64000 265.405
35.65000 273.533
35.66000 271.599
35.67000 260.588
35.68000 249.767
35.69000 251.307
35.70000 260.278
35.71000 268.854
35.72000 268.680
35.73000 264.917
35.74000 261.400
35.75000 266.612
35.76000 273.558
35.77000 278.866
35.78000 273.176
35.79000 265.444
35.80000 260.115
35.81000 265.246
35.82000 271.593
35.83000 276.403
35.84000 273.227
35.85000 270.326
35.86000 266.786
35.87000 261.962
35.88000 257.102
35.89000 255.328
35.90000 257.748
35.91000 260.190
35.92000 261.374
35.93000 261.442
35.94000 261.557
35.95000 264.604
35.96000 269.382
35.97000 273.656
35.98000 267.198
35.99000 256.412
36.00000 246.349
36.01000 247.156
36.02000 250.591
36.03000 253.545
36.04000 253.333
36.05000 252.544
36.06000 251.900
36.07000 251.873
36.08000 251.916
36.09000 251.949
36.10000 255.553
36.11000 258.553
36.12000 262.113
36.13000 266.778
36.14000 271.472
36.15000 271.434
36.16000 265.080
36.17000 258.699
36.18000 257.087
36.19000 259.617
36.20000 262.056
36.21000 259.324
36.22000 253.591
36.23000 248.056
36.24000 246.605
36.25000 246.772
36.26000 246.928
36.27000 254.295
36.28000 262.714
36.29000 270.050
36.30000 270.418
36.31000 269.542
36.32000 268.712
36.33000 268.074
36.34000 267.458
36.35000 266.995
36.36000 267.303
36.37000 267.580
36.38000 265.866
36.39000 260.286
36.40000 254.608
36.41000 251.545
36.42000 251.910
36.43000 252.289
36.44000 255.749
36.45000 261.821
36.46000 267.785
36.47000 267.944
36.48000 264.791
36.49000 261.434
36.50000 254.015
36.51000 245.015
36.52000 236.651
36.53000 241.766
36.54000 249.606
36.55000 256.358
36.56000 256.246
36.57000 254.934
36.58000 254.984
36.59000 260.649
36.60000 266.923
36.61000 271.611
36.62000 270.567
36.63000 269.488
36.64000 268.063
36.65000 265.978
36.66000 263.876
36.67000 262.838
36.68000 263.169
36.69000 263.505
36.70000 262.124
36.71000 259.313
36.72000 256.542
36.73000 255.821
36.74000 256.249
36.75000 256.661
36.76000 256.762
36.77000 256.745
36.78000 256.729
36.79000 257.202
36.80000 257.743
36.81000 258.617
36.82000 261.551
36.83000 264.837
36.84000 266.853
36.85000 263.726
36.86000 260.054
36.87000 257.323
36.88000 265.532
36.89000 272.404
36.90000 276.469
36.91000 275.270
36.92000 273.950
36.93000 273.581
36.94000 274.413
36.95000 275.248
36.96000 275.833
36.97000 276.211
36.98000 276.590
36.99000 277.000
37.00000 277.428
37.01000 278.111
37.02000 283.538
37.03000 290.752
37.04000 297.428
37.05000 293.169
37.06000 286.829
37.07000 281.912
37.08000 285.605
37.09000 290.746
37.10000 293.819
37.11000 288.676
37.12000 282.684
37.13000 278.250
37.14000 270.198
37.15000 263.796
37.16000 259.898
37.17000 260.617
37.18000 261.437
37.19000 264.237
37.20000 269.490
37.21000 274.741
37.22000 276.071
37.23000 274.250
37.24000 272.458
37.25000 271.985
37.26000 272.226
37.27000 271.925
37.28000 261.884
37.29000 248.237
37.30000 235.634
37.31000 245.127
37.32000 258.618
37.33000 270.038
37.34000 269.176
37.35000 266.290
37.36000 263.328
37.37000 260.068
37.38000 256.779
37.39000 254.357
37.40000 250.833
37.41000 248.061
37.42000 247.686
37.43000 251.656
37.44000 255.715
37.45000 258.475
37.46000 259.655
37.47000 260.829
37.48000 259.052
37.49000 254.960
37.50000 251.023
37.51000 253.743
37.52000 260.005
37.53000 265.908
37.54000 265.587
37.55000 263.003
37.56000 260.621
37.57000 260.102
37.58000 260.050
37.59000 259.521
37.60000 256.220
37.61000 252.472
37.62000 249.767
37.63000 251.064
37.64000 252.755
37.65000 253.994
37.66000 254.880
37.67000 255.551
37.68000 257.762
37.69000 262.714
37.70000 267.719
37.71000 267.168
37.72000 259.990
37.73000 252.816
37.74000 253.785
37.75000 261.033
37.76000 268.095
37.77000 267.589
37.78000 263.125
37.79000 258.883
37.80000 258.379
37.81000 259.212
37.82000 259.978
37.83000 257.038
37.84000 253.612
37.85000 250.692
37.86000 250.667
37.87000 251.100
37.88000 251.641
37.89000 252.590
37.90000 253.577
37.91000 254.297
37.92000 252.584
37.93000 251.170
37.94000 251.925
37.95000 256.475
37.96000 261.095
37.97000 263.119
37.98000 262.106
37.99000 261.091
38.00000 256.719
38.01000 249.834
38.02000 243.120
38.03000 243.044
38.04000 246.380
38.05000 249.748
38.06000 253.654
38.07000 257.748
38.08000 261.505
38.09000 256.808
38.10000 250.829
38.11000 246.714
38.12000 253.021
38.13000 260.943
38.14000 266.828
38.15000 265.176
38.16000 262.819
38.17000 261.109
38.18000 267.916
38.19000 273.462
38.20000 275.792
38.21000 272.592
38.22000 269.297
38.23000 269.198
38.24000 272.770
38.25000 276.335
38.26000 275.886
38.27000 272.461
38.28000 269.282
38.29000 275.204
38.30000 285.723
38.31000 295.996
38.32000 302.377
38.33000 307.414
38.34000 312.024
38.35000 321.008
38.36000 329.908
38.37000 339.588
38.38000 353.540
38.39000 368.142
38.40000 381.446
38.41000 390.036
38.42000 398.197
38.43000 404.085
38.44000 445.036
38.45000 477.683
38.46000 503.190
38.47000 516.636
38.48000 529.886
38.49000 549.890
38.50000 577.498
38.51000 605.021
38.52000 633.841
38.53000 663.372
38.54000 692.980
38.55000 725.277
38.56000 758.908
38.57000 792.384
38.58000 823.470
38.59000 853.745
38.60000 881.396
38.61000 919.194
38.62000 954.815
38.63000 987.891
38.64000 1007.298
38.65000 1024.673
38.66000 1042.610
38.67000 1062.557
38.68000 1082.682
38.69000 1097.126
38.70000 1118.657
38.71000 1135.366
38.72000 1140.271
38.73000 1125.584
38.74000 1110.600
38.75000 1101.066
38.76000 1097.549
38.77000 1094.049
38.78000 1075.892
38.79000 1047.428
38.80000 1018.878
38.81000 987.448
38.82000 954.613
38.83000 921.669
38.84000 887.122
38.85000 852.039
38.86000 820.071
38.87000 785.666
38.88000 754.700
38.89000 722.124
38.90000 681.065
38.91000 638.770
38.92000 600.549
38.93000 576.612
38.94000 553.911
38.95000 537.705
38.96000 490.049
38.97000 452.656
38.98000 423.122
38.99000 406.406
39.00000 389.872
39.01000 375.989
39.02000 364.978
39.03000 354.014
39.04000 342.057
39.05000 329.524
39.06000 317.073
39.07000 307.242
39.08000 298.669
39.09000 290.073
39.10000 281.159
39.11000 272.141
39.12000 263.943
39.13000 263.375
39.14000 264.362
39.15000 265.080
39.16000 264.402
39.17000 263.526
39.18000 261.472
39.19000 255.360
39.20000 248.905
39.21000 244.321
39.22000 250.216
39.23000 255.034
39.24000 255.358
39.25000 248.480
39.26000 241.507
39.27000 238.765
39.28000 240.515
39.29000 242.258
39.30000 243.409
39.31000 244.140
39.32000 244.804
39.33000 243.400
39.34000 241.020
39.35000 238.890
39.36000 240.264
39.37000 242.768
39.38000 245.040
39.39000 246.034
39.40000 246.666
39.41000 246.815
39.42000 244.510
39.43000 241.862
39.44000 239.743
39.45000 239.413
39.46000 239.229
39.47000 239.100
39.48000 238.861
39.49000 238.677
39.50000 239.866
39.51000 243.217
39.52000 246.594
39.53000 247.931
39.54000 247.145
39.55000 246.362
39.56000 246.086
39.57000 246.153
39.58000 246.105
39.59000 242.638
39.60000 237.588
39.61000 233.067
39.62000 235.774
39.63000 240.772
39.64000 245.293
39.65000 244.140
39.66000 242.062
39.67000 240.255
39.68000 239.796
39.69000 239.521
39.70000 239.295
39.71000 239.232
39.72000 239.182
39.73000 239.147
39.74000 237.120
39.75000 235.528
39.76000 236.266
39.77000 240.609
39.78000 244.993
39.79000 246.053
39.80000 243.721
39.81000 241.402
39.82000 242.254
39.83000 245.192
39.84000 248.009
39.85000 247.441
39.86000 245.329
39.87000 243.225
39.88000 241.217
39.89000 239.239
39.90000 237.454
39.91000 234.778
39.92000 232.265
39.93000 230.156
39.94000 230.025
39.95000 230.159
39.96000 230.953
39.97000 233.910
39.98000 237.034
39.99000 239.217
40.00000 233.356
40.01000 228.704
40.02000 227.586
40.03000 231.837
40.04000 236.144
40.05000 235.347
40.06000 229.446
40.07000 223.581
40.08000 221.757
40.09000 222.582
40.10000 223.342
40.11000 222.350
40.12000 220.572
40.13000 219.025
40.14000 220.439
40.15000 222.758
40.16000 224.846
40.17000 223.431
40.18000 221.561
40.19000 220.283
40.20000 221.840
40.21000 223.768
40.22000 224.996
40.23000 223.973
40.24000 222.780
40.25000 221.952
40.26000 219.889
40.27000 218.301
40.28000 217.489
40.29000 217.832
40.30000 218.186
40.31000 220.757
40.32000 225.499
40.33000 230.210
40.34000 228.854
40.35000 223.655
40.36000 218.591
40.37000 217.036
40.38000 217.026
40.39000 217.547
40.40000 224.733
40.41000 233.922
40.42000 242.174
40.43000 231.979
40.44000 219.815
40.45000 210.533
40.46000 214.802
40.47000 220.803
40.48000 225.378
40.49000 225.448
40.50000 225.188
40.51000 225.008
40.52000 224.525
40.53000 224.153
40.54000 223.214
40.55000 221.441
40.56000 219.662
40.57000 219.495
40.58000 220.879
40.59000 222.253
40.60000 222.143
40.61000 221.108
40.62000 220.236
40.63000 223.441
40.64000 228.410
40.65000 233.126
40.66000 234.760
40.67000 235.482
40.68000 236.129
40.69000 234.134
40.70000 231.937
40.71000 229.185
40.72000 223.867
40.73000 218.229
40.74000 215.051
40.75000 219.506
40.76000 224.505
40.77000 227.937
40.78000 222.996
40.79000 219.087
40.80000 216.971
40.81000 217.435
40.82000 217.919
40.83000 217.845
40.84000 217.245
40.85000 216.650
40.86000 213.232
40.87000 208.143
40.88000 203.283
40.89000 203.921
40.90000 206.897
40.91000 209.881
40.92000 212.949
40.93000 216.043
40.94000 218.807
40.95000 219.871
40.96000 220.512
40.97000 220.621
40.98000 218.316
40.99000 215.717
41.00000 214.747
41.01000 218.749
41.02000 223.095
41.03000 226.062
41.04000 220.641
41.05000 216.391
41.06000 213.006
41.07000 210.844
41.08000 208.691
41.09000 208.652
41.10000 210.565
41.11000 212.462
41.12000 214.273
41.13000 215.997
41.14000 217.615
41.15000 216.770
41.16000 214.894
41.17000 212.875
41.18000 209.210
41.19000 205.076
41.20000 201.393
41.21000 203.205
41.22000 205.688
41.23000 207.899
41.24000 208.903
41.25000 209.763
41.26000 210.156
41.27000 209.155
41.28000 208.060
41.29000 207.317
41.30000 207.996
41.31000 208.534
41.32000 211.008
41.33000 216.169
41.34000 221.345
41.35000 221.199
41.36000 216.233
41.37000 211.313
41.38000 210.274
41.39000 211.547
41.40000 212.883
41.41000 215.591
41.42000 218.863
41.43000 221.500
41.44000 216.972
41.45000 210.437
41.46000 204.629
41.47000 205.062
41.48000 206.446
41.49000 208.204
41.50000 211.596
41.51000 215.179
41.52000 218.035
41.53000 218.750
41.54000 219.325
41.55000 219.713
41.56000 214.056
41.57000 209.719
41.58000 207.823
41.59000 209.256
41.60000 210.705
41.61000 209.076
41.62000 204.714
41.63000 200.396
41.64000 201.928
41.65000 206.819
41.66000 211.522
41.67000 212.231
41.68000 211.324
41.69000 210.313
41.70000 208.148
41.71000 205.665
41.72000 203.465
41.73000 204.613
41.74000 206.136
41.75000 207.812
41.76000 210.144
41.77000 212.550
41.78000 213.745
41.79000 211.429
41.80000 208.892
41.81000 207.190
41.82000 210.681
41.83000 213.377
41.84000 212.676
41.85000 207.430
41.86000 202.165
41.87000 199.704
41.88000 199.688
41.89000 199.672
41.90000 203.546
41.91000 209.542
41.92000 215.419
41.93000 218.810
41.94000 221.214
41.95000 223.209
41.96000 220.840
41.97000 217.291
41.98000 214.154
41.99000 217.144
42.00000 220.675
42.01000 223.968
42.02000 226.266
42.03000 228.453
42.04000 230.472
42.05000 232.012
42.06000 233.522
42.07000 234.529
42.08000 229.513
42.09000 225.686
42.10000 221.687
42.11000 217.464
42.12000 213.244
42.13000 211.542
42.14000 211.993
42.15000 212.438
42.16000 213.615
42.17000 215.171
42.18000 216.653
42.19000 216.662
42.20000 216.096
42.21000 215.292
42.22000 212.019
42.23000 208.089
42.24000 204.625
42.25000 209.598
42.26000 215.160
42.27000 219.377
42.28000 218.038
42.29000 216.094
42.30000 215.017
42.31000 216.362
42.32000 217.852
42.33000 218.838
42.34000 211.296
42.35000 205.573
42.36000 203.332
42.37000 205.580
42.38000 207.851
42.39000 212.615
42.40000 219.471
42.41000 226.242
42.42000 220.786
42.43000 208.774
42.44000 197.457
42.45000 199.541
42.46000 206.771
42.47000 213.477
42.48000 214.842
42.49000 214.813
42.50000 214.788
42.51000 212.371
42.52000 209.939
42.53000 207.977
42.54000 207.928
42.55000 208.082
42.56000 208.505
42.57000 209.670
42.58000 210.878
42.59000 211.673
42.60000 210.056
42.61000 208.825
42.62000 207.802
42.63000 207.041
42.64000 206.283
42.65000 206.205
42.66000 206.686
42.67000 207.160
42.68000 209.077
42.69000 211.719
42.70000 214.106
42.71000 211.750
42.72000 207.603
42.73000 203.753
42.74000 202.840
42.75000 202.680
42.76000 202.540
42.77000 200.555
42.78000 198.584
42.79000 197.898
42.80000 202.328
42.81000 207.290
42.82000 209.811
42.83000 205.740
42.84000 201.301
42.85000 198.398
42.86000 200.276
42.87000 201.732
42.88000 201.447
42.89000 198.998
42.90000 196.557
42.91000 199.067
42.92000 205.576
42.93000 211.994
42.94000 214.106
42.95000 213.887
42.96000 213.575
42.97000 211.592
42.98000 208.988
42.99000 206.737
43.00000 207.907
43.01000 209.937
43.02000 211.711
43.03000 207.608
43.04000 203.263
43.05000 200.376
43.06000 203.197
43.07000 206.595
43.08000 208.499
43.09000 206.432
43.10000 204.152
43.11000 202.671
43.12000 198.119
43.13000 194.738
43.14000 191.999
43.15000 190.043
43.16000 188.108
43.17000 191.888
43.18000 200.198
43.19000 208.385
43.20000 209.815
43.21000 207.705
43.22000 205.583
43.23000 203.252
43.24000 200.845
43.25000 198.632
43.26000 198.243
43.27000 198.307
43.28000 198.362
43.29000 196.462
43.30000 194.568
43.31000 192.396
43.32000 189.154
43.33000 185.806
43.34000 182.640
43.35000 179.948
43.36000 177.281
43.37000 175.559
43.38000 185.334
43.39000 192.642
43.40000 198.075
43.41000 201.264
43.42000 204.439
43.43000 204.930
43.44000 203.332
43.45000 201.759
43.46000 200.547
43.47000 199.557
43.48000 198.637
43.49000 198.905
43.50000 199.599
43.51000 200.396
43.52000 202.148
43.53000 204.132
43.54000 205.855
43.55000 198.283
43.56000 190.568
43.57000 185.106
43.58000 188.147
43.59000 192.007
43.60000 194.648
43.61000 194.161
43.62000 193.517
43.63000 193.104
43.64000 184.807
43.65000 178.654
43.66000 178.540
43.67000 185.512
43.68000 192.476
43.69000 195.038
43.70000 194.238
43.71000 193.452
43.72000 194.911
43.73000 197.441
43.74000 199.557
43.75000 194.866
43.76000 187.777
43.77000 181.567
43.78000 183.279
43.79000 186.879
43.80000 189.997
43.81000 196.068
43.82000 201.623
43.83000 204.681
43.84000 198.474
43.85000 191.397
43.86000 187.933
43.87000 193.589
43.88000 199.689
43.89000 203.573
43.90000 203.678
43.91000 203.706
43.92000 203.145
43.93000 201.906
43.94000 200.661
43.95000 198.598
43.96000 195.919
43.97000 193.288
43.98000 192.851
43.99000 193.501
44.00000 194.155
44.01000 194.853
44.02000 195.567
44.03000 195.841
44.04000 192.242
44.05000 187.737
44.06000 183.847
44.07000 190.803
44.08000 198.111
44.09000 202.279
44.10000 195.011
44.11000 186.697
44.12000 180.970
44.13000 181.666
44.14000 182.663
44.15000 183.293
44.16000 192.718
44.17000 199.654
44.18000 200.987
44.19000 195.992
44.20000 191.006
44.21000 188.711
44.22000 188.397
44.23000 188.088
44.24000 192.346
44.25000 198.645
44.26000 204.847
44.27000 209.552
44.28000 213.748
44.29000 217.274
44.30000 215.043
44.31000 211.488
44.32000 208.428
44.33000 208.980
44.34000 209.904
44.35000 209.807
44.36000 206.060
44.37000 201.988
44.38000 200.382
44.39000 204.793
44.40000 209.477
44.41000 212.419
44.42000 207.476
44.43000 203.815
44.44000 202.964
44.45000 205.227
44.46000 207.474
44.47000 207.051
44.48000 204.696
44.49000 202.388
44.50000 204.847
44.51000 209.462
44.52000 213.671
44.53000 211.816
44.54000 207.932
44.55000 204.713
44.56000 207.085
44.57000 210.719
44.58000 213.838
44.59000 220.032
44.60000 225.647
44.61000 229.660
44.62000 228.034
44.63000 225.918
44.64000 224.339
44.65000 224.045
44.66000 223.808
44.67000 223.660
44.68000 223.821
44.69000 223.940
44.70000 223.220
44.71000 221.587
44.72000 219.954
44.73000 218.163
44.74000 216.262
44.75000 214.400
44.76000 218.118
44.77000 224.273
44.78000 230.192
44.79000 232.677
44.80000 234.033
44.81000 235.830
44.82000 241.248
44.83000 247.467
44.84000 252.789
44.85000 249.236
44.86000 245.169
44.87000 242.510
44.88000 244.717
44.89000 247.335
44.90000 248.512
44.91000 246.290
44.92000 243.925
44.93000 242.461
44.94000 241.402
44.95000 240.645
44.96000 243.447
44.97000 250.040
44.98000 256.601
44.99000 258.967
45.00000 258.410
45.01000 257.865
45.02000 257.973
45.03000 258.371
45.04000 258.925
45.05000 261.662
45.06000 265.106
45.07000 267.883
45.08000 265.303
45.09000 261.560
45.10000 258.367
45.11000 254.293
45.12000 250.761
45.13000 248.330
45.14000 249.639
45.15000 251.255
45.16000 251.425
45.17000 248.245
45.18000 244.930
45.19000 242.891
45.20000 248.020
45.21000 251.761
45.22000 253.000
45.23000 251.626
45.24000 250.264
45.25000 250.368
45.26000 251.475
45.27000 252.557
45.28000 245.562
45.29000 235.262
45.30000 225.589
45.31000 224.492
45.32000 226.120
45.33000 227.562
45.34000 227.546
45.35000 227.220
45.36000 226.943
45.37000 221.729
45.38000 216.783
45.39000 213.667
45.40000 216.655
45.41000 220.132
45.42000 222.952
45.43000 224.278
45.44000 225.546
45.45000 226.320
45.46000 214.951
45.47000 206.722
45.48000 202.692
45.49000 202.962
45.50000 203.231
45.51000 203.416
45.52000 203.544
45.53000 203.668
45.54000 206.665
45.55000 210.786
45.56000 214.466
45.57000 212.266
45.58000 208.232
45.59000 204.751
45.60000 205.527
45.61000 207.194
45.62000 208.606
45.63000 207.582
45.64000 206.451
45.65000 205.474
45.66000 205.005
45.67000 204.577
45.68000 204.759
45.69000 206.312
45.70000 207.915
45.71000 208.887
45.72000 200.498
45.73000 194.445
45.74000 191.943
45.75000 193.005
45.76000 194.026
45.77000 191.160
45.78000 185.726
45.79000 180.428
45.80000 181.627
45.81000 185.559
45.82000 189.429
45.83000 192.495
45.84000 195.314
45.85000 197.307
45.86000 193.090
45.87000 187.597
45.88000 182.958
45.89000 183.228
45.90000 183.992
45.91000 183.965
45.92000 181.391
45.93000 178.624
45.94000 176.992
45.95000 177.859
45.96000 178.816
45.97000 179.392
45.98000 182.972
45.99000 185.538
46.00000 187.223
46.01000 188.042
46.02000 188.850
46.03000 188.761
46.04000 188.090
46.05000 187.436
46.06000 185.904
46.07000 184.074
46.08000 182.391
46.09000 182.552
46.10000 183.268
46.11000 183.532
46.12000 180.470
46.13000 176.736
46.14000 173.593
46.15000 175.300
46.16000 177.243
46.17000 178.797
46.18000 179.122
46.19000 179.356
46.20000 181.433
46.21000 187.495
46.22000 193.693
46.23000 197.395
46.24000 192.285
46.25000 188.606
46.26000 184.901
46.27000 181.169
46.28000 177.447
46.29000 174.489
46.30000 172.020
46.31000 169.617
46.32000 170.649
46.33000 173.049
46.34000 175.102
46.35000 172.910
46.36000 169.462
46.37000 166.765
46.38000 169.478
46.39000 173.261
46.40000 176.434
46.41000 177.965
46.42000 179.068
46.43000 179.873
46.44000 179.750
46.45000 179.560
46.46000 179.934
46.47000 181.504
46.48000 183.114
46.49000 184.067
46.50000 185.752
46.51000 186.947
46.52000 185.640
46.53000 181.969
46.54000 178.375
46.55000 180.698
46.56000 186.724
46.57000 192.581
46.58000 191.245
46.59000 187.061
46.60000 183.009
46.61000 180.533
46.62000 178.516
46.63000 177.005
46.64000 179.057
46.65000 181.801
46.66000 184.095
46.67000 177.753
46.68000 171.606
46.69000 168.784
46.70000 176.124
46.71000 184.171
46.72000 187.296
46.73000 180.129
46.74000 172.639
46.75000 168.235
46.76000 172.078
46.77000 174.829
46.78000 173.950
46.79000 169.706
46.80000 165.549
46.81000 167.584
46.82000 173.426
46.83000 179.097
46.84000 180.828
46.85000 180.903
46.86000 180.798
46.87000 178.602
46.88000 175.809
46.89000 173.520
46.90000 174.706
46.91000 176.554
46.92000 178.093
46.93000 181.786
46.94000 185.059
46.95000 186.579
46.96000 182.828
46.97000 178.721
46.98000 174.744
46.99000 171.035
47.00000 167.333
47.01000 165.174
47.02000 172.959
47.03000 178.478
47.04000 180.174
47.05000 178.398
47.06000 176.565
47.07000 170.955
47.08000 163.064
47.09000 155.416
47.10000 159.026
47.11000 166.840
47.12000 173.763
47.13000 170.610
47.14000 164.626
47.15000 159.371
47.16000 159.035
47.17000 159.618
47.18000 160.102
47.19000 166.074
47.20000 171.543
47.21000 175.262
47.22000 173.817
47.23000 172.032
47.24000 170.606
47.25000 169.901
47.26000 169.216
47.27000 168.820
47.28000 171.754
47.29000 173.823
47.30000 174.175
47.31000 172.995
47.32000 171.807
47.33000 170.096
47.34000 168.073
47.35000 166.115
47.36000 162.431
47.37000 158.287
47.38000 154.696
47.39000 157.197
47.40000 161.379
47.41000 164.882
47.42000 163.900
47.43000 162.097
47.44000 160.606
47.45000 162.464
47.46000 164.313
47.47000 165.738
47.48000 165.933
47.49000 166.050
47.50000 165.177
47.51000 162.338
47.52000 159.445
47.53000 157.784
47.54000 170.383
47.55000 179.233
47.56000 178.011
47.57000 167.986
47.58000 158.089
47.59000 155.695
47.60000 157.677
47.61000 159.594
47.62000 161.265
47.63000 162.750
47.64000 164.297
47.65000 166.502
47.66000 168.887
47.67000 170.841
47.68000 170.007
47.69000 168.673
47.70000 167.573
47.71000 168.467
47.72000 169.388
47.73000 169.975
47.74000 169.614
47.75000 169.195
47.76000 168.468
47.77000 167.140
47.78000 165.797
47.79000 165.033
47.80000 165.038
47.81000 165.044
47.82000 164.623
47.83000 163.837
47.84000 163.001
47.85000 159.446
47.86000 154.331
47.87000 149.393
47.88000 153.838
47.89000 161.485
47.90000 168.418
47.91000 167.872
47.92000 165.333
47.93000 162.928
47.94000 161.364
47.95000 159.949
47.96000 158.787
47.97000 164.342
47.98000 169.506
47.99000 173.207
48.00000 172.805
48.01000 172.158
48.02000 169.900
48.03000 164.552
48.04000 159.128
48.05000 156.064
48.06000 161.635
48.07000 165.524
48.08000 165.810
48.09000 163.065
48.10000 160.370
48.11000 160.280
48.12000 161.658
48.13000 162.987
48.14000 162.761
48.15000 161.986
48.16000 161.097
48.17000 159.049
48.18000 156.697
48.19000 154.794
48.20000 155.687
48.21000 157.062
48.22000 158.186
48.23000 161.977
48.24000 165.316
48.25000 166.829
48.26000 163.309
48.27000 159.497
48.28000 157.419
48.29000 158.609
48.30000 159.876
48.31000 160.586
48.32000 156.732
48.33000 154.054
48.34000 153.171
48.35000 153.771
48.36000 154.390
48.37000 155.979
48.38000 158.103
48.39000 160.148
48.40000 159.748
48.41000 158.503
48.42000 157.453
48.43000 158.350
48.44000 159.746
48.45000 160.467
48.46000 157.071
48.47000 152.979
48.48000 149.643
48.49000 154.292
48.50000 158.772
48.51000 161.268
48.52000 158.389
48.53000 155.210
48.54000 154.355
48.55000 157.806
48.56000 161.354
48.57000 163.324
48.58000 160.595
48.59000 158.704
48.60000 158.236
48.61000 158.921
48.62000 159.581
48.63000 159.126
48.64000 158.065
48.65000 157.044
48.66000 160.864
48.67000 166.129
48.68000 170.606
48.69000 167.428
48.70000 162.317
48.71000 157.676
48.72000 155.837
48.73000 154.464
48.74000 153.348
48.75000 155.069
48.76000 156.706
48.77000 157.984
48.78000 158.304
48.79000 158.572
48.80000 157.723
48.81000 154.841
48.82000 151.916
48.83000 150.305
48.84000 152.495
48.85000 154.017
48.86000 157.872
48.87000 163.581
48.88000 169.173
48.89000 169.683
48.90000 167.474
48.91000 165.354
48.92000 162.135
48.93000 158.749
48.94000 155.531
48.95000 153.916
48.96000 152.698
48.97000 151.973
48.98000 154.134
48.99000 156.764
49.00000 158.891
49.01000 160.994
49.02000 162.704
49.03000 162.421
49.04000 156.920
49.05000 151.146
49.06000 147.552
49.07000 147.859
49.08000 148.243
49.09000 148.453
49.10000 147.313
49.11000 146.533
49.12000 146.957
49.13000 148.321
49.14000 149.690
49.15000 151.300
49.16000 153.035
49.17000 154.699
49.18000 155.911
49.19000 156.891
49.20000 157.741
49.21000 157.390
49.22000 156.747
49.23000 156.655
49.24000 159.725
49.25000 163.299
49.26000 166.179
49.27000 164.018
49.28000 161.868
49.29000 159.813
49.30000 158.003
49.31000 156.204
49.32000 154.200
49.33000 151.835
49.34000 149.462
49.35000 148.179
49.36000 151.313
49.37000 153.461
49.38000 155.094
49.39000 156.333
49.40000 157.631
49.41000 161.252
49.42000 166.074
49.43000 170.689
49.44000 165.213
49.45000 156.791
49.46000 149.475
49.47000 152.169
49.48000 157.255
49.49000 161.331
49.50000 159.727
49.51000 157.238
49.52000 155.239
49.53000 154.233
49.54000 153.494
49.55000 153.447
49.56000 155.149
49.57000 156.937
49.58000 157.481
49.59000 155.876
49.60000 154.233
49.61000 153.353
49.62000 143.591
49.63000 136.958
49.64000 137.978
49.65000 144.750
49.66000 151.331
49.67000 150.740
49.68000 146.506
49.69000 142.461
49.70000 143.388
49.71000 145.857
49.72000 148.084
49.73000 148.182
49.74000 147.781
49.75000 147.510
49.76000 147.953
49.77000 148.506
49.78000 148.948
49.79000 150.926
49.80000 152.638
49.81000 153.593
49.82000 152.664
49.83000 151.646
49.84000 151.371
49.85000 152.358
49.86000 153.366
49.87000 153.901
49.88000 150.176
49.89000 147.651
49.90000 147.416
49.91000 148.871
49.92000 150.315
49.93000 151.406
49.94000 152.321
49.95000 153.194
49.96000 154.410
49.97000 155.647
49.98000 156.614
49.99000 155.250
50.00000 153.347
50.01000 152.152
50.02000 154.777
50.03000 157.973
50.04000 160.519
50.05000 153.752
50.06000 147.624
50.07000 144.420
50.08000 148.365
50.09000 152.636
50.10000 155.556
50.11000 156.223
50.12000 156.855
50.13000 157.187
50.14000 148.895
50.15000 143.317
50.16000 145.783
50.17000 154.079
50.18000 162.048
50.19000 158.862
50.20000 150.204
50.21000 141.959
50.22000 143.199
50.23000 147.296
50.24000 151.009
50.25000 151.478
50.26000 151.214
50.27000 150.530
50.28000 147.627
50.29000 144.399
50.30000 141.839
50.31000 147.142
50.32000 151.959
50.33000 155.504
50.34000 155.990
50.35000 156.342
50.36000 157.746
50.37000 160.873
50.38000 164.025
50.39000 165.668
50.40000 161.010
50.41000 157.866
50.42000 155.978
50.43000 154.983
50.44000 154.029
50.45000 154.414
50.46000 155.445
50.47000 156.426
50.48000 159.238
50.49000 162.396
50.50000 165.149
50.51000 164.556
50.52000 163.221
50.53000 162.024
50.54000 161.549
50.55000 161.177
50.56000 160.884
50.57000 157.690
50.58000 154.929
50.59000 153.277
50.60000 154.247
50.61000 155.328
50.62000 156.939
50.63000 159.402
50.64000 161.877
50.65000 163.156
50.66000 161.142
50.67000 159.799
50.68000 160.269
50.69000 162.007
50.70000 163.612
50.71000 161.089
50.72000 156.609
50.73000 152.356
50.74000 154.098
50.75000 157.499
50.76000 160.684
50.77000 162.127
50.78000 163.191
50.79000 164.135
50.80000 164.469
50.81000 164.718
50.82000 164.914
50.83000 163.561
50.84000 162.375
50.85000 160.345
50.86000 156.351
50.87000 152.278
50.88000 150.858
50.89000 153.638
50.90000 156.469
50.91000 157.918
50.92000 160.975
50.93000 163.002
50.94000 161.929
50.95000 158.729
50.96000 155.624
50.97000 155.343
50.98000 156.379
50.99000 157.360
51.00000 157.477
51.01000 157.331
51.02000 156.875
51.03000 153.975
51.04000 150.553
51.05000 148.338
51.06000 152.162
51.07000 156.817
51.08000 160.462
51.09000 157.212
51.10000 154.172
51.11000 151.780
51.12000 150.866
51.13000 150.010
51.14000 149.400
51.15000 149.173
51.16000 148.950
51.17000 148.837
51.18000 147.676
51.19000 146.887
51.20000 144.862
51.21000 142.005
51.22000 139.306
51.23000 141.133
51.24000 145.034
51.25000 148.723
51.26000 146.375
51.27000 142.479
51.28000 138.827
51.29000 137.057
51.30000 135.682
51.31000 135.324
51.32000 139.961
51.33000 145.269
51.34000 149.409
51.35000 144.646
51.36000 140.293
51.37000 139.103
51.38000 145.013
51.39000 151.189
51.40000 152.495
51.41000 146.363
51.42000 140.151
51.43000 137.036
51.44000 143.827
51.45000 148.331
51.46000 150.089
51.47000 150.031
51.48000 149.874
51.49000 147.040
51.50000 143.002
51.51000 139.188
51.52000 137.973
51.53000 137.591
51.54000 137.119
51.55000 135.961
51.56000 134.663
51.57000 133.678
51.58000 134.202
51.59000 134.926
51.60000 135.488
51.61000 143.007
51.62000 149.408
51.63000 153.288
51.64000 151.606
51.65000 149.724
51.66000 148.416
51.67000 147.967
51.68000 147.527
51.69000 144.317
51.70000 138.376
51.71000 132.542
51.72000 136.398
51.73000 146.556
51.74000 156.315
51.75000 155.612
51.76000 150.278
51.77000 145.250
51.78000 143.370
51.79000 142.520
51.80000 141.819
51.81000 142.212
51.82000 142.826
51.83000 143.365
51.84000 143.545
51.85000 143.678
51.86000 143.781
51.87000 141.101
51.88000 138.812
51.89000 137.671
51.90000 139.022
51.91000 140.459
51.92000 140.305
51.93000 137.806
51.94000 135.286
51.95000 135.168
51.96000 137.372
51.97000 139.586
51.98000 142.612
51.99000 146.158
52.00000 149.602
52.01000 150.482
52.02000 150.247
52.03000 150.026
52.04000 148.229
52.05000 146.159
52.06000 144.332
52.07000 144.267
52.08000 144.551
52.09000 144.653
52.10000 143.912
52.11000 143.064
52.12000 142.412
52.13000 143.568
52.14000 144.586
52.15000 145.246
52.16000 145.141
52.17000 145.010
52.18000 144.674
52.19000 144.041
52.20000 143.405
52.21000 142.330
52.22000 140.839
52.23000 139.387
52.24000 141.002
52.25000 144.541
52.26000 147.841
52.27000 145.332
52.28000 140.339
52.29000 135.649
52.30000 136.509
52.31000 138.770
52.32000 140.344
52.33000 137.057
52.34000 132.825
52.35000 130.124
52.36000 134.398
52.37000 139.531
52.38000 143.465
52.39000 143.941
52.40000 144.126
52.41000 143.848
52.42000 142.601
52.43000 141.323
52.44000 139.839
52.45000 138.065
52.46000 136.288
52.47000 136.835
52.48000 139.538
52.49000 142.204
52.50000 142.189
52.51000 140.520
52.52000 138.980
52.53000 140.442
52.54000 143.166
52.55000 145.720
52.56000 143.165
52.57000 139.504
52.58000 136.524
52.59000 138.249
52.60000 140.871
52.61000 142.402
52.62000 139.057
52.63000 135.126
52.64000 132.127
52.65000 140.448
52.66000 147.608
52.67000 151.859
52.68000 150.119
52.69000 148.198
52.70000 145.952
52.71000 143.254
52.72000 140.554
52.73000 137.509
52.74000 134.152
52.75000 130.861
52.76000 132.006
52.77000 135.839
52.78000 139.500
52.79000 139.286
52.80000 137.472
52.81000 135.774
52.82000 135.374
52.83000 135.342
52.84000 135.267
52.85000 134.898
52.86000 134.474
52.87000 134.909
52.88000 139.118
52.89000 143.771
52.90000 147.304
52.91000 139.660
52.92000 133.075
52.93000 129.093
52.94000 130.387
52.95000 131.832
52.96000 131.969
52.97000 130.313
52.98000 128.648
52.99000 132.419
53.00000 141.037
53.01000 149.525
53.02000 149.800
53.03000 145.185
53.04000 140.735
53.05000 139.849
53.06000 140.411
53.07000 140.936
53.08000 143.499
53.09000 146.335
53.10000 148.773
53.11000 148.568
53.12000 147.878
53.13000 147.329
53.14000 147.387
53.15000 147.515
53.16000 147.612
53.17000 151.098
53.18000 154.001
53.19000 155.376
53.20000 153.708
53.21000 151.956
53.22000 152.409
53.23000 155.828
53.24000 159.261
53.25000 157.775
53.26000 151.987
53.27000 146.318
53.28000 147.677
53.29000 153.148
53.30000 158.420
53.31000 159.548
53.32000 159.020
53.33000 158.529
53.34000 159.652
53.35000 161.065
53.36000 162.211
53.37000 161.619
53.38000 160.714
53.39000 159.503
53.40000 156.995
53.41000 154.341
53.42000 152.344
53.43000 154.022
53.44000 155.512
53.45000 156.244
53.46000 155.490
53.47000 154.697
53.48000 156.264
53.49000 160.947
53.50000 165.641
53.51000 165.386
53.52000 160.886
53.53000 156.436
53.54000 154.757
53.55000 154.670
53.56000 154.361
53.57000 149.559
53.58000 142.993
53.59000 136.886
53.60000 138.711
53.61000 142.272
53.62000 145.959
53.63000 150.447
53.64000 155.077
53.65000 158.138
53.66000 154.689
53.67000 150.526
53.68000 147.409
53.69000 145.364
53.70000 143.818
53.71000 143.403
53.72000 145.166
53.73000 146.983
53.74000 146.333
53.75000 142.485
53.76000 138.628
53.77000 136.589
53.78000 136.087
53.79000 135.613
53.80000 136.662
53.81000 138.572
53.82000 140.255
53.83000 137.527
53.84000 133.097
53.85000 128.986
53.86000 132.905
53.87000 138.337
53.88000 143.267
53.89000 145.073
53.90000 146.339
53.91000 146.932
53.92000 144.786
53.93000 142.347
53.94000 140.529
53.95000 144.155
53.96000 147.223
53.97000 148.268
53.98000 145.485
53.99000 142.613
54.00000 140.729
54.01000 140.104
54.02000 139.484
54.03000 138.112
54.04000 136.121
54.05000 134.181
54.06000 134.677
54.07000 136.526
54.08000 138.247
54.09000 137.576
54.10000 135.997
54.11000 134.535
54.12000 135.657
54.13000 137.266
54.14000 138.711
54.15000 139.154
54.16000 139.427
54.17000 139.527
54.18000 138.933
54.19000 138.267
54.20000 137.773
54.21000 146.234
54.22000 153.198
54.23000 156.827
54.24000 154.265
54.25000 151.563
54.26000 149.016
54.27000 146.662
54.28000 144.312
54.29000 142.249
54.30000 140.425
54.31000 138.704
54.32000 141.815
54.33000 147.560
54.34000 153.010
54.35000 153.075
54.36000 151.131
54.37000 149.335
54.38000 148.972
54.39000 148.973
54.40000 148.334
54.41000 143.866
54.42000 138.761
54.43000 134.799
54.44000 135.330
54.45000 136.320
54.46000 137.050
54.47000 137.119
54.48000 137.145
54.49000 137.097
54.50000 136.915
54.51000 136.731
54.52000 137.117
54.53000 138.203
54.54000 139.288
54.55000 141.327
54.56000 144.112
54.57000 146.794
54.58000 144.901
54.59000 140.556
54.60000 136.479
54.61000 137.138
54.62000 139.532
54.63000 141.741
54.64000 144.531
54.65000 147.161
54.66000 148.667
54.67000 143.588
54.68000 137.437
54.69000 132.836
54.70000 134.230
54.71000 136.219
54.72000 137.680
54.73000 141.876
54.74000 145.231
54.75000 146.536
54.76000 144.165
54.77000 141.720
54.78000 140.019
54.79000 139.214
54.80000 138.413
54.81000 138.915
54.82000 140.429
54.83000 141.965
54.84000 144.437
54.85000 147.402
54.86000 150.089
54.87000 148.043
54.88000 144.293
54.89000 140.841
54.90000 140.797
54.91000 141.502
54.92000 142.666
54.93000 146.471
54.94000 150.698
54.95000 153.323
54.96000 149.872
54.97000 145.832
54.98000 142.880
54.99000 144.309
55.00000 145.583
55.01000 148.025
55.02000 152.527
55.03000 157.068
55.04000 159.545
55.05000 159.588
55.06000 159.626
55.07000 157.920
55.08000 154.891
55.09000 151.926
55.10000 151.444
55.11000 152.249
55.12000 152.896
55.13000 150.944
55.14000 148.072
55.15000 145.435
55.16000 145.730
55.17000 146.621
55.18000 148.498
55.19000 155.934
55.20000 164.239
55.21000 170.188
55.22000 167.349
55.23000 163.680
55.24000 161.012
55.25000 156.582
55.26000 153.108
55.27000 151.519
55.28000 153.195
55.29000 154.929
55.30000 156.127
55.31000 156.705
55.32000 157.279
55.33000 160.299
55.34000 165.128
55.35000 169.968
55.36000 175.232
55.37000 180.712
55.38000 185.792
55.39000 184.455
55.40000 180.885
55.41000 177.614
55.42000 180.595
55.43000 184.560
55.44000 188.380
55.45000 191.403
55.46000 194.304
55.47000 198.178
55.48000 205.616
55.49000 213.382
55.50000 218.998
55.51000 223.737
55.52000 227.341
55.53000 231.898
55.54000 238.076
55.55000 244.282
55.56000 251.116
55.57000 258.666
55.58000 266.193
55.59000 276.645
55.60000 289.166
55.61000 301.601
55.62000 310.937
55.63000 318.723
55.64000 326.722
55.65000 338.028
55.66000 350.465
55.67000 361.836
55.68000 372.162
55.69000 381.123
55.70000 390.379
55.71000 401.231
55.72000 412.322
55.73000 423.851
55.74000 436.951
55.75000 450.193
55.76000 459.719
55.77000 470.567
55.78000 478.918
55.79000 489.635
55.80000 504.313
55.81000 519.053
55.82000 534.932
55.83000 552.082
55.84000 569.172
55.85000 586.713
55.86000 604.428
55.87000 621.789
55.88000 627.035
55.89000 626.324
55.90000 625.892
55.91000 629.678
55.92000 634.881
55.93000 639.628
55.94000 635.963
55.95000 631.022
55.96000 627.559
55.97000 631.955
55.98000 637.506
55.99000 641.136
56.00000 637.981
56.01000 634.232
56.02000 631.549
56.03000 604.594
56.04000 583.193
56.05000 564.588
56.06000 550.578
56.07000 536.634
56.08000 527.775
56.09000 524.468
56.10000 521.178
56.11000 508.080
56.12000 488.175
56.13000 468.373
56.14000 451.918
56.15000 437.080
56.16000 422.074
56.17000 404.603
56.18000 386.317
56.19000 369.676
56.20000 359.231
56.21000 351.208
56.22000 342.268
56.23000 328.543
56.24000 314.129
56.25000 301.347
56.26000 294.230
56.27000 287.597
56.28000 282.875
56.29000 270.809
56.30000 261.380
56.31000 249.014
56.32000 231.906
56.33000 214.733
56.34000 206.602
56.35000 208.154
56.36000 209.702
56.37000 206.638
56.38000 200.408
56.39000 194.256
56.40000 190.551
56.41000 188.009
56.42000 185.387
56.43000 181.634
56.44000 177.514
56.45000 173.774
56.46000 172.378
56.47000 171.598
56.48000 170.459
56.49000 167.478
56.50000 164.239
56.51000 161.874
56.52000 162.493
56.53000 163.360
56.54000 163.973
56.55000 158.926
56.56000 154.914
56.57000 152.777
56.58000 153.615
56.59000 154.490
56.60000 151.917
56.61000 145.722
56.62000 139.557
56.63000 136.442
56.64000 135.436
56.65000 134.614
56.66000 139.265
56.67000 146.472
56.68000 153.032
56.69000 150.659
56.70000 145.435
56.71000 140.703
56.72000 137.417
56.73000 134.795
56.74000 133.033
56.75000 135.586
56.76000 138.733
56.77000 140.362
56.78000 136.898
56.79000 133.024
56.80000 130.296
56.81000 131.591
56.82000 132.692
56.83000 133.153
56.84000 132.616
56.85000 132.067
56.86000 129.470
56.87000 124.764
56.88000 120.084
56.89000 121.734
56.90000 127.587
56.91000 133.318
56.92000 135.536
56.93000 136.142
56.94000 136.621
56.95000 135.402
56.96000 133.650
56.97000 132.067
56.98000 130.586
56.99000 129.301
57.00000 128.419
57.01000 129.515
57.02000 130.877
57.03000 131.759
57.04000 131.060
57.05000 130.236
57.06000 129.659
57.07000 130.644
57.08000 131.433
57.09000 131.956
57.10000 132.074
57.11000 132.187
57.12000 131.625
57.13000 130.383
57.14000 129.149
57.15000 128.650
57.16000 128.639
57.17000 128.539
57.18000 125.972
57.19000 122.292
57.20000 119.134
57.21000 122.776
57.22000 128.514
57.23000 133.686
57.24000 132.386
57.25000 130.072
57.26000 127.810
57.27000 125.800
57.28000 123.823
57.29000 122.959
57.30000 125.696
57.31000 128.708
57.32000 130.805
57.33000 129.251
57.34000 127.980
57.35000 129.048
57.36000 133.635
57.37000 138.258
57.38000 139.618
57.39000 137.752
57.40000 135.899
57.41000 134.264
57.42000 132.795
57.43000 131.434
57.44000 132.971
57.45000 135.792
57.46000 138.296
57.47000 136.771
57.48000 134.027
57.49000 131.559
57.50000 130.405
57.51000 129.627
57.52000 128.952
57.53000 128.766
57.54000 128.644
57.55000 128.248
57.56000 126.983
57.57000 125.653
57.58000 124.732
57.59000 121.022
57.60000 118.157
57.61000 119.522
57.62000 127.133
57.63000 134.800
57.64000 134.977
57.65000 127.892
57.66000 120.858
57.67000 118.940
57.68000 120.277
57.69000 121.677
57.70000 124.686
57.71000 128.397
57.72000 132.063
57.73000 135.179
57.74000 138.132
57.75000 140.779
57.76000 135.219
57.77000 128.934
57.78000 124.563
57.79000 129.096
57.80000 134.752
57.81000 137.742
57.82000 132.396
57.83000 126.448
57.84000 122.354
57.85000 122.664
57.86000 123.007
57.87000 122.999
57.88000 122.481
57.89000 121.959
57.90000 122.968
57.91000 125.434
57.92000 127.880
57.93000 129.872
57.94000 131.549
57.95000 133.059
57.96000 130.501
57.97000 126.198
57.98000 122.174
57.99000 121.496
58.00000 121.797
58.01000 122.065
58.02000 125.092
58.03000 128.200
58.04000 130.068
58.05000 126.276
58.06000 121.786
58.07000 118.383
58.08000 118.326
58.09000 118.503
58.10000 118.624
58.11000 118.505
58.12000 118.410
58.13000 117.945
58.14000 116.953
58.15000 115.957
58.16000 115.737
58.17000 116.240
58.18000 116.739
58.19000 117.787
58.20000 119.147
58.21000 120.432
58.22000 119.946
58.23000 118.715
58.24000 117.520
58.25000 116.748
58.26000 116.098
58.27000 115.518
58.28000 119.526
58.29000 123.777
58.30000 126.638
58.31000 123.269
58.32000 119.148
58.33000 117.326
58.34000 122.444
58.35000 128.035
58.36000 131.839
58.37000 122.969
58.38000 116.058
58.39000 111.811
58.40000 111.292
58.41000 110.799
58.42000 112.710
58.43000 116.817
58.44000 120.887
58.45000 120.266
58.46000 116.865
58.47000 113.687
58.48000 115.556
58.49000 119.517
58.50000 123.048
58.51000 121.686
58.52000 118.943
58.53000 116.502
58.54000 117.518
58.55000 118.964
58.56000 120.154
58.57000 120.219
58.58000 120.150
58.59000 120.493
58.60000 122.059
58.61000 123.705
58.62000 124.819
58.63000 123.953
58.64000 123.266
58.65000 122.190
58.66000 120.583
58.67000 118.972
58.68000 118.643
58.69000 119.461
58.70000 120.272
58.71000 123.480
58.72000 128.021
58.73000 132.148
58.74000 127.225
58.75000 118.618
58.76000 110.883
58.77000 112.825
58.78000 117.452
58.79000 121.558
58.80000 119.973
58.81000 117.692
58.82000 116.435
58.83000 119.603
58.84000 123.281
58.85000 126.104
58.86000 126.434
58.87000 126.603
58.88000 126.717
58.89000 122.733
58.90000 119.689
58.91000 119.057
58.92000 121.676
58.93000 124.310
58.94000 123.565
58.95000 119.850
58.96000 116.173
58.97000 115.267
58.98000 115.967
58.99000 116.685
59.00000 117.752
59.01000 118.959
59.02000 120.061
59.03000 120.042
59.04000 119.717
59.05000 119.429
59.06000 117.432
59.07000 115.439
59.08000 113.587
59.09000 112.332
59.10000 111.143
59.11000 110.105
59.12000 109.499
59.13000 108.919
59.14000 108.531
59.15000 114.561
59.16000 119.155
59.17000 122.316
59.18000 123.579
59.19000 124.830
59.20000 123.812
59.21000 120.837
59.22000 117.896
59.23000 119.183
59.24000 122.818
59.25000 126.371
59.26000 128.239
59.27000 129.445
59.28000 130.347
59.29000 128.050
59.30000 124.897
59.31000 122.114
59.32000 120.199
59.33000 118.679
59.34000 117.889
59.35000 120.136
59.36000 122.717
59.37000 124.224
59.38000 122.707
59.39000 121.008
59.40000 119.879
59.41000 118.718
59.42000 117.859
59.43000 117.040
59.44000 116.273
59.45000 115.505
59.46000 114.151
59.47000 112.302
59.48000 110.475
59.49000 112.982
59.50000 117.820
59.51000 122.436
59.52000 122.721
59.53000 121.330
59.54000 120.030
59.55000 119.666
59.56000 119.549
59.57000 119.445
59.58000 120.772
59.59000 122.128
59.60000 123.678
59.61000 126.027
59.62000 128.461
59.63000 129.490
59.64000 126.626
59.65000 123.535
59.66000 121.496
59.67000 120.582
59.68000 119.927
59.69000 120.106
59.70000 121.347
59.71000 122.592
59.72000 124.069
59.73000 125.737
59.74000 127.384
59.75000 127.775
59.76000 127.474
59.77000 127.053
59.78000 124.375
59.79000 120.838
59.80000 117.499
59.81000 116.141
59.82000 115.294
59.83000 114.551
59.84000 114.196
59.85000 113.948
59.86000 113.970
59.87000 115.078
59.88000 116.300
59.89000 117.276
59.90000 117.583
59.91000 117.852
59.92000 118.028
59.93000 120.081
59.94000 121.622
59.95000 122.313
59.96000 121.941
59.97000 121.570
59.98000 122.654
59.99000 124.923
60.00000 127.162
60.01000 124.930
60.02000 120.383
60.03000 116.125
60.04000 117.150
60.05000 120.150
60.06000 122.593
60.07000 119.582
60.08000 115.187
60.09000 111.341
60.10000 113.560
60.11000 116.328
60.12000 119.157
60.13000 122.227
60.14000 125.322
60.15000 126.401
60.16000 122.082
60.17000 117.467
60.18000 114.461
60.19000 117.703
60.20000 120.178
60.21000 120.951
60.22000 119.631
60.23000 118.302
60.24000 116.034
60.25000 113.015
60.26000 110.039
60.27000 108.746
60.28000 108.369
60.29000 108.146
60.30000 110.653
60.31000 114.163
60.32000 117.094
60.33000 114.497
60.34000 110.522
60.35000 107.054
60.36000 108.577
60.37000 110.577
60.38000 112.378
60.39000 113.411
60.40000 114.367
60.41000 115.081
60.42000 115.159
60.43000 115.204
60.44000 115.233
60.45000 119.466
60.46000 122.625
60.47000 122.638
60.48000 118.856
60.49000 115.073
60.50000 113.307
60.51000 113.123
60.52000 112.941
60.53000 113.132
60.54000 113.509
60.55000 113.950
60.56000 115.515
60.57000 117.484
60.58000 119.321
60.59000 119.920
60.60000 120.215
60.61000 120.473
60.62000 125.844
60.63000 131.127
60.64000 133.858
60.65000 126.879
60.66000 118.954
60.67000 113.675
60.68000 115.238
60.69000 117.151
60.70000 118.381
60.71000 120.297
60.72000 121.705
60.73000 124.533
60.74000 129.041
60.75000 133.528
60.76000 132.270
60.77000 126.588
60.78000 120.999
60.79000 120.467
60.80000 122.494
60.81000 124.444
60.82000 125.109
60.83000 125.318
60.84000 125.378
60.85000 124.090
60.86000 122.478
60.87000 121.079
60.88000 115.268
60.89000 109.731
60.90000 105.859
60.91000 108.214
60.92000 111.160
60.93000 114.567
60.94000 119.146
60.95000 123.784
60.96000 126.746
60.97000 125.147
60.98000 123.925
60.99000 124.320
61.00000 126.595
61.01000 128.855
61.02000 127.571
61.03000 123.610
61.04000 119.717
61.05000 117.741
61.06000 116.778
61.07000 115.796
61.08000 114.524
61.09000 113.151
61.10000 112.218
61.11000 115.195
61.12000 119.095
61.13000 122.467
61.14000 120.271
61.15000 117.678
61.16000 115.744
61.17000 116.227
61.18000 116.933
61.19000 117.370
61.20000 117.131
61.21000 116.860
61.22000 116.688
61.23000 120.592
61.24000 123.475
61.25000 123.843
61.26000 121.349
61.27000 118.863
61.28000 118.534
61.29000 119.804
61.30000 121.051
61.31000 125.059
61.32000 130.264
61.33000 134.979
61.34000 132.057
61.35000 126.516
61.36000 121.532
61.37000 121.399
61.38000 122.388
61.39000 123.242
61.40000 123.364
61.41000 123.375
61.42000 123.599
61.43000 124.591
61.44000 125.653
61.45000 127.210
61.46000 129.982
61.47000 132.810
61.48000 134.592
61.49000 143.886
61.50000 150.699
61.51000 155.414
61.52000 157.787
61.53000 160.200
61.54000 169.574
61.55000 184.019
61.56000 198.189
61.57000 211.000
61.58000 222.699
61.59000 233.961
61.60000 238.626
61.61000 241.065
61.62000 244.466
61.63000 256.033
61.64000 269.456
61.65000 280.994
61.66000 283.960
61.67000 285.402
61.68000 287.144
61.69000 289.954
61.70000 292.857
61.71000 293.476
61.72000 288.576
61.73000 283.432
61.74000 280.213
61.75000 264.766
61.76000 253.485
61.77000 243.240
61.78000 234.129
61.79000 225.015
61.80000 215.290
61.81000 205.128
61.82000 195.170
61.83000 182.399
61.84000 168.802
61.85000 155.801
61.86000 151.565
61.87000 150.233
61.88000 148.882
61.89000 147.383
61.90000 145.851
61.91000 144.538
61.92000 138.432
61.93000 132.693
61.94000 128.769
61.95000 131.165
61.96000 134.102
61.97000 135.404
61.98000 132.819
61.99000 130.069
62.00000 128.360
62.01000 131.580
62.02000 133.947
62.03000 136.995
62.04000 140.774
62.05000 144.515
62.06000 143.238
62.07000 138.436
62.08000 133.734
62.09000 129.780
62.10000 126.323
62.11000 123.088
62.12000 122.995
62.13000 123.926
62.14000 124.859
62.15000 125.807
62.16000 126.758
62.17000 127.571
62.18000 127.705
62.19000 127.737
62.20000 127.740
62.21000 127.643
62.22000 127.538
62.23000 128.251
62.24000 130.875
62.25000 133.577
62.26000 135.244
62.27000 136.413
62.28000 137.248
62.29000 135.340
62.30000 130.545
62.31000 125.792
62.32000 126.264
62.33000 130.341
62.34000 134.328
62.35000 130.611
62.36000 123.589
62.37000 117.160
62.38000 118.967
62.39000 123.409
62.40000 127.168
62.41000 125.506
62.42000 122.678
62.43000 120.270
62.44000 123.868
62.45000 127.589
62.46000 129.763
62.47000 126.736
62.48000 123.286
62.49000 120.862
62.50000 120.792
62.51000 120.815
62.52000 120.829
62.53000 127.246
62.54000 131.896
62.55000 133.981
62.56000 133.420
62.57000 132.877
62.58000 134.468
62.59000 137.504
62.60000 140.469
62.61000 141.145
62.62000 140.783
62.63000 140.235
62.64000 137.183
62.65000 133.344
62.66000 129.986
62.67000 130.365
62.68000 131.533
62.69000 132.525
62.70000 127.079
62.71000 121.781
62.72000 118.695
62.73000 122.913
62.74000 127.707
62.75000 130.839
62.76000 130.221
62.77000 129.460
62.78000 128.998
62.79000 137.184
62.80000 143.096
62.81000 142.689
62.82000 135.884
62.83000 129.152
62.84000 129.735
62.85000 135.186
62.86000 140.505
62.87000 139.373
62.88000 135.502
62.89000 131.775
62.90000 129.947
62.91000 128.705
62.92000 127.550
62.93000 127.058
62.94000 126.702
62.95000 126.402
62.96000 129.815
62.97000 133.082
62.98000 134.655
62.99000 130.731
63.00000 126.384
63.01000 124.010
63.02000 126.008
63.03000 128.166
63.04000 129.468
63.05000 136.720
63.06000 141.927
63.07000 141.210
63.08000 134.619
63.09000 128.108
63.10000 129.029
63.11000 134.809
63.12000 140.443
63.13000 140.444
63.14000 138.056
63.15000 135.391
63.16000 129.193
63.17000 121.923
63.18000 116.073
63.19000 120.763
63.20000 127.597
63.21000 133.357
63.22000 134.770
63.23000 135.479
63.24000 135.986
63.25000 135.847
63.26000 135.660
63.27000 134.932
63.28000 133.025
63.29000 131.076
63.30000 129.908
63.31000 132.665
63.32000 134.647
63.33000 136.314
63.34000 137.673
63.35000 138.969
63.36000 134.891
63.37000 127.362
63.38000 120.033
63.39000 118.124
63.40000 118.564
63.41000 119.268
63.42000 123.247
63.43000 128.202
63.44000 132.731
63.45000 134.164
63.46000 134.979
63.47000 135.664
63.48000 137.044
63.49000 138.267
63.50000 138.147
63.51000 133.822
63.52000 129.191
63.53000 127.940
63.54000 133.932
63.55000 140.167
63.56000 143.874
63.57000 140.705
63.58000 138.419
63.59000 135.056
63.60000 130.666
63.61000 126.359
63.62000 128.633
63.63000 135.060
63.64000 141.309
63.65000 140.635
63.66000 137.165
63.67000 134.066
63.68000 135.455
63.69000 138.161
63.70000 140.764
63.71000 142.640
63.72000 144.375
63.73000 145.827
63.74000 143.001
63.75000 140.210
63.76000 137.747
63.77000 136.291
63.78000 134.906
63.79000 135.584
63.80000 140.607
63.81000 145.770
63.82000 148.816
63.83000 142.998
63.84000 138.844
63.85000 138.408
63.86000 141.446
63.87000 144.435
63.88000 143.761
63.89000 140.817
63.90000 137.959
63.91000 138.851
63.92000 141.201
63.93000 143.418
63.94000 144.053
63.95000 144.234
63.96000 144.499
63.97000 145.352
63.98000 146.318
63.99000 147.124
64.00000 144.360
64.01000 141.709
64.02000 140.314
64.03000 142.721
64.04000 145.387
64.05000 147.125
64.06000 146.942
64.07000 146.700
64.08000 146.558
64.09000 142.233
64.10000 139.170
64.11000 140.778
64.12000 146.666
64.13000 152.467
64.14000 152.313
64.15000 148.533
64.16000 144.867
64.17000 142.885
64.18000 141.670
64.19000 140.654
64.20000 141.898
64.21000 143.784
64.22000 145.705
64.23000 147.872
64.24000 150.085
64.25000 151.925
64.26000 152.066
64.27000 152.017
64.28000 151.826
64.29000 151.212
64.30000 150.569
64.31000 149.749
64.32000 148.568
64.33000 147.376
64.34000 146.683
64.35000 152.163
64.36000 156.037
64.37000 158.909
64.38000 160.882
64.39000 162.771
64.40000 159.280
64.41000 152.571
64.42000 146.073
64.43000 147.067
64.44000 150.902
64.45000 154.489
64.46000 155.324
64.47000 155.393
64.48000 155.657
64.49000 157.220
64.50000 159.024
64.51000 160.518
64.52000 162.573
64.53000 164.324
64.54000 165.255
64.55000 163.789
64.56000 162.169
64.57000 161.501
64.58000 162.739
64.59000 164.030
64.60000 164.773
64.61000 163.610
64.62000 162.786
64.63000 159.802
64.64000 154.915
64.65000 150.182
64.66000 154.710
64.67000 164.681
64.68000 174.327
64.69000 173.554
64.70000 168.875
64.71000 164.448
64.72000 162.761
64.73000 161.823
64.74000 160.964
64.75000 160.622
64.76000 160.373
64.77000 160.168
64.78000 162.940
64.79000 165.502
64.80000 168.507
64.81000 172.790
64.82000 177.152
64.83000 179.357
64.84000 177.321
64.85000 175.172
64.86000 173.944
64.87000 181.195
64.88000 186.280
64.89000 187.061
64.90000 184.119
64.91000 181.154
64.92000 176.884
64.93000 171.861
64.94000 167.007
64.95000 171.341
64.96000 178.843
64.97000 185.825
64.98000 187.299
64.99000 187.295
65.00000 187.348
65.01000 187.770
65.02000 188.257
65.03000 188.659
65.04000 189.975
65.05000 191.141
65.06000 192.228
65.07000 193.092
65.08000 193.943
65.09000 195.633
65.10000 198.945
65.11000 202.298
65.12000 204.199
65.13000 199.781
65.14000 196.692
65.15000 196.498
65.16000 198.757
65.17000 201.049
65.18000 205.052
65.19000 210.027
65.20000 214.826
65.21000 213.436
65.22000 209.871
65.23000 206.695
65.24000 207.551
65.25000 209.469
65.26000 212.288
65.27000 220.755
65.28000 230.204
65.29000 237.948
65.30000 233.443
65.31000 228.666
65.32000 227.154
65.33000 234.709
65.34000 242.797
65.35000 248.148
65.36000 248.303
65.37000 248.333
65.38000 248.350
65.39000 243.275
65.40000 239.760
65.41000 246.056
65.42000 260.517
65.43000 274.761
65.44000 278.115
65.45000 275.393
65.46000 272.771
65.47000 273.190
65.48000 274.672
65.49000 276.372
65.50000 280.263
65.51000 284.721
65.52000 290.122
65.53000 301.316
65.54000 313.498
65.55000 323.445
65.56000 324.661
65.57000 324.905
65.58000 327.206
65.59000 335.126
65.60000 343.365
65.61000 354.204
65.62000 369.898
65.63000 385.703
65.64000 394.513
65.65000 429.480
65.66000 453.779
65.67000 497.330
65.68000 556.603
65.69000 616.195
65.70000 690.919
65.71000 773.939
65.72000 853.800
65.73000 968.673
65.74000 1088.680
65.75000 1208.385
65.76000 1325.123
65.77000 1441.106
65.78000 1552.133
65.79000 1633.323
65.80000 1709.525
65.81000 1771.510
65.82000 1810.469
65.83000 1840.345
65.84000 1862.848
65.85000 1865.562
65.86000 1867.188
65.87000 1866.349
65.88000 1860.986
65.89000 1855.526
65.90000 1852.508
65.91000 1839.284
65.92000 1829.970
65.93000 1762.648
65.94000 1648.836
65.95000 1535.016
65.96000 1420.847
65.97000 1306.490
65.98000 1196.643
65.99000 1074.107
66.00000 955.051
66.01000 840.044
66.02000 763.848
66.03000 697.349
66.04000 633.028
66.05000 581.554
66.06000 532.184
66.07000 492.177
66.08000 454.685
66.09000 424.350
66.10000 400.279
66.11000 392.730
66.12000 386.061
66.13000 378.742
66.14000 370.252
66.15000 361.739
66.16000 357.074
66.17000 347.218
66.18000 340.460
66.19000 341.714
66.20000 349.270
66.21000 356.843
66.22000 365.124
66.23000 373.780
66.24000 382.082
66.25000 393.483
66.26000 405.182
66.27000 416.763
66.28000 427.241
66.29000 437.450
66.30000 449.558
66.31000 472.652
66.32000 497.511
66.33000 517.579
66.34000 537.444
66.35000 553.573
66.36000 567.453
66.37000 575.502
66.38000 583.251
66.39000 589.722
66.40000 593.929
66.41000 598.093
66.42000 600.354
66.43000 587.293
66.44000 578.338
66.45000 573.962
66.46000 573.121
66.47000 572.096
66.48000 563.656
66.49000 551.358
66.50000 539.581
66.51000 523.026
66.52000 506.005
66.53000 487.994
66.54000 460.946
66.55000 431.720
66.56000 405.148
66.57000 393.625
66.58000 384.470
66.59000 377.109
66.60000 367.828
66.61000 360.155
66.62000 353.782
66.63000 350.728
66.64000 347.837
66.65000 344.825
66.66000 341.601
66.67000 338.374
66.68000 336.636
66.69000 343.350
66.70000 347.924
66.71000 347.653
66.72000 343.710
66.73000 339.847
66.74000 339.068
66.75000 339.867
66.76000 340.630
66.77000 344.384
66.78000 348.851
66.79000 352.906
66.80000 353.288
66.81000 352.802
66.82000 352.113
66.83000 350.303
66.84000 348.320
66.85000 346.732
66.86000 341.368
66.87000 336.745
66.88000 334.505
66.89000 338.239
66.90000 342.260
66.91000 347.099
66.92000 353.339
66.93000 359.603
66.94000 362.944
66.95000 367.354
66.96000 370.332
66.97000 368.138
66.98000 362.096
66.99000 356.181
67.00000 354.906
67.01000 355.963
67.02000 356.972
67.03000 361.543
67.04000 366.927
67.05000 371.337
67.06000 367.249
67.07000 361.188
67.08000 356.304
67.09000 357.835
67.10000 360.334
67.11000 362.328
67.12000 371.762
67.13000 379.921
67.14000 387.062
67.15000 391.695
67.16000 396.213
67.17000 395.410
67.18000 385.661
67.19000 375.769
67.20000 370.541
67.21000 377.860
67.22000 382.799
67.23000 381.296
67.24000 375.087
67.25000 369.034
67.26000 368.382
67.27000 370.400
67.28000 372.323
67.29000 371.879
67.30000 370.726
67.31000 369.844
67.32000 371.272
67.33000 373.229
67.34000 375.135
67.35000 376.776
67.36000 378.377
67.37000 379.650
67.38000 380.024
67.39000 380.262
67.40000 379.818
67.41000 377.723
67.42000 375.555
67.43000 377.528
67.44000 386.344
67.45000 395.261
67.46000 399.930
67.47000 408.086
67.48000 413.596
67.49000 416.935
67.50000 418.718
67.51000 420.368
67.52000 417.608
67.53000 412.706
67.54000 408.041
67.55000 410.260
67.56000 414.430
67.57000 418.702
67.58000 423.822
67.59000 429.133
67.60000 433.357
67.61000 431.880
67.62000 429.579
67.63000 427.758
67.64000 426.307
67.65000 425.167
67.66000 424.869
67.67000 426.578
67.68000 428.372
67.69000 429.547
67.70000 429.716
67.71000 429.871
67.72000 429.951
67.73000 449.371
67.74000 462.420
67.75000 467.028
67.76000 465.689
67.77000 464.289
67.78000 460.952
67.79000 456.691
67.80000 452.642
67.81000 455.592
67.82000 460.427
67.83000 464.657
67.84000 463.965
67.85000 462.191
67.86000 460.614
67.87000 460.054
67.88000 459.637
67.89000 459.309
67.90000 462.134
67.91000 464.609
67.92000 466.313
67.93000 466.209
67.94000 466.031
67.95000 468.249
67.96000 474.289
67.97000 480.378
67.98000 483.507
67.99000 477.591
68.00000 473.663
68.01000 476.201
68.02000 483.212
68.03000 490.237
68.04000 497.698
68.05000 505.363
68.06000 512.633
68.07000 515.004
68.08000 515.740
68.09000 515.659
68.10000 509.078
68.11000 501.093
68.12000 496.339
68.13000 507.876
68.14000 521.674
68.15000 532.500
68.16000 524.247
68.17000 516.403
68.18000 511.170
68.19000 511.947
68.20000 512.961
68.21000 515.123
68.22000 519.080
68.23000 523.059
68.24000 525.083
68.25000 534.667
68.26000 541.127
68.27000 551.265
68.28000 563.902
68.29000 575.914
68.30000 569.763
68.31000 555.232
68.32000 541.474
68.33000 555.418
68.34000 576.287
68.35000 595.264
68.36000 599.521
68.37000 600.660
68.38000 600.758
68.39000 595.702
68.40000 589.946
68.41000 585.448
68.42000 590.993
68.43000 596.052
68.44000 601.181
68.45000 606.470
68.46000 611.765
68.47000 619.063
68.48000 629.444
68.49000 639.858
68.50000 645.104
68.51000 660.857
68.52000 671.402
68.53000 683.722
68.54000 697.227
68.55000 710.984
68.56000 731.789
68.57000 755.790
68.58000 778.473
68.59000 796.205
68.60000 811.080
68.61000 826.600
68.62000 847.033
68.63000 868.487
68.64000 896.504
68.65000 956.392
68.66000 1020.511
68.67000 1070.398
68.68000 1113.340
68.69000 1147.097
68.70000 1181.571
68.71000 1217.635
68.72000 1253.757
68.73000 1285.585
68.74000 1310.922
68.75000 1336.194
68.76000 1378.398
68.77000 1437.447
68.78000 1496.424
68.79000 1548.603
68.80000 1596.326
68.81000 1644.351
68.82000 1700.426
68.83000 1760.090
68.84000 1816.380
68.85000 1881.406
68.86000 1943.448
68.87000 2018.687
68.88000 2192.209
68.89000 2385.769
68.90000 2624.861
68.91000 3080.973
68.92000 3565.272
68.93000 3940.437
68.94000 5573.669
68.95000 6945.675
68.96000 8715.184
68.97000 11353.370
68.98000 14022.086
68.99000 16959.566
69.00000 20296.098
69.01000 23636.285
69.02000 26758.443
69.03000 29667.838
69.04000 32568.865
69.05000 34743.938
69.06000 36451.602
69.07000 38129.922
69.08000 39055.234
69.09000 39650.512
69.10000 40211.105
69.11000 40875.121
69.12000 41510.875
69.13000 42155.473
69.14000 42864.543
69.15000 43586.508
69.16000 44241.059
69.17000 44580.285
69.18000 44879.453
69.19000 45110.188
69.20000 43594.445
69.21000 42292.641
69.22000 40464.266
69.23000 37504.711
69.24000 34507.066
69.25000 31821.180
69.26000 29589.922
69.27000 27362.682
69.28000 25514.539
69.29000 24029.025
69.30000 22551.203
69.31000 21690.824
69.32000 21220.980
69.33000 20756.619
69.34000 20427.469
69.35000 20156.572
69.36000 19901.928
69.37000 19275.426
69.38000 18603.592
69.39000 17851.186
69.40000 16524.139
69.41000 15084.321
69.42000 13572.285
69.43000 11728.702
69.44000 9843.935
69.45000 8396.743
69.46000 6803.825
69.47000 5536.473
69.48000 4435.008
69.49000 3683.839
69.50000 2943.961
69.51000 2374.688
69.52000 2049.744
69.53000 1726.735
69.54000 1514.112
69.55000 1404.977
69.56000 1296.159
69.57000 1210.942
69.58000 1140.392
69.59000 1070.582
69.60000 1018.332
69.61000 973.521
69.62000 931.476
69.63000 890.496
69.64000 853.436
69.65000 818.927
69.66000 802.237
69.67000 788.977
69.68000 775.202
69.69000 759.105
69.70000 742.726
69.71000 730.207
69.72000 707.491
69.73000 689.023
69.74000 673.656
69.75000 664.722
69.76000 655.987
69.77000 645.758
69.78000 633.429
69.79000 621.088
69.80000 610.125
69.81000 600.434
69.82000 590.704
69.83000 578.229
69.84000 564.079
69.85000 550.357
69.86000 546.439
69.87000 546.602
69.88000 546.755
69.89000 548.117
69.90000 549.668
69.91000 550.226
69.92000 543.990
69.93000 536.471
69.94000 528.478
69.95000 518.381
69.96000 508.035
69.97000 500.163
69.98000 504.482
69.99000 508.521
70.00000 505.832
