20.00000 477.066
20.01000 479.567
20.02000 482.425
20.03000 484.231
20.04000 481.886
20.05000 479.118
20.06000 477.074
20.07000 488.193
20.08000 497.369
20.09000 500.834
20.10000 493.853
20.11000 486.648
20.12000 479.107
20.13000 471.152
20.14000 463.210
20.15000 463.558
20.16000 470.497
20.17000 477.344
20.18000 480.065
20.19000 480.569
20.20000 480.907
20.21000 478.302
20.22000 474.616
20.23000 471.215
20.24000 469.905
20.25000 469.199
20.26000 468.066
20.27000 464.428
20.28000 460.381
20.29000 457.181
20.30000 457.256
20.31000 457.658
20.32000 457.953
20.33000 460.830
20.34000 463.161
20.35000 464.965
20.36000 465.823
20.37000 466.662
20.38000 468.896
20.39000 472.811
20.40000 476.722
20.41000 477.895
20.42000 476.926
20.43000 475.983
20.44000 476.114
20.45000 476.813
20.46000 476.963
20.47000 467.702
20.48000 455.043
20.49000 443.389
20.50000 442.116
20.51000 443.249
20.52000 444.705
20.53000 448.026
20.54000 451.646
20.55000 455.954
20.56000 462.880
20.57000 470.062
20.58000 475.311
20.59000 469.528
20.60000 464.631
20.61000 462.920
20.62000 466.836
20.63000 470.859
20.64000 472.809
20.65000 472.308
20.66000 471.803
20.67000 469.289
20.68000 465.253
20.69000 461.299
20.70000 460.642
20.71000 461.694
20.72000 462.732
20.73000 463.525
20.74000 464.233
20.75000 464.882
20.76000 463.354
20.77000 461.524
20.78000 461.094
20.79000 468.576
20.80000 477.298
20.81000 482.257
20.82000 473.155
20.83000 462.719
20.84000 455.128
20.85000 457.880
20.86000 460.391
20.87000 460.111
20.88000 454.984
20.89000 449.771
20.90000 445.096
20.91000 441.046
20.92000 437.008
20.93000 440.895
20.94000 450.702
20.95000 460.379
20.96000 465.069
20.97000 467.216
20.98000 469.624
20.99000 476.242
21.00000 484.327
21.01000 491.737
21.02000 482.216
21.03000 470.179
21.04000 459.504
21.05000 456.373
21.06000 454.400
21.07000 454.476
21.08000 462.067
21.09000 470.354
21.10000 476.350
21.11000 471.451
21.12000 467.292
21.13000 464.973
21.14000 465.793
21.15000 466.666
21.16000 468.093
21.17000 470.151
21.18000 472.204
21.19000 471.763
21.20000 469.489
21.21000 467.296
21.22000 468.035
21.23000 470.244
21.24000 471.994
21.25000 466.593
21.26000 458.740
21.27000 451.558
21.28000 446.448
21.29000 442.333
21.30000 439.938
21.31000 446.889
21.32000 455.245
21.33000 462.730
21.34000 467.068
21.35000 471.122
21.36000 474.041
21.37000 467.985
21.38000 463.033
21.39000 460.270
21.40000 461.177
21.41000 462.142
21.42000 460.417
21.43000 455.689
21.44000 450.975
21.45000 453.717
21.46000 461.819
21.47000 469.644
21.48000 467.905
21.49000 461.452
21.50000 455.575
21.51000 458.414
21.52000 464.190
21.53000 469.461
21.54000 462.997
21.55000 454.898
21.56000 448.557
21.57000 451.578
21.58000 455.979
21.59000 459.614
21.60000 460.535
21.61000 461.218
21.62000 461.707
21.63000 476.410
21.64000 488.121
21.65000 491.824
21.66000 482.334
21.67000 472.651
21.68000 468.718
21.69000 471.082
21.70000 473.440
21.71000 473.584
21.72000 472.157
21.73000 470.781
21.74000 471.039
21.75000 472.090
21.76000 473.109
21.77000 473.671
21.78000 474.080
21.79000 474.453
21.80000 471.732
21.81000 468.711
21.82000 467.411
21.83000 475.103
21.84000 484.091
21.85000 490.349
21.86000 487.108
21.87000 483.054
21.88000 480.166
21.89000 494.673
21.90000 506.293
21.91000 515.000
21.92000 518.992
21.93000 522.920
21.94000 519.482
21.95000 508.135
21.96000 496.836
21.97000 495.818
21.98000 501.956
21.99000 507.985
22.00000 510.592
22.01000 511.569
22.02000 512.034
22.03000 505.207
22.04000 496.004
22.05000 487.648
22.06000 489.620
22.07000 493.362
22.08000 497.640
22.09000 504.666
22.10000 512.081
22.11000 517.018
22.12000 513.483
22.13000 509.242
22.14000 506.237
22.15000 504.054
22.16000 502.420
22.17000 504.739
22.18000 513.342
22.19000 522.025
22.20000 521.518
22.21000 511.336
22.22000 501.202
22.23000 493.799
22.24000 488.342
22.25000 482.946
22.26000 479.413
22.27000 476.751
22.28000 474.283
22.29000 474.498
22.30000 475.570
22.31000 476.542
22.32000 483.286
22.33000 490.324
22.34000 495.169
22.35000 488.985
22.36000 481.276
22.37000 474.043
22.38000 468.405
22.39000 462.898
22.40000 459.017
22.41000 465.257
22.42000 470.291
22.43000 471.748
22.44000 467.617
22.45000 463.420
22.46000 460.777
22.47000 459.736
22.48000 458.702
22.49000 458.203
22.50000 458.068
22.51000 457.805
22.52000 453.824
22.53000 448.132
22.54000 442.740
22.55000 441.370
22.56000 441.264
22.57000 441.168
22.58000 448.919
22.59000 457.194
22.60000 463.440
22.61000 459.674
22.62000 454.554
22.63000 448.886
22.64000 441.406
22.65000 433.783
22.66000 428.441
22.67000 427.226
22.68000 426.425
22.69000 432.395
22.70000 448.755
22.71000 465.228
22.72000 471.344
22.73000 466.984
22.74000 462.650
22.75000 457.755
22.76000 452.558
22.77000 447.537
22.78000 447.385
22.79000 449.433
22.80000 451.264
22.81000 450.248
22.82000 448.352
22.83000 446.642
22.84000 447.518
22.85000 448.757
22.86000 449.879
22.87000 450.435
22.88000 450.916
22.89000 450.339
22.90000 446.327
22.91000 442.051
22.92000 439.072
22.93000 442.358
22.94000 445.010
22.95000 448.100
22.96000 451.850
22.97000 455.606
22.98000 451.821
22.99000 440.560
23.00000 429.373
23.01000 427.512
23.02000 431.683
23.03000 435.877
23.04000 440.680
23.05000 445.753
23.06000 450.364
23.07000 449.081
23.08000 446.008
23.09000 443.245
23.10000 440.672
23.11000 438.453
23.12000 437.158
23.13000 440.258
23.14000 443.926
23.15000 445.496
23.16000 440.377
23.17000 434.758
23.18000 430.865
23.19000 434.296
23.20000 437.071
23.21000 439.137
23.22000 440.153
23.23000 441.159
23.24000 438.567
23.25000 432.477
23.26000 426.431
23.27000 425.553
23.28000 427.954
23.29000 430.343
23.30000 432.425
23.31000 434.372
23.32000 436.452
23.33000 440.167
23.34000 444.371
23.35000 448.142
23.36000 440.419
23.37000 431.667
23.38000 426.488
23.39000 437.975
23.40000 451.570
23.41000 458.499
23.42000 444.536
23.43000 429.059
23.44000 418.397
23.45000 427.926
23.46000 435.586
23.47000 439.541
23.48000 438.111
23.49000 436.635
23.50000 435.298
23.51000 434.094
23.52000 432.898
23.53000 433.232
23.54000 434.509
23.55000 435.966
23.56000 441.828
23.57000 449.584
23.58000 456.459
23.59000 452.715
23.60000 445.858
23.61000 439.723
23.62000 442.377
23.63000 446.191
23.64000 449.452
23.65000 450.179
23.66000 450.593
23.67000 451.108
23.68000 451.939
23.69000 452.793
23.70000 453.377
23.71000 456.576
23.72000 459.035
23.73000 463.097
23.74000 469.450
23.75000 475.818
23.76000 478.128
23.77000 476.648
23.78000 475.180
23.79000 477.793
23.80000 482.841
23.81000 487.841
23.82000 491.679
23.83000 495.027
23.84000 498.606
23.85000 504.898
23.86000 511.971
23.87000 518.283
23.88000 505.760
23.89000 491.715
23.90000 483.287
23.91000 500.094
23.92000 519.953
23.93000 534.909
23.94000 535.025
23.95000 534.127
23.96000 533.516
23.97000 523.077
23.98000 515.055
23.99000 511.594
24.00000 514.528
24.01000 517.505
24.02000 518.932
24.03000 518.939
24.04000 518.946
24.05000 516.638
24.06000 512.994
24.07000 509.429
24.08000 507.667
24.09000 506.653
24.10000 505.116
24.11000 497.588
24.12000 488.365
24.13000 480.157
24.14000 472.283
24.15000 465.499
24.16000 461.659
24.17000 470.803
24.18000 481.483
24.19000 487.590
24.20000 480.096
24.21000 471.700
24.22000 466.018
24.23000 458.026
24.24000 452.021
24.25000 451.212
24.26000 457.558
24.27000 463.940
24.28000 459.728
24.29000 446.001
24.30000 432.407
24.31000 426.412
24.32000 424.994
24.33000 423.627
24.34000 423.397
24.35000 423.630
24.36000 423.471
24.37000 418.944
24.38000 413.202
24.39000 408.106
24.40000 416.790
24.41000 426.521
24.42000 435.114
24.43000 438.783
24.44000 441.884
24.45000 443.554
24.46000 441.041
24.47000 438.259
24.48000 436.387
24.49000 426.906
24.50000 419.702
24.51000 419.010
24.52000 427.121
24.53000 435.266
24.54000 429.368
24.55000 411.099
24.56000 393.019
24.57000 391.017
24.58000 398.298
24.59000 405.299
24.60000 406.367
24.61000 405.056
24.62000 404.263
24.63000 409.089
24.64000 415.451
24.65000 421.083
24.66000 418.169
24.67000 414.312
24.68000 410.997
24.69000 409.985
24.70000 409.234
24.71000 408.794
24.72000 409.248
24.73000 409.758
24.74000 410.099
24.75000 407.311
24.76000 405.182
24.77000 401.382
24.78000 395.362
24.79000 389.345
24.80000 393.073
24.81000 405.223
24.82000 417.238
24.83000 419.330
24.84000 415.778
24.85000 412.249
24.86000 409.196
24.87000 406.331
24.88000 403.623
24.89000 402.571
24.90000 401.964
24.91000 401.428
24.92000 402.303
24.93000 403.273
24.94000 403.945
24.95000 403.372
24.96000 402.661
24.97000 403.448
24.98000 408.466
24.99000 413.741
25.00000 417.246
25.01000 417.979
25.02000 418.470
25.03000 416.044
25.04000 409.818
25.05000 403.583
25.06000 401.311
25.07000 402.400
25.08000 403.476
25.09000 403.221
25.10000 402.235
25.11000 401.217
25.12000 399.557
25.13000 397.647
25.14000 396.241
25.15000 400.017
25.16000 405.160
25.17000 409.688
25.18000 410.205
25.19000 410.049
25.20000 409.228
25.21000 405.678
25.22000 401.835
25.23000 398.261
25.24000 395.434
25.25000 392.651
25.26000 390.813
25.27000 393.839
25.28000 396.157
25.29000 397.677
25.30000 398.175
25.31000 398.668
25.32000 398.442
25.33000 397.616
25.34000 396.801
25.35000 397.395
25.36000 398.739
25.37000 399.876
25.38000 397.090
25.39000 392.808
25.40000 389.143
25.41000 391.689
25.42000 395.842
25.43000 399.488
25.44000 402.092
25.45000 404.176
25.46000 404.401
25.47000 397.145
25.48000 389.102
25.49000 385.016
25.50000 391.730
25.51000 399.057
25.52000 403.865
25.53000 404.679
25.54000 405.211
25.55000 404.247
25.56000 401.406
25.57000 398.563
25.58000 397.635
25.59000 398.269
25.60000 398.894
25.61000 392.210
25.62000 381.814
25.63000 371.981
25.64000 372.493
25.65000 376.880
25.66000 381.298
25.67000 386.016
25.68000 390.809
25.69000 395.005
25.70000 394.600
25.71000 393.592
25.72000 391.764
25.73000 386.691
25.74000 381.285
25.75000 377.882
25.76000 379.852
25.77000 382.118
25.78000 383.595
25.79000 396.610
25.80000 406.340
25.81000 411.015
25.82000 409.460
25.83000 407.879
25.84000 403.122
25.85000 395.820
25.86000 388.622
25.87000 391.046
25.88000 398.433
25.89000 405.230
25.90000 401.559
25.91000 394.033
25.92000 387.341
25.93000 388.641
25.94000 391.937
25.95000 394.814
25.96000 388.238
25.97000 381.286
25.98000 378.490
25.99000 391.826
26.00000 406.776
26.01000 417.980
26.02000 419.302
26.03000 420.099
26.04000 420.616
26.05000 400.069
26.06000 384.720
26.07000 381.372
26.08000 392.531
26.09000 403.687
26.10000 404.815
26.11000 398.058
26.12000 391.404
26.13000 389.919
26.14000 391.131
26.15000 392.108
26.16000 389.033
26.17000 384.493
26.18000 381.228
26.19000 389.892
26.20000 401.483
26.21000 411.570
26.22000 409.657
26.23000 406.379
26.24000 402.020
26.25000 393.538
26.26000 384.652
26.27000 379.073
26.28000 382.062
26.29000 385.490
26.30000 387.697
26.31000 384.061
26.32000 381.325
26.33000 380.799
26.34000 382.892
26.35000 385.003
26.36000 390.219
26.37000 397.832
26.38000 405.323
26.39000 407.399
26.40000 406.681
26.41000 405.689
26.42000 400.104
26.43000 392.886
26.44000 385.700
26.45000 378.811
26.46000 371.994
26.47000 366.078
26.48000 368.504
26.49000 371.688
26.50000 374.552
26.51000 376.220
26.52000 377.773
26.53000 377.805
26.54000 373.957
26.55000 369.917
26.56000 367.335
26.57000 376.274
26.58000 382.932
26.59000 388.455
26.60000 392.658
26.61000 396.836
26.62000 396.207
26.63000 391.935
26.64000 387.736
26.65000 387.290
26.66000 388.715
26.67000 389.887
26.68000 386.970
26.69000 382.623
26.70000 378.594
26.71000 377.399
26.72000 376.875
26.73000 376.421
26.74000 368.475
26.75000 360.739
26.76000 357.786
26.77000 372.432
26.78000 388.711
26.79000 399.646
26.80000 397.194
26.81000 394.101
26.82000 392.136
26.83000 384.433
26.84000 378.770
26.85000 374.515
26.86000 371.866
26.87000 369.244
26.88000 371.364
26.89000 377.012
26.90000 382.558
26.91000 383.111
26.92000 381.221
26.93000 379.604
26.94000 382.246
26.95000 386.353
26.96000 389.851
26.97000 388.043
26.98000 385.003
26.99000 382.381
27.00000 379.700
27.01000 377.418
27.02000 375.177
27.03000 373.083
27.04000 371.002
27.05000 369.930
27.06000 371.343
27.07000 372.871
27.08000 373.834
27.09000 368.527
27.10000 364.612
27.11000 361.098
27.12000 358.033
27.13000 355.000
27.14000 357.036
27.15000 362.775
27.16000 368.406
27.17000 372.948
27.18000 376.807
27.19000 380.071
27.20000 374.302
27.21000 365.480
27.22000 358.126
27.23000 363.276
27.24000 371.277
27.25000 378.155
27.26000 373.977
27.27000 369.058
27.28000 366.816
27.29000 374.081
27.30000 382.184
27.31000 385.402
27.32000 376.791
27.33000 367.654
27.34000 361.931
27.35000 372.265
27.36000 379.900
27.37000 383.476
27.38000 382.595
27.39000 381.684
27.40000 376.636
27.41000 368.623
27.42000 360.769
27.43000 369.836
27.44000 386.468
27.45000 401.368
27.46000 390.726
27.47000 371.603
27.48000 354.862
27.49000 357.938
27.50000 365.449
27.51000 371.887
27.52000 378.961
27.53000 385.012
27.54000 389.462
27.55000 388.324
27.56000 386.707
27.57000 383.486
27.58000 376.448
27.59000 369.247
27.60000 364.768
27.61000 367.816
27.62000 370.086
27.63000 367.210
27.64000 358.792
27.65000 350.439
27.66000 351.101
27.67000 358.111
27.68000 364.975
27.69000 368.879
27.70000 371.271
27.71000 373.430
27.72000 372.247
27.73000 369.972
27.74000 368.017
27.75000 368.656
27.76000 369.865
27.77000 370.898
27.78000 369.258
27.79000 367.558
27.80000 365.926
27.81000 364.525
27.82000 363.144
27.83000 361.613
27.84000 359.732
27.85000 357.837
27.86000 356.666
27.87000 367.642
27.88000 375.638
27.89000 375.572
27.90000 366.995
27.91000 358.473
27.92000 357.019
27.93000 360.451
27.94000 363.807
27.95000 368.252
27.96000 373.004
27.97000 377.450
27.98000 377.637
27.99000 376.458
28.00000 375.605
28.01000 377.349
28.02000 379.653
28.03000 381.615
28.04000 381.977
28.05000 382.094
28.06000 381.188
28.07000 376.830
28.08000 372.192
28.09000 368.372
28.10000 366.435
28.11000 364.573
28.12000 363.431
28.13000 362.545
28.14000 361.913
28.15000 365.334
28.16000 372.951
28.17000 380.485
28.18000 378.667
28.19000 370.498
28.20000 362.518
28.21000 356.676
28.22000 352.027
28.23000 348.254
28.24000 356.328
28.25000 368.138
28.26000 378.439
28.27000 377.006
28.28000 373.090
28.29000 369.765
28.30000 368.532
28.31000 367.736
28.32000 366.413
28.33000 363.350
28.34000 360.150
28.35000 358.244
28.36000 359.265
28.37000 360.399
28.38000 361.088
28.39000 361.825
28.40000 362.351
28.41000 364.258
28.42000 367.567
28.43000 370.822
28.44000 368.687
28.45000 362.957
28.46000 357.365
28.47000 353.884
28.48000 351.472
28.49000 349.210
28.50000 348.926
28.51000 349.253
28.52000 349.804
28.53000 352.055
28.54000 354.660
28.55000 356.863
28.56000 356.570
28.57000 356.047
28.58000 356.251
28.59000 358.817
28.60000 361.565
28.61000 363.067
28.62000 361.801
28.63000 360.433
28.64000 359.606
28.65000 363.241
28.66000 365.862
28.67000 366.549
28.68000 365.313
28.69000 364.075
28.70000 362.594
28.71000 360.955
28.72000 359.357
28.73000 354.021
28.74000 347.337
28.75000 341.509
28.76000 346.623
28.77000 355.067
28.78000 361.748
28.79000 355.307
28.80000 346.191
28.81000 338.503
28.82000 338.580
28.83000 339.486
28.84000 343.512
28.85000 357.507
28.86000 372.250
28.87000 379.193
28.88000 369.097
28.89000 358.404
28.90000 351.991
28.91000 346.385
28.92000 342.408
28.93000 338.913
28.94000 335.888
28.95000 332.953
28.96000 337.715
28.97000 347.433
28.98000 356.893
28.99000 360.228
29.00000 360.848
29.01000 361.467
29.02000 362.062
29.03000 362.651
29.04000 363.283
29.05000 364.230
29.06000 365.241
29.07000 366.090
29.08000 361.999
29.09000 358.068
29.10000 354.579
29.11000 352.477
29.12000 350.476
29.13000 349.026
29.14000 348.759
29.15000 348.532
29.16000 348.397
29.17000 354.973
29.18000 359.670
29.19000 359.755
29.20000 355.431
29.21000 351.178
29.22000 352.538
29.23000 357.448
29.24000 362.222
29.25000 366.220
29.26000 369.704
29.27000 372.186
29.28000 362.548
29.29000 349.347
29.30000 338.352
29.31000 343.083
29.32000 350.900
29.33000 357.446
29.34000 358.007
29.35000 357.856
29.36000 356.738
29.37000 352.634
29.38000 348.319
29.39000 345.864
29.40000 347.332
29.41000 348.926
29.42000 349.868
29.43000 355.019
29.44000 358.679
29.45000 359.185
29.46000 356.737
29.47000 354.308
29.48000 353.409
29.49000 353.460
29.50000 353.509
29.51000 358.519
29.52000 365.271
29.53000 371.379
29.54000 369.903
29.55000 366.237
29.56000 362.865
29.57000 361.542
29.58000 360.614
29.59000 359.839
29.60000 357.724
29.61000 355.835
29.62000 355.631
29.63000 360.538
29.64000 365.797
29.65000 368.194
29.66000 364.652
29.67000 360.927
29.68000 358.745
29.69000 363.570
29.70000 367.002
29.71000 366.863
29.72000 363.444
29.73000 360.078
29.74000 360.386
29.75000 362.936
29.76000 365.410
29.77000 366.013
29.78000 365.847
29.79000 365.929
29.80000 368.860
29.81000 372.600
29.82000 375.457
29.83000 372.283
29.84000 367.969
29.85000 364.382
29.86000 362.113
29.87000 360.364
29.88000 361.762
29.89000 372.548
29.90000 383.959
29.91000 390.110
29.92000 385.535
29.93000 380.644
29.94000 377.800
29.95000 379.876
29.96000 381.353
29.97000 379.814
29.98000 375.558
29.99000 371.428
30.00000 375.521
30.01000 384.544
30.02000 393.286
30.03000 387.657
30.04000 376.769
30.05000 367.537
30.06000 376.824
30.07000 391.274
30.08000 403.137
30.09000 397.692
30.10000 389.043
30.11000 381.874
30.12000 380.718
30.13000 380.339
30.14000 380.030
30.15000 379.925
30.16000 379.834
30.17000 380.028
30.18000 380.792
30.19000 381.573
30.20000 382.024
30.21000 370.662
30.22000 362.664
30.23000 359.454
30.24000 360.476
30.25000 361.560
30.26000 366.426
30.27000 373.520
30.28000 380.384
30.29000 376.575
30.30000 368.923
30.31000 362.148
30.32000 364.931
30.33000 370.333
30.34000 374.842
30.35000 373.507
30.36000 371.111
30.37000 369.132
30.38000 373.664
30.39000 378.006
30.40000 379.576
30.41000 373.157
30.42000 366.238
30.43000 362.894
30.44000 366.597
30.45000 370.488
30.46000 372.714
30.47000 376.135
30.48000 378.527
30.49000 380.232
30.50000 381.341
30.51000 382.417
30.52000 381.553
30.53000 379.566
30.54000 377.646
30.55000 373.831
30.56000 369.528
30.57000 365.639
30.58000 366.153
30.59000 367.852
30.60000 369.057
30.61000 367.088
30.62000 364.554
30.63000 362.469
30.64000 370.883
30.65000 378.757
30.66000 383.535
30.67000 379.547
30.68000 375.026
30.69000 369.251
30.70000 361.047
30.71000 352.782
30.72000 348.092
30.73000 352.988
30.74000 356.433
30.75000 364.379
30.76000 376.153
30.77000 387.711
30.78000 387.740
30.79000 381.210
30.80000 374.909
30.81000 376.119
30.82000 380.004
30.83000 384.126
30.84000 390.694
30.85000 397.908
30.86000 404.711
30.87000 408.926
30.88000 412.688
30.89000 415.773
30.90000 414.628
30.91000 413.314
30.92000 415.316
30.93000 426.552
30.94000 438.332
30.95000 445.710
30.96000 444.707
30.97000 443.502
30.98000 442.823
30.99000 453.797
31.00000 461.444
31.01000 469.094
31.02000 476.744
31.03000 484.438
31.04000 494.373
31.05000 505.560
31.06000 516.339
31.07000 534.319
31.08000 553.796
31.09000 572.383
31.10000 581.973
31.11000 589.229
31.12000 599.376
31.13000 627.332
31.14000 658.334
31.15000 683.659
31.16000 704.774
31.17000 721.694
31.18000 740.656
31.19000 765.207
31.20000 790.076
31.21000 820.660
31.22000 861.937
31.23000 903.459
31.24000 926.630
31.25000 980.516
31.26000 1017.867
31.27000 1049.258
31.28000 1075.770
31.29000 1102.248
31.30000 1127.092
31.31000 1151.038
31.32000 1174.078
31.33000 1193.367
31.34000 1210.135
31.35000 1226.149
31.36000 1234.722
31.37000 1241.398
31.38000 1246.866
31.39000 1245.047
31.40000 1242.005
31.41000 1239.529
31.42000 1250.924
31.43000 1261.396
31.44000 1259.974
31.45000 1226.562
31.46000 1191.385
31.47000 1156.038
31.48000 1120.381
31.49000 1084.718
31.50000 1064.986
31.51000 1025.619
31.52000 998.384
31.53000 959.997
31.54000 912.654
31.55000 865.640
31.56000 833.446
31.57000 809.256
31.58000 786.016
31.59000 757.011
31.60000 727.868
31.61000 699.067
31.62000 673.553
31.63000 648.862
31.64000 624.521
31.65000 602.247
31.66000 580.312
31.67000 562.529
31.68000 540.628
31.69000 522.445
31.70000 503.866
31.71000 484.236
31.72000 464.551
31.73000 453.308
31.74000 457.322
31.75000 461.649
31.76000 464.022
31.77000 446.837
31.78000 434.989
31.79000 424.469
31.80000 414.999
31.81000 405.727
31.82000 404.961
31.83000 408.709
31.84000 412.305
31.85000 407.180
31.86000 399.434
31.87000 392.102
31.88000 388.656
31.89000 386.166
31.90000 384.039
31.91000 384.019
31.92000 384.339
31.93000 384.597
31.94000 372.753
31.95000 362.159
31.96000 355.017
31.97000 356.845
31.98000 359.136
31.99000 360.602
32.00000 360.605
32.01000 360.580
32.02000 360.567
32.03000 362.668
32.04000 364.081
32.05000 357.669
32.06000 345.202
32.07000 333.077
32.08000 334.842
32.09000 343.852
32.10000 352.482
32.11000 354.019
32.12000 353.094
32.13000 351.804
32.14000 347.177
32.15000 341.743
32.16000 337.036
32.17000 336.456
32.18000 336.528
32.19000 336.586
32.20000 335.908
32.21000 335.301
32.22000 333.655
32.23000 329.353
32.24000 324.918
32.25000 322.549
32.26000 323.783
32.27000 325.084
32.28000 325.784
32.29000 329.769
32.30000 332.473
32.31000 329.930
32.32000 323.403
32.33000 317.027
32.34000 316.524
32.35000 319.031
32.36000 321.429
32.37000 322.853
32.38000 323.861
32.39000 325.608
32.40000 333.970
32.41000 343.901
32.42000 350.192
32.43000 336.203
32.44000 319.081
32.45000 305.360
32.46000 322.628
32.47000 338.939
32.48000 348.298
32.49000 340.194
32.50000 331.249
32.51000 323.978
32.52000 319.577
32.53000 315.224
32.54000 312.900
32.55000 311.208
32.56000 310.068
32.57000 311.355
32.58000 314.453
32.59000 317.512
32.60000 319.141
32.61000 320.049
32.62000 320.916
32.63000 317.718
32.64000 313.444
32.65000 309.794
32.66000 311.593
32.67000 314.661
32.68000 316.891
32.69000 314.547
32.70000 311.510
32.71000 309.087
32.72000 313.595
32.73000 317.744
32.74000 320.840
32.75000 321.338
32.76000 321.715
32.77000 323.573
32.78000 327.926
32.79000 332.320
32.80000 334.644
32.81000 323.756
32.82000 316.401
32.83000 317.668
32.84000 325.249
32.85000 332.579
32.86000 331.141
32.87000 325.360
32.88000 319.849
32.89000 314.761
32.90000 310.174
32.91000 306.555
32.92000 311.196
32.93000 317.727
32.94000 322.961
32.95000 321.249
32.96000 318.508
32.97000 316.330
32.98000 320.783
32.99000 324.843
33.00000 326.820
33.01000 323.740
33.02000 320.434
33.03000 318.307
33.04000 318.133
33.05000 317.989
33.06000 317.913
33.07000 328.288
33.08000 335.248
33.09000 331.149
33.10000 319.099
33.11000 307.226
33.12000 301.241
33.13000 298.122
33.14000 295.154
33.15000 298.318
33.16000 303.138
33.17000 307.414
33.18000 307.160
33.19000 305.888
33.20000 304.811
33.21000 304.756
33.22000 304.850
33.23000 304.924
33.24000 299.838
33.25000 295.393
33.26000 293.070
33.27000 295.809
33.28000 298.765
33.29000 302.711
33.30000 308.263
33.31000 313.838
33.32000 316.733
33.33000 303.469
33.34000 294.559
33.35000 292.426
33.36000 295.077
33.37000 297.753
33.38000 301.223
33.39000 305.071
33.40000 308.728
33.41000 309.189
33.42000 308.648
33.43000 308.143
33.44000 307.922
33.45000 307.764
33.46000 307.124
33.47000 304.002
33.48000 300.527
33.49000 297.787
33.50000 295.149
33.51000 293.040
33.52000 291.388
33.53000 290.808
33.54000 290.272
33.55000 291.679
33.56000 296.189
33.57000 300.740
33.58000 303.081
33.59000 299.247
33.60000 296.689
33.61000 296.909
33.62000 299.056
33.63000 301.223
33.64000 304.016
33.65000 307.104
33.66000 310.033
33.67000 310.672
33.68000 310.581
33.69000 309.855
33.70000 304.050
33.71000 297.147
33.72000 292.333
33.73000 298.078
33.74000 305.292
33.75000 310.956
33.76000 314.729
33.77000 317.624
33.78000 316.935
33.79000 307.985
33.80000 298.706
33.81000 295.266
33.82000 300.995
33.83000 306.834
33.84000 309.809
33.85000 312.601
33.86000 314.448
33.87000 313.245
33.88000 309.967
33.89000 306.759
33.90000 305.604
33.91000 305.398
33.92000 305.202
33.93000 307.959
33.94000 311.354
33.95000 313.955
33.96000 310.358
33.97000 305.446
33.98000 302.164
33.99000 306.969
34.00000 312.874
34.01000 317.491
34.02000 312.902
34.03000 308.654
34.04000 306.996
34.05000 311.205
34.06000 315.639
34.07000 320.938
34.08000 327.570
34.09000 334.217
34.10000 337.569
34.11000 337.782
34.12000 337.931
34.13000 338.670
34.14000 339.804
34.15000 340.927
34.16000 341.745
34.17000 342.425
34.18000 343.067
34.19000 342.665
34.20000 341.999
34.21000 341.598
34.22000 343.228
34.23000 345.280
34.24000 348.217
34.25000 355.460
34.26000 363.277
34.27000 369.362
34.28000 363.850
34.29000 358.747
34.30000 355.970
34.31000 358.375
34.32000 360.971
34.33000 362.303
34.34000 361.720
34.35000 361.117
34.36000 362.152
34.37000 364.820
34.38000 367.415
34.39000 363.182
34.40000 354.464
34.41000 346.089
34.42000 346.948
34.43000 351.933
34.44000 356.637
34.45000 353.762
34.46000 349.005
34.47000 344.859
34.48000 345.270
34.49000 346.612
34.50000 346.449
34.51000 339.101
34.52000 330.816
34.53000 324.394
34.54000 323.708
34.55000 323.506
34.56000 323.668
34.57000 324.629
34.58000 325.617
34.59000 326.757
34.60000 328.120
34.61000 329.486
34.62000 325.792
34.63000 317.153
34.64000 308.619
34.65000 309.266
34.66000 315.839
34.67000 322.223
34.68000 323.727
34.69000 323.088
34.70000 322.487
34.71000 314.018
34.72000 304.111
34.73000 295.427
34.74000 295.684
34.75000 297.732
34.76000 300.195
34.77000 304.600
34.78000 309.252
34.79000 312.841
34.80000 303.420
34.81000 295.200
34.82000 289.904
34.83000 290.904
34.84000 292.117
34.85000 292.161
34.86000 290.496
34.87000 288.817
34.88000 286.818
34.89000 284.515
34.90000 282.267
34.91000 284.563
34.92000 289.739
34.93000 294.708
34.94000 294.565
34.95000 292.214
34.96000 290.004
34.97000 285.829
34.98000 281.487
34.99000 277.933
35.00000 280.015
35.01000 283.206
35.02000 285.828
35.03000 285.836
35.04000 285.518
35.05000 285.274
35.06000 282.232
35.07000 279.668
35.08000 277.369
35.09000 275.627
35.10000 273.903
35.11000 274.593
35.12000 278.749
35.13000 282.932
35.14000 283.531
35.15000 280.764
35.16000 278.012
35.17000 276.301
35.18000 275.240
35.19000 274.132
35.20000 271.888
35.21000 269.163
35.22000 266.605
35.23000 263.760
35.24000 261.092
35.25000 259.562
35.26000 266.007
35.27000 273.990
35.28000 280.110
35.29000 277.819
35.30000 274.503
35.31000 271.966
35.32000 266.914
35.33000 262.792
35.34000 260.636
35.35000 262.570
35.36000 264.630
35.37000 265.626
35.38000 265.119
35.39000 264.603
35.40000 261.410
35.41000 255.757
35.42000 250.247
35.43000 254.819
35.44000 265.560
35.45000 275.913
35.46000 277.374
35.47000 275.126
35.48000 273.021
35.49000 270.404
35.50000 267.891
35.51000 265.474
35.52000 263.718
35.53000 262.086
35.54000 259.567
35.55000 253.108
35.56000 246.181
35.57000 240.907
35.58000 249.027
35.59000 256.124
35.60000 260.382
35.61000 258.837
35.62000 257.119
35.63000 256.349
35.64000 256.890
35.65000 257.440
35.66000 260.650
35.67000 266.259
35.68000 271.757
35.69000 270.056
35.70000 264.026
35.71000 258.048
35.72000 253.204
35.73000 248.825
35.74000 244.730
35.75000 248.117
35.76000 253.091
35.77000 257.684
35.78000 259.734
35.79000 261.312
35.80000 261.431
35.81000 255.207
35.82000 248.244
35.83000 242.967
35.84000 250.407
35.85000 256.897
35.86000 261.188
35.87000 261.056
35.88000 260.800
35.89000 260.086
35.90000 258.750
35.91000 257.412
35.92000 254.936
35.93000 251.459
35.94000 248.114
35.95000 252.883
35.96000 262.446
35.97000 271.689
35.98000 274.116
35.99000 273.796
36.00000 273.498
36.01000 271.865
36.02000 270.053
36.03000 267.687
36.04000 261.673
36.05000 254.996
36.06000 250.213
36.07000 253.521
36.08000 257.750
36.09000 260.939
36.10000 257.522
36.11000 254.520
36.12000 252.848
36.13000 253.804
36.14000 254.831
36.15000 256.754
36.16000 259.875
36.17000 263.000
36.18000 261.857
36.19000 257.014
36.20000 252.275
36.21000 253.539
36.22000 258.285
36.23000 262.749
36.24000 261.390
36.25000 257.723
36.26000 254.308
36.27000 251.429
36.28000 248.956
36.29000 247.696
36.30000 254.247
36.31000 262.192
36.32000 268.369
36.33000 267.128
36.34000 265.064
36.35000 263.513
36.36000 261.971
36.37000 260.766
36.38000 260.329
36.39000 261.382
36.40000 262.474
36.41000 263.262
36.42000 263.651
36.43000 264.039
36.44000 263.341
36.45000 261.721
36.46000 260.098
36.47000 258.277
36.48000 256.342
36.49000 254.483
36.50000 254.153
36.51000 254.418
36.52000 254.664
36.53000 253.208
36.54000 251.487
36.55000 250.127
36.56000 251.040
36.57000 252.350
36.58000 254.688
36.59000 261.256
36.60000 268.282
36.61000 273.533
36.62000 270.509
36.63000 267.770
36.64000 265.202
36.65000 262.959
36.66000 260.724
36.67000 259.765
36.68000 260.444
36.69000 261.130
36.70000 259.630
36.71000 256.313
36.72000 253.038
36.73000 251.898
36.74000 251.955
36.75000 252.033
36.76000 252.530
36.77000 253.187
36.78000 253.796
36.79000 256.047
36.80000 258.459
36.81000 260.308
36.82000 258.682
36.83000 256.460
36.84000 256.403
36.85000 265.106
36.86000 274.737
36.87000 281.899
36.88000 279.063
36.89000 276.412
36.90000 273.039
36.91000 268.311
36.92000 263.553
36.93000 261.676
36.94000 263.435
36.95000 265.205
36.96000 269.671
36.97000 276.329
36.98000 282.870
36.99000 283.783
37.00000 281.596
37.01000 279.571
37.02000 280.541
37.03000 282.639
37.04000 284.581
37.05000 280.707
37.06000 275.890
37.07000 272.303
37.08000 276.158
37.09000 281.264
37.10000 284.581
37.11000 280.784
37.12000 276.253
37.13000 272.899
37.14000 274.193
37.15000 275.396
37.16000 274.533
37.17000 269.860
37.18000 265.103
37.19000 261.140
37.20000 258.159
37.21000 255.185
37.22000 255.887
37.23000 259.533
37.24000 263.208
37.25000 268.175
37.26000 273.842
37.27000 279.080
37.28000 276.624
37.29000 271.322
37.30000 266.424
37.31000 264.915
37.32000 264.325
37.33000 262.402
37.34000 252.572
37.35000 241.440
37.36000 234.351
37.37000 243.045
37.38000 253.331
37.39000 260.905
37.40000 259.413
37.41000 257.883
37.42000 255.306
37.43000 250.834
37.44000 246.324
37.45000 245.511
37.46000 249.193
37.47000 252.879
37.48000 251.955
37.49000 247.408
37.50000 242.976
37.51000 243.451
37.52000 246.537
37.53000 249.455
37.54000 249.440
37.55000 248.358
37.56000 247.360
37.57000 247.992
37.58000 248.918
37.59000 250.199
37.60000 253.548
37.61000 257.232
37.62000 259.640
37.63000 257.163
37.64000 254.206
37.65000 252.038
37.66000 253.297
37.67000 254.407
37.68000 257.303
37.69000 263.382
37.70000 269.523
37.71000 268.709
37.72000 259.600
37.73000 250.495
37.74000 247.734
37.75000 249.883
37.76000 251.960
37.77000 251.052
37.78000 248.583
37.79000 246.387
37.80000 248.770
37.81000 252.790
37.82000 256.486
37.83000 251.007
37.84000 244.128
37.85000 238.893
37.86000 243.031
37.87000 248.653
37.88000 252.220
37.89000 248.052
37.90000 243.143
37.91000 239.564
37.92000 243.583
37.93000 246.972
37.94000 249.414
37.95000 250.201
37.96000 250.958
37.97000 252.714
37.98000 255.639
37.99000 258.558
38.00000 259.341
38.01000 258.502
38.02000 257.590
38.03000 253.848
38.04000 248.652
38.05000 244.154
38.06000 251.044
38.07000 261.936
38.08000 271.930
38.09000 262.883
38.10000 250.783
38.11000 240.619
38.12000 241.274
38.13000 243.604
38.14000 245.922
38.15000 248.190
38.16000 250.454
38.17000 252.095
38.18000 258.092
38.19000 262.862
38.20000 266.035
38.21000 266.464
38.22000 266.845
38.23000 268.049
38.24000 270.197
38.25000 272.340
38.26000 276.310
38.27000 281.609
38.28000 286.906
38.29000 292.113
38.30000 297.274
38.31000 302.043
38.32000 300.591
38.33000 296.992
38.34000 293.697
38.35000 299.624
38.36000 306.812
38.37000 314.340
38.38000 323.727
38.39000 333.396
38.40000 343.440
38.41000 354.844
38.42000 366.373
38.43000 374.690
38.44000 397.184
38.45000 414.934
38.46000 434.045
38.47000 455.456
38.48000 476.904
38.49000 498.062
38.50000 518.894
38.51000 539.656
38.52000 559.065
38.53000 577.332
38.54000 595.820
38.55000 622.079
38.56000 652.197
38.57000 682.852
38.58000 721.736
38.59000 763.415
38.60000 801.480
38.61000 833.116
38.62000 859.893
38.63000 885.209
38.64000 902.669
38.65000 918.961
38.66000 936.280
38.67000 957.262
38.68000 978.568
38.69000 993.861
38.70000 1014.846
38.71000 1031.089
38.72000 1037.520
38.73000 1027.665
38.74000 1017.562
38.75000 1013.457
38.76000 1015.977
38.77000 1018.491
38.78000 1002.565
38.79000 973.612
38.80000 944.442
38.81000 908.018
38.82000 868.053
38.83000 828.899
38.84000 801.797
38.85000 778.716
38.86000 757.685
38.87000 724.120
38.88000 691.885
38.89000 659.921
38.90000 629.392
38.91000 599.070
38.92000 569.966
38.93000 545.128
38.94000 520.660
38.95000 503.192
38.96000 468.557
38.97000 441.569
38.98000 418.457
38.99000 401.666
39.00000 384.965
39.01000 372.986
39.02000 366.121
39.03000 359.287
39.04000 345.048
39.05000 325.763
39.06000 306.679
39.07000 294.049
39.08000 284.515
39.09000 275.348
39.10000 271.484
39.11000 269.358
39.12000 267.426
39.13000 264.558
39.14000 261.839
39.15000 258.496
39.16000 251.927
39.17000 244.898
39.18000 239.104
39.19000 237.571
39.20000 236.397
39.21000 235.563
39.22000 245.760
39.23000 253.870
39.24000 256.793
39.25000 251.407
39.26000 245.910
39.27000 241.087
39.28000 236.979
39.29000 232.889
39.30000 234.564
39.31000 240.182
39.32000 245.578
39.33000 244.150
39.34000 239.504
39.35000 235.124
39.36000 234.490
39.37000 235.063
39.38000 235.583
39.39000 240.940
39.40000 246.591
39.41000 250.073
39.42000 242.552
39.43000 233.496
39.44000 227.057
39.45000 229.478
39.46000 232.626
39.47000 234.850
39.48000 236.875
39.49000 238.406
39.50000 238.400
39.51000 235.973
39.52000 233.517
39.53000 230.422
39.54000 226.662
39.55000 222.921
39.56000 220.931
39.57000 220.145
39.58000 219.506
39.59000 223.178
39.60000 228.849
39.61000 234.328
39.62000 237.197
39.63000 239.238
39.64000 241.085
39.65000 243.999
39.66000 246.764
39.67000 248.594
39.68000 245.773
39.69000 242.316
39.70000 238.822
39.71000 235.200
39.72000 231.568
39.73000 229.017
39.74000 230.771
39.75000 232.225
39.76000 232.703
39.77000 231.670
39.78000 230.620
39.79000 229.937
39.80000 229.630
39.81000 229.324
39.82000 227.616
39.83000 225.002
39.84000 222.397
39.85000 220.059
39.86000 217.843
39.87000 216.218
39.88000 222.437
39.89000 231.097
39.90000 238.914
39.91000 236.789
39.92000 233.099
39.93000 230.050
39.94000 230.129
39.95000 230.626
39.96000 231.821
39.97000 235.297
39.98000 238.950
39.99000 241.501
40.00000 234.318
40.01000 228.620
40.02000 225.873
40.03000 227.608
40.04000 229.390
40.05000 230.329
40.06000 230.425
40.07000 230.521
40.08000 231.054
40.09000 231.864
40.10000 232.640
40.11000 232.507
40.12000 231.966
40.13000 231.164
40.14000 226.999
40.15000 221.805
40.16000 217.128
40.17000 224.765
40.18000 233.671
40.19000 240.172
40.20000 235.144
40.21000 228.610
40.22000 224.635
40.23000 228.880
40.24000 233.747
40.25000 237.126
40.26000 239.961
40.27000 242.083
40.28000 241.267
40.29000 236.068
40.30000 230.827
40.31000 225.285
40.32000 219.449
40.33000 213.652
40.34000 215.778
40.35000 222.919
40.36000 229.875
40.37000 232.053
40.38000 232.126
40.39000 232.353
40.40000 234.497
40.41000 237.219
40.42000 239.662
40.43000 232.850
40.44000 225.262
40.45000 218.811
40.46000 217.704
40.47000 217.281
40.48000 217.173
40.49000 218.063
40.50000 219.025
40.51000 219.690
40.52000 212.775
40.53000 207.384
40.54000 208.556
40.55000 219.345
40.56000 230.217
40.57000 233.474
40.58000 229.413
40.59000 225.382
40.60000 224.497
40.61000 225.593
40.62000 226.558
40.63000 224.256
40.64000 220.539
40.65000 217.338
40.66000 220.428
40.67000 225.376
40.68000 229.809
40.69000 222.883
40.70000 214.881
40.71000 208.389
40.72000 208.865
40.73000 210.212
40.74000 211.077
40.75000 210.447
40.76000 209.710
40.77000 209.204
40.78000 212.469
40.79000 215.009
40.80000 216.789
40.81000 217.476
40.82000 218.154
40.83000 217.026
40.84000 214.199
40.85000 211.394
40.86000 215.025
40.87000 222.538
40.88000 229.666
40.89000 227.535
40.90000 221.464
40.91000 215.766
40.92000 214.481
40.93000 214.479
40.94000 214.476
40.95000 218.893
40.96000 223.486
40.97000 226.806
40.98000 224.357
40.99000 221.204
41.00000 216.320
41.01000 206.158
41.02000 195.630
41.03000 188.444
41.04000 195.470
41.05000 201.056
41.06000 205.618
41.07000 208.734
41.08000 211.837
41.09000 210.802
41.10000 205.944
41.11000 201.128
41.12000 200.624
41.13000 202.723
41.14000 204.891
41.15000 208.626
41.16000 213.017
41.17000 216.968
41.18000 215.833
41.19000 213.246
41.20000 210.941
41.21000 209.262
41.22000 207.906
41.23000 207.082
41.24000 208.626
41.25000 210.452
41.26000 211.927
41.27000 212.348
41.28000 212.697
41.29000 212.934
41.30000 212.389
41.31000 211.965
41.32000 210.168
41.33000 206.464
41.34000 202.749
41.35000 202.521
41.36000 205.451
41.37000 208.353
41.38000 208.607
41.39000 207.293
41.40000 206.022
41.41000 205.732
41.42000 205.845
41.43000 206.089
41.44000 207.811
41.45000 209.948
41.46000 211.846
41.47000 214.471
41.48000 216.865
41.49000 218.165
41.50000 214.693
41.51000 210.664
41.52000 208.096
41.53000 209.837
41.54000 211.858
41.55000 213.222
41.56000 215.644
41.57000 217.469
41.58000 216.624
41.59000 212.143
41.60000 207.643
41.61000 206.733
41.62000 209.010
41.63000 211.265
41.64000 211.776
41.65000 211.266
41.66000 210.679
41.67000 208.424
41.68000 205.496
41.69000 202.855
41.70000 203.366
41.71000 204.744
41.72000 205.965
41.73000 202.515
41.74000 198.789
41.75000 197.266
41.76000 205.178
41.77000 214.166
41.78000 219.270
41.79000 213.128
41.80000 206.274
41.81000 201.679
41.82000 202.575
41.83000 203.350
41.84000 203.982
41.85000 204.423
41.86000 204.863
41.87000 205.662
41.88000 206.774
41.89000 207.875
41.90000 206.837
41.91000 204.608
41.92000 202.616
41.93000 205.549
41.94000 210.438
41.95000 215.117
41.96000 217.553
41.97000 219.382
41.98000 220.998
41.99000 218.963
42.00000 216.640
42.01000 214.111
42.02000 210.717
42.03000 207.226
42.04000 206.383
42.05000 213.075
42.06000 220.229
42.07000 224.995
42.08000 221.409
42.09000 218.594
42.10000 215.178
42.11000 210.972
42.12000 206.764
42.13000 203.444
42.14000 200.883
42.15000 198.352
42.16000 203.371
42.17000 212.483
42.18000 221.198
42.19000 221.997
42.20000 219.703
42.21000 217.543
42.22000 216.771
42.23000 216.367
42.24000 216.012
42.25000 215.391
42.26000 214.817
42.27000 214.456
42.28000 214.977
42.29000 215.594
42.30000 215.539
42.31000 213.604
42.32000 211.557
42.33000 210.201
42.34000 217.048
42.35000 222.253
42.36000 222.663
42.37000 216.893
42.38000 211.113
42.39000 212.626
42.40000 220.257
42.41000 227.794
42.42000 230.405
42.43000 230.251
42.44000 229.854
42.45000 224.758
42.46000 217.859
42.47000 211.463
42.48000 210.199
42.49000 210.274
42.50000 210.339
42.51000 213.717
42.52000 217.113
42.53000 219.767
42.54000 219.414
42.55000 218.741
42.56000 217.701
42.57000 215.651
42.58000 213.543
42.59000 212.156
42.60000 212.540
42.61000 212.853
42.62000 211.650
42.63000 208.531
42.64000 205.406
42.65000 202.320
42.66000 199.267
42.67000 196.254
42.68000 196.270
42.69000 197.914
42.70000 199.588
42.71000 201.835
42.72000 204.299
42.73000 206.912
42.74000 211.007
42.75000 215.482
42.76000 219.404
42.77000 214.124
42.78000 208.261
42.79000 203.519
42.80000 203.248
42.81000 203.440
42.82000 203.194
42.83000 201.765
42.84000 200.269
42.85000 199.292
42.86000 199.803
42.87000 200.203
42.88000 200.958
42.89000 202.155
42.90000 203.346
42.91000 202.159
42.92000 199.052
42.93000 195.988
42.94000 196.845
42.95000 199.745
42.96000 202.449
42.97000 201.607
42.98000 199.450
42.99000 197.386
43.00000 196.222
43.01000 195.285
43.02000 194.466
43.03000 195.491
43.04000 196.631
43.05000 197.441
43.06000 196.967
43.07000 196.363
43.08000 196.404
43.09000 198.162
43.10000 200.012
43.11000 201.213
43.12000 197.361
43.13000 194.461
43.14000 192.287
43.15000 190.997
43.16000 189.728
43.17000 194.149
43.18000 203.079
43.19000 211.877
43.20000 208.751
43.21000 199.547
43.22000 190.782
43.23000 189.696
43.24000 191.410
43.25000 193.136
43.26000 194.980
43.27000 196.852
43.28000 198.484
43.29000 196.325
43.30000 193.956
43.31000 191.659
43.32000 189.633
43.33000 187.634
43.34000 186.933
43.35000 189.622
43.36000 192.489
43.37000 194.339
43.38000 191.402
43.39000 189.188
43.40000 190.948
43.41000 197.461
43.42000 203.955
43.43000 203.306
43.44000 197.097
43.45000 190.986
43.46000 190.727
43.47000 193.450
43.48000 196.053
43.49000 196.657
43.50000 196.543
43.51000 196.657
43.52000 198.870
43.53000 201.592
43.54000 203.958
43.55000 198.436
43.56000 192.660
43.57000 187.704
43.58000 185.844
43.59000 184.282
43.60000 184.271
43.61000 188.245
43.62000 192.420
43.63000 195.096
43.64000 189.923
43.65000 186.046
43.66000 184.402
43.67000 185.376
43.68000 186.352
43.69000 186.622
43.70000 186.355
43.71000 186.091
43.72000 183.875
43.73000 180.757
43.74000 178.158
43.75000 184.056
43.76000 192.947
43.77000 200.951
43.78000 200.965
43.79000 199.073
43.80000 197.434
43.81000 193.373
43.82000 189.598
43.83000 186.383
43.84000 185.250
43.85000 184.313
43.86000 184.392
43.87000 187.038
43.88000 189.809
43.89000 191.574
43.90000 193.470
43.91000 194.850
43.92000 194.475
43.93000 192.080
43.94000 189.694
43.95000 189.694
43.96000 191.482
43.97000 193.240
43.98000 193.268
43.99000 192.450
44.00000 191.829
44.01000 194.339
44.02000 197.934
44.03000 200.600
44.04000 195.077
44.05000 187.638
44.06000 181.214
44.07000 186.123
44.08000 191.756
44.09000 195.979
44.10000 195.067
44.11000 193.685
44.12000 193.691
44.13000 197.139
44.14000 200.749
44.15000 203.033
44.16000 202.874
44.17000 202.731
44.18000 201.801
44.19000 199.982
44.20000 198.152
44.21000 194.507
44.22000 189.524
44.23000 184.634
44.24000 185.551
44.25000 189.223
44.26000 192.813
44.27000 195.132
44.28000 197.019
44.29000 198.668
44.30000 198.274
44.31000 197.410
44.32000 196.667
44.33000 202.322
44.34000 207.920
44.35000 212.669
44.36000 214.378
44.37000 215.816
44.38000 216.302
44.39000 214.468
44.40000 212.529
44.41000 211.312
44.42000 217.821
44.43000 222.613
44.44000 221.507
44.45000 213.869
44.46000 206.270
44.47000 205.471
44.48000 209.589
44.49000 213.626
44.50000 211.474
44.51000 206.487
44.52000 202.135
44.53000 207.272
44.54000 215.585
44.55000 222.896
44.56000 221.789
44.57000 218.782
44.58000 216.202
44.59000 216.360
44.60000 216.832
44.61000 216.567
44.62000 213.712
44.63000 210.633
44.64000 209.750
44.65000 214.136
44.66000 218.752
44.67000 221.631
44.68000 224.760
44.69000 227.019
44.70000 227.233
44.71000 225.224
44.72000 223.229
44.73000 223.316
44.74000 224.880
44.75000 226.411
44.76000 231.980
44.77000 239.199
44.78000 245.771
44.79000 242.944
44.80000 237.026
44.81000 232.004
44.82000 234.338
44.83000 238.302
44.84000 241.693
44.85000 240.409
44.86000 238.762
44.87000 237.731
44.88000 238.830
44.89000 240.108
44.90000 240.994
44.91000 240.952
44.92000 240.871
44.93000 240.821
44.94000 245.481
44.95000 248.877
44.96000 247.443
44.97000 240.867
44.98000 234.346
44.99000 235.131
45.00000 241.008
45.01000 246.759
45.02000 249.856
45.03000 251.625
45.04000 253.304
45.05000 253.735
45.06000 253.763
45.07000 253.337
45.08000 249.267
45.09000 244.405
45.10000 240.257
45.11000 239.048
45.12000 238.377
45.13000 237.172
45.14000 234.158
45.15000 230.994
45.16000 227.068
45.17000 221.376
45.18000 215.612
45.19000 212.067
45.20000 221.887
45.21000 229.047
45.22000 235.820
45.23000 242.187
45.24000 248.492
45.25000 247.403
45.26000 241.254
45.27000 235.243
45.28000 230.291
45.29000 226.017
45.30000 222.227
45.31000 225.066
45.32000 230.011
45.33000 233.442
45.34000 224.981
45.35000 213.983
45.36000 204.632
45.37000 205.066
45.38000 206.556
45.39000 207.725
45.40000 207.828
45.41000 207.846
45.42000 208.472
45.43000 210.485
45.44000 212.552
45.45000 213.814
45.46000 212.900
45.47000 212.228
45.48000 211.720
45.49000 211.378
45.50000 211.036
45.51000 210.770
45.52000 210.554
45.53000 210.343
45.54000 211.396
45.55000 212.954
45.56000 214.379
45.57000 214.022
45.58000 213.110
45.59000 212.041
45.60000 209.777
45.61000 207.263
45.62000 205.132
45.63000 205.092
45.64000 205.293
45.65000 204.813
45.66000 202.098
45.67000 199.209
45.68000 199.210
45.69000 205.681
45.70000 212.394
45.71000 216.463
45.72000 202.618
45.73000 192.609
45.74000 188.862
45.75000 191.396
45.76000 193.903
45.77000 193.694
45.78000 191.693
45.79000 189.741
45.80000 189.215
45.81000 189.324
45.82000 189.032
45.83000 183.563
45.84000 176.505
45.85000 170.709
45.86000 174.398
45.87000 180.037
45.88000 184.799
45.89000 187.903
45.90000 190.317
45.91000 191.049
45.92000 186.365
45.93000 181.270
45.94000 178.605
45.95000 181.288
45.96000 184.163
45.97000 185.892
45.98000 181.647
45.99000 178.586
46.00000 176.434
46.01000 175.173
46.02000 173.941
46.03000 175.239
46.04000 178.179
46.05000 181.042
46.06000 184.591
46.07000 188.265
46.08000 191.515
46.09000 189.444
46.10000 185.768
46.11000 182.436
46.12000 181.637
46.13000 181.348
46.14000 181.105
46.15000 176.737
46.16000 172.652
46.17000 170.622
46.18000 175.096
46.19000 180.049
46.20000 182.928
46.21000 181.319
46.22000 179.556
46.23000 178.503
46.24000 178.398
46.25000 178.329
46.26000 179.217
46.27000 181.028
46.28000 182.783
46.29000 179.942
46.30000 174.173
46.31000 168.560
46.32000 172.702
46.33000 180.675
46.34000 187.936
46.35000 186.489
46.36000 182.462
46.37000 178.772
46.38000 177.506
46.39000 176.719
46.40000 176.059
46.41000 176.480
46.42000 176.944
46.43000 178.063
46.44000 181.220
46.45000 184.524
46.46000 185.927
46.47000 183.288
46.48000 180.516
46.49000 178.874
46.50000 178.533
46.51000 178.300
46.52000 176.942
46.53000 174.520
46.54000 172.118
46.55000 171.167
46.56000 171.126
46.57000 171.085
46.58000 172.013
46.59000 173.287
46.60000 174.601
46.61000 176.391
46.62000 178.320
46.63000 179.238
46.64000 173.037
46.65000 165.455
46.66000 159.117
46.67000 159.148
46.68000 159.823
46.69000 162.288
46.70000 170.228
46.71000 178.549
46.72000 182.936
46.73000 179.097
46.74000 175.000
46.75000 172.591
46.76000 180.900
46.77000 186.812
46.78000 187.447
46.79000 183.193
46.80000 178.977
46.81000 177.566
46.82000 177.880
46.83000 178.185
46.84000 177.696
46.85000 176.916
46.86000 176.588
46.87000 181.503
46.88000 187.918
46.89000 192.746
46.90000 186.636
46.91000 178.445
46.92000 171.621
46.93000 174.025
46.94000 176.934
46.95000 178.477
46.96000 175.918
46.97000 173.082
46.98000 169.851
46.99000 165.809
47.00000 161.743
47.01000 159.371
47.02000 167.973
47.03000 174.070
47.04000 174.810
47.05000 170.685
47.06000 166.634
47.07000 167.487
47.08000 171.302
47.09000 175.001
47.10000 175.264
47.11000 174.172
47.12000 173.050
47.13000 171.586
47.14000 170.026
47.15000 168.532
47.16000 167.483
47.17000 166.516
47.18000 165.714
47.19000 162.825
47.20000 160.235
47.21000 159.201
47.22000 162.764
47.23000 166.628
47.24000 169.622
47.25000 170.860
47.26000 172.048
47.27000 172.736
47.28000 173.911
47.29000 174.736
47.30000 174.337
47.31000 172.847
47.32000 171.286
47.33000 165.232
47.34000 156.510
47.35000 148.066
47.36000 150.276
47.37000 156.445
47.38000 162.267
47.39000 164.260
47.40000 165.195
47.41000 165.546
47.42000 162.032
47.43000 157.810
47.44000 154.317
47.45000 159.422
47.46000 164.445
47.47000 167.657
47.48000 165.613
47.49000 163.235
47.50000 161.519
47.51000 161.117
47.52000 160.752
47.53000 160.543
47.54000 166.226
47.55000 170.217
47.56000 170.479
47.57000 167.482
47.58000 164.543
47.59000 164.937
47.60000 167.277
47.61000 169.539
47.62000 167.085
47.63000 162.996
47.64000 159.294
47.65000 159.732
47.66000 161.293
47.67000 162.710
47.68000 163.188
47.69000 163.498
47.70000 163.754
47.71000 166.445
47.72000 168.885
47.73000 170.600
47.74000 170.249
47.75000 169.770
47.76000 168.136
47.77000 164.249
47.78000 160.303
47.79000 158.056
47.80000 156.700
47.81000 155.758
47.82000 155.104
47.83000 154.695
47.84000 154.322
47.85000 155.880
47.86000 158.545
47.87000 161.119
47.88000 160.700
47.89000 159.202
47.90000 157.810
47.91000 157.519
47.92000 157.521
47.93000 157.843
47.94000 160.189
47.95000 162.891
47.96000 165.110
47.97000 161.567
47.98000 158.141
47.99000 154.405
48.00000 149.802
48.01000 145.147
48.02000 145.010
48.03000 153.538
48.04000 162.280
48.05000 167.218
48.06000 167.689
48.07000 168.007
48.08000 169.366
48.09000 171.602
48.10000 173.730
48.11000 170.306
48.12000 163.753
48.13000 157.435
48.14000 150.412
48.15000 143.553
48.16000 137.409
48.17000 138.563
48.18000 141.625
48.19000 144.975
48.20000 150.113
48.21000 155.560
48.22000 160.016
48.23000 155.836
48.24000 151.657
48.25000 148.445
48.26000 147.895
48.27000 147.500
48.28000 148.628
48.29000 152.628
48.30000 156.695
48.31000 158.973
48.32000 156.168
48.33000 154.216
48.34000 154.412
48.35000 156.381
48.36000 158.294
48.37000 157.512
48.38000 155.238
48.39000 153.048
48.40000 153.940
48.41000 155.872
48.42000 157.737
48.43000 158.942
48.44000 159.977
48.45000 160.446
48.46000 157.465
48.47000 153.901
48.48000 150.996
48.49000 157.260
48.50000 163.160
48.51000 166.545
48.52000 163.111
48.53000 159.296
48.54000 155.891
48.55000 153.246
48.56000 150.617
48.57000 149.157
48.58000 147.150
48.59000 145.772
48.60000 147.828
48.61000 152.665
48.62000 157.429
48.63000 158.768
48.64000 158.245
48.65000 157.742
48.66000 158.354
48.67000 159.315
48.68000 160.126
48.69000 159.479
48.70000 158.463
48.71000 157.639
48.72000 157.960
48.73000 158.471
48.74000 158.886
48.75000 152.523
48.76000 146.773
48.77000 145.448
48.78000 155.912
48.79000 167.016
48.80000 171.820
48.81000 165.157
48.82000 158.252
48.83000 154.450
48.84000 158.308
48.85000 160.974
48.86000 161.999
48.87000 161.719
48.88000 161.405
48.89000 159.627
48.90000 157.066
48.91000 154.608
48.92000 154.395
48.93000 154.964
48.94000 155.813
48.95000 159.319
48.96000 163.484
48.97000 166.428
48.98000 162.239
48.99000 156.891
49.00000 152.564
49.01000 152.511
49.02000 152.813
49.03000 153.730
49.04000 156.254
49.05000 158.864
49.06000 161.270
49.07000 163.312
49.08000 165.346
49.09000 166.457
49.10000 159.963
49.11000 155.504
49.12000 153.903
49.13000 154.532
49.14000 155.207
49.15000 157.766
49.16000 161.317
49.17000 164.719
49.18000 161.848
49.19000 157.064
49.20000 152.646
49.21000 151.624
49.22000 151.428
49.23000 151.443
49.24000 152.669
49.25000 154.088
49.26000 155.231
49.27000 152.165
49.28000 149.346
49.29000 147.292
49.30000 147.208
49.31000 147.224
49.32000 148.877
49.33000 153.410
49.34000 157.997
49.35000 160.479
49.36000 161.210
49.37000 161.703
49.38000 161.133
49.39000 159.747
49.40000 158.387
49.41000 158.066
49.42000 158.282
49.43000 158.488
49.44000 156.581
49.45000 154.108
49.46000 151.879
49.47000 151.849
49.48000 152.345
49.49000 152.512
49.50000 150.831
49.51000 148.862
49.52000 147.281
49.53000 153.432
49.54000 159.006
49.55000 162.145
49.56000 159.123
49.57000 155.800
49.58000 152.203
49.59000 148.132
49.60000 144.052
49.61000 141.865
49.62000 151.221
49.63000 157.585
49.64000 157.462
49.65000 152.463
49.66000 147.662
49.67000 150.312
49.68000 156.746
49.69000 162.893
49.70000 159.042
49.71000 152.231
49.72000 146.184
49.73000 146.881
49.74000 149.160
49.75000 152.045
49.76000 158.264
49.77000 164.992
49.78000 170.371
49.79000 159.936
49.80000 150.327
49.81000 144.316
49.82000 147.253
49.83000 150.612
49.84000 152.753
49.85000 152.827
49.86000 152.866
49.87000 152.887
49.88000 149.865
49.89000 147.797
49.90000 143.983
49.91000 138.881
49.92000 133.920
49.93000 133.970
49.94000 136.521
49.95000 138.955
49.96000 145.334
49.97000 152.506
49.98000 158.518
49.99000 154.532
50.00000 148.241
50.01000 143.699
50.02000 148.605
50.03000 154.924
50.04000 159.957
50.05000 159.018
50.06000 157.830
50.07000 155.909
50.08000 152.194
50.09000 148.397
50.10000 147.258
50.11000 150.553
50.12000 153.916
50.13000 155.686
50.14000 153.891
50.15000 152.683
50.16000 153.159
50.17000 154.855
50.18000 156.539
50.19000 157.828
50.20000 158.922
50.21000 159.964
50.22000 162.057
50.23000 164.321
50.24000 165.863
50.25000 161.303
50.26000 155.362
50.27000 150.841
50.28000 153.843
50.29000 157.945
50.30000 161.199
50.31000 156.111
50.32000 151.432
50.33000 148.808
50.34000 151.122
50.35000 153.652
50.36000 156.832
50.37000 161.077
50.38000 165.338
50.39000 167.559
50.40000 160.284
50.41000 155.360
50.42000 150.078
50.43000 144.541
50.44000 139.218
50.45000 140.844
50.46000 145.820
50.47000 150.551
50.48000 151.160
50.49000 150.465
50.50000 149.721
50.51000 148.571
50.52000 147.331
50.53000 146.522
50.54000 147.959
50.55000 149.718
50.56000 151.107
50.57000 151.574
50.58000 151.886
50.59000 153.250
50.60000 157.098
50.61000 161.052
50.62000 161.424
50.63000 156.027
50.64000 150.553
50.65000 147.726
50.66000 155.360
50.67000 160.474
50.68000 161.312
50.69000 159.163
50.70000 157.173
50.71000 160.184
50.72000 165.564
50.73000 170.671
50.74000 167.425
50.75000 161.932
50.76000 157.230
50.77000 158.912
50.78000 161.986
50.79000 164.177
50.80000 161.869
50.81000 158.929
50.82000 156.617
50.83000 157.480
50.84000 158.381
50.85000 158.684
50.86000 157.599
50.87000 156.457
50.88000 154.556
50.89000 151.454
50.90000 148.337
50.91000 146.743
50.92000 153.477
50.93000 157.985
50.94000 160.560
50.95000 161.806
50.96000 162.972
50.97000 161.726
50.98000 159.356
50.99000 157.110
51.00000 155.904
51.01000 155.098
51.02000 154.300
51.03000 153.557
51.04000 152.827
51.05000 152.516
51.06000 154.300
51.07000 156.371
51.08000 157.994
51.09000 147.749
51.10000 138.801
51.11000 133.943
51.12000 138.428
51.13000 143.276
51.14000 146.249
51.15000 146.305
51.16000 146.328
51.17000 146.339
51.18000 145.125
51.19000 144.330
51.20000 145.383
51.21000 147.683
51.22000 149.881
51.23000 149.144
51.24000 147.064
51.25000 145.097
51.26000 147.451
51.27000 150.859
51.28000 153.029
51.29000 145.660
51.30000 136.288
51.31000 130.067
51.32000 139.316
51.33000 150.644
51.34000 159.480
51.35000 156.700
51.36000 153.759
51.37000 151.071
51.38000 148.949
51.39000 146.849
51.40000 146.162
51.41000 147.634
51.42000 149.129
51.43000 149.878
51.44000 146.517
51.45000 144.283
51.46000 142.920
51.47000 142.133
51.48000 141.369
51.49000 141.261
51.50000 141.447
51.51000 141.622
51.52000 139.185
51.53000 136.211
51.54000 134.144
51.55000 138.918
51.56000 145.101
51.57000 149.415
51.58000 144.723
51.59000 138.847
51.60000 134.284
51.61000 136.250
51.62000 138.209
51.63000 139.077
51.64000 137.540
51.65000 135.915
51.66000 137.082
51.67000 142.437
51.68000 147.832
51.69000 151.519
51.70000 153.523
51.71000 155.487
51.72000 153.915
51.73000 150.042
51.74000 146.206
51.75000 143.315
51.76000 140.842
51.77000 138.512
51.78000 140.057
51.79000 142.546
51.80000 144.339
51.81000 141.004
51.82000 136.633
51.83000 133.828
51.84000 138.429
51.85000 143.983
51.86000 148.277
51.87000 145.552
51.88000 142.978
51.89000 141.765
51.90000 143.506
51.91000 145.349
51.92000 144.486
51.93000 139.635
51.94000 134.749
51.95000 134.918
51.96000 139.974
51.97000 144.987
51.98000 146.396
51.99000 145.502
52.00000 144.631
52.01000 144.320
52.02000 144.252
52.03000 144.188
52.04000 141.662
52.05000 138.685
52.06000 136.263
52.07000 137.852
52.08000 140.236
52.09000 141.944
52.10000 140.520
52.11000 138.702
52.12000 137.303
52.13000 140.732
52.14000 143.721
52.15000 146.897
52.16000 150.471
52.17000 154.058
52.18000 153.788
52.19000 147.937
52.20000 142.041
52.21000 140.481
52.22000 143.030
52.23000 145.524
52.24000 143.845
52.25000 139.545
52.26000 135.425
52.27000 135.677
52.28000 137.799
52.29000 139.792
52.30000 139.994
52.31000 139.701
52.32000 139.447
52.33000 139.469
52.34000 139.544
52.35000 140.034
52.36000 142.415
52.37000 145.030
52.38000 147.033
52.39000 146.305
52.40000 145.580
52.41000 144.599
52.42000 143.084
52.43000 141.552
52.44000 140.737
52.45000 140.941
52.46000 141.153
52.47000 138.934
52.48000 134.458
52.49000 130.070
52.50000 132.081
52.51000 138.036
52.52000 143.614
52.53000 140.381
52.54000 133.445
52.55000 126.942
52.56000 134.152
52.57000 144.297
52.58000 152.675
52.59000 148.838
52.60000 142.669
52.61000 137.249
52.62000 135.173
52.63000 133.500
52.64000 132.223
52.65000 136.280
52.66000 139.762
52.67000 141.727
52.68000 140.567
52.69000 139.313
52.70000 138.686
52.71000 138.932
52.72000 139.184
52.73000 138.380
52.74000 136.615
52.75000 134.890
52.76000 135.922
52.77000 138.624
52.78000 141.069
52.79000 137.719
52.80000 131.975
52.81000 126.600
52.82000 127.069
52.83000 128.991
52.84000 131.132
52.85000 134.759
52.86000 138.665
52.87000 141.883
52.88000 142.083
52.89000 141.928
52.90000 141.811
52.91000 141.536
52.92000 141.313
52.93000 140.898
52.94000 140.095
52.95000 139.282
52.96000 140.007
52.97000 142.841
52.98000 145.686
52.99000 147.244
53.00000 147.652
53.01000 148.044
53.02000 147.473
53.03000 146.328
53.04000 145.262
53.05000 145.892
53.06000 147.211
53.07000 148.442
53.08000 146.592
53.09000 144.141
53.10000 141.762
53.11000 139.860
53.12000 138.045
53.13000 137.184
53.14000 140.430
53.15000 144.148
53.16000 146.959
53.17000 142.300
53.18000 138.273
53.19000 137.223
53.20000 142.100
53.21000 147.140
53.22000 150.727
53.23000 152.361
53.24000 153.984
53.25000 154.640
53.26000 154.451
53.27000 154.241
53.28000 152.853
53.29000 150.776
53.30000 148.726
53.31000 147.247
53.32000 145.995
53.33000 144.829
53.34000 148.560
53.35000 153.141
53.36000 156.997
53.37000 156.143
53.38000 154.440
53.39000 153.258
53.40000 154.280
53.41000 155.549
53.42000 156.504
53.43000 152.014
53.44000 148.239
53.45000 146.138
53.46000 147.313
53.47000 148.575
53.48000 148.251
53.49000 145.835
53.50000 143.410
53.51000 140.567
53.52000 137.369
53.53000 134.297
53.54000 138.174
53.55000 146.045
53.56000 153.606
53.57000 154.904
53.58000 153.742
53.59000 152.662
53.60000 153.399
53.61000 154.502
53.62000 155.135
53.63000 152.769
53.64000 149.875
53.65000 147.674
53.66000 148.358
53.67000 149.357
53.68000 150.106
53.69000 146.476
53.70000 143.438
53.71000 142.437
53.72000 145.352
53.73000 148.365
53.74000 150.556
53.75000 151.680
53.76000 152.798
53.77000 151.463
53.78000 148.067
53.79000 144.771
53.80000 146.631
53.81000 151.403
53.82000 155.895
53.83000 154.920
53.84000 151.835
53.85000 148.971
53.86000 145.677
53.87000 142.607
53.88000 139.869
53.89000 139.208
53.90000 138.906
53.91000 139.134
53.92000 141.525
53.93000 144.147
53.94000 146.101
53.95000 139.279
53.96000 133.571
53.97000 130.910
53.98000 134.008
53.99000 137.242
54.00000 139.654
54.01000 141.017
54.02000 142.376
54.03000 142.777
54.04000 142.387
54.05000 142.022
54.06000 142.890
54.07000 144.442
54.08000 145.845
54.09000 144.440
54.10000 141.972
54.11000 139.684
54.12000 137.619
54.13000 135.812
54.14000 134.295
54.15000 134.551
54.16000 135.107
54.17000 135.737
54.18000 136.659
54.19000 137.612
54.20000 138.319
54.21000 143.361
54.22000 147.466
54.23000 149.194
54.24000 146.506
54.25000 143.719
54.26000 141.874
54.27000 141.205
54.28000 140.540
54.29000 139.212
54.30000 137.353
54.31000 135.516
54.32000 134.672
54.33000 134.369
54.34000 134.090
54.35000 134.234
54.36000 134.536
54.37000 134.815
54.38000 136.844
54.39000 139.064
54.40000 140.750
54.41000 139.237
54.42000 137.192
54.43000 136.357
54.44000 140.280
54.45000 144.688
54.46000 147.941
54.47000 140.544
54.48000 134.362
54.49000 131.447
54.50000 134.492
54.51000 137.664
54.52000 138.399
54.53000 136.147
54.54000 133.891
54.55000 133.195
54.56000 133.741
54.57000 134.279
54.58000 134.491
54.59000 134.530
54.60000 134.747
54.61000 138.130
54.62000 142.672
54.63000 146.862
54.64000 142.665
54.65000 137.036
54.66000 132.407
54.67000 133.636
54.68000 135.819
54.69000 137.662
54.70000 138.190
54.71000 138.586
54.72000 138.877
54.73000 140.352
54.74000 141.540
54.75000 142.485
54.76000 142.995
54.77000 143.495
54.78000 143.588
54.79000 143.191
54.80000 142.794
54.81000 144.359
54.82000 147.442
54.83000 150.395
54.84000 147.902
54.85000 142.539
54.86000 137.616
54.87000 140.215
54.88000 145.523
54.89000 150.408
54.90000 154.798
54.91000 158.614
54.92000 161.552
54.93000 159.438
54.94000 156.517
54.95000 153.858
54.96000 152.195
54.97000 150.629
54.98000 149.485
54.99000 148.568
55.00000 147.871
55.01000 147.893
55.02000 149.184
55.03000 150.499
55.04000 147.821
55.05000 140.431
55.06000 133.051
55.07000 130.993
55.08000 133.009
55.09000 135.054
55.10000 138.218
55.11000 141.961
55.12000 145.641
55.13000 148.279
55.14000 150.547
55.15000 152.630
55.16000 155.105
55.17000 157.397
55.18000 159.678
55.19000 161.896
55.20000 164.104
55.21000 165.153
55.22000 161.878
55.23000 158.195
55.24000 155.518
55.25000 150.711
55.26000 146.933
55.27000 144.643
55.28000 144.930
55.29000 145.263
55.30000 147.705
55.31000 152.588
55.32000 157.461
55.33000 163.117
55.34000 169.321
55.35000 175.276
55.36000 171.817
55.37000 163.568
55.38000 156.023
55.39000 159.779
55.40000 167.467
55.41000 174.513
55.42000 181.284
55.43000 187.255
55.44000 191.973
55.45000 189.763
55.46000 186.492
55.47000 186.549
55.48000 198.795
55.49000 212.166
55.50000 221.835
55.51000 224.914
55.52000 227.037
55.53000 227.502
55.54000 225.145
55.55000 222.741
55.56000 226.817
55.57000 238.252
55.58000 249.658
55.59000 256.149
55.60000 258.980
55.61000 261.999
55.62000 271.766
55.63000 284.910
55.64000 297.712
55.65000 305.208
55.66000 310.889
55.67000 316.083
55.68000 326.517
55.69000 336.865
55.70000 347.359
55.71000 358.652
55.72000 370.064
55.73000 381.893
55.74000 395.221
55.75000 408.684
55.76000 418.369
55.77000 436.234
55.78000 450.196
55.79000 465.207
55.80000 481.975
55.81000 498.771
55.82000 512.304
55.83000 522.205
55.84000 532.067
55.85000 529.861
55.86000 518.979
55.87000 508.711
55.88000 519.449
55.89000 540.517
55.90000 560.854
55.91000 570.169
55.92000 575.778
55.93000 580.894
55.94000 577.224
55.95000 572.203
55.96000 567.009
55.97000 560.895
55.98000 554.647
55.99000 550.744
56.00000 555.133
56.01000 560.247
56.02000 563.907
56.03000 555.278
56.04000 548.274
56.05000 534.391
56.06000 509.202
56.07000 483.848
56.08000 473.518
56.09000 479.597
56.10000 485.660
56.11000 477.498
56.12000 459.363
56.13000 441.213
56.14000 422.617
56.15000 403.804
56.16000 385.443
56.17000 373.697
56.18000 364.136
56.19000 355.436
56.20000 345.118
56.21000 335.669
56.22000 326.573
56.23000 319.319
56.24000 312.330
56.25000 304.568
56.26000 294.120
56.27000 283.444
56.28000 275.845
56.29000 263.098
56.30000 253.221
56.31000 246.225
56.32000 243.881
56.33000 241.600
56.34000 234.445
56.35000 222.069
56.36000 209.746
56.37000 203.110
56.38000 200.486
56.39000 197.808
56.40000 193.419
56.41000 188.219
56.42000 183.118
56.43000 179.428
56.44000 176.196
56.45000 173.263
56.46000 169.050
56.47000 165.083
56.48000 161.778
56.49000 161.863
56.50000 162.424
56.51000 161.903
56.52000 157.689
56.53000 153.168
56.54000 149.967
56.55000 154.440
56.56000 158.077
56.57000 160.969
56.58000 162.676
56.59000 164.369
56.60000 161.854
56.61000 154.920
56.62000 148.019
56.63000 144.053
56.64000 142.127
56.65000 140.343
56.66000 142.780
56.67000 147.188
56.68000 151.353
56.69000 152.151
56.70000 151.874
56.71000 151.623
56.72000 148.260
56.73000 144.707
56.74000 141.535
56.75000 140.269
56.76000 139.266
56.77000 139.717
56.78000 145.044
56.79000 150.766
56.80000 154.794
56.81000 146.329
56.82000 139.540
56.83000 136.102
56.84000 137.885
56.85000 139.730
56.86000 138.692
56.87000 134.687
56.88000 130.703
56.89000 130.822
56.90000 133.677
56.91000 136.427
56.92000 136.182
56.93000 134.561
56.94000 132.914
56.95000 130.928
56.96000 128.835
56.97000 126.944
56.98000 125.891
56.99000 125.121
57.00000 124.385
57.01000 123.811
57.02000 123.259
57.03000 122.495
57.04000 121.030
57.05000 119.510
57.06000 118.446
57.07000 126.260
57.08000 132.422
57.09000 135.249
57.10000 132.971
57.11000 130.638
57.12000 128.087
57.13000 125.315
57.14000 122.560
57.15000 123.385
57.16000 126.541
57.17000 129.580
57.18000 129.402
57.19000 127.771
57.20000 126.470
57.21000 129.467
57.22000 133.790
57.23000 137.685
57.24000 134.577
57.25000 130.578
57.26000 127.159
57.27000 126.532
57.28000 126.274
57.29000 126.654
57.30000 129.098
57.31000 131.701
57.32000 133.514
57.33000 133.158
57.34000 132.831
57.35000 130.906
57.36000 126.576
57.37000 122.223
57.38000 118.647
57.39000 115.840
57.40000 113.051
57.41000 112.473
57.42000 113.325
57.43000 114.173
57.44000 114.916
57.45000 115.614
57.46000 116.535
57.47000 120.303
57.48000 124.932
57.49000 129.094
57.50000 133.592
57.51000 137.591
57.52000 140.318
57.53000 137.017
57.54000 132.938
57.55000 129.852
57.56000 129.926
57.57000 130.235
57.58000 130.449
57.59000 134.944
57.60000 138.437
57.61000 139.714
57.62000 137.715
57.63000 135.687
57.64000 134.011
57.65000 132.676
57.66000 131.352
57.67000 131.442
57.68000 132.423
57.69000 133.299
57.70000 131.513
57.71000 128.567
57.72000 125.703
57.73000 123.849
57.74000 122.295
57.75000 120.902
57.76000 121.437
57.77000 122.240
57.78000 122.605
57.79000 120.934
57.80000 119.006
57.81000 118.086
57.82000 120.316
57.83000 122.773
57.84000 124.465
57.85000 128.841
57.86000 132.193
57.87000 133.316
57.88000 131.206
57.89000 129.068
57.90000 126.094
57.91000 122.324
57.92000 118.583
57.93000 116.403
57.94000 115.225
57.95000 114.283
57.96000 119.079
57.97000 126.335
57.98000 132.863
57.99000 130.642
58.00000 125.861
58.01000 121.585
58.02000 125.949
58.03000 131.226
58.04000 134.448
58.05000 128.289
58.06000 120.973
58.07000 115.723
58.08000 116.823
58.09000 118.369
58.10000 119.427
58.11000 119.119
58.12000 118.856
58.13000 119.673
58.14000 122.028
58.15000 124.394
58.16000 124.526
58.17000 122.574
58.18000 120.639
58.19000 122.570
58.20000 126.812
58.21000 130.802
58.22000 128.863
58.23000 124.426
58.24000 120.432
58.25000 121.613
58.26000 124.282
58.27000 126.663
58.28000 121.243
58.29000 115.227
58.30000 111.115
58.31000 115.538
58.32000 120.990
58.33000 124.514
58.34000 122.212
58.35000 119.513
58.36000 117.677
58.37000 112.396
58.38000 108.374
58.39000 106.904
58.40000 109.006
58.41000 111.131
58.42000 113.645
58.43000 116.514
58.44000 119.356
58.45000 120.929
58.46000 121.716
58.47000 122.431
58.48000 121.517
58.49000 119.929
58.50000 118.772
58.51000 122.533
58.52000 127.683
58.53000 132.265
58.54000 129.980
58.55000 126.877
58.56000 124.057
58.57000 122.486
58.58000 121.062
58.59000 119.174
58.60000 115.907
58.61000 112.550
58.62000 110.279
58.63000 111.747
58.64000 112.921
58.65000 115.698
58.66000 120.676
58.67000 125.663
58.68000 124.407
58.69000 117.557
58.70000 110.774
58.71000 111.262
58.72000 115.987
58.73000 120.499
58.74000 120.365
58.75000 118.340
58.76000 116.324
58.77000 114.400
58.78000 112.503
58.79000 110.819
58.80000 111.298
58.81000 112.058
58.82000 112.750
58.83000 113.148
58.84000 113.512
58.85000 115.045
58.86000 119.991
58.87000 125.156
58.88000 128.627
58.89000 128.895
58.90000 129.027
58.91000 128.736
58.92000 127.873
58.93000 127.004
58.94000 124.079
58.95000 119.345
58.96000 114.660
58.97000 114.727
58.98000 117.516
58.99000 120.270
59.00000 122.308
59.01000 124.059
59.02000 125.570
59.03000 124.495
59.04000 122.715
59.05000 121.140
59.06000 122.516
59.07000 124.167
59.08000 124.234
59.09000 117.586
59.10000 110.181
59.11000 105.908
59.12000 110.614
59.13000 115.880
59.14000 119.397
59.15000 117.908
59.16000 116.706
59.17000 117.565
59.18000 121.151
59.19000 124.745
59.20000 125.119
59.21000 122.716
59.22000 120.341
59.23000 119.533
59.24000 119.627
59.25000 119.492
59.26000 114.713
59.27000 108.107
59.28000 102.539
59.29000 107.910
59.30000 116.209
59.31000 123.534
59.32000 118.931
59.33000 113.138
59.34000 109.178
59.35000 112.850
59.36000 117.361
59.37000 119.818
59.38000 116.487
59.39000 112.806
59.40000 110.362
59.41000 111.447
59.42000 112.314
59.43000 114.130
59.44000 117.180
59.45000 120.231
59.46000 121.466
59.47000 121.165
59.48000 120.868
59.49000 122.081
59.50000 124.097
59.51000 125.975
59.52000 125.113
59.53000 123.192
59.54000 121.633
59.55000 123.795
59.56000 126.937
59.57000 129.702
59.58000 126.731
59.59000 123.315
59.60000 120.613
59.61000 120.832
59.62000 121.364
59.63000 121.880
59.64000 122.356
59.65000 122.830
59.66000 123.142
59.67000 124.130
59.68000 124.870
59.69000 124.870
59.70000 123.926
59.71000 122.975
59.72000 120.631
59.73000 117.130
59.74000 113.674
59.75000 114.052
59.76000 116.497
59.77000 118.749
59.78000 117.365
59.79000 114.598
59.80000 112.184
59.81000 113.307
59.82000 115.344
59.83000 117.132
59.84000 115.968
59.85000 114.537
59.86000 114.551
59.87000 120.371
59.88000 126.798
59.89000 130.050
59.90000 124.651
59.91000 118.764
59.92000 114.903
59.93000 117.726
59.94000 119.912
59.95000 121.945
59.96000 123.787
59.97000 125.620
59.98000 124.519
59.99000 121.028
60.00000 117.584
60.01000 117.844
60.02000 120.066
60.03000 122.089
60.04000 120.469
60.05000 117.487
60.06000 114.862
60.07000 115.727
60.08000 117.479
60.09000 119.012
60.10000 118.245
60.11000 117.259
60.12000 117.277
60.13000 121.253
60.14000 125.634
60.15000 127.348
60.16000 121.919
60.17000 116.100
60.18000 112.309
60.19000 114.163
60.20000 115.611
60.21000 117.860
60.22000 121.095
60.23000 124.319
60.24000 123.144
60.25000 118.452
60.26000 113.829
60.27000 113.021
60.28000 114.227
60.29000 115.518
60.30000 118.301
60.31000 121.632
60.32000 124.487
60.33000 122.787
60.34000 119.953
60.35000 117.480
60.36000 119.013
60.37000 120.884
60.38000 121.376
60.39000 116.528
60.40000 111.146
60.41000 107.494
60.42000 108.392
60.43000 109.530
60.44000 110.267
60.45000 113.437
60.46000 115.791
60.47000 118.936
60.48000 123.034
60.49000 127.117
60.50000 126.014
60.51000 120.844
60.52000 115.754
60.53000 116.683
60.54000 120.667
60.55000 124.425
60.56000 124.308
60.57000 122.790
60.58000 121.430
60.59000 121.540
60.60000 122.010
60.61000 122.419
60.62000 120.268
60.63000 118.083
60.64000 116.857
60.65000 119.283
60.66000 122.065
60.67000 122.819
60.68000 118.328
60.69000 113.570
60.70000 110.510
60.71000 113.484
60.72000 115.737
60.73000 119.008
60.74000 123.480
60.75000 127.941
60.76000 128.870
60.77000 127.080
60.78000 125.320
60.79000 123.588
60.80000 121.925
60.81000 120.293
60.82000 119.181
60.83000 118.254
60.84000 117.427
60.85000 117.508
60.86000 117.807
60.87000 118.066
60.88000 118.851
60.89000 119.590
60.90000 120.557
60.91000 122.377
60.92000 124.278
60.93000 124.833
60.94000 121.970
60.95000 118.937
60.96000 117.000
60.97000 116.772
60.98000 116.629
60.99000 116.746
61.00000 117.168
61.01000 117.598
61.02000 119.976
61.03000 123.825
61.04000 127.607
61.05000 128.234
61.06000 127.282
61.07000 126.301
61.08000 124.846
61.09000 123.225
61.10000 121.783
61.11000 121.935
61.12000 122.463
61.13000 122.920
61.14000 121.894
61.15000 120.828
61.16000 121.295
61.17000 127.389
61.18000 134.004
61.19000 137.696
61.20000 134.081
61.21000 130.117
61.22000 127.603
61.23000 128.803
61.24000 129.719
61.25000 129.158
61.26000 126.915
61.27000 124.681
61.28000 124.381
61.29000 125.517
61.30000 126.633
61.31000 126.619
61.32000 126.060
61.33000 125.487
61.34000 124.701
61.35000 123.843
61.36000 123.251
61.37000 124.968
61.38000 127.219
61.39000 129.161
61.40000 127.145
61.41000 124.932
61.42000 123.140
61.43000 122.870
61.44000 122.738
61.45000 122.732
61.46000 123.037
61.47000 123.357
61.48000 123.558
61.49000 126.633
61.50000 128.892
61.51000 137.076
61.52000 151.879
61.53000 166.667
61.54000 178.143
61.55000 187.205
61.56000 196.094
61.57000 204.840
61.58000 213.197
61.59000 221.921
61.60000 236.184
61.61000 252.314
61.62000 267.268
61.63000 272.238
61.64000 274.936
61.65000 277.256
61.66000 277.332
61.67000 277.116
61.68000 277.842
61.69000 281.904
61.70000 286.259
61.71000 290.051
61.72000 292.484
61.73000 294.856
61.74000 296.341
61.75000 279.517
61.76000 267.178
61.77000 255.826
61.78000 245.554
61.79000 235.272
61.80000 223.354
61.81000 210.264
61.82000 197.436
61.83000 185.171
61.84000 173.633
61.85000 162.450
61.86000 156.470
61.87000 152.214
61.88000 148.242
61.89000 146.632
61.90000 145.549
61.91000 144.621
61.92000 142.708
61.93000 140.972
61.94000 139.443
61.95000 138.636
61.96000 137.891
61.97000 137.166
61.98000 136.489
61.99000 135.815
62.00000 135.396
62.01000 135.289
62.02000 135.215
62.03000 132.958
62.04000 128.356
62.05000 123.784
62.06000 123.294
62.07000 125.672
62.08000 127.999
62.09000 128.962
62.10000 129.263
62.11000 129.467
62.12000 128.292
62.13000 126.667
62.14000 124.976
62.15000 122.740
62.16000 120.384
62.17000 118.373
62.18000 121.401
62.19000 124.552
62.20000 126.695
62.21000 125.390
62.22000 123.797
62.23000 123.437
62.24000 125.956
62.25000 128.593
62.26000 130.220
62.27000 135.369
62.28000 139.099
62.29000 138.551
62.30000 133.499
62.31000 128.494
62.32000 129.318
62.33000 134.164
62.34000 138.904
62.35000 137.145
62.36000 132.540
62.37000 128.307
62.38000 129.225
62.39000 131.792
62.40000 133.866
62.41000 132.028
62.42000 129.349
62.43000 127.068
62.44000 128.297
62.45000 129.737
62.46000 130.521
62.47000 129.100
62.48000 127.500
62.49000 125.904
62.50000 124.317
62.51000 122.729
62.52000 121.757
62.53000 126.145
62.54000 129.333
62.55000 132.096
62.56000 134.421
62.57000 136.715
62.58000 135.705
62.59000 132.456
62.60000 129.281
62.61000 126.930
62.62000 125.041
62.63000 123.406
62.64000 125.187
62.65000 128.043
62.66000 130.518
62.67000 130.036
62.68000 128.930
62.69000 127.991
62.70000 133.027
62.71000 137.929
62.72000 140.903
62.73000 137.510
62.74000 133.614
62.75000 130.844
62.76000 130.612
62.77000 130.478
62.78000 130.396
62.79000 131.312
62.80000 131.974
62.81000 135.572
62.82000 142.141
62.83000 148.643
62.84000 148.415
62.85000 143.709
62.86000 139.116
62.87000 134.508
62.88000 130.096
62.89000 126.109
62.90000 127.679
62.91000 130.967
62.92000 133.676
62.93000 131.994
62.94000 129.402
62.95000 127.209
62.96000 132.074
62.97000 136.926
62.98000 140.582
62.99000 140.354
63.00000 139.829
63.01000 137.188
63.02000 129.858
63.03000 122.357
63.04000 117.829
63.05000 129.675
63.06000 138.227
63.07000 142.531
63.08000 142.621
63.09000 142.692
63.10000 141.010
63.11000 138.181
63.12000 135.425
63.13000 137.794
63.14000 142.229
63.15000 146.210
63.16000 144.403
63.17000 140.839
63.18000 138.214
63.19000 142.561
63.20000 148.327
63.21000 153.186
63.22000 146.023
63.23000 138.742
63.24000 133.235
63.25000 133.386
63.26000 133.959
63.27000 134.638
63.28000 135.552
63.29000 136.473
63.30000 137.025
63.31000 137.691
63.32000 138.165
63.33000 137.936
63.34000 137.024
63.35000 136.089
63.36000 133.214
63.37000 129.094
63.38000 125.082
63.39000 124.466
63.40000 125.293
63.41000 126.357
63.42000 130.373
63.43000 135.269
63.44000 139.281
63.45000 136.874
63.46000 133.187
63.47000 130.090
63.48000 137.074
63.49000 143.957
63.50000 147.676
63.51000 141.478
63.52000 134.561
63.53000 131.429
63.54000 136.404
63.55000 141.652
63.56000 144.771
63.57000 136.795
63.58000 131.081
63.59000 129.107
63.60000 130.700
63.61000 132.285
63.62000 133.264
63.63000 133.860
63.64000 134.441
63.65000 137.177
63.66000 140.661
63.67000 143.900
63.68000 144.195
63.69000 143.627
63.70000 142.884
63.71000 140.898
63.72000 138.670
63.73000 136.804
63.74000 144.407
63.75000 151.701
63.76000 154.777
63.77000 144.858
63.78000 134.023
63.79000 129.342
63.80000 137.625
63.81000 146.323
63.82000 151.455
63.83000 145.876
63.84000 141.880
63.85000 142.565
63.86000 147.623
63.87000 152.579
63.88000 149.914
63.89000 142.527
63.90000 135.353
63.91000 136.573
63.92000 141.097
63.93000 145.691
63.94000 151.109
63.95000 156.764
63.96000 160.904
63.97000 154.498
63.98000 146.067
63.99000 139.032
64.00000 139.851
64.01000 141.319
64.02000 142.239
64.03000 141.504
64.04000 140.656
64.05000 141.226
64.06000 144.734
64.07000 148.332
64.08000 150.439
64.09000 153.406
64.10000 155.499
64.11000 154.845
64.12000 151.677
64.13000 148.559
64.14000 148.971
64.15000 151.532
64.16000 154.016
64.17000 155.614
64.18000 156.779
64.19000 157.406
64.20000 151.876
64.21000 144.604
64.22000 138.375
64.23000 139.258
64.24000 141.479
64.25000 143.326
64.26000 144.664
64.27000 145.722
64.28000 146.084
64.29000 144.377
64.30000 142.532
64.31000 142.199
64.32000 144.946
64.33000 147.783
64.34000 149.431
64.35000 151.652
64.36000 153.213
64.37000 152.176
64.38000 148.807
64.39000 145.504
64.40000 146.427
64.41000 149.880
64.42000 153.224
64.43000 155.915
64.44000 158.207
64.45000 160.646
64.46000 164.709
64.47000 169.224
64.48000 172.371
64.49000 166.395
64.50000 158.734
64.51000 152.386
64.52000 156.798
64.53000 161.468
64.54000 162.902
64.55000 154.869
64.56000 146.226
64.57000 141.759
64.58000 145.643
64.59000 149.761
64.60000 152.134
64.61000 155.051
64.62000 157.097
64.63000 159.576
64.64000 162.436
64.65000 165.259
64.66000 165.761
64.67000 164.899
64.68000 164.065
64.69000 164.064
64.70000 164.379
64.71000 164.987
64.72000 168.782
64.73000 173.448
64.74000 177.146
64.75000 174.515
64.76000 170.738
64.77000 167.621
64.78000 171.950
64.79000 176.209
64.80000 178.347
64.81000 174.385
64.82000 170.041
64.83000 167.617
64.84000 168.969
64.85000 170.420
64.86000 171.250
64.87000 175.815
64.88000 179.015
64.89000 182.846
64.90000 187.224
64.91000 191.517
64.92000 191.001
64.93000 187.708
64.94000 184.526
64.95000 185.617
64.96000 188.235
64.97000 190.247
64.98000 185.845
64.99000 179.721
65.00000 174.243
65.01000 172.891
65.02000 172.273
65.03000 171.764
65.04000 177.586
65.05000 182.946
65.06000 188.650
65.07000 195.328
65.08000 202.064
65.09000 205.649
65.10000 203.142
65.11000 200.482
65.12000 198.974
65.13000 198.356
65.14000 197.932
65.15000 199.659
65.16000 203.210
65.17000 206.710
65.18000 207.524
65.19000 206.814
65.20000 206.128
65.21000 210.895
65.22000 217.371
65.23000 223.204
65.24000 222.398
65.25000 219.842
65.26000 217.798
65.27000 218.968
65.28000 220.699
65.29000 222.117
65.30000 229.856
65.31000 236.762
65.32000 241.769
65.33000 241.501
65.34000 240.924
65.35000 241.923
65.36000 245.916
65.37000 249.981
65.38000 252.266
65.39000 252.657
65.40000 252.932
65.41000 257.779
65.42000 266.430
65.43000 274.949
65.44000 276.879
65.45000 275.132
65.46000 273.450
65.47000 277.946
65.48000 284.381
65.49000 290.713
65.50000 296.016
65.51000 301.052
65.52000 305.818
65.53000 308.922
65.54000 311.742
65.55000 314.045
65.56000 320.293
65.57000 325.745
65.58000 331.159
65.59000 336.472
65.60000 341.780
65.61000 350.240
65.62000 364.588
65.63000 379.070
65.64000 387.143
65.65000 435.762
65.66000 469.512
65.67000 512.300
65.68000 562.467
65.69000 613.043
65.70000 682.914
65.71000 763.364
65.72000 840.754
65.73000 953.621
65.74000 1071.911
65.75000 1190.074
65.76000 1306.983
65.77000 1423.572
65.78000 1534.713
65.79000 1613.058
65.80000 1685.918
65.81000 1745.186
65.82000 1786.245
65.83000 1818.240
65.84000 1842.376
65.85000 1845.417
65.86000 1847.300
65.87000 1848.745
65.88000 1849.388
65.89000 1850.014
65.90000 1850.360
65.91000 1808.932
65.92000 1780.209
65.93000 1728.213
65.94000 1657.564
65.95000 1586.212
65.96000 1483.336
65.97000 1363.474
65.98000 1248.340
65.99000 1126.691
66.00000 1010.596
66.01000 896.938
66.02000 806.653
66.03000 722.209
66.04000 641.910
66.05000 586.073
66.06000 534.245
66.07000 492.246
66.08000 454.344
66.09000 423.804
66.10000 400.524
66.11000 396.399
66.12000 393.293
66.13000 388.413
66.14000 380.335
66.15000 372.192
66.16000 367.731
66.17000 367.301
66.18000 367.003
66.19000 364.291
66.20000 359.679
66.21000 355.232
66.22000 357.735
66.23000 363.919
66.24000 369.850
66.25000 379.813
66.26000 390.484
66.27000 402.107
66.28000 422.642
66.29000 445.363
66.30000 466.927
66.31000 481.788
66.32000 495.574
66.33000 506.703
66.34000 542.999
66.35000 574.496
66.36000 597.967
66.37000 600.622
66.38000 602.207
66.39000 602.378
66.40000 600.042
66.41000 597.659
66.42000 596.364
66.43000 598.289
66.44000 599.603
66.45000 598.456
66.46000 595.410
66.47000 592.292
66.48000 586.290
66.49000 578.788
66.50000 571.603
66.51000 547.306
66.52000 518.972
66.53000 491.549
66.54000 472.457
66.55000 455.372
66.56000 438.497
66.57000 422.811
66.58000 407.311
66.59000 394.848
66.60000 378.530
66.61000 365.001
66.62000 355.212
66.63000 354.961
66.64000 355.184
66.65000 352.516
66.66000 344.816
66.67000 337.025
66.68000 332.831
66.69000 344.556
66.70000 352.559
66.71000 355.132
66.72000 353.587
66.73000 351.952
66.74000 346.835
66.75000 339.937
66.76000 333.341
66.77000 338.043
66.78000 346.097
66.79000 353.811
66.80000 358.486
66.81000 362.441
66.82000 364.399
66.83000 355.257
66.84000 344.404
66.85000 335.712
66.86000 337.702
66.87000 340.116
66.88000 341.975
66.89000 342.442
66.90000 342.843
66.91000 346.210
66.92000 354.654
66.93000 363.184
66.94000 367.735
66.95000 357.694
66.96000 350.866
66.97000 348.733
66.98000 350.095
66.99000 351.568
67.00000 357.109
67.01000 364.695
67.02000 371.938
67.03000 374.369
67.04000 375.089
67.05000 375.890
67.06000 377.394
67.07000 379.062
67.08000 380.517
67.09000 380.814
67.10000 380.937
67.11000 381.034
67.12000 379.113
67.13000 377.415
67.14000 377.536
67.15000 382.140
67.16000 386.951
67.17000 385.411
67.18000 373.193
67.19000 360.804
67.20000 354.256
67.21000 357.828
67.22000 360.276
67.23000 365.501
67.24000 372.753
67.25000 379.983
67.26000 386.413
67.27000 392.448
67.28000 398.200
67.29000 394.570
67.30000 388.265
67.31000 382.374
67.32000 380.014
67.33000 378.459
67.34000 378.041
67.35000 383.706
67.36000 390.270
67.37000 395.485
67.38000 390.384
67.39000 385.544
67.40000 383.521
67.41000 388.322
67.42000 393.427
67.43000 398.229
67.44000 402.528
67.45000 406.819
67.46000 409.066
67.47000 405.190
67.48000 402.570
67.49000 400.908
67.50000 399.933
67.51000 399.111
67.52000 403.336
67.53000 410.012
67.54000 416.366
67.55000 414.294
67.56000 409.786
67.57000 406.122
67.58000 409.488
67.59000 414.428
67.60000 419.360
67.61000 424.252
67.62000 429.138
67.63000 433.004
67.64000 436.601
67.65000 439.472
67.66000 442.162
67.67000 444.420
67.68000 446.660
67.69000 447.243
67.70000 445.137
67.71000 442.994
67.72000 441.882
67.73000 440.660
67.74000 439.866
67.75000 443.260
67.76000 449.604
67.77000 455.861
67.78000 459.363
67.79000 461.548
67.80000 463.625
67.81000 462.355
67.82000 460.172
67.83000 458.379
67.84000 459.760
67.85000 461.839
67.86000 463.402
67.87000 462.309
67.88000 460.840
67.89000 459.683
67.90000 467.611
67.91000 474.576
67.92000 478.339
67.93000 474.609
67.94000 470.570
67.95000 475.070
67.96000 493.186
67.97000 511.479
67.98000 520.876
67.99000 500.890
68.00000 487.534
68.01000 485.480
68.02000 491.245
68.03000 496.941
68.04000 500.533
68.05000 503.139
68.06000 505.609
68.07000 495.915
68.08000 483.378
68.09000 473.536
68.10000 485.132
68.11000 501.353
68.12000 515.960
68.13000 522.423
68.14000 527.758
68.15000 531.944
68.16000 521.337
68.17000 511.891
68.18000 509.029
68.19000 521.316
68.20000 534.205
68.21000 541.964
68.22000 541.687
68.23000 541.313
68.24000 541.124
68.25000 551.682
68.26000 558.695
68.27000 558.165
68.28000 552.511
68.29000 547.228
68.30000 552.728
68.31000 563.203
68.32000 573.121
68.33000 575.742
68.34000 576.038
68.35000 576.220
68.36000 575.519
68.37000 574.632
68.38000 575.489
68.39000 584.978
68.40000 595.638
68.41000 603.968
68.42000 622.521
68.43000 637.972
68.44000 649.557
68.45000 652.404
68.46000 654.917
68.47000 658.764
68.48000 664.667
68.49000 670.592
68.50000 673.576
68.51000 684.268
68.52000 691.477
68.53000 705.186
68.54000 723.233
68.55000 741.161
68.56000 755.766
68.57000 768.864
68.58000 781.243
68.59000 794.935
68.60000 807.883
68.61000 823.285
68.62000 857.364
68.63000 895.325
68.64000 934.067
68.65000 976.608
68.66000 1019.654
68.67000 1053.144
68.68000 1092.581
68.69000 1124.340
68.70000 1160.212
68.71000 1205.227
68.72000 1250.578
68.73000 1292.656
68.74000 1329.790
68.75000 1366.873
68.76000 1405.446
68.77000 1445.500
68.78000 1485.602
68.79000 1530.307
68.80000 1578.027
68.81000 1626.391
68.82000 1691.964
68.83000 1765.208
68.84000 1834.310
68.85000 1912.201
68.86000 1986.049
68.87000 2068.774
68.88000 2217.619
68.89000 2379.944
68.90000 2587.161
68.91000 3008.345
68.92000 3457.321
68.93000 3805.122
68.94000 5328.567
68.95000 6608.474
68.96000 8276.874
68.97000 10794.263
68.98000 13341.489
68.99000 16255.201
69.00000 19713.059
69.01000 23175.924
69.02000 26359.381
69.03000 29270.227
69.04000 32173.904
69.05000 34455.895
69.06000 36337.605
69.07000 38186.422
69.08000 39191.113
69.09000 39825.836
69.10000 40423.574
69.11000 41109.082
69.12000 41760.211
69.13000 42428.262
69.14000 43219.598
69.15000 44035.598
69.16000 44770.531
69.17000 45126.277
69.18000 45433.852
69.19000 45671.070
69.20000 44297.855
69.21000 43116.840
69.22000 41410.758
69.23000 38576.746
69.24000 35704.750
69.25000 33022.355
69.26000 30616.451
69.27000 28213.057
69.28000 26258.764
69.29000 24734.021
69.30000 23215.984
69.31000 22236.357
69.32000 21597.281
69.33000 20970.756
69.34000 20653.879
69.35000 20470.414
69.36000 20297.955
69.37000 19720.527
69.38000 19084.611
69.39000 18365.387
69.40000 17052.035
69.41000 15622.087
69.42000 14119.363
69.43000 12282.528
69.44000 10404.191
69.45000 8961.938
69.46000 7275.418
69.47000 5928.562
69.48000 4746.698
69.49000 3913.241
69.50000 3091.015
69.51000 2468.555
69.52000 2132.189
69.53000 1798.081
69.54000 1568.958
69.55000 1438.269
69.56000 1308.172
69.57000 1222.233
69.58000 1163.734
69.59000 1106.015
69.60000 1066.793
69.61000 1035.406
69.62000 1005.957
69.63000 953.528
69.64000 899.705
69.65000 849.471
69.66000 824.290
69.67000 803.932
69.68000 783.216
69.69000 760.887
69.70000 738.361
69.71000 721.143
69.72000 715.821
69.73000 712.268
69.74000 705.192
69.75000 690.803
69.76000 676.188
69.77000 662.539
69.78000 650.249
69.79000 637.970
69.80000 628.366
69.81000 621.225
69.82000 614.045
69.83000 604.258
69.84000 592.879
69.85000 581.724
69.86000 575.696
69.87000 571.802
69.88000 568.156
69.89000 557.153
69.90000 545.248
69.91000 533.705
69.92000 524.633
69.93000 516.027
69.94000 508.715
69.95000 507.120
69.96000 506.205
69.97000 505.508
69.98000 499.843
69.99000 495.124
70.00000 492.340
