20.00000 491.961
20.01000 479.736
20.02000 465.765
20.03000 456.153
20.04000 463.728
20.05000 473.059
20.06000 479.949
20.07000 468.065
20.08000 458.058
20.09000 452.230
20.10000 454.047
20.11000 456.027
20.12000 456.652
20.13000 455.613
20.14000 454.572
20.15000 458.017
20.16000 465.015
20.17000 471.842
20.18000 471.070
20.19000 466.216
20.20000 461.546
20.21000 460.143
20.22000 459.941
20.23000 459.754
20.24000 464.124
20.25000 469.058
20.26000 472.890
20.27000 470.248
20.28000 466.548
20.29000 465.267
20.30000 473.358
20.31000 482.382
20.32000 489.013
20.33000 479.006
20.34000 470.588
20.35000 467.095
20.36000 472.458
20.37000 477.999
20.38000 480.471
20.39000 479.241
20.40000 478.006
20.41000 479.078
20.42000 481.945
20.43000 484.683
20.44000 481.986
20.45000 476.420
20.46000 471.114
20.47000 470.265
20.48000 471.025
20.49000 471.725
20.50000 465.502
20.51000 458.422
20.52000 452.790
20.53000 455.506
20.54000 459.557
20.55000 463.243
20.56000 465.539
20.57000 467.699
20.58000 469.279
20.59000 467.480
20.60000 465.960
20.61000 464.366
20.62000 462.643
20.63000 460.917
20.64000 461.803
20.65000 465.777
20.66000 469.748
20.67000 470.829
20.68000 469.693
20.69000 468.484
20.70000 464.320
20.71000 458.623
20.72000 453.404
20.73000 456.120
20.74000 461.652
20.75000 466.734
20.76000 458.968
20.77000 449.282
20.78000 442.592
20.79000 452.830
20.80000 465.721
20.81000 474.044
20.82000 465.295
20.83000 454.927
20.84000 447.386
20.85000 455.059
20.86000 461.542
20.87000 465.468
20.88000 464.958
20.89000 464.369
20.90000 465.172
20.91000 467.592
20.92000 470.008
20.93000 468.940
20.94000 465.266
20.95000 461.660
20.96000 460.674
20.97000 461.024
20.98000 461.384
20.99000 461.914
21.00000 462.504
21.01000 463.044
21.02000 465.674
21.03000 468.457
21.04000 470.479
21.05000 468.287
21.06000 465.449
21.07000 464.135
21.08000 468.414
21.09000 473.210
21.10000 476.681
21.11000 467.003
21.12000 459.094
21.13000 455.951
21.14000 460.937
21.15000 466.060
21.16000 470.181
21.17000 473.160
21.18000 476.129
21.19000 473.349
21.20000 466.358
21.21000 459.670
21.22000 463.923
21.23000 473.662
21.24000 482.874
21.25000 483.884
21.26000 482.082
21.27000 480.433
21.28000 475.037
21.29000 469.469
21.30000 463.557
21.31000 455.774
21.32000 447.709
21.33000 442.263
21.34000 446.261
21.35000 451.109
21.36000 454.599
21.37000 473.409
21.38000 488.352
21.39000 494.685
21.40000 486.585
21.41000 478.257
21.42000 472.092
21.43000 468.341
21.44000 464.605
21.45000 463.388
21.46000 464.001
21.47000 464.602
21.48000 464.806
21.49000 464.813
21.50000 464.713
21.51000 462.977
21.52000 460.688
21.53000 458.601
21.54000 457.493
21.55000 456.707
21.56000 457.961
21.57000 470.083
21.58000 483.804
21.59000 493.401
21.60000 488.382
21.61000 482.079
21.62000 477.566
21.63000 473.262
21.64000 469.982
21.65000 470.165
21.66000 476.053
21.67000 482.025
21.68000 484.464
21.69000 483.032
21.70000 481.605
21.71000 479.282
21.72000 476.348
21.73000 473.547
21.74000 475.145
21.75000 478.874
21.76000 482.271
21.77000 480.806
21.78000 477.731
21.79000 474.931
21.80000 479.542
21.81000 485.086
21.82000 488.740
21.83000 482.509
21.84000 474.853
21.85000 469.081
21.86000 469.870
21.87000 471.221
21.88000 472.183
21.89000 477.869
21.90000 482.355
21.91000 486.033
21.92000 488.401
21.93000 490.751
21.94000 496.019
21.95000 504.418
21.96000 512.781
21.97000 514.991
21.98000 512.900
21.99000 510.541
22.00000 499.729
22.01000 484.893
22.02000 471.172
22.03000 473.337
22.04000 480.673
22.05000 487.336
22.06000 501.527
22.07000 515.519
22.08000 526.653
22.09000 523.140
22.10000 517.559
22.11000 511.352
22.12000 503.006
22.13000 494.481
22.14000 488.442
22.15000 495.596
22.16000 501.446
22.17000 508.716
22.18000 518.244
22.19000 527.801
22.20000 524.353
22.21000 507.216
22.22000 490.159
22.23000 485.530
22.24000 489.427
22.25000 493.260
22.26000 495.167
22.27000 496.172
22.28000 496.937
22.29000 494.384
22.30000 490.768
22.31000 487.493
22.32000 481.979
22.33000 476.694
22.34000 471.944
22.35000 469.885
22.36000 468.198
22.37000 467.369
22.38000 469.424
22.39000 471.714
22.40000 473.327
22.41000 465.861
22.42000 459.929
22.43000 454.293
22.44000 449.121
22.45000 443.953
22.46000 442.244
22.47000 444.103
22.48000 445.952
22.49000 444.139
22.50000 439.899
22.51000 435.960
22.52000 440.702
22.53000 449.438
22.54000 457.172
22.55000 451.422
22.56000 441.433
22.57000 432.406
22.58000 438.401
22.59000 446.464
22.60000 453.974
22.61000 458.757
22.62000 463.171
22.63000 465.953
22.64000 463.344
22.65000 460.310
22.66000 458.184
22.67000 458.788
22.68000 459.324
22.69000 458.153
22.70000 454.364
22.71000 450.547
22.72000 443.627
22.73000 433.570
22.74000 423.572
22.75000 425.427
22.76000 435.036
22.77000 444.362
22.78000 445.868
22.79000 443.837
22.80000 442.087
22.81000 444.012
22.82000 447.073
22.83000 449.832
22.84000 448.008
22.85000 445.573
22.86000 444.016
22.87000 446.710
22.88000 449.967
22.89000 451.531
22.90000 447.604
22.91000 443.256
22.92000 440.227
22.93000 442.249
22.94000 443.913
22.95000 443.048
22.96000 438.370
22.97000 433.654
22.98000 433.249
22.99000 437.121
23.00000 440.967
23.01000 439.518
23.02000 434.682
23.03000 430.208
23.04000 435.353
23.05000 444.774
23.06000 453.037
23.07000 446.572
23.08000 435.635
23.09000 425.799
23.10000 440.359
23.11000 457.455
23.12000 470.976
23.13000 467.512
23.14000 461.849
23.15000 456.320
23.16000 451.217
23.17000 446.145
23.18000 442.631
23.19000 444.854
23.20000 446.678
23.21000 445.809
23.22000 440.951
23.23000 436.058
23.24000 435.549
23.25000 439.302
23.26000 443.029
23.27000 443.867
23.28000 442.867
23.29000 441.698
23.30000 436.241
23.31000 428.909
23.32000 422.601
23.33000 428.965
23.34000 439.111
23.35000 448.212
23.36000 442.118
23.37000 434.144
23.38000 428.614
23.39000 434.482
23.40000 441.794
23.41000 446.220
23.42000 441.603
23.43000 436.331
23.44000 432.699
23.45000 443.356
23.46000 451.715
23.47000 458.121
23.48000 461.685
23.49000 465.226
23.50000 462.467
23.51000 453.707
23.52000 445.014
23.53000 442.246
23.54000 443.197
23.55000 444.169
23.56000 445.671
23.57000 447.400
23.58000 449.307
23.59000 453.358
23.60000 458.037
23.61000 462.224
23.62000 457.458
23.63000 451.774
23.64000 446.716
23.65000 444.525
23.66000 442.689
23.67000 441.065
23.68000 440.098
23.69000 439.177
23.70000 438.547
23.71000 449.543
23.72000 458.057
23.73000 465.967
23.74000 473.016
23.75000 480.058
23.76000 483.313
23.77000 483.032
23.78000 482.754
23.79000 482.004
23.80000 480.981
23.81000 480.253
23.82000 486.498
23.83000 495.689
23.84000 504.259
23.85000 505.556
23.86000 504.757
23.87000 504.044
23.88000 511.335
23.89000 519.017
23.90000 524.323
23.91000 518.948
23.92000 512.281
23.93000 509.374
23.94000 517.847
23.95000 527.098
23.96000 533.397
23.97000 536.891
23.98000 539.438
23.99000 538.110
24.00000 531.351
24.01000 524.556
24.02000 520.409
24.03000 518.687
24.04000 516.981
24.05000 515.930
24.06000 515.292
24.07000 514.806
24.08000 517.803
24.09000 522.246
24.10000 525.923
24.11000 520.848
24.12000 513.296
24.13000 506.575
24.14000 502.053
24.15000 498.484
24.16000 495.956
24.17000 498.012
24.18000 500.611
24.19000 500.073
24.20000 490.198
24.21000 479.705
24.22000 472.603
24.23000 473.789
24.24000 474.854
24.25000 471.539
24.26000 462.195
24.27000 452.818
24.28000 450.603
24.29000 454.819
24.30000 458.995
24.31000 456.356
24.32000 449.782
24.33000 443.555
24.34000 444.947
24.35000 449.447
24.36000 453.162
24.37000 448.136
24.38000 440.679
24.39000 434.060
24.40000 438.284
24.41000 443.679
24.42000 446.931
24.43000 440.903
24.44000 433.802
24.45000 429.222
24.46000 432.015
24.47000 435.283
24.48000 437.481
24.49000 439.725
24.50000 441.394
24.51000 435.361
24.52000 418.920
24.53000 402.433
24.54000 398.503
24.55000 405.635
24.56000 412.692
24.57000 415.989
24.58000 417.050
24.59000 418.269
24.60000 422.802
24.61000 428.666
24.62000 433.379
24.63000 425.604
24.64000 414.418
24.65000 404.516
24.66000 409.453
24.67000 416.044
24.68000 421.091
24.69000 419.571
24.70000 417.309
24.71000 415.370
24.72000 414.357
24.73000 413.402
24.74000 412.763
24.75000 414.827
24.76000 416.409
24.77000 417.012
24.78000 416.315
24.79000 415.613
24.80000 416.174
24.81000 417.828
24.82000 419.463
24.83000 421.621
24.84000 424.023
24.85000 425.995
24.86000 419.198
24.87000 408.941
24.88000 399.818
24.89000 402.677
24.90000 408.751
24.91000 414.113
24.92000 415.756
24.93000 416.605
24.94000 416.242
24.95000 410.829
24.96000 404.858
24.97000 401.891
24.98000 407.411
24.99000 413.444
25.00000 417.453
25.01000 425.318
25.02000 431.205
25.03000 429.679
25.04000 418.496
25.05000 407.282
25.06000 401.958
25.07000 401.625
25.08000 401.297
25.09000 400.198
25.10000 398.698
25.11000 397.503
25.12000 402.292
25.13000 409.402
25.14000 415.307
25.15000 408.778
25.16000 398.971
25.17000 390.338
25.18000 395.486
25.19000 401.983
25.20000 406.804
25.21000 404.751
25.22000 401.958
25.23000 400.697
25.24000 403.691
25.25000 406.933
25.26000 409.075
25.27000 400.485
25.28000 393.961
25.29000 388.465
25.30000 384.284
25.31000 380.121
25.32000 382.104
25.33000 389.199
25.34000 396.205
25.35000 400.317
25.36000 402.751
25.37000 405.012
25.38000 403.997
25.39000 401.733
25.40000 399.403
25.41000 396.402
25.42000 393.228
25.43000 390.441
25.44000 391.797
25.45000 393.570
25.46000 396.027
25.47000 401.237
25.48000 406.736
25.49000 410.235
25.50000 408.272
25.51000 405.999
25.52000 404.507
25.53000 397.951
25.54000 393.044
25.55000 390.705
25.56000 391.589
25.57000 392.480
25.58000 391.984
25.59000 390.355
25.60000 388.749
25.61000 390.060
25.62000 392.891
25.63000 395.603
25.64000 396.125
25.65000 395.826
25.66000 395.522
25.67000 395.177
25.68000 394.822
25.69000 394.510
25.70000 395.721
25.71000 396.978
25.72000 398.007
25.73000 398.133
25.74000 398.167
25.75000 397.346
25.76000 394.233
25.77000 390.994
25.78000 388.883
25.79000 389.571
25.80000 390.120
25.81000 391.521
25.82000 393.972
25.83000 396.424
25.84000 398.129
25.85000 399.236
25.86000 400.328
25.87000 395.196
25.88000 386.957
25.89000 379.110
25.90000 378.230
25.91000 379.915
25.92000 381.300
25.93000 379.817
25.94000 377.616
25.95000 375.695
25.96000 378.178
25.97000 380.920
25.98000 384.158
25.99000 389.328
26.00000 394.690
26.01000 398.124
26.02000 396.471
26.03000 394.548
26.04000 393.303
26.05000 387.289
26.06000 382.818
26.07000 380.048
26.08000 379.336
26.09000 378.653
26.10000 385.006
26.11000 396.891
26.12000 408.595
26.13000 412.849
26.14000 413.150
26.15000 413.182
26.16000 408.583
26.17000 402.309
26.18000 396.672
26.19000 396.994
26.20000 398.778
26.21000 400.331
26.22000 389.147
26.23000 377.854
26.24000 370.268
26.25000 376.818
26.26000 384.748
26.27000 389.481
26.28000 385.923
26.29000 381.940
26.30000 379.377
26.31000 386.856
26.32000 392.455
26.33000 394.895
26.34000 393.586
26.35000 392.271
26.36000 391.179
26.37000 390.257
26.38000 389.349
26.39000 391.140
26.40000 394.231
26.41000 397.148
26.42000 397.142
26.43000 396.096
26.44000 394.770
26.45000 390.893
26.46000 386.402
26.47000 382.505
26.48000 382.044
26.49000 382.112
26.50000 383.252
26.51000 388.406
26.52000 393.942
26.53000 396.173
26.54000 389.983
26.55000 383.375
26.56000 379.151
26.57000 379.265
26.58000 379.406
26.59000 378.795
26.60000 377.310
26.61000 375.841
26.62000 378.020
26.63000 382.963
26.64000 387.822
26.65000 387.639
26.66000 384.971
26.67000 382.722
26.68000 387.249
26.69000 394.145
26.70000 400.724
26.71000 404.478
26.72000 407.564
26.73000 410.234
26.74000 400.499
26.75000 390.601
26.76000 383.999
26.77000 389.526
26.78000 396.180
26.79000 397.183
26.80000 384.033
26.81000 370.206
26.82000 361.426
26.83000 359.910
26.84000 358.900
26.85000 359.923
26.86000 363.267
26.87000 366.634
26.88000 373.693
26.89000 383.497
26.90000 393.126
26.91000 392.396
26.92000 386.664
26.93000 381.222
26.94000 380.301
26.95000 380.934
26.96000 381.418
26.97000 380.601
26.98000 379.482
26.99000 378.517
27.00000 377.255
27.01000 376.146
27.02000 374.152
27.03000 368.959
27.04000 363.477
27.05000 360.966
27.06000 365.775
27.07000 370.921
27.08000 374.167
27.09000 364.591
27.10000 357.510
27.11000 358.310
27.12000 367.935
27.13000 377.531
27.14000 381.234
27.15000 380.634
27.16000 380.045
27.17000 375.003
27.18000 368.025
27.19000 361.927
27.20000 369.229
27.21000 381.057
27.22000 391.073
27.23000 385.649
27.24000 376.705
27.25000 369.015
27.26000 370.023
27.27000 371.965
27.28000 372.976
27.29000 370.687
27.30000 368.107
27.31000 367.178
27.32000 370.249
27.33000 373.497
27.34000 375.531
27.35000 376.139
27.36000 376.563
27.37000 379.271
27.38000 384.488
27.39000 389.665
27.40000 388.669
27.41000 383.248
27.42000 377.934
27.43000 380.469
27.44000 386.574
27.45000 392.032
27.46000 387.932
27.47000 380.660
27.48000 374.093
27.49000 373.403
27.50000 374.027
27.51000 374.562
27.52000 372.560
27.53000 370.560
27.54000 370.050
27.55000 374.737
27.56000 379.870
27.57000 380.403
27.58000 369.986
27.59000 359.100
27.60000 352.329
27.61000 361.769
27.62000 368.729
27.63000 373.157
27.64000 374.857
27.65000 376.534
27.66000 375.066
27.67000 371.383
27.68000 367.778
27.69000 368.794
27.70000 371.888
27.71000 374.505
27.72000 370.265
27.73000 363.787
27.74000 358.276
27.75000 360.621
27.76000 364.692
27.77000 368.171
27.78000 371.545
27.79000 374.374
27.80000 376.138
27.81000 374.244
27.82000 372.044
27.83000 369.450
27.84000 365.935
27.85000 362.382
27.86000 360.188
27.87000 366.007
27.88000 370.261
27.89000 372.637
27.90000 373.030
27.91000 373.400
27.92000 370.841
27.93000 366.258
27.94000 361.775
27.95000 362.039
27.96000 364.429
27.97000 366.896
27.98000 370.446
27.99000 374.344
28.00000 377.344
28.01000 373.204
28.02000 367.524
28.03000 362.686
28.04000 363.962
28.05000 365.747
28.06000 365.406
28.07000 357.907
28.08000 349.824
28.09000 348.774
28.10000 363.895
28.11000 379.657
28.12000 389.321
28.13000 374.530
28.14000 363.725
28.15000 359.185
28.16000 361.129
28.17000 363.042
28.18000 361.484
28.19000 357.571
28.20000 353.747
28.21000 358.118
28.22000 365.923
28.23000 373.561
28.24000 378.940
28.25000 383.608
28.26000 387.034
28.27000 380.806
28.28000 372.534
28.29000 365.513
28.30000 360.455
28.31000 356.435
28.32000 353.714
28.33000 355.290
28.34000 357.205
28.35000 358.893
28.36000 360.066
28.37000 361.220
28.38000 361.922
28.39000 364.853
28.40000 366.965
28.41000 365.008
28.42000 358.922
28.43000 352.880
28.44000 351.289
28.45000 352.667
28.46000 354.012
28.47000 360.327
28.48000 368.518
28.49000 376.091
28.50000 375.530
28.51000 372.450
28.52000 369.351
28.53000 366.102
28.54000 362.823
28.55000 360.048
28.56000 359.162
28.57000 358.629
28.58000 360.267
28.59000 368.964
28.60000 378.205
28.61000 379.954
28.62000 365.056
28.63000 349.547
28.64000 340.177
28.65000 344.823
28.66000 348.233
28.67000 351.526
28.68000 354.703
28.69000 357.843
28.70000 357.461
28.71000 354.773
28.72000 352.153
28.73000 354.674
28.74000 359.267
28.75000 363.444
28.76000 362.310
28.77000 359.559
28.78000 357.001
28.79000 355.872
28.80000 355.035
28.81000 354.329
28.82000 349.815
28.83000 345.631
28.84000 341.725
28.85000 338.705
28.86000 335.752
28.87000 336.380
28.88000 344.834
28.89000 353.563
28.90000 358.797
28.91000 350.867
28.92000 345.147
28.93000 344.580
28.94000 349.035
28.95000 353.418
28.96000 351.623
28.97000 345.851
28.98000 340.231
28.99000 343.597
29.00000 350.556
29.01000 357.211
29.02000 360.091
29.03000 361.843
29.04000 363.905
29.05000 368.237
29.06000 373.023
29.07000 377.045
29.08000 378.664
29.09000 379.760
29.10000 377.891
29.11000 366.708
29.12000 354.847
29.13000 349.268
29.14000 357.180
29.15000 365.546
29.16000 370.525
29.17000 360.785
29.18000 353.798
29.19000 351.840
29.20000 354.688
29.21000 357.517
29.22000 358.811
29.23000 359.134
29.24000 359.448
29.25000 361.262
29.26000 363.602
29.27000 365.320
29.28000 359.521
29.29000 351.512
29.30000 344.610
29.31000 345.594
29.32000 348.126
29.33000 350.247
29.34000 348.538
29.35000 346.721
29.36000 345.651
29.37000 346.884
29.38000 348.280
29.39000 349.206
29.40000 349.140
29.41000 349.042
29.42000 348.984
29.43000 347.827
29.44000 347.004
29.45000 348.023
29.46000 350.767
29.47000 353.465
29.48000 352.696
29.49000 349.774
29.50000 346.936
29.51000 346.709
29.52000 347.543
29.53000 348.855
29.54000 355.786
29.55000 364.339
29.56000 371.407
29.57000 368.106
29.58000 362.810
29.59000 358.389
29.60000 360.156
29.61000 362.245
29.62000 363.919
29.63000 364.336
29.64000 364.665
29.65000 364.721
29.66000 364.208
29.67000 363.678
29.68000 363.367
29.69000 369.953
29.70000 374.622
29.71000 373.472
29.72000 366.976
29.73000 360.527
29.74000 357.313
29.75000 356.073
29.76000 354.870
29.77000 355.593
29.78000 357.037
29.79000 358.350
29.80000 358.159
29.81000 357.541
29.82000 358.316
29.83000 368.607
29.84000 380.693
29.85000 390.747
29.86000 387.553
29.87000 383.607
29.88000 380.352
29.89000 379.153
29.90000 378.092
29.91000 376.702
29.92000 374.642
29.93000 372.562
29.94000 371.352
29.95000 380.008
29.96000 386.130
29.97000 390.704
29.98000 393.884
29.99000 397.052
30.00000 399.469
30.01000 401.436
30.02000 403.342
30.03000 395.973
30.04000 385.411
30.05000 375.791
30.06000 376.711
30.07000 380.570
30.08000 384.164
30.09000 385.993
30.10000 387.495
30.11000 388.741
30.12000 381.699
30.13000 375.090
30.14000 370.272
30.15000 370.705
30.16000 371.478
30.17000 372.937
30.18000 375.774
30.19000 378.650
30.20000 380.309
30.21000 379.576
30.22000 379.052
30.23000 377.529
30.24000 375.124
30.25000 372.839
30.26000 377.796
30.27000 387.021
30.28000 395.945
30.29000 388.044
30.30000 374.187
30.31000 361.569
30.32000 362.431
30.33000 366.985
30.34000 371.460
30.35000 375.414
30.36000 379.274
30.37000 382.461
30.38000 382.522
30.39000 382.280
30.40000 381.426
30.41000 378.809
30.42000 376.081
30.43000 374.352
30.44000 374.594
30.45000 374.887
30.46000 375.056
30.47000 368.652
30.48000 364.163
30.49000 363.814
30.50000 367.053
30.51000 370.228
30.52000 369.753
30.53000 367.166
30.54000 364.667
30.55000 365.751
30.56000 368.110
30.57000 370.543
30.58000 373.766
30.59000 377.202
30.60000 380.551
30.61000 383.345
30.62000 386.039
30.63000 388.257
30.64000 382.728
30.65000 377.478
30.66000 374.904
30.67000 379.908
30.68000 385.373
30.69000 389.567
30.70000 391.299
30.71000 392.968
30.72000 393.915
30.73000 390.249
30.74000 387.684
30.75000 385.927
30.76000 384.857
30.77000 383.755
30.78000 380.888
30.79000 377.016
30.80000 373.281
30.81000 380.263
30.82000 390.755
30.83000 400.587
30.84000 403.583
30.85000 404.773
30.86000 406.235
30.87000 409.415
30.88000 412.894
30.89000 415.747
30.90000 417.809
30.91000 419.430
30.92000 420.292
30.93000 419.041
30.94000 417.666
30.95000 421.890
30.96000 436.773
30.97000 451.914
30.98000 460.435
30.99000 466.027
31.00000 469.913
31.01000 479.468
31.02000 493.751
31.03000 507.806
31.04000 510.343
31.05000 506.440
31.06000 502.680
31.07000 512.153
31.08000 525.803
31.09000 539.783
31.10000 557.105
31.11000 575.295
31.12000 594.487
31.13000 619.854
31.14000 646.278
31.15000 667.863
31.16000 705.762
31.17000 738.191
31.18000 768.797
31.19000 794.416
31.20000 819.750
31.21000 844.520
31.22000 868.232
31.23000 891.919
31.24000 905.138
31.25000 952.558
31.26000 985.453
31.27000 1017.537
31.28000 1048.957
31.29000 1080.202
31.30000 1103.150
31.31000 1121.539
31.32000 1139.232
31.33000 1157.385
31.34000 1174.570
31.35000 1191.902
31.36000 1210.678
31.37000 1229.822
31.38000 1244.979
31.39000 1236.076
31.40000 1223.140
31.41000 1212.612
31.42000 1220.607
31.43000 1228.693
31.44000 1227.473
31.45000 1201.220
31.46000 1173.586
31.47000 1146.156
31.48000 1119.100
31.49000 1092.053
31.50000 1077.088
31.51000 1038.675
31.52000 1012.080
31.53000 970.393
31.54000 916.584
31.55000 863.293
31.56000 833.309
31.57000 815.910
31.58000 799.194
31.59000 776.469
31.60000 753.118
31.61000 729.100
31.62000 698.664
31.63000 666.621
31.64000 636.442
31.65000 617.294
31.66000 599.959
31.67000 585.904
31.68000 559.798
31.69000 537.540
31.70000 517.701
31.71000 504.254
31.72000 491.149
31.73000 481.289
31.74000 477.292
31.75000 473.415
31.76000 471.288
31.77000 451.096
31.78000 437.197
31.79000 429.673
31.80000 427.175
31.81000 424.694
31.82000 422.986
31.83000 421.688
31.84000 420.443
31.85000 406.902
31.86000 390.080
31.87000 374.278
31.88000 368.053
31.89000 364.182
31.90000 360.855
31.91000 360.681
31.92000 361.016
31.93000 361.285
31.94000 360.226
31.95000 359.259
31.96000 358.192
31.97000 356.868
31.98000 355.531
31.99000 354.834
32.00000 355.275
32.01000 355.738
32.02000 355.990
32.03000 357.766
32.04000 358.989
32.05000 360.822
32.06000 363.129
32.07000 365.405
32.08000 366.436
32.09000 366.817
32.10000 367.182
32.11000 366.655
32.12000 365.866
32.13000 364.248
32.14000 355.038
32.15000 343.995
32.16000 335.585
32.17000 342.144
32.18000 351.065
32.19000 358.241
32.20000 356.532
32.21000 354.457
32.22000 353.048
32.23000 353.342
32.24000 353.722
32.25000 349.656
32.26000 337.833
32.27000 325.870
32.28000 319.423
32.29000 330.899
32.30000 338.750
32.31000 343.636
32.32000 346.268
32.33000 348.802
32.34000 347.526
32.35000 344.297
32.36000 341.209
32.37000 335.490
32.38000 329.307
32.39000 323.647
32.40000 322.668
32.41000 322.800
32.42000 323.102
32.43000 324.361
32.44000 325.767
32.45000 326.894
32.46000 333.999
32.47000 340.201
32.48000 342.501
32.49000 335.005
32.50000 327.038
32.51000 323.680
32.52000 328.227
32.53000 332.909
32.54000 335.409
32.55000 330.388
32.56000 326.960
32.57000 323.737
32.58000 320.665
32.59000 317.793
32.60000 322.263
32.61000 330.432
32.62000 338.233
32.63000 338.085
32.64000 335.403
32.65000 333.149
32.66000 334.644
32.67000 337.011
32.68000 338.692
32.69000 336.619
32.70000 333.979
32.71000 331.872
32.72000 331.170
32.73000 330.706
32.74000 328.516
32.75000 322.061
32.76000 315.409
32.77000 310.348
32.78000 307.968
32.79000 305.632
32.80000 304.395
32.81000 310.967
32.82000 315.416
32.83000 316.283
32.84000 314.528
32.85000 312.862
32.86000 314.325
32.87000 317.338
32.88000 320.211
32.89000 321.350
32.90000 321.862
32.91000 322.324
32.92000 322.362
32.93000 322.303
32.94000 322.130
32.95000 321.346
32.96000 320.470
32.97000 319.774
32.98000 315.669
32.99000 312.119
33.00000 309.836
33.01000 310.627
33.02000 311.557
33.03000 313.625
33.04000 317.578
33.05000 321.559
33.06000 323.646
33.07000 308.826
33.08000 298.840
33.09000 297.904
33.10000 303.474
33.11000 308.930
33.12000 310.586
33.13000 310.392
33.14000 310.208
33.15000 310.460
33.16000 310.827
33.17000 311.073
33.18000 310.298
33.19000 309.295
33.20000 308.956
33.21000 312.108
33.22000 315.766
33.23000 318.662
33.24000 313.223
33.25000 308.275
33.26000 305.957
33.27000 309.914
33.28000 314.141
33.29000 313.744
33.30000 305.824
33.31000 297.798
33.32000 293.630
33.33000 295.597
33.34000 296.913
33.35000 296.385
33.36000 294.556
33.37000 292.793
33.38000 293.142
33.39000 294.503
33.40000 295.795
33.41000 298.524
33.42000 301.480
33.43000 304.390
33.44000 306.932
33.45000 309.394
33.46000 311.596
33.47000 312.458
33.48000 313.130
33.49000 313.659
33.50000 313.137
33.51000 312.648
33.52000 310.873
33.53000 306.085
33.54000 301.171
33.55000 296.695
33.56000 292.919
33.57000 289.151
33.58000 287.213
33.59000 287.662
33.60000 288.009
33.61000 293.796
33.62000 303.355
33.63000 312.543
33.64000 310.445
33.65000 303.038
33.66000 296.012
33.67000 300.254
33.68000 307.508
33.69000 313.548
33.70000 309.908
33.71000 304.176
33.72000 299.501
33.73000 300.179
33.74000 301.600
33.75000 302.716
33.76000 301.298
33.77000 299.998
33.78000 299.348
33.79000 300.196
33.80000 301.105
33.81000 302.642
33.82000 305.165
33.83000 307.700
33.84000 308.992
33.85000 312.367
33.86000 314.651
33.87000 319.176
33.88000 325.226
33.89000 331.053
33.90000 330.371
33.91000 326.679
33.92000 323.183
33.93000 316.602
33.94000 309.647
33.95000 303.004
33.96000 298.800
33.97000 295.114
33.98000 293.646
33.99000 303.184
34.00000 314.221
34.01000 322.849
34.02000 327.923
34.03000 331.747
34.04000 332.784
34.05000 327.507
34.06000 321.987
34.07000 321.199
34.08000 327.708
34.09000 334.299
34.10000 337.623
34.11000 331.654
34.12000 327.675
34.13000 324.901
34.14000 322.932
34.15000 321.067
34.16000 322.119
34.17000 324.496
34.18000 326.744
34.19000 329.994
34.20000 333.267
34.21000 335.970
34.22000 334.330
34.23000 331.785
34.24000 330.123
34.25000 332.760
34.26000 335.970
34.27000 338.468
34.28000 338.371
34.29000 338.134
34.30000 341.271
34.31000 351.928
34.32000 362.862
34.33000 364.949
34.34000 353.635
34.35000 342.183
34.36000 339.870
34.37000 346.669
34.38000 353.382
34.39000 351.883
34.40000 344.989
34.41000 338.396
34.42000 339.895
34.43000 345.010
34.44000 349.837
34.45000 346.764
34.46000 341.735
34.47000 337.794
34.48000 341.968
34.49000 347.800
34.50000 352.277
34.51000 350.277
34.52000 347.433
34.53000 345.229
34.54000 346.011
34.55000 346.811
34.56000 344.065
34.57000 333.556
34.58000 322.771
34.59000 318.385
34.60000 323.518
34.61000 328.741
34.62000 328.091
34.63000 321.703
34.64000 315.320
34.65000 309.412
34.66000 303.812
34.67000 298.511
34.68000 300.938
34.69000 306.760
34.70000 312.243
34.71000 307.886
34.72000 301.200
34.73000 295.447
34.74000 296.512
34.75000 298.944
34.76000 299.905
34.77000 293.964
34.78000 287.144
34.79000 281.882
34.80000 285.038
34.81000 288.028
34.82000 289.959
34.83000 289.614
34.84000 289.191
34.85000 287.973
34.86000 285.592
34.87000 283.201
34.88000 282.788
34.89000 284.270
34.90000 285.763
34.91000 288.133
34.92000 291.059
34.93000 293.620
34.94000 287.117
34.95000 276.701
34.96000 266.907
34.97000 275.633
34.98000 288.585
34.99000 299.078
35.00000 291.986
35.01000 281.435
35.02000 273.287
35.03000 276.191
35.04000 280.473
35.05000 283.762
35.06000 280.700
35.07000 277.922
35.08000 274.344
35.09000 269.075
35.10000 263.750
35.11000 262.844
35.12000 268.278
35.13000 273.762
35.14000 275.821
35.15000 274.665
35.16000 273.516
35.17000 272.974
35.18000 272.809
35.19000 272.639
35.20000 272.345
35.21000 271.998
35.22000 271.673
35.23000 269.828
35.24000 267.744
35.25000 266.187
35.26000 268.318
35.27000 271.159
35.28000 272.926
35.29000 269.836
35.30000 266.154
35.31000 263.338
35.32000 261.790
35.33000 260.639
35.34000 260.123
35.35000 260.933
35.36000 261.783
35.37000 264.784
35.38000 270.817
35.39000 276.870
35.40000 278.461
35.41000 275.943
35.42000 273.439
35.43000 271.921
35.44000 271.006
35.45000 270.023
35.46000 267.492
35.47000 264.315
35.48000 261.339
35.49000 265.864
35.50000 271.921
35.51000 276.951
35.52000 274.942
35.53000 271.601
35.54000 268.312
35.55000 265.255
35.56000 262.226
35.57000 259.919
35.58000 254.116
35.59000 249.364
35.60000 248.321
35.61000 254.861
35.62000 261.626
35.63000 263.814
35.64000 259.666
35.65000 255.479
35.66000 254.631
35.67000 256.796
35.68000 258.919
35.69000 258.270
35.70000 255.953
35.71000 253.782
35.72000 254.815
35.73000 257.163
35.74000 259.358
35.75000 259.780
35.76000 259.713
35.77000 259.636
35.78000 259.489
35.79000 259.329
35.80000 260.177
35.81000 265.415
35.82000 271.163
35.83000 275.520
35.84000 264.550
35.85000 255.154
35.86000 249.317
35.87000 250.629
35.88000 252.144
35.89000 254.587
35.90000 258.292
35.91000 262.001
35.92000 264.445
35.93000 265.766
35.94000 267.044
35.95000 265.694
35.96000 262.792
35.97000 259.961
35.98000 258.652
35.99000 257.955
36.00000 257.305
36.01000 257.185
36.02000 257.208
36.03000 257.617
36.04000 260.554
36.05000 263.953
36.06000 266.609
36.07000 266.094
36.08000 265.219
36.09000 264.559
36.10000 269.679
36.11000 273.975
36.12000 274.377
36.13000 267.085
36.14000 259.586
36.15000 254.391
36.16000 252.268
36.17000 250.163
36.18000 251.101
36.19000 254.678
36.20000 258.241
36.21000 261.001
36.22000 263.295
36.23000 265.454
36.24000 264.840
36.25000 263.127
36.26000 261.532
36.27000 258.508
36.28000 255.426
36.29000 252.788
36.30000 253.014
36.31000 253.752
36.32000 254.397
36.33000 254.649
36.34000 254.858
36.35000 255.014
36.36000 264.117
36.37000 271.657
36.38000 274.873
36.39000 269.690
36.40000 264.293
36.41000 259.595
36.42000 255.810
36.43000 252.034
36.44000 251.509
36.45000 253.752
36.46000 255.974
36.47000 257.079
36.48000 257.547
36.49000 258.028
36.50000 258.766
36.51000 259.604
36.52000 260.383
36.53000 258.176
36.54000 255.471
36.55000 252.784
36.56000 250.213
36.57000 247.662
36.58000 247.338
36.59000 256.185
36.60000 266.027
36.61000 273.381
36.62000 265.132
36.63000 257.982
36.64000 254.822
36.65000 259.279
36.66000 263.921
36.67000 264.293
36.68000 259.175
36.69000 254.041
36.70000 252.985
36.71000 255.332
36.72000 257.675
36.73000 259.837
36.74000 261.896
36.75000 263.654
36.76000 259.625
36.77000 253.380
36.78000 247.588
36.79000 251.319
36.80000 256.911
36.81000 262.424
36.82000 267.448
36.83000 272.388
36.84000 275.576
36.85000 271.668
36.86000 267.010
36.87000 263.545
36.88000 259.782
36.89000 256.841
36.90000 257.971
36.91000 266.737
36.92000 275.679
36.93000 280.643
36.94000 280.586
36.95000 280.513
36.96000 277.306
36.97000 271.547
36.98000 265.962
36.99000 268.767
37.00000 276.194
37.01000 283.327
37.02000 284.998
37.03000 284.613
37.04000 284.257
37.05000 287.349
37.06000 290.920
37.07000 293.491
37.08000 290.009
37.09000 285.508
37.10000 281.000
37.11000 276.465
37.12000 271.926
37.13000 268.568
37.14000 269.468
37.15000 270.349
37.16000 272.016
37.17000 275.134
37.18000 278.283
37.19000 276.794
37.20000 269.561
37.21000 262.324
37.22000 260.866
37.23000 264.050
37.24000 267.121
37.25000 265.066
37.26000 260.236
37.27000 255.735
37.28000 257.134
37.29000 260.717
37.30000 264.025
37.31000 262.052
37.32000 259.091
37.33000 256.821
37.34000 258.639
37.35000 261.131
37.36000 261.995
37.37000 256.503
37.38000 250.370
37.39000 245.854
37.40000 252.120
37.41000 257.418
37.42000 261.847
37.43000 264.702
37.44000 267.525
37.45000 265.005
37.46000 255.991
37.47000 246.978
37.48000 245.407
37.49000 249.698
37.50000 253.951
37.51000 256.553
37.52000 258.277
37.53000 259.789
37.54000 257.612
37.55000 254.092
37.56000 250.849
37.57000 245.127
37.58000 239.459
37.59000 235.099
37.60000 238.355
37.61000 242.840
37.62000 247.215
37.63000 251.169
37.64000 255.081
37.65000 257.948
37.66000 249.446
37.67000 242.427
37.68000 237.882
37.69000 237.742
37.70000 237.689
37.71000 240.182
37.72000 245.713
37.73000 251.238
37.74000 251.361
37.75000 247.315
37.76000 243.422
37.77000 245.768
37.78000 251.377
37.79000 256.904
37.80000 261.066
37.81000 264.740
37.82000 268.118
37.83000 260.272
37.84000 250.836
37.85000 243.216
37.86000 245.943
37.87000 250.308
37.88000 253.635
37.89000 253.050
37.90000 252.090
37.91000 251.390
37.92000 249.973
37.93000 248.854
37.94000 248.547
37.95000 249.661
37.96000 250.801
37.97000 253.454
37.98000 257.875
37.99000 262.288
38.00000 260.834
38.01000 254.949
38.02000 249.279
38.03000 251.987
38.04000 259.000
38.05000 265.705
38.06000 267.378
38.07000 267.282
38.08000 267.194
38.09000 260.833
38.10000 253.832
38.11000 248.434
38.12000 251.990
38.13000 256.934
38.14000 260.829
38.15000 260.844
38.16000 260.496
38.17000 260.244
38.18000 259.812
38.19000 259.474
38.20000 261.580
38.21000 267.889
38.22000 274.271
38.23000 276.567
38.24000 274.172
38.25000 271.778
38.26000 272.720
38.27000 276.132
38.28000 279.421
38.29000 278.188
38.30000 274.671
38.31000 271.671
38.32000 276.846
38.33000 284.846
38.34000 292.169
38.35000 297.004
38.36000 300.788
38.37000 305.280
38.38000 313.655
38.39000 322.620
38.40000 331.425
38.41000 339.652
38.42000 347.826
38.43000 353.723
38.44000 371.852
38.45000 386.186
38.46000 398.864
38.47000 408.746
38.48000 418.583
38.49000 436.916
38.50000 464.815
38.51000 492.631
38.52000 511.707
38.53000 524.264
38.54000 537.199
38.55000 563.430
38.56000 596.265
38.57000 628.983
38.58000 659.926
38.59000 690.266
38.60000 717.976
38.61000 736.652
38.62000 751.393
38.63000 768.887
38.64000 801.174
38.65000 835.661
38.66000 866.901
38.67000 886.551
38.68000 905.171
38.69000 918.534
38.70000 916.608
38.71000 914.609
38.72000 910.887
38.73000 904.306
38.74000 897.682
38.75000 888.672
38.76000 877.029
38.77000 865.428
38.78000 854.883
38.79000 845.187
38.80000 835.291
38.81000 818.657
38.82000 798.735
38.83000 778.247
38.84000 749.328
38.85000 717.597
38.86000 688.683
38.87000 658.654
38.88000 631.829
38.89000 603.635
38.90000 568.228
38.91000 531.770
38.92000 499.122
38.93000 479.836
38.94000 461.706
38.95000 448.763
38.96000 418.607
38.97000 395.034
38.98000 379.335
38.99000 376.477
39.00000 373.802
39.01000 365.350
39.02000 350.644
39.03000 335.997
39.04000 322.182
39.05000 309.090
39.06000 296.125
39.07000 287.240
39.08000 280.313
39.09000 273.444
39.10000 267.398
39.11000 261.622
39.12000 256.372
39.13000 261.615
39.14000 268.299
39.15000 272.318
39.16000 262.559
39.17000 250.836
39.18000 242.070
39.19000 243.498
39.20000 245.785
39.21000 247.409
39.22000 251.414
39.23000 254.538
39.24000 254.055
39.25000 247.795
39.26000 241.458
39.27000 237.014
39.28000 234.579
39.29000 232.157
39.30000 231.693
39.31000 232.581
39.32000 233.598
39.33000 238.560
39.34000 245.383
39.35000 251.526
39.36000 248.120
39.37000 241.637
39.38000 235.757
39.39000 240.119
39.40000 245.926
39.41000 251.115
39.42000 253.172
39.43000 254.792
39.44000 254.642
39.45000 248.499
39.46000 241.865
39.47000 237.179
39.48000 236.148
39.49000 235.477
39.50000 236.423
39.51000 239.917
39.52000 243.441
39.53000 242.552
39.54000 237.069
39.55000 231.614
39.56000 229.686
39.57000 230.161
39.58000 230.502
39.59000 226.933
39.60000 221.552
39.61000 216.474
39.62000 215.538
39.63000 215.915
39.64000 216.256
39.65000 220.481
39.66000 224.929
39.67000 228.479
39.68000 227.560
39.69000 226.031
39.70000 225.411
39.71000 227.816
39.72000 230.463
39.73000 232.322
39.74000 231.611
39.75000 230.998
39.76000 231.640
39.77000 234.222
39.78000 236.826
39.79000 238.090
39.80000 237.985
39.81000 237.881
39.82000 234.260
39.83000 228.357
39.84000 222.746
39.85000 225.303
39.86000 231.583
39.87000 237.334
39.88000 236.066
39.89000 232.614
39.90000 229.497
39.91000 230.669
39.92000 232.484
39.93000 233.936
39.94000 233.610
39.95000 233.047
39.96000 231.780
39.97000 228.213
39.98000 224.467
39.99000 221.850
40.00000 225.134
40.01000 227.779
40.02000 229.438
40.03000 229.597
40.04000 229.741
40.05000 231.643
40.06000 235.302
40.07000 238.939
40.08000 238.794
40.09000 236.196
40.10000 233.637
40.11000 232.108
40.12000 231.040
40.13000 230.021
40.14000 229.629
40.15000 229.428
40.16000 229.246
40.17000 229.463
40.18000 229.725
40.19000 229.909
40.20000 229.723
40.21000 229.488
40.22000 229.838
40.23000 232.068
40.24000 234.439
40.25000 236.086
40.26000 230.286
40.27000 225.716
40.28000 224.612
40.29000 228.679
40.30000 232.795
40.31000 229.853
40.32000 219.993
40.33000 210.200
40.34000 208.320
40.35000 211.509
40.36000 214.676
40.37000 217.276
40.38000 219.627
40.39000 221.734
40.40000 220.774
40.41000 218.892
40.42000 217.202
40.43000 214.975
40.44000 212.933
40.45000 211.332
40.46000 211.808
40.47000 212.550
40.48000 213.851
40.49000 216.918
40.50000 220.114
40.51000 222.321
40.52000 220.121
40.53000 218.355
40.54000 217.993
40.55000 219.689
40.56000 221.402
40.57000 221.779
40.58000 220.870
40.59000 219.968
40.60000 221.510
40.61000 224.553
40.62000 227.415
40.63000 225.767
40.64000 222.168
40.65000 218.312
40.66000 211.329
40.67000 203.421
40.68000 196.339
40.69000 201.370
40.70000 207.848
40.71000 213.384
40.72000 214.575
40.73000 215.223
40.74000 215.862
40.75000 216.475
40.76000 217.086
40.77000 217.505
40.78000 221.071
40.79000 223.822
40.80000 223.647
40.81000 219.261
40.82000 214.841
40.83000 212.314
40.84000 211.568
40.85000 210.828
40.86000 211.551
40.87000 213.158
40.88000 214.630
40.89000 212.845
40.90000 209.675
40.91000 206.925
40.92000 209.163
40.93000 212.850
40.94000 216.144
40.95000 218.714
40.96000 220.830
40.97000 222.225
40.98000 220.351
40.99000 218.078
41.00000 216.118
41.01000 215.112
41.02000 214.173
41.03000 213.532
41.04000 218.365
41.05000 222.107
41.06000 218.811
41.07000 205.569
41.08000 192.260
41.09000 190.436
41.10000 199.222
41.11000 207.931
41.12000 209.851
41.13000 207.649
41.14000 205.630
41.15000 207.842
41.16000 211.824
41.17000 215.600
41.18000 217.000
41.19000 217.721
41.20000 218.365
41.21000 210.279
41.22000 201.810
41.23000 195.605
41.24000 199.471
41.25000 204.539
41.26000 207.055
41.27000 201.922
41.28000 196.275
41.29000 192.443
41.30000 191.495
41.31000 190.852
41.32000 192.384
41.33000 196.933
41.34000 201.502
41.35000 204.926
41.36000 207.314
41.37000 209.680
41.38000 211.289
41.39000 212.418
41.40000 213.406
41.41000 211.261
41.42000 207.828
41.43000 204.885
41.44000 207.470
41.45000 211.603
41.46000 215.276
41.47000 217.678
41.48000 219.555
41.49000 220.837
41.50000 219.516
41.51000 217.892
41.52000 215.583
41.53000 211.259
41.54000 206.803
41.55000 203.798
41.56000 209.082
41.57000 213.190
41.58000 215.928
41.59000 216.801
41.60000 217.660
41.61000 214.633
41.62000 208.154
41.63000 201.740
41.64000 198.057
41.65000 196.036
41.66000 194.321
41.67000 199.174
41.68000 206.683
41.69000 213.617
41.70000 214.258
41.71000 213.167
41.72000 212.199
41.73000 216.391
41.74000 220.834
41.75000 223.739
41.76000 220.052
41.77000 215.612
41.78000 212.930
41.79000 215.336
41.80000 218.064
41.81000 219.892
41.82000 223.445
41.83000 226.116
41.84000 223.514
41.85000 213.858
41.86000 204.171
41.87000 198.856
41.88000 197.352
41.89000 195.864
41.90000 200.702
41.91000 209.027
41.92000 217.062
41.93000 219.125
41.94000 218.814
41.95000 218.449
41.96000 217.495
41.97000 216.383
41.98000 215.401
41.99000 218.498
42.00000 221.805
42.01000 223.788
42.02000 220.203
42.03000 215.998
42.04000 212.624
42.05000 211.618
42.06000 210.757
42.07000 210.183
42.08000 220.275
42.09000 227.949
42.10000 229.741
42.11000 223.808
42.12000 217.847
42.13000 216.030
42.14000 217.756
42.15000 219.462
42.16000 218.427
42.17000 215.887
42.18000 213.561
42.19000 215.501
42.20000 219.106
42.21000 222.742
42.22000 226.701
42.23000 230.744
42.24000 234.309
42.25000 226.451
42.26000 217.949
42.27000 211.569
42.28000 213.952
42.29000 217.289
42.30000 219.499
42.31000 218.560
42.32000 217.434
42.33000 216.688
42.34000 214.049
42.35000 212.067
42.36000 210.543
42.37000 209.612
42.38000 208.690
42.39000 211.132
42.40000 216.396
42.41000 221.596
42.42000 221.386
42.43000 218.219
42.44000 215.195
42.45000 214.912
42.46000 215.681
42.47000 216.151
42.48000 213.569
42.49000 210.191
42.50000 207.223
42.51000 210.965
42.52000 215.178
42.53000 217.496
42.54000 212.131
42.55000 205.949
42.56000 201.868
42.57000 203.563
42.58000 205.590
42.59000 206.924
42.60000 207.622
42.61000 208.126
42.62000 210.112
42.63000 213.976
42.64000 217.842
42.65000 220.304
42.66000 221.611
42.67000 222.900
42.68000 219.791
42.69000 214.403
42.70000 209.279
42.71000 209.084
42.72000 210.749
42.73000 212.136
42.74000 210.765
42.75000 208.686
42.76000 206.864
42.77000 204.257
42.78000 201.906
42.79000 199.463
42.80000 196.656
42.81000 193.811
42.82000 192.988
42.83000 197.633
42.84000 202.582
42.85000 205.819
42.86000 203.787
42.87000 202.210
42.88000 202.438
42.89000 204.907
42.90000 207.376
42.91000 207.252
42.92000 205.035
42.93000 202.849
42.94000 203.630
42.95000 205.954
42.96000 208.147
42.97000 207.983
42.98000 206.944
42.99000 206.131
43.00000 207.501
43.01000 209.419
43.02000 211.096
43.03000 206.715
43.04000 202.106
43.05000 199.088
43.06000 202.297
43.07000 206.136
43.08000 207.406
43.09000 201.850
43.10000 195.925
43.11000 192.076
43.12000 194.738
43.13000 196.788
43.14000 198.561
43.15000 199.998
43.16000 201.419
43.17000 198.187
43.18000 191.269
43.19000 184.452
43.20000 186.133
43.21000 192.161
43.22000 197.985
43.23000 200.260
43.24000 201.241
43.25000 202.131
43.26000 202.169
43.27000 201.996
43.28000 201.846
43.29000 198.125
43.30000 194.452
43.31000 191.371
43.32000 190.565
43.33000 189.984
43.34000 191.259
43.35000 197.381
43.36000 203.756
43.37000 207.871
43.38000 199.966
43.39000 194.017
43.40000 189.598
43.41000 187.009
43.42000 184.436
43.43000 184.851
43.44000 187.591
43.45000 190.288
43.46000 193.676
43.47000 197.309
43.48000 200.656
43.49000 199.167
43.50000 195.943
43.51000 192.993
43.52000 192.570
43.53000 192.760
43.54000 192.925
43.55000 192.461
43.56000 191.980
43.57000 190.833
43.58000 187.170
43.59000 183.265
43.60000 180.975
43.61000 182.828
43.62000 184.890
43.63000 186.212
43.64000 181.127
43.65000 177.335
43.66000 180.385
43.67000 191.464
43.68000 202.513
43.69000 203.677
43.70000 197.293
43.71000 191.014
43.72000 189.380
43.73000 190.115
43.74000 190.940
43.75000 193.259
43.76000 196.105
43.77000 198.501
43.78000 196.845
43.79000 194.224
43.80000 191.954
43.81000 186.738
43.82000 181.910
43.83000 179.337
43.84000 185.125
43.85000 191.698
43.86000 195.638
43.87000 192.930
43.88000 189.899
43.89000 187.969
43.90000 192.197
43.91000 195.348
43.92000 196.505
43.93000 195.366
43.94000 194.216
43.95000 191.378
43.96000 187.275
43.97000 183.244
43.98000 186.519
43.99000 193.256
44.00000 199.619
44.01000 200.036
44.02000 198.394
44.03000 196.724
44.04000 194.808
44.05000 192.835
44.06000 191.132
44.07000 188.703
44.08000 186.548
44.09000 185.073
44.10000 186.077
44.11000 187.308
44.12000 189.180
44.13000 192.640
44.14000 196.175
44.15000 198.411
44.16000 193.415
44.17000 189.708
44.18000 190.042
44.19000 194.937
44.20000 199.819
44.21000 201.581
44.22000 201.045
44.23000 200.520
44.24000 196.300
44.25000 190.458
44.26000 185.013
44.27000 185.689
44.28000 188.450
44.29000 191.125
44.30000 193.064
44.31000 194.834
44.32000 196.357
44.33000 198.974
44.34000 201.329
44.35000 203.390
44.36000 204.397
44.37000 205.310
44.38000 205.608
44.39000 204.404
44.40000 203.132
44.41000 202.334
44.42000 203.080
44.43000 203.637
44.44000 206.478
44.45000 211.847
44.46000 217.176
44.47000 215.902
44.48000 209.855
44.49000 203.925
44.50000 203.327
44.51000 205.263
44.52000 206.836
44.53000 202.968
44.54000 197.280
44.55000 192.543
44.56000 195.794
44.57000 200.847
44.58000 205.184
44.59000 212.530
44.60000 219.110
44.61000 223.861
44.62000 222.179
44.63000 219.938
44.64000 218.563
44.65000 219.265
44.66000 220.057
44.67000 220.551
44.68000 217.200
44.69000 214.744
44.70000 215.314
44.71000 219.173
44.72000 223.002
44.73000 222.583
44.74000 219.149
44.75000 215.785
44.76000 220.072
44.77000 227.732
44.78000 234.795
44.79000 233.213
44.80000 228.788
44.81000 224.868
44.82000 225.100
44.83000 226.252
44.84000 227.237
44.85000 228.084
44.86000 228.781
44.87000 229.756
44.88000 231.688
44.89000 233.702
44.90000 234.963
44.91000 234.448
44.92000 233.860
44.93000 233.495
44.94000 237.482
44.95000 240.391
44.96000 240.433
44.97000 237.422
44.98000 234.423
44.99000 233.056
45.00000 232.828
45.01000 232.604
45.02000 233.405
45.03000 234.639
45.04000 235.906
45.05000 237.632
45.06000 239.506
45.07000 241.161
45.08000 241.062
45.09000 240.581
45.10000 240.170
45.11000 236.335
45.12000 232.703
45.13000 229.978
45.14000 230.328
45.15000 230.932
45.16000 231.453
45.17000 231.785
45.18000 232.109
45.19000 232.308
45.20000 234.900
45.21000 236.780
45.22000 235.354
45.23000 230.476
45.24000 225.614
45.25000 222.686
45.26000 221.082
45.27000 219.514
45.28000 219.512
45.29000 220.208
45.30000 220.756
45.31000 219.289
45.32000 217.183
45.33000 215.933
45.34000 221.419
45.35000 228.341
45.36000 234.226
45.37000 232.585
45.38000 230.342
45.39000 226.986
45.40000 219.915
45.41000 212.546
45.42000 209.645
45.43000 216.918
45.44000 224.586
45.45000 229.268
45.46000 221.316
45.47000 215.526
45.48000 213.059
45.49000 213.993
45.50000 214.878
45.51000 210.477
45.52000 202.521
45.53000 194.754
45.54000 198.674
45.55000 207.532
45.56000 215.556
45.57000 212.504
45.58000 205.994
45.59000 200.177
45.60000 199.680
45.61000 200.296
45.62000 200.819
45.63000 203.279
45.64000 205.558
45.65000 207.231
45.66000 206.916
45.67000 206.445
45.68000 204.457
45.69000 199.068
45.70000 193.553
45.71000 190.210
45.72000 192.454
45.73000 194.096
45.74000 195.253
45.75000 195.924
45.76000 196.576
45.77000 195.482
45.78000 193.234
45.79000 191.042
45.80000 190.976
45.81000 191.824
45.82000 192.418
45.83000 189.719
45.84000 186.009
45.85000 182.369
45.86000 179.248
45.87000 176.234
45.88000 173.688
45.89000 181.388
45.90000 188.947
45.91000 193.186
45.92000 186.731
45.93000 179.465
45.94000 173.571
45.95000 170.697
45.96000 167.932
45.97000 166.268
45.98000 168.436
45.99000 170.005
46.00000 172.863
46.01000 176.988
46.02000 181.053
46.03000 179.616
46.04000 174.611
46.05000 169.735
46.06000 172.324
46.07000 177.935
46.08000 183.273
46.09000 185.178
46.10000 186.048
46.11000 186.670
46.12000 185.468
46.13000 183.898
46.14000 182.577
46.15000 180.775
46.16000 179.220
46.17000 178.100
46.18000 178.359
46.19000 178.719
46.20000 179.791
46.21000 182.402
46.22000 185.066
46.23000 186.657
46.24000 177.433
46.25000 170.823
46.26000 169.813
46.27000 174.199
46.28000 178.523
46.29000 177.698
46.30000 173.593
46.31000 169.599
46.32000 170.719
46.33000 173.898
46.34000 176.866
46.35000 177.242
46.36000 176.850
46.37000 176.495
46.38000 176.407
46.39000 176.372
46.40000 176.342
46.41000 172.003
46.42000 167.942
46.43000 165.689
46.44000 169.061
46.45000 172.837
46.46000 176.452
46.47000 179.729
46.48000 182.994
46.49000 184.929
46.50000 174.616
46.51000 167.255
46.52000 165.843
46.53000 170.055
46.54000 174.242
46.55000 176.564
46.56000 177.719
46.57000 178.842
46.58000 177.099
46.59000 174.280
46.60000 171.472
46.61000 168.792
46.62000 166.150
46.63000 163.884
46.64000 164.278
46.65000 165.187
46.66000 165.947
46.67000 170.741
46.68000 175.132
46.69000 178.522
46.70000 178.851
46.71000 178.967
46.72000 179.381
46.73000 180.418
46.74000 181.474
46.75000 182.095
46.76000 181.009
46.77000 180.235
46.78000 180.177
46.79000 180.782
46.80000 181.401
46.81000 182.956
46.82000 185.088
46.83000 187.157
46.84000 185.092
46.85000 181.490
46.86000 178.102
46.87000 177.188
46.88000 176.982
46.89000 176.602
46.90000 175.025
46.91000 173.220
46.92000 171.717
46.93000 173.774
46.94000 175.832
46.95000 176.057
46.96000 170.772
46.97000 165.115
46.98000 163.411
46.99000 169.827
47.00000 176.487
47.01000 180.373
47.02000 171.749
47.03000 165.629
47.04000 163.486
47.05000 164.956
47.06000 166.416
47.07000 167.203
47.08000 167.585
47.09000 167.955
47.10000 166.438
47.11000 164.264
47.12000 162.494
47.13000 165.303
47.14000 169.397
47.15000 173.542
47.16000 178.028
47.17000 182.577
47.18000 186.353
47.19000 176.490
47.20000 167.016
47.21000 159.575
47.22000 158.140
47.23000 157.098
47.24000 155.783
47.25000 153.913
47.26000 152.028
47.27000 150.936
47.28000 164.002
47.29000 173.216
47.30000 175.216
47.31000 170.787
47.32000 166.424
47.33000 166.081
47.34000 168.127
47.35000 170.107
47.36000 171.715
47.37000 173.092
47.38000 174.437
47.39000 175.427
47.40000 176.318
47.41000 176.249
47.42000 169.839
47.43000 162.268
47.44000 156.005
47.45000 156.816
47.46000 158.153
47.47000 159.321
47.48000 160.003
47.49000 160.654
47.50000 161.385
47.51000 162.276
47.52000 163.171
47.53000 163.685
47.54000 168.245
47.55000 171.446
47.56000 173.122
47.57000 173.463
47.58000 173.764
47.59000 171.671
47.60000 168.180
47.61000 164.806
47.62000 160.567
47.63000 156.242
47.64000 152.472
47.65000 154.657
47.66000 158.457
47.67000 161.781
47.68000 162.028
47.69000 161.723
47.70000 161.471
47.71000 157.239
47.72000 153.389
47.73000 151.690
47.74000 156.129
47.75000 160.947
47.76000 163.478
47.77000 161.547
47.78000 159.500
47.79000 158.334
47.80000 158.966
47.81000 159.413
47.82000 159.907
47.83000 160.442
47.84000 160.978
47.85000 161.625
47.86000 162.334
47.87000 163.018
47.88000 161.519
47.89000 159.300
47.90000 157.221
47.91000 156.594
47.92000 156.354
47.93000 156.486
47.94000 158.981
47.95000 161.891
47.96000 164.280
47.97000 164.238
47.98000 163.985
47.99000 163.186
48.00000 160.854
48.01000 158.430
48.02000 157.254
48.03000 158.471
48.04000 159.747
48.05000 160.468
48.06000 164.524
48.07000 167.349
48.08000 168.308
48.09000 167.699
48.10000 167.028
48.11000 163.182
48.12000 157.548
48.13000 152.116
48.14000 151.262
48.15000 152.116
48.16000 152.827
48.17000 152.078
48.18000 150.947
48.19000 150.797
48.20000 156.743
48.21000 163.740
48.22000 169.466
48.23000 162.253
48.24000 155.213
48.25000 151.271
48.26000 155.874
48.27000 160.970
48.28000 164.268
48.29000 164.176
48.30000 164.004
48.31000 163.908
48.32000 168.065
48.33000 170.948
48.34000 170.449
48.35000 167.158
48.36000 163.937
48.37000 164.171
48.38000 166.318
48.39000 168.385
48.40000 168.146
48.41000 167.103
48.42000 166.314
48.43000 168.044
48.44000 170.422
48.45000 171.938
48.46000 168.202
48.47000 163.579
48.48000 159.810
48.49000 158.192
48.50000 157.052
48.51000 156.489
48.52000 157.487
48.53000 158.572
48.54000 158.316
48.55000 155.574
48.56000 152.776
48.57000 151.223
48.58000 149.592
48.59000 148.465
48.60000 147.574
48.61000 146.873
48.62000 146.270
48.63000 150.194
48.64000 156.580
48.65000 162.720
48.66000 161.706
48.67000 158.264
48.68000 155.355
48.69000 157.622
48.70000 161.196
48.71000 164.411
48.72000 165.484
48.73000 166.203
48.74000 166.787
48.75000 161.125
48.76000 155.989
48.77000 152.921
48.78000 155.359
48.79000 158.096
48.80000 158.860
48.81000 156.033
48.82000 153.130
48.83000 151.532
48.84000 153.203
48.85000 154.358
48.86000 154.997
48.87000 155.226
48.88000 155.397
48.89000 153.085
48.90000 149.444
48.91000 145.950
48.92000 149.926
48.93000 156.199
48.94000 161.864
48.95000 161.767
48.96000 160.240
48.97000 158.540
48.98000 155.822
48.99000 152.939
49.00000 150.607
49.01000 150.502
49.02000 150.596
49.03000 151.174
49.04000 153.018
49.05000 154.928
49.06000 155.121
49.07000 152.240
49.08000 149.298
49.09000 147.692
49.10000 147.122
49.11000 146.743
49.12000 149.096
49.13000 153.583
49.14000 157.932
49.15000 156.589
49.16000 152.256
49.17000 148.102
49.18000 151.492
49.19000 157.187
49.20000 162.129
49.21000 160.101
49.22000 156.376
49.23000 153.016
49.24000 151.749
49.25000 150.816
49.26000 150.064
49.27000 150.169
49.28000 150.322
49.29000 151.922
49.30000 157.245
49.31000 162.756
49.32000 165.981
49.33000 165.186
49.34000 164.315
49.35000 163.844
49.36000 160.615
49.37000 158.413
49.38000 159.088
49.39000 161.966
49.40000 164.753
49.41000 163.941
49.42000 161.271
49.43000 158.715
49.44000 158.179
49.45000 158.346
49.46000 158.108
49.47000 154.220
49.48000 149.460
49.49000 145.660
49.50000 147.262
49.51000 149.705
49.52000 151.666
49.53000 152.624
49.54000 153.323
49.55000 155.266
49.56000 160.358
49.57000 165.603
49.58000 166.309
49.59000 159.172
49.60000 151.897
49.61000 147.996
49.62000 141.327
49.63000 136.801
49.64000 137.873
49.65000 143.154
49.66000 148.373
49.67000 151.293
49.68000 153.045
49.69000 154.720
49.70000 151.533
49.71000 147.000
49.72000 142.912
49.73000 142.751
49.74000 143.513
49.75000 144.897
49.76000 149.713
49.77000 155.054
49.78000 159.324
49.79000 153.089
49.80000 147.270
49.81000 144.893
49.82000 151.080
49.83000 157.671
49.84000 161.376
49.85000 160.180
49.86000 158.903
49.87000 158.225
49.88000 153.606
49.89000 150.474
49.90000 149.915
49.91000 151.254
49.92000 152.582
49.93000 153.511
49.94000 154.241
49.95000 154.938
49.96000 153.694
49.97000 151.924
49.98000 150.465
49.99000 151.689
50.00000 153.530
50.01000 154.773
50.02000 152.775
50.03000 150.293
50.04000 148.316
50.05000 151.409
50.06000 154.269
50.07000 155.255
50.08000 151.659
50.09000 147.855
50.10000 147.877
50.11000 154.283
50.12000 160.787
50.13000 164.211
50.14000 166.449
50.15000 167.949
50.16000 166.627
50.17000 163.260
50.18000 159.866
50.19000 155.579
50.20000 150.852
50.21000 146.351
50.22000 147.688
50.23000 150.742
50.24000 153.924
50.25000 158.185
50.26000 162.690
50.27000 165.755
50.28000 161.180
50.29000 155.486
50.30000 150.971
50.31000 153.813
50.32000 156.616
50.33000 158.561
50.34000 158.442
50.35000 158.234
50.36000 155.804
50.37000 149.733
50.38000 143.609
50.39000 140.415
50.40000 142.711
50.41000 144.280
50.42000 147.900
50.43000 152.981
50.44000 157.938
50.45000 158.879
50.46000 157.883
50.47000 156.936
50.48000 155.794
50.49000 154.679
50.50000 153.455
50.51000 151.333
50.52000 149.012
50.53000 147.988
50.54000 153.708
50.55000 160.396
50.56000 165.677
50.57000 163.260
50.58000 160.795
50.59000 159.944
50.60000 162.908
50.61000 166.034
50.62000 167.029
50.63000 164.594
50.64000 162.112
50.65000 160.830
50.66000 160.271
50.67000 159.907
50.68000 161.336
50.69000 164.016
50.70000 166.529
50.71000 163.793
50.72000 158.571
50.73000 153.613
50.74000 152.157
50.75000 151.860
50.76000 152.045
50.77000 156.117
50.78000 161.036
50.79000 164.515
50.80000 160.649
50.81000 155.751
50.82000 151.900
50.83000 152.160
50.84000 152.642
50.85000 153.291
50.86000 154.330
50.87000 155.386
50.88000 154.675
50.89000 151.171
50.90000 147.632
50.91000 145.821
50.92000 150.066
50.93000 152.909
50.94000 154.643
50.95000 155.615
50.96000 156.489
50.97000 154.440
50.98000 151.029
50.99000 147.796
51.00000 153.542
51.01000 161.468
51.02000 168.012
51.03000 163.664
51.04000 156.985
51.05000 151.516
51.06000 152.097
51.07000 153.509
51.08000 154.615
51.09000 152.927
51.10000 151.399
51.11000 150.121
51.12000 149.417
51.13000 148.734
51.14000 147.782
51.15000 146.408
51.16000 145.030
51.17000 144.332
51.18000 137.892
51.19000 133.639
51.20000 135.869
51.21000 142.467
51.22000 148.804
51.23000 147.675
51.24000 143.127
51.25000 138.825
51.26000 143.342
51.27000 150.033
51.28000 155.757
51.29000 154.029
51.30000 150.736
51.31000 147.830
51.32000 146.816
51.33000 146.058
51.34000 145.466
51.35000 144.737
51.36000 144.147
51.37000 145.447
51.38000 150.991
51.39000 156.694
51.40000 158.452
51.41000 154.189
51.42000 149.860
51.43000 147.690
51.44000 143.635
51.45000 140.939
51.46000 139.245
51.47000 138.215
51.48000 137.369
51.49000 141.566
51.50000 148.033
51.51000 154.140
51.52000 151.656
51.53000 146.954
51.54000 142.450
51.55000 139.453
51.56000 136.767
51.57000 135.129
51.58000 138.541
51.59000 142.618
51.60000 145.785
51.61000 145.284
51.62000 144.665
51.63000 143.667
51.64000 141.834
51.65000 139.971
51.66000 139.662
51.67000 141.682
51.68000 143.725
51.69000 142.988
51.70000 139.509
51.71000 136.053
51.72000 134.699
51.73000 134.710
51.74000 134.780
51.75000 136.390
51.76000 138.680
51.77000 140.840
51.78000 141.574
51.79000 141.853
51.80000 142.143
51.81000 142.523
51.82000 142.921
51.83000 143.330
51.84000 143.794
51.85000 144.264
51.86000 144.628
51.87000 139.912
51.88000 135.872
51.89000 134.822
51.90000 140.261
51.91000 145.923
51.92000 148.834
51.93000 147.695
51.94000 146.519
51.95000 143.600
51.96000 138.999
51.97000 134.471
51.98000 136.132
51.99000 141.747
52.00000 147.192
52.01000 148.327
52.02000 147.587
52.03000 146.890
52.04000 145.589
52.05000 144.235
52.06000 142.802
52.07000 140.797
52.08000 138.680
52.09000 137.434
52.10000 140.231
52.11000 143.537
52.12000 146.082
52.13000 139.166
52.14000 133.154
52.15000 129.376
52.16000 130.363
52.17000 131.507
52.18000 134.262
52.19000 139.347
52.20000 144.451
52.21000 145.566
52.22000 142.900
52.23000 140.260
52.24000 139.649
52.25000 140.312
52.26000 141.073
52.27000 144.242
52.28000 148.439
52.29000 152.381
52.30000 149.809
52.31000 145.728
52.32000 142.157
52.33000 142.189
52.34000 142.923
52.35000 143.324
52.36000 142.207
52.37000 140.904
52.38000 139.905
52.39000 143.785
52.40000 147.117
52.41000 148.629
52.42000 146.326
52.43000 143.902
52.44000 142.505
52.45000 142.567
52.46000 142.640
52.47000 142.060
52.48000 140.876
52.49000 139.734
52.50000 141.651
52.51000 145.455
52.52000 149.133
52.53000 149.903
52.54000 149.450
52.55000 149.025
52.56000 147.051
52.57000 144.848
52.58000 143.030
52.59000 143.870
52.60000 145.216
52.61000 145.532
52.62000 141.242
52.63000 136.397
52.64000 132.702
52.65000 131.146
52.66000 130.035
52.67000 130.804
52.68000 135.445
52.69000 140.204
52.70000 144.382
52.71000 147.752
52.72000 151.116
52.73000 150.100
52.74000 145.097
52.75000 140.171
52.76000 140.351
52.77000 143.624
52.78000 146.702
52.79000 145.386
52.80000 142.255
52.81000 139.325
52.82000 141.266
52.83000 144.276
52.84000 146.493
52.85000 143.336
52.86000 139.172
52.87000 137.088
52.88000 144.125
52.89000 152.233
52.90000 158.391
52.91000 152.131
52.92000 146.569
52.93000 143.152
52.94000 144.078
52.95000 145.130
52.96000 144.593
52.97000 141.879
52.98000 139.154
52.99000 139.078
53.00000 141.366
53.01000 143.629
53.02000 144.321
53.03000 144.078
53.04000 143.799
53.05000 142.770
53.06000 141.435
53.07000 140.188
53.08000 139.626
53.09000 139.288
53.10000 139.644
53.11000 144.606
53.12000 150.413
53.13000 154.298
53.14000 149.905
53.15000 144.561
53.16000 140.522
53.17000 139.525
53.18000 138.896
53.19000 140.626
53.20000 147.053
53.21000 153.609
53.22000 155.463
53.23000 150.993
53.24000 146.492
53.25000 144.228
53.26000 143.927
53.27000 143.643
53.28000 144.430
53.29000 145.843
53.30000 147.250
53.31000 148.506
53.32000 149.702
53.33000 150.817
53.34000 148.035
53.35000 144.557
53.36000 142.139
53.37000 146.601
53.38000 152.302
53.39000 156.039
53.40000 151.471
53.41000 145.972
53.42000 141.835
53.43000 147.701
53.44000 152.774
53.45000 155.871
53.46000 155.102
53.47000 154.232
53.48000 152.715
53.49000 150.343
53.50000 147.969
53.51000 147.647
53.52000 149.086
53.53000 150.510
53.54000 151.048
53.55000 151.076
53.56000 151.126
53.57000 151.607
53.58000 152.257
53.59000 152.861
53.60000 153.288
53.61000 153.631
53.62000 153.412
53.63000 149.626
53.64000 145.211
53.65000 141.842
53.66000 142.824
53.67000 144.283
53.68000 145.375
53.69000 145.579
53.70000 145.697
53.71000 146.193
53.72000 147.418
53.73000 148.662
53.74000 148.090
53.75000 145.165
53.76000 142.233
53.77000 141.271
53.78000 141.968
53.79000 142.626
53.80000 141.199
53.81000 138.596
53.82000 136.235
53.83000 138.603
53.84000 142.794
53.85000 146.685
53.86000 144.728
53.87000 141.581
53.88000 139.122
53.89000 140.949
53.90000 143.519
53.91000 145.468
53.92000 144.889
53.93000 144.039
53.94000 143.405
53.95000 141.962
53.96000 140.801
53.97000 141.620
53.98000 146.180
53.99000 150.828
54.00000 151.031
54.01000 145.579
54.02000 140.114
54.03000 138.244
54.04000 139.345
54.05000 140.456
54.06000 142.026
54.07000 143.850
54.08000 145.450
54.09000 142.835
54.10000 138.620
54.11000 134.715
54.12000 135.590
54.13000 137.485
54.14000 139.025
54.15000 138.400
54.16000 137.407
54.17000 137.160
54.18000 139.900
54.19000 142.952
54.20000 145.215
54.21000 144.462
54.22000 143.746
54.23000 142.536
54.24000 140.409
54.25000 138.261
54.26000 137.760
54.27000 139.316
54.28000 140.876
54.29000 142.038
54.30000 142.875
54.31000 143.669
54.32000 142.492
54.33000 140.240
54.34000 138.072
54.35000 137.422
54.36000 137.340
54.37000 137.264
54.38000 140.960
54.39000 145.136
54.40000 148.663
54.41000 148.308
54.42000 147.308
54.43000 145.691
54.44000 141.645
54.45000 137.352
54.46000 134.183
54.47000 142.548
54.48000 149.516
54.49000 153.460
54.50000 151.885
54.51000 150.193
54.52000 146.336
54.53000 139.827
54.54000 133.322
54.55000 129.922
54.56000 129.002
54.57000 128.129
54.58000 129.380
54.59000 131.768
54.60000 134.186
54.61000 137.130
54.62000 140.267
54.63000 143.161
54.64000 145.120
54.65000 146.668
54.66000 147.662
54.67000 145.411
54.68000 142.632
54.69000 140.885
54.70000 143.131
54.71000 145.773
54.72000 147.714
54.73000 143.019
54.74000 139.120
54.75000 137.926
54.76000 141.585
54.77000 145.341
54.78000 148.893
54.79000 152.199
54.80000 155.498
54.81000 152.491
54.82000 144.594
54.83000 136.839
54.84000 134.992
54.85000 136.259
54.86000 137.366
54.87000 135.733
54.88000 133.113
54.89000 130.701
54.90000 134.755
54.91000 139.790
54.92000 144.287
54.93000 145.693
54.94000 146.605
54.95000 147.001
54.96000 145.433
54.97000 143.675
54.98000 142.391
54.99000 147.874
55.00000 152.368
55.01000 154.940
55.02000 154.125
55.03000 153.247
55.04000 149.509
55.05000 142.397
55.06000 135.297
55.07000 135.432
55.08000 141.090
55.09000 146.604
55.10000 146.431
55.11000 143.313
55.12000 140.475
55.13000 142.268
55.14000 145.700
55.15000 148.853
55.16000 154.752
55.17000 160.604
55.18000 165.199
55.19000 162.715
55.20000 159.123
55.21000 155.563
55.22000 152.120
55.23000 148.688
55.24000 146.194
55.25000 145.419
55.26000 144.889
55.27000 147.209
55.28000 154.468
55.29000 161.814
55.30000 164.099
55.31000 160.525
55.32000 156.952
55.33000 157.223
55.34000 160.369
55.35000 163.534
55.36000 167.431
55.37000 171.700
55.38000 175.787
55.39000 176.946
55.40000 177.086
55.41000 177.215
55.42000 176.325
55.43000 175.320
55.44000 174.501
55.45000 174.710
55.46000 175.077
55.47000 176.270
55.48000 180.492
55.49000 184.993
55.50000 188.248
55.51000 196.586
55.52000 203.170
55.53000 208.006
55.54000 209.867
55.55000 211.678
55.56000 214.004
55.57000 216.915
55.58000 219.817
55.59000 228.241
55.60000 240.656
55.61000 252.908
55.62000 259.285
55.63000 262.724
55.64000 266.610
55.65000 277.429
55.66000 290.620
55.67000 302.680
55.68000 307.437
55.69000 310.164
55.70000 313.389
55.71000 319.313
55.72000 325.641
55.73000 332.622
55.74000 341.953
55.75000 351.494
55.76000 358.357
55.77000 384.559
55.78000 405.294
55.79000 419.085
55.80000 421.260
55.81000 423.254
55.82000 427.526
55.83000 434.337
55.84000 441.126
55.85000 453.359
55.86000 469.410
55.87000 485.293
55.88000 495.446
55.89000 502.781
55.90000 509.908
55.91000 513.898
55.92000 516.833
55.93000 519.510
55.94000 509.994
55.95000 499.104
55.96000 492.084
55.97000 505.640
55.98000 522.219
55.99000 533.457
56.00000 525.818
56.01000 516.527
56.02000 509.878
56.03000 492.886
56.04000 479.561
56.05000 469.276
56.06000 463.985
56.07000 458.767
56.08000 452.315
56.09000 444.515
56.10000 436.745
56.11000 427.390
56.12000 417.004
56.13000 406.641
56.14000 397.048
56.15000 387.826
56.16000 378.225
56.17000 363.081
56.18000 346.105
56.19000 330.657
56.20000 321.209
56.21000 314.031
56.22000 305.570
56.23000 290.421
56.24000 274.310
56.25000 261.284
56.26000 258.973
56.27000 257.576
56.28000 256.581
56.29000 245.880
56.30000 237.415
56.31000 229.187
56.32000 221.342
56.33000 213.503
56.34000 206.254
56.35000 199.637
56.36000 193.049
56.37000 192.648
56.38000 196.540
56.39000 200.255
56.40000 198.458
56.41000 194.041
56.42000 189.711
56.43000 186.611
56.44000 183.910
56.45000 181.458
56.46000 175.041
56.47000 168.609
56.48000 163.241
56.49000 163.311
56.50000 164.147
56.51000 163.309
56.52000 156.760
56.53000 149.737
56.54000 144.765
56.55000 149.045
56.56000 152.585
56.57000 152.399
56.58000 146.301
56.59000 140.129
56.60000 139.010
56.61000 143.197
56.62000 147.364
56.63000 147.879
56.64000 145.905
56.65000 143.974
56.66000 143.340
56.67000 143.313
56.68000 143.179
56.69000 141.574
56.70000 139.499
56.71000 137.620
56.72000 136.211
56.73000 135.060
56.74000 133.925
56.75000 132.873
56.76000 131.832
56.77000 131.025
56.78000 130.998
56.79000 131.035
56.80000 131.061
56.81000 135.437
56.82000 138.884
56.83000 140.205
56.84000 138.212
56.85000 136.179
56.86000 136.055
56.87000 137.895
56.88000 139.725
56.89000 138.006
56.90000 133.940
56.91000 129.933
56.92000 127.578
56.93000 125.981
56.94000 124.663
56.95000 127.079
56.96000 130.666
56.97000 133.907
56.98000 136.748
56.99000 139.172
57.00000 141.412
57.01000 142.746
57.02000 143.957
57.03000 143.573
57.04000 137.934
57.05000 131.882
57.06000 127.644
57.07000 131.821
57.08000 135.219
57.09000 136.570
57.10000 134.788
57.11000 132.973
57.12000 131.782
57.13000 131.221
57.14000 130.664
57.15000 130.811
57.16000 131.418
57.17000 132.024
57.18000 132.615
57.19000 133.200
57.20000 133.735
57.21000 133.610
57.22000 133.282
57.23000 132.986
57.24000 130.387
57.25000 127.689
57.26000 126.259
57.27000 130.948
57.28000 136.445
57.29000 140.201
57.30000 138.321
57.31000 136.010
57.32000 134.401
57.33000 132.871
57.34000 131.718
57.35000 129.675
57.36000 126.293
57.37000 122.898
57.38000 121.964
57.39000 123.465
57.40000 124.956
57.41000 127.430
57.42000 130.499
57.43000 133.474
57.44000 133.964
57.45000 133.352
57.46000 132.870
57.47000 134.035
57.48000 135.698
57.49000 137.193
57.50000 132.724
57.51000 127.753
57.52000 123.941
57.53000 125.628
57.54000 128.025
57.55000 130.311
57.56000 132.243
57.57000 134.148
57.58000 135.467
57.59000 135.437
57.60000 135.380
57.61000 133.575
57.62000 129.190
57.63000 124.781
57.64000 122.841
57.65000 123.296
57.66000 123.747
57.67000 122.566
57.68000 120.374
57.69000 118.304
57.70000 119.332
57.71000 121.711
57.72000 124.227
57.73000 128.432
57.74000 133.139
57.75000 137.361
57.76000 137.220
57.77000 136.338
57.78000 134.226
57.79000 126.389
57.80000 117.830
57.81000 112.721
57.82000 118.400
57.83000 124.857
57.84000 129.302
57.85000 125.551
57.86000 122.532
57.87000 121.163
57.88000 122.190
57.89000 123.237
57.90000 124.011
57.91000 124.525
57.92000 125.035
57.93000 126.127
57.94000 127.560
57.95000 128.827
57.96000 126.053
57.97000 121.548
57.98000 117.422
57.99000 117.870
58.00000 119.656
58.01000 121.253
58.02000 120.515
58.03000 119.474
58.04000 120.050
58.05000 128.003
58.06000 136.867
58.07000 142.533
58.08000 138.371
58.09000 133.519
58.10000 130.199
58.11000 125.166
58.12000 121.357
58.13000 120.529
58.14000 123.947
58.15000 127.397
58.16000 129.596
58.17000 130.629
58.18000 131.654
58.19000 129.660
58.20000 125.870
58.21000 122.162
58.22000 120.379
58.23000 119.407
58.24000 118.648
58.25000 120.377
58.26000 122.822
58.27000 125.002
58.28000 125.347
58.29000 125.341
58.30000 125.003
58.31000 123.179
58.32000 121.176
58.33000 119.878
58.34000 120.711
58.35000 121.690
58.36000 122.356
58.37000 120.504
58.38000 119.064
58.39000 118.683
58.40000 119.782
58.41000 120.890
58.42000 121.070
58.43000 120.402
58.44000 119.740
58.45000 117.451
58.46000 114.240
58.47000 111.314
58.48000 114.823
58.49000 120.999
58.50000 126.666
58.51000 126.547
58.52000 124.793
58.53000 123.233
58.54000 119.958
58.55000 116.835
58.56000 114.305
58.57000 114.386
58.58000 114.775
58.59000 115.669
58.60000 118.063
58.61000 120.556
58.62000 122.242
58.63000 121.638
58.64000 121.138
58.65000 122.336
58.66000 125.868
58.67000 129.410
58.68000 128.842
58.69000 124.590
58.70000 120.380
58.71000 118.444
58.72000 117.878
58.73000 117.191
58.74000 113.903
58.75000 109.554
58.76000 105.913
58.77000 110.124
58.78000 116.513
58.79000 122.183
58.80000 119.438
58.81000 115.718
58.82000 113.455
58.83000 117.487
58.84000 122.245
58.85000 125.833
58.86000 126.011
58.87000 125.969
58.88000 125.942
58.89000 124.634
58.90000 123.636
58.91000 123.020
58.92000 122.920
58.93000 122.824
58.94000 123.647
58.95000 125.277
58.96000 126.890
58.97000 124.888
58.98000 120.857
58.99000 117.013
59.00000 117.097
59.01000 118.755
59.02000 119.944
59.03000 116.070
59.04000 110.816
59.05000 106.166
59.06000 106.625
59.07000 107.819
59.08000 109.331
59.09000 112.194
59.10000 115.208
59.11000 118.655
59.12000 123.343
59.13000 128.107
59.14000 131.290
59.15000 124.385
59.16000 119.071
59.17000 116.201
59.18000 116.570
59.19000 116.953
59.20000 117.315
59.21000 117.659
59.22000 117.999
59.23000 117.149
59.24000 115.649
59.25000 114.321
59.26000 116.475
59.27000 120.000
59.28000 123.247
59.29000 123.577
59.30000 123.125
59.31000 122.726
59.32000 123.456
59.33000 124.259
59.34000 124.362
59.35000 121.555
59.36000 118.427
59.37000 115.671
59.38000 113.960
59.39000 112.313
59.40000 111.219
59.41000 108.956
59.42000 107.261
59.43000 106.979
59.44000 108.533
59.45000 110.092
59.46000 110.603
59.47000 110.227
59.48000 109.856
59.49000 114.665
59.50000 122.214
59.51000 129.326
59.52000 127.878
59.53000 123.117
59.54000 118.804
59.55000 119.095
59.56000 120.597
59.57000 121.918
59.58000 125.500
59.59000 128.921
59.60000 130.937
59.61000 127.204
59.62000 122.854
59.63000 119.476
59.64000 118.792
59.65000 118.266
59.66000 117.918
59.67000 118.925
59.68000 119.691
59.69000 122.050
59.70000 126.441
59.71000 130.829
59.72000 130.317
59.73000 125.738
59.74000 121.218
59.75000 121.591
59.76000 124.606
59.77000 127.238
59.78000 122.605
59.79000 115.210
59.80000 108.673
59.81000 110.740
59.82000 115.030
59.83000 118.795
59.84000 120.692
59.85000 122.047
59.86000 122.898
59.87000 121.723
59.88000 120.335
59.89000 118.963
59.90000 117.637
59.91000 116.313
59.92000 115.444
59.93000 116.130
59.94000 116.660
59.95000 116.730
59.96000 116.225
59.97000 115.721
59.98000 116.693
59.99000 118.867
60.00000 121.011
60.01000 119.937
60.02000 117.181
60.03000 114.548
60.04000 114.174
60.05000 114.645
60.06000 115.273
60.07000 117.438
60.08000 119.993
60.09000 122.229
60.10000 126.456
60.11000 130.363
60.12000 132.707
60.13000 128.881
60.14000 124.424
60.15000 120.757
60.16000 119.208
60.17000 117.774
60.18000 116.840
60.19000 117.485
60.20000 117.982
60.21000 117.756
60.22000 116.641
60.23000 115.524
60.24000 114.627
60.25000 113.907
60.26000 113.197
60.27000 113.590
60.28000 114.548
60.29000 115.587
60.30000 118.065
60.31000 121.072
60.32000 123.666
60.33000 122.317
60.34000 119.985
60.35000 117.951
60.36000 110.398
60.37000 103.167
60.38000 98.526
60.39000 103.920
60.40000 110.316
60.41000 114.902
60.42000 114.727
60.43000 114.300
60.44000 114.023
60.45000 113.955
60.46000 113.909
60.47000 114.553
60.48000 116.029
60.49000 117.508
60.50000 118.989
60.51000 120.474
60.52000 121.936
60.53000 122.787
60.54000 123.299
60.55000 123.645
60.56000 121.150
60.57000 117.628
60.58000 114.606
60.59000 116.245
60.60000 119.025
60.61000 121.443
60.62000 119.567
60.63000 117.379
60.64000 116.304
60.65000 119.469
60.66000 123.046
60.67000 124.724
60.68000 121.487
60.69000 117.999
60.70000 115.757
60.71000 119.783
60.72000 122.808
60.73000 124.200
60.74000 123.661
60.75000 123.112
60.76000 121.060
60.77000 117.851
60.78000 114.693
60.79000 113.001
60.80000 112.098
60.81000 111.274
60.82000 111.758
60.83000 112.707
60.84000 113.847
60.85000 116.725
60.86000 120.020
60.87000 122.879
60.88000 124.740
60.89000 126.192
60.90000 126.214
60.91000 120.896
60.92000 115.070
60.93000 112.367
60.94000 117.606
60.95000 123.237
60.96000 126.834
60.97000 121.271
60.98000 117.104
60.99000 115.104
61.00000 115.622
61.01000 116.143
61.02000 116.806
61.03000 117.576
61.04000 118.332
61.05000 120.557
61.06000 123.431
61.07000 126.146
61.08000 126.284
61.09000 125.523
61.10000 124.939
61.11000 125.918
61.12000 127.266
61.13000 128.432
61.14000 126.462
61.15000 124.379
61.16000 123.386
61.17000 126.394
61.18000 129.773
61.19000 130.723
61.20000 125.600
61.21000 120.189
61.22000 116.756
61.23000 119.191
61.24000 121.030
61.25000 122.685
61.26000 124.130
61.27000 125.578
61.28000 127.602
61.29000 130.054
61.30000 132.461
61.31000 132.195
61.32000 130.645
61.33000 129.055
61.34000 126.860
61.35000 124.456
61.36000 122.276
61.37000 122.029
61.38000 122.230
61.39000 122.404
61.40000 126.406
61.41000 130.288
61.42000 132.871
61.43000 130.765
61.44000 128.236
61.45000 127.696
61.46000 132.043
61.47000 136.615
61.48000 139.496
61.49000 148.207
61.50000 154.579
61.51000 158.538
61.52000 159.801
61.53000 161.090
61.54000 166.837
61.55000 175.831
61.56000 184.654
61.57000 198.426
61.58000 214.048
61.59000 229.278
61.60000 238.569
61.61000 245.858
61.62000 253.210
61.63000 261.096
61.64000 269.104
61.65000 275.986
61.66000 287.958
61.67000 298.722
61.68000 306.624
61.69000 304.383
61.70000 301.251
61.71000 299.259
61.72000 300.024
61.73000 300.910
61.74000 301.465
61.75000 288.552
61.76000 279.087
61.77000 266.335
61.78000 249.983
61.79000 233.649
61.80000 220.448
61.81000 209.488
61.82000 198.747
61.83000 189.679
61.84000 181.736
61.85000 173.737
61.86000 164.936
61.87000 155.868
61.88000 147.352
61.89000 143.412
61.90000 140.495
61.91000 137.995
61.92000 135.677
61.93000 133.742
61.94000 133.228
61.95000 137.663
61.96000 142.521
61.97000 145.075
61.98000 142.159
61.99000 139.010
62.00000 137.052
62.01000 131.716
62.02000 127.841
62.03000 126.537
62.04000 127.994
62.05000 129.459
62.06000 131.832
62.07000 134.841
62.08000 137.788
62.09000 136.723
62.10000 133.865
62.11000 131.060
62.12000 129.009
62.13000 127.203
62.14000 125.602
62.15000 125.661
62.16000 126.084
62.17000 126.445
62.18000 126.892
62.19000 127.278
62.20000 127.835
62.21000 128.972
62.22000 130.157
62.23000 131.484
62.24000 133.139
62.25000 134.808
62.26000 135.837
62.27000 134.443
62.28000 133.420
62.29000 133.114
62.30000 133.563
62.31000 133.992
62.32000 131.977
62.33000 128.276
62.34000 124.657
62.35000 124.327
62.36000 125.486
62.37000 126.652
62.38000 127.903
62.39000 129.182
62.40000 130.261
62.41000 129.761
62.42000 128.922
62.43000 128.207
62.44000 131.688
62.45000 135.101
62.46000 137.845
62.47000 138.336
62.48000 138.644
62.49000 136.358
62.50000 128.117
62.51000 119.641
62.52000 114.449
62.53000 123.004
62.54000 129.246
62.55000 134.384
62.56000 138.380
62.57000 142.337
62.58000 141.887
62.59000 138.452
62.60000 135.096
62.61000 135.069
62.62000 136.511
62.63000 137.882
62.64000 138.310
62.65000 138.441
62.66000 138.207
62.67000 135.148
62.68000 131.492
62.69000 128.390
62.70000 131.303
62.71000 134.429
62.72000 136.034
62.73000 132.615
62.74000 128.798
62.75000 127.322
62.76000 131.123
62.77000 135.124
62.78000 137.557
62.79000 134.404
62.80000 132.109
62.81000 132.295
62.82000 134.991
62.83000 137.629
62.84000 134.396
62.85000 127.256
62.86000 120.290
62.87000 118.255
62.88000 118.443
62.89000 118.808
62.90000 121.485
62.91000 124.876
62.92000 128.235
62.93000 131.342
62.94000 134.397
62.95000 136.981
62.96000 135.727
62.97000 134.253
62.98000 132.625
62.99000 130.500
63.00000 128.337
63.01000 127.453
63.02000 129.405
63.03000 131.460
63.04000 132.700
63.05000 131.479
63.06000 130.592
63.07000 132.038
63.08000 135.799
63.09000 139.516
63.10000 139.186
63.11000 136.210
63.12000 133.309
63.13000 135.719
63.14000 140.273
63.15000 144.223
63.16000 140.492
63.17000 134.427
63.18000 129.529
63.19000 133.285
63.20000 138.802
63.21000 143.452
63.22000 144.544
63.23000 145.072
63.24000 144.255
63.25000 139.153
63.26000 133.730
63.27000 131.183
63.28000 134.904
63.29000 138.844
63.30000 141.204
63.31000 136.907
63.32000 133.812
63.33000 131.419
63.34000 129.706
63.35000 128.024
63.36000 128.909
63.37000 131.444
63.38000 133.911
63.39000 134.701
63.40000 134.756
63.41000 134.659
63.42000 132.674
63.43000 130.126
63.44000 128.157
63.45000 130.396
63.46000 133.475
63.47000 136.062
63.48000 133.826
63.49000 131.454
63.50000 129.522
63.51000 128.969
63.52000 128.515
63.53000 128.740
63.54000 130.420
63.55000 132.149
63.56000 133.177
63.57000 138.221
63.58000 141.817
63.59000 141.298
63.60000 136.859
63.61000 132.513
63.62000 135.630
63.63000 143.453
63.64000 151.060
63.65000 151.037
63.66000 147.896
63.67000 145.067
63.68000 146.001
63.69000 148.039
63.70000 149.292
63.71000 144.968
63.72000 139.553
63.73000 135.018
63.74000 138.866
63.75000 142.928
63.76000 144.730
63.77000 139.572
63.78000 133.923
63.79000 131.707
63.80000 136.724
63.81000 141.971
63.82000 145.068
63.83000 139.951
63.84000 136.294
63.85000 135.677
63.86000 137.899
63.87000 140.101
63.88000 140.746
63.89000 140.428
63.90000 140.118
63.91000 140.282
63.92000 140.627
63.93000 140.946
63.94000 140.966
63.95000 140.901
63.96000 141.096
63.97000 143.112
63.98000 145.477
63.99000 147.450
64.00000 145.407
64.01000 143.309
64.02000 142.436
64.03000 145.274
64.04000 148.365
64.05000 151.436
64.06000 154.464
64.07000 157.491
64.08000 159.263
64.09000 155.582
64.10000 152.963
64.11000 150.557
64.12000 148.344
64.13000 146.174
64.14000 146.933
64.15000 149.475
64.16000 151.941
64.17000 151.259
64.18000 149.374
64.19000 147.866
64.20000 150.675
64.21000 154.707
64.22000 157.485
64.23000 151.720
64.24000 144.346
64.25000 138.215
64.26000 139.475
64.27000 141.240
64.28000 142.751
64.29000 143.504
64.30000 144.206
64.31000 146.150
64.32000 150.620
64.33000 155.163
64.34000 157.803
64.35000 156.918
64.36000 156.282
64.37000 155.107
64.38000 153.450
64.39000 151.840
64.40000 153.239
64.41000 156.439
64.42000 159.538
64.43000 160.540
64.44000 160.679
64.45000 160.690
64.46000 159.287
64.47000 157.491
64.48000 155.953
64.49000 156.142
64.50000 156.648
64.51000 157.068
64.52000 157.417
64.53000 157.699
64.54000 158.070
64.55000 158.701
64.56000 159.350
64.57000 159.946
64.58000 160.440
64.59000 160.930
64.60000 161.213
64.61000 160.079
64.62000 159.283
64.63000 161.480
64.64000 166.314
64.65000 171.081
64.66000 171.816
64.67000 170.180
64.68000 168.598
64.69000 167.556
64.70000 166.775
64.71000 166.215
64.72000 168.038
64.73000 170.512
64.74000 172.418
64.75000 170.609
64.76000 168.128
64.77000 166.079
64.78000 169.524
64.79000 172.874
64.80000 175.514
64.81000 176.115
64.82000 176.589
64.83000 176.904
64.84000 176.906
64.85000 176.901
64.86000 176.898
64.87000 181.408
64.88000 184.565
64.89000 182.550
64.90000 176.065
64.91000 169.732
64.92000 171.998
64.93000 179.231
64.94000 186.218
64.95000 187.857
64.96000 187.414
64.97000 187.148
64.98000 188.769
64.99000 190.897
65.00000 192.753
65.01000 192.867
65.02000 192.672
65.03000 192.511
65.04000 197.565
65.05000 202.192
65.06000 205.027
65.07000 202.796
65.08000 200.258
65.09000 199.140
65.10000 200.765
65.11000 202.460
65.12000 203.420
65.13000 202.202
65.14000 201.350
65.15000 201.557
65.16000 202.664
65.17000 203.798
65.18000 206.385
65.19000 209.796
65.20000 213.088
65.21000 216.041
65.22000 218.697
65.23000 221.176
65.24000 221.829
65.25000 222.000
65.26000 222.567
65.27000 225.612
65.28000 229.089
65.29000 231.938
65.30000 235.471
65.31000 238.428
65.32000 240.776
65.33000 241.432
65.34000 241.988
65.35000 244.422
65.36000 250.421
65.37000 256.506
65.38000 259.926
65.39000 256.428
65.40000 253.991
65.41000 256.092
65.42000 261.967
65.43000 267.825
65.44000 272.775
65.45000 277.220
65.46000 281.501
65.47000 288.540
65.48000 296.140
65.49000 303.004
65.50000 302.466
65.51000 300.011
65.52000 298.390
65.53000 301.893
65.54000 306.270
65.55000 309.843
65.56000 321.722
65.57000 332.157
65.58000 341.648
65.59000 348.565
65.60000 355.335
65.61000 362.858
65.62000 371.786
65.63000 380.746
65.64000 385.741
65.65000 432.737
65.66000 465.369
65.67000 508.232
65.68000 559.448
65.69000 611.008
65.70000 678.832
65.71000 755.571
65.72000 829.391
65.73000 941.065
65.74000 1059.071
65.75000 1177.401
65.76000 1298.911
65.77000 1421.231
65.78000 1536.716
65.79000 1611.048
65.80000 1678.498
65.81000 1733.365
65.82000 1786.404
65.83000 1829.554
65.84000 1864.230
65.85000 1876.163
65.86000 1886.847
65.87000 1902.333
65.88000 1926.632
65.89000 1951.120
65.90000 1964.655
65.91000 1901.529
65.92000 1857.797
65.93000 1798.146
65.94000 1725.737
65.95000 1652.465
65.96000 1540.536
65.97000 1407.778
65.98000 1280.256
65.99000 1160.779
66.00000 1051.735
66.01000 942.988
66.02000 837.089
66.03000 731.901
66.04000 635.057
66.05000 587.446
66.06000 547.903
66.07000 515.859
66.08000 471.720
66.09000 434.779
66.10000 406.848
66.11000 402.689
66.12000 399.793
66.13000 394.210
66.14000 383.780
66.15000 373.252
66.16000 367.483
66.17000 358.610
66.18000 352.540
66.19000 356.875
66.20000 369.395
66.21000 381.588
66.22000 379.978
66.23000 371.057
66.24000 362.501
66.25000 378.935
66.26000 402.740
66.27000 425.673
66.28000 440.445
66.29000 453.214
66.30000 467.447
66.31000 490.147
66.32000 514.208
66.33000 533.630
66.34000 555.584
66.35000 573.628
66.36000 585.946
66.37000 583.416
66.38000 580.123
66.39000 581.148
66.40000 589.826
66.41000 598.651
66.42000 603.444
66.43000 607.061
66.44000 609.526
66.45000 608.711
66.46000 605.365
66.47000 601.787
66.48000 588.884
66.49000 571.127
66.50000 554.121
66.51000 541.948
66.52000 532.202
66.53000 521.128
66.54000 497.923
66.55000 471.795
66.56000 446.538
66.57000 426.217
66.58000 406.674
66.59000 390.959
66.60000 380.802
66.61000 372.995
66.62000 368.490
66.63000 372.404
66.64000 376.735
66.65000 374.212
66.66000 359.755
66.67000 345.082
66.68000 337.183
66.69000 342.260
66.70000 345.728
66.71000 346.104
66.72000 344.136
66.73000 342.234
66.74000 342.852
66.75000 344.760
66.76000 346.583
66.77000 345.476
66.78000 343.490
66.79000 341.684
66.80000 341.485
66.81000 341.665
66.82000 342.101
66.83000 343.951
66.84000 346.020
66.85000 347.677
66.86000 357.474
66.87000 366.013
66.88000 368.958
66.89000 357.885
66.90000 346.141
66.91000 340.277
66.92000 344.476
66.93000 348.846
66.94000 351.177
66.95000 357.543
66.96000 361.882
66.97000 365.929
66.98000 369.760
66.99000 373.524
67.00000 374.859
67.01000 374.972
67.02000 375.080
67.03000 372.385
67.04000 368.985
67.05000 365.913
67.06000 365.703
67.07000 366.156
67.08000 367.368
67.09000 372.714
67.10000 378.683
67.11000 383.445
67.12000 376.279
67.13000 369.623
67.14000 368.789
67.15000 382.293
67.16000 396.461
67.17000 401.984
67.18000 392.972
67.19000 383.729
67.20000 378.844
67.21000 378.967
67.22000 379.061
67.23000 380.414
67.24000 382.686
67.25000 385.049
67.26000 390.542
67.27000 397.581
67.28000 404.291
67.29000 402.148
67.30000 397.387
67.31000 392.981
67.32000 391.601
67.33000 390.912
67.34000 391.251
67.35000 397.090
67.36000 403.743
67.37000 409.028
67.38000 412.710
67.39000 415.561
67.40000 414.451
67.41000 403.749
67.42000 392.619
67.43000 388.317
67.44000 395.294
67.45000 402.439
67.46000 406.180
67.47000 399.788
67.48000 395.491
67.49000 396.325
67.50000 400.842
67.51000 405.393
67.52000 411.070
67.53000 417.295
67.54000 423.219
67.55000 420.985
67.56000 416.408
67.57000 413.050
67.58000 419.834
67.59000 428.888
67.60000 435.621
67.61000 430.185
67.62000 422.988
67.63000 417.293
67.64000 430.678
67.65000 442.749
67.66000 449.631
67.67000 444.160
67.68000 438.158
67.69000 439.343
67.70000 452.193
67.71000 465.205
67.72000 471.954
67.73000 457.637
67.74000 447.997
67.75000 442.215
67.76000 439.150
67.77000 436.075
67.78000 432.675
67.79000 429.120
67.80000 425.743
67.81000 433.281
67.82000 443.536
67.83000 452.625
67.84000 452.228
67.85000 449.746
67.86000 448.736
67.87000 455.302
67.88000 462.941
67.89000 468.960
67.90000 474.647
67.91000 479.184
67.92000 482.544
67.93000 483.151
67.94000 483.644
67.95000 484.320
67.96000 485.287
67.97000 486.258
67.98000 486.757
67.99000 482.694
68.00000 480.013
68.01000 483.847
68.02000 492.187
68.03000 500.292
68.04000 501.264
68.05000 498.889
68.06000 496.637
68.07000 501.012
68.08000 507.006
68.09000 512.410
68.10000 513.119
68.11000 512.817
68.12000 513.640
68.13000 520.147
68.14000 527.441
68.15000 533.165
68.16000 539.927
68.17000 545.403
68.18000 545.778
68.19000 534.416
68.20000 522.589
68.21000 517.664
68.22000 523.552
68.23000 529.570
68.24000 532.631
68.25000 541.955
68.26000 548.189
68.27000 552.342
68.28000 555.082
68.29000 557.832
68.30000 560.880
68.31000 564.065
68.32000 567.081
68.33000 576.214
68.34000 586.393
68.35000 595.869
68.36000 599.875
68.37000 602.723
68.38000 606.503
68.39000 614.899
68.40000 623.920
68.41000 630.969
68.42000 632.179
68.43000 632.775
68.44000 636.151
68.45000 645.815
68.46000 655.718
68.47000 660.565
68.48000 657.631
68.49000 654.612
68.50000 653.091
68.51000 684.093
68.52000 704.760
68.53000 720.033
68.54000 731.706
68.55000 743.313
68.56000 753.053
68.57000 761.946
68.58000 770.350
68.59000 791.040
68.60000 813.536
68.61000 836.780
68.62000 865.719
68.63000 895.841
68.64000 927.522
68.65000 966.773
68.66000 1007.029
68.67000 1038.349
68.68000 1088.453
68.69000 1129.490
68.70000 1171.152
68.71000 1214.199
68.72000 1257.297
68.73000 1296.833
68.74000 1330.986
68.75000 1365.083
68.76000 1407.242
68.77000 1457.420
68.78000 1507.544
68.79000 1552.568
68.80000 1594.250
68.81000 1636.174
68.82000 1684.536
68.83000 1735.769
68.84000 1784.105
68.85000 1861.759
68.86000 1941.121
68.87000 2028.344
68.88000 2174.122
68.89000 2331.838
68.90000 2528.824
68.91000 2912.983
68.92000 3321.451
68.93000 3637.874
68.94000 5072.854
68.95000 6279.104
68.96000 7880.438
68.97000 10345.167
68.98000 12840.240
68.99000 15716.277
69.00000 19157.955
69.01000 22604.844
69.02000 25882.873
69.03000 28996.072
69.04000 32100.988
69.05000 34487.449
69.06000 36411.332
69.07000 38301.730
69.08000 39332.875
69.09000 39987.422
69.10000 40603.828
69.11000 41285.473
69.12000 41926.898
69.13000 42586.758
69.14000 43380.918
69.15000 44201.941
69.16000 44954.551
69.17000 45387.152
69.18000 45779.102
69.19000 46081.398
69.20000 44966.824
69.21000 44001.910
69.22000 42458.652
69.23000 39673.000
69.24000 36845.512
69.25000 34158.039
69.26000 31674.748
69.27000 29193.357
69.28000 27138.053
69.29000 25490.322
69.30000 23849.758
69.31000 22784.465
69.32000 22083.035
69.33000 21392.982
69.34000 20983.580
69.35000 20695.094
69.36000 20423.918
69.37000 19901.084
69.38000 19356.172
69.39000 18723.850
69.40000 17468.133
69.41000 16090.077
69.42000 14628.813
69.43000 12785.548
69.44000 10894.831
69.45000 9443.071
69.46000 7689.639
69.47000 6286.677
69.48000 5056.548
69.49000 4191.382
69.50000 3337.979
69.51000 2671.471
69.52000 2272.624
69.53000 1875.901
69.54000 1615.308
69.55000 1482.335
69.56000 1349.926
69.57000 1259.467
69.58000 1195.075
69.59000 1131.063
69.60000 1076.052
69.61000 1024.853
69.62000 976.815
69.63000 948.354
69.64000 927.574
69.65000 904.031
69.66000 861.202
69.67000 814.661
69.68000 776.153
69.69000 773.843
69.70000 775.929
69.71000 777.524
69.72000 749.398
69.73000 725.606
69.74000 704.106
69.75000 687.362
69.76000 670.766
69.77000 657.512
69.78000 648.960
69.79000 640.442
69.80000 631.450
69.81000 622.030
69.82000 612.610
69.83000 603.250
69.84000 593.926
69.85000 584.827
69.86000 580.860
69.87000 579.029
69.88000 577.314
69.89000 563.549
69.90000 547.921
69.91000 533.820
69.92000 530.152
69.93000 528.455
69.94000 525.176
69.95000 514.904
69.96000 503.802
69.97000 495.355
69.98000 498.068
69.99000 500.789
70.00000 497.385
