20.00000 487.947
20.01000 481.617
20.02000 474.383
20.03000 468.328
20.04000 466.922
20.05000 465.991
20.06000 465.304
20.07000 470.823
20.08000 475.363
20.09000 479.349
20.10000 482.322
20.11000 485.273
20.12000 485.410
20.13000 482.091
20.14000 478.769
20.15000 477.184
20.16000 476.989
20.17000 476.770
20.18000 475.482
20.19000 473.620
20.20000 471.594
20.21000 466.675
20.22000 460.694
20.23000 455.175
20.24000 461.077
20.25000 468.916
20.26000 475.396
20.27000 473.887
20.28000 471.073
20.29000 469.081
20.30000 470.269
20.31000 471.774
20.32000 472.880
20.33000 478.200
20.34000 482.486
20.35000 480.609
20.36000 467.650
20.37000 454.467
20.38000 452.188
20.39000 463.052
20.40000 473.923
20.41000 474.318
20.42000 466.540
20.43000 459.065
20.44000 464.338
20.45000 476.343
20.46000 487.259
20.47000 479.526
20.48000 465.058
20.49000 451.739
20.50000 454.445
20.51000 460.370
20.52000 465.456
20.53000 465.704
20.54000 465.179
20.55000 465.237
20.56000 467.518
20.57000 470.015
20.58000 471.840
20.59000 467.832
20.60000 464.511
20.61000 462.211
20.62000 461.715
20.63000 461.253
20.64000 458.928
20.65000 454.401
20.66000 449.881
20.67000 450.511
20.68000 455.077
20.69000 459.751
20.70000 468.715
20.71000 479.906
20.72000 489.940
20.73000 480.782
20.74000 464.812
20.75000 450.143
20.76000 454.744
20.77000 462.982
20.78000 469.796
20.79000 468.560
20.80000 466.062
20.81000 464.872
20.82000 468.567
20.83000 472.726
20.84000 475.751
20.85000 473.427
20.86000 471.436
20.87000 470.002
20.88000 469.535
20.89000 469.085
20.90000 465.853
20.91000 459.395
20.92000 452.949
20.93000 454.003
20.94000 460.677
20.95000 467.132
20.96000 465.265
20.97000 459.154
20.98000 453.793
20.99000 460.509
21.00000 471.437
21.01000 481.454
21.02000 481.364
21.03000 479.161
21.04000 477.140
21.05000 476.126
21.06000 475.267
21.07000 472.447
21.08000 462.427
21.09000 451.742
21.10000 444.010
21.11000 453.958
21.12000 462.241
21.13000 467.934
21.14000 469.210
21.15000 470.411
21.16000 470.936
21.17000 470.692
21.18000 470.448
21.19000 469.540
21.20000 468.150
21.21000 466.696
21.22000 462.893
21.23000 457.914
21.24000 453.374
21.25000 455.698
21.26000 460.375
21.27000 464.652
21.28000 467.107
21.29000 468.914
21.30000 470.509
21.31000 470.948
21.32000 471.214
21.33000 472.685
21.34000 478.499
21.35000 484.704
21.36000 489.171
21.37000 489.658
21.38000 489.891
21.39000 487.577
21.40000 480.994
21.41000 474.344
21.42000 468.733
21.43000 464.283
21.44000 459.850
21.45000 458.883
21.46000 460.429
21.47000 462.112
21.48000 468.544
21.49000 477.317
21.50000 485.479
21.51000 484.385
21.52000 480.172
21.53000 476.327
21.54000 478.013
21.55000 480.622
21.56000 482.731
21.57000 482.170
21.58000 481.216
21.59000 480.369
21.60000 479.901
21.61000 479.466
21.62000 479.154
21.63000 464.239
21.64000 452.351
21.65000 444.904
21.66000 444.772
21.67000 444.747
21.68000 448.557
21.69000 456.566
21.70000 464.546
21.71000 467.744
21.72000 467.526
21.73000 467.419
21.74000 470.969
21.75000 476.290
21.76000 480.902
21.77000 475.090
21.78000 465.826
21.79000 457.393
21.80000 475.658
21.81000 497.100
21.82000 513.173
21.83000 501.189
21.84000 485.159
21.85000 475.258
21.86000 486.686
21.87000 499.938
21.88000 509.377
21.89000 514.711
21.90000 518.642
21.91000 519.022
21.92000 513.655
21.93000 508.210
21.94000 512.246
21.95000 526.463
21.96000 540.621
21.97000 542.702
21.98000 536.369
21.99000 530.172
22.00000 528.275
22.01000 528.423
22.02000 528.738
22.03000 531.413
22.04000 534.856
22.05000 537.984
22.06000 537.489
22.07000 536.352
22.08000 536.203
22.09000 541.122
22.10000 546.757
22.11000 550.875
22.12000 549.803
22.13000 548.299
22.14000 547.234
22.15000 539.090
22.16000 532.678
22.17000 527.192
22.18000 523.175
22.19000 519.177
22.20000 517.052
22.21000 516.900
22.22000 516.748
22.23000 517.173
22.24000 517.987
22.25000 518.686
22.26000 515.909
22.27000 511.506
22.28000 507.140
22.29000 503.302
22.30000 499.631
22.31000 496.306
22.32000 498.685
22.33000 501.864
22.34000 503.427
22.35000 496.863
22.36000 489.176
22.37000 482.017
22.38000 476.634
22.39000 471.395
22.40000 467.705
22.41000 486.493
22.42000 501.413
22.43000 503.982
22.44000 487.261
22.45000 470.312
22.46000 459.786
22.47000 455.890
22.48000 452.015
22.49000 454.553
22.50000 461.350
22.51000 467.822
22.52000 464.917
22.53000 457.699
22.54000 450.918
22.55000 450.020
22.56000 450.971
22.57000 451.831
22.58000 451.028
22.59000 450.013
22.60000 448.870
22.61000 447.099
22.62000 445.243
22.63000 442.913
22.64000 439.018
22.65000 434.999
22.66000 432.184
22.67000 438.316
22.68000 443.211
22.69000 447.075
22.70000 449.357
22.71000 451.621
22.72000 453.699
22.73000 455.587
22.74000 457.464
22.75000 454.748
22.76000 449.054
22.77000 443.586
22.78000 444.351
22.79000 447.934
22.80000 451.361
22.81000 452.739
22.82000 453.485
22.83000 454.157
22.84000 442.303
22.85000 429.622
22.86000 420.599
22.87000 429.292
22.88000 440.328
22.89000 448.004
22.90000 444.776
22.91000 440.712
22.92000 437.880
22.93000 439.018
22.94000 439.985
22.95000 440.589
22.96000 440.646
22.97000 440.698
22.98000 437.233
22.99000 430.282
23.00000 423.376
23.01000 427.714
23.02000 439.229
23.03000 450.268
23.04000 448.676
23.05000 441.470
23.06000 434.634
23.07000 432.513
23.08000 431.823
23.09000 431.203
23.10000 439.581
23.11000 448.521
23.12000 454.162
23.13000 444.133
23.14000 432.076
23.15000 422.009
23.16000 418.288
23.17000 415.039
23.18000 412.788
23.19000 424.821
23.20000 434.252
23.21000 440.212
23.22000 441.034
23.23000 441.808
23.24000 439.982
23.25000 435.628
23.26000 431.305
23.27000 431.615
23.28000 434.848
23.29000 437.914
23.30000 436.748
23.31000 433.732
23.32000 430.993
23.33000 431.693
23.34000 433.420
23.35000 434.968
23.36000 430.886
23.37000 426.336
23.38000 423.980
23.39000 431.851
23.40000 441.017
23.41000 447.301
23.42000 444.555
23.43000 441.154
23.44000 438.812
23.45000 434.291
23.46000 430.843
23.47000 428.326
23.48000 427.164
23.49000 426.014
23.50000 426.377
23.51000 428.182
23.52000 429.973
23.53000 428.943
23.54000 426.182
23.55000 423.651
23.56000 426.752
23.57000 432.273
23.58000 437.029
23.59000 432.571
23.60000 425.411
23.61000 419.006
23.62000 427.041
23.63000 436.514
23.64000 444.912
23.65000 448.390
23.66000 451.259
23.67000 452.470
23.68000 448.577
23.69000 444.325
23.70000 441.413
23.71000 443.180
23.72000 444.614
23.73000 446.300
23.74000 448.344
23.75000 450.391
23.76000 451.866
23.77000 452.809
23.78000 453.744
23.79000 459.910
23.80000 469.145
23.81000 478.108
23.82000 480.639
23.83000 480.454
23.84000 480.668
23.85000 485.563
23.86000 491.807
23.87000 497.379
23.88000 496.806
23.89000 495.281
23.90000 493.220
23.91000 488.746
23.92000 483.980
23.93000 481.411
23.94000 485.489
23.95000 490.021
23.96000 493.107
23.97000 502.111
23.98000 508.972
23.99000 512.520
24.00000 511.422
24.01000 510.294
24.02000 509.635
24.03000 509.406
24.04000 509.179
24.05000 502.568
24.06000 492.274
24.07000 482.264
24.08000 478.688
24.09000 477.782
24.10000 477.211
24.11000 480.457
24.12000 484.784
24.13000 488.634
24.14000 481.750
24.15000 474.016
24.16000 467.677
24.17000 467.484
24.18000 468.019
24.19000 468.266
24.20000 467.660
24.21000 466.998
24.22000 466.550
24.23000 465.059
24.24000 463.925
24.25000 459.053
24.26000 449.034
24.27000 438.988
24.28000 434.373
24.29000 434.636
24.30000 434.897
24.31000 434.549
24.32000 433.851
24.33000 432.985
24.34000 428.427
24.35000 422.364
24.36000 417.628
24.37000 427.680
24.38000 441.844
24.39000 454.416
24.40000 452.675
24.41000 448.875
24.42000 443.034
24.43000 428.349
24.44000 412.642
24.45000 403.559
24.46000 413.846
24.47000 425.379
24.48000 433.137
24.49000 420.534
24.50000 410.745
24.51000 407.177
24.52000 412.018
24.53000 416.901
24.54000 418.039
24.55000 415.878
24.56000 413.739
24.57000 415.739
24.58000 420.073
24.59000 423.962
24.60000 418.463
24.61000 409.197
24.62000 400.550
24.63000 398.608
24.64000 398.498
24.65000 398.400
24.66000 406.139
24.67000 414.059
24.68000 420.309
24.69000 419.464
24.70000 417.817
24.71000 416.045
24.72000 413.911
24.73000 411.753
24.74000 410.311
24.75000 409.652
24.76000 409.178
24.77000 410.853
24.78000 415.379
24.79000 419.911
24.80000 419.088
24.81000 413.636
24.82000 408.245
24.83000 404.505
24.84000 401.784
24.85000 399.071
24.86000 396.538
24.87000 394.075
24.88000 391.973
24.89000 393.675
24.90000 396.398
24.91000 398.802
24.92000 397.682
24.93000 396.177
24.94000 395.806
24.95000 400.178
24.96000 405.071
24.97000 408.059
24.98000 405.661
24.99000 402.938
25.00000 401.128
25.01000 397.739
25.02000 395.203
25.03000 396.191
25.04000 401.770
25.05000 407.360
25.06000 407.475
25.07000 402.949
25.08000 398.477
25.09000 397.896
25.10000 399.483
25.11000 401.026
25.12000 401.715
25.13000 402.073
25.14000 402.204
25.15000 400.005
25.16000 397.191
25.17000 394.715
25.18000 394.230
25.19000 394.111
25.20000 394.575
25.21000 397.430
25.22000 400.543
25.23000 403.075
25.24000 403.997
25.25000 404.824
25.26000 405.371
25.27000 401.532
25.28000 398.623
25.29000 394.919
25.30000 390.198
25.31000 385.483
25.32000 385.266
25.33000 388.790
25.34000 392.270
25.35000 393.527
25.36000 393.543
25.37000 393.616
25.38000 394.773
25.39000 396.342
25.40000 397.598
25.41000 395.705
25.42000 392.996
25.43000 390.618
25.44000 390.543
25.45000 390.815
25.46000 392.249
25.47000 398.357
25.48000 404.956
25.49000 409.316
25.50000 407.567
25.51000 405.471
25.52000 404.096
25.53000 396.552
25.54000 390.899
25.55000 387.463
25.56000 386.809
25.57000 386.168
25.58000 387.369
25.59000 390.075
25.60000 392.744
25.61000 396.628
25.62000 401.052
25.63000 405.001
25.64000 400.219
25.65000 392.166
25.66000 385.612
25.67000 393.764
25.68000 405.656
25.69000 416.065
25.70000 412.041
25.71000 406.522
25.72000 401.612
25.73000 399.111
25.74000 396.857
25.75000 393.683
25.76000 388.043
25.77000 382.268
25.78000 378.502
25.79000 384.730
25.80000 389.457
25.81000 391.086
25.82000 388.899
25.83000 386.697
25.84000 382.426
25.85000 376.498
25.86000 370.655
25.87000 377.744
25.88000 391.392
25.89000 403.955
25.90000 397.235
25.91000 383.415
25.92000 371.362
25.93000 376.252
25.94000 385.373
25.95000 393.334
25.96000 393.790
25.97000 393.129
25.98000 391.215
25.99000 384.435
26.00000 377.169
26.01000 372.995
26.02000 376.979
26.03000 381.395
26.04000 384.256
26.05000 391.724
26.06000 397.258
26.07000 399.127
26.08000 396.568
26.09000 394.002
26.10000 392.393
26.11000 391.536
26.12000 390.693
26.13000 387.885
26.14000 384.154
26.15000 380.422
26.16000 376.661
26.17000 372.889
26.18000 370.746
26.19000 383.840
26.20000 400.671
26.21000 415.318
26.22000 403.739
26.23000 390.260
26.24000 379.164
26.25000 377.156
26.26000 376.035
26.27000 376.054
26.28000 379.029
26.29000 382.156
26.30000 384.169
26.31000 386.627
26.32000 388.427
26.33000 387.999
26.34000 384.929
26.35000 381.853
26.36000 378.585
26.37000 375.169
26.38000 371.807
26.39000 368.899
26.40000 366.311
26.41000 363.857
26.42000 363.643
26.43000 364.227
26.44000 365.247
26.45000 370.259
26.46000 376.232
26.47000 381.415
26.48000 384.363
26.49000 386.575
26.50000 388.296
26.51000 388.183
26.52000 387.895
26.53000 388.209
26.54000 390.057
26.55000 391.980
26.56000 393.210
26.57000 394.798
26.58000 395.959
26.59000 393.657
26.60000 387.325
26.61000 381.010
26.62000 379.468
26.63000 381.542
26.64000 383.582
26.65000 380.969
26.66000 376.145
26.67000 371.613
26.68000 371.824
26.69000 373.693
26.70000 375.342
26.71000 375.029
26.72000 374.252
26.73000 373.580
26.74000 375.858
26.75000 378.179
26.76000 380.392
26.77000 382.204
26.78000 383.979
26.79000 384.193
26.80000 380.500
26.81000 376.619
26.82000 374.155
26.83000 375.776
26.84000 377.004
26.85000 376.429
26.86000 373.796
26.87000 371.174
26.88000 370.937
26.89000 372.474
26.90000 373.983
26.91000 377.814
26.92000 382.639
26.93000 387.147
26.94000 386.704
26.95000 384.559
26.96000 382.803
26.97000 384.438
26.98000 386.860
26.99000 388.949
27.00000 382.136
27.01000 375.219
27.02000 368.556
27.03000 362.813
27.04000 357.152
27.05000 355.361
27.06000 363.098
27.07000 371.275
27.08000 376.432
27.09000 369.545
27.10000 364.421
27.11000 364.237
27.12000 369.585
27.13000 374.899
27.14000 373.623
27.15000 367.537
27.16000 361.565
27.17000 363.387
27.18000 368.853
27.19000 374.119
27.20000 376.337
27.21000 377.525
27.22000 377.979
27.23000 372.181
27.24000 364.958
27.25000 358.747
27.26000 366.175
27.27000 374.165
27.28000 380.438
27.29000 380.608
27.30000 380.239
27.31000 379.237
27.32000 376.700
27.33000 374.094
27.34000 372.462
27.35000 374.979
27.36000 376.840
27.37000 377.206
27.38000 375.929
27.39000 374.676
27.40000 377.091
27.41000 382.137
27.42000 387.081
27.43000 385.314
27.44000 380.478
27.45000 375.785
27.46000 373.215
27.47000 371.349
27.48000 369.563
27.49000 368.446
27.50000 367.478
27.51000 366.649
27.52000 368.945
27.53000 371.266
27.54000 371.043
27.55000 361.948
27.56000 352.091
27.57000 346.893
27.58000 352.782
27.59000 359.146
27.60000 363.104
27.61000 374.035
27.62000 381.976
27.63000 385.395
27.64000 383.944
27.65000 382.470
27.66000 378.037
27.67000 371.520
27.68000 365.140
27.69000 361.044
27.70000 358.157
27.71000 355.486
27.72000 355.924
27.73000 357.377
27.74000 359.429
27.75000 366.361
27.76000 374.365
27.77000 381.203
27.78000 374.617
27.79000 367.465
27.80000 361.278
27.81000 358.396
27.82000 355.791
27.83000 355.720
27.84000 361.576
27.85000 367.677
27.86000 371.444
27.87000 369.205
27.88000 367.541
27.89000 367.938
27.90000 370.512
27.91000 373.039
27.92000 369.758
27.93000 362.461
27.94000 355.325
27.95000 354.077
27.96000 355.529
27.97000 356.906
27.98000 357.237
27.99000 357.232
28.00000 357.335
28.01000 358.308
28.02000 359.468
28.03000 360.455
28.04000 361.053
28.05000 361.511
28.06000 362.200
28.07000 363.669
28.08000 365.201
28.09000 366.437
28.10000 366.989
28.11000 367.514
28.12000 367.836
28.13000 360.914
28.14000 355.895
28.15000 352.305
28.16000 350.196
28.17000 348.158
28.18000 354.039
28.19000 365.298
28.20000 376.296
28.21000 376.692
28.22000 372.388
28.23000 368.530
28.24000 370.707
28.25000 374.786
28.26000 377.534
28.27000 369.926
28.28000 360.126
28.29000 351.806
28.30000 349.400
28.31000 348.055
28.32000 348.096
28.33000 352.726
28.34000 357.719
28.35000 361.762
28.36000 363.658
28.37000 365.473
28.38000 366.577
28.39000 368.990
28.40000 370.723
28.41000 369.178
28.42000 364.305
28.43000 359.490
28.44000 360.662
28.45000 365.826
28.46000 370.865
28.47000 370.065
28.48000 366.769
28.49000 364.092
28.50000 369.549
28.51000 377.525
28.52000 383.877
28.53000 377.868
28.54000 369.292
28.55000 362.035
28.56000 357.234
28.57000 353.489
28.58000 350.685
28.59000 350.946
28.60000 351.443
28.61000 350.295
28.62000 345.490
28.63000 340.552
28.64000 337.569
28.65000 348.953
28.66000 357.167
28.67000 357.564
28.68000 350.188
28.69000 342.871
28.70000 340.964
28.71000 342.602
28.72000 344.199
28.73000 346.546
28.74000 349.105
28.75000 351.588
28.76000 353.092
28.77000 354.298
28.78000 355.157
28.79000 353.438
28.80000 351.194
28.81000 349.301
28.82000 351.245
28.83000 353.284
28.84000 352.731
28.85000 343.888
28.86000 334.425
28.87000 332.399
28.88000 346.617
28.89000 361.407
28.90000 370.276
28.91000 340.152
28.92000 318.497
28.93000 313.633
28.94000 325.133
28.95000 336.583
28.96000 343.620
28.97000 347.815
28.98000 351.901
28.99000 352.910
29.00000 352.587
29.01000 352.285
29.02000 352.246
29.03000 352.286
29.04000 352.514
29.05000 354.116
29.06000 355.993
29.07000 357.571
29.08000 353.664
29.09000 349.828
29.10000 346.701
29.11000 345.804
29.12000 345.069
29.13000 344.301
29.14000 343.465
29.15000 342.626
29.16000 342.127
29.17000 334.669
29.18000 329.346
29.19000 332.592
29.20000 344.025
29.21000 355.404
29.22000 362.402
29.23000 366.632
29.24000 370.745
29.25000 369.636
29.26000 366.442
29.27000 363.082
29.28000 357.716
29.29000 351.760
29.30000 346.231
29.31000 343.740
29.32000 341.844
29.33000 340.257
29.34000 345.464
29.35000 350.496
29.36000 355.707
29.37000 361.474
29.38000 367.280
29.39000 369.284
29.40000 363.260
29.41000 356.978
29.42000 353.267
29.43000 355.058
29.44000 356.353
29.45000 356.555
29.46000 355.732
29.47000 354.921
29.48000 354.981
29.49000 355.581
29.50000 356.164
29.51000 349.354
29.52000 339.917
29.53000 331.755
29.54000 338.606
29.55000 349.794
29.56000 359.733
29.57000 360.955
29.58000 360.500
29.59000 360.119
29.60000 357.892
29.61000 355.858
29.62000 354.764
29.63000 356.526
29.64000 358.483
29.65000 361.289
29.66000 365.857
29.67000 370.478
29.68000 373.187
29.69000 363.845
29.70000 357.205
29.71000 350.350
29.72000 343.299
29.73000 336.323
29.74000 334.632
29.75000 336.165
29.76000 337.652
29.77000 338.628
29.78000 339.353
29.79000 340.465
29.80000 346.021
29.81000 352.838
29.82000 358.830
29.83000 359.175
29.84000 358.455
29.85000 357.856
29.86000 364.682
29.87000 371.061
29.88000 375.146
29.89000 372.390
29.90000 369.178
29.91000 369.260
29.92000 376.060
29.93000 383.058
29.94000 387.127
29.95000 381.253
29.96000 377.084
29.97000 373.395
29.98000 370.140
29.99000 366.947
30.00000 367.813
30.01000 371.114
30.02000 374.311
30.03000 379.152
30.04000 384.369
30.05000 388.630
30.06000 382.207
30.07000 372.806
30.08000 364.474
30.09000 363.296
30.10000 363.441
30.11000 363.562
30.12000 368.124
30.13000 372.317
30.14000 375.262
30.15000 374.547
30.16000 373.596
30.17000 372.845
30.18000 372.498
30.19000 372.162
30.20000 371.968
30.21000 355.614
30.22000 344.110
30.23000 344.911
30.24000 356.585
30.25000 368.079
30.26000 368.705
30.27000 362.926
30.28000 357.336
30.29000 359.558
30.30000 364.624
30.31000 368.831
30.32000 363.675
30.33000 355.955
30.34000 349.970
30.35000 355.351
30.36000 362.797
30.37000 368.946
30.38000 358.199
30.39000 347.766
30.40000 340.621
30.41000 342.953
30.42000 345.878
30.43000 346.919
30.44000 344.243
30.45000 341.468
30.46000 339.881
30.47000 340.090
30.48000 340.246
30.49000 342.867
30.50000 347.626
30.51000 352.374
30.52000 356.545
30.53000 360.384
30.54000 364.092
30.55000 358.759
30.56000 350.359
30.57000 342.783
30.58000 343.951
30.59000 347.472
30.60000 350.430
30.61000 349.780
30.62000 348.487
30.63000 347.423
30.64000 355.561
30.65000 363.089
30.66000 368.296
30.67000 366.927
30.68000 365.158
30.69000 363.427
30.70000 361.767
30.71000 360.109
30.72000 359.169
30.73000 361.361
30.74000 362.902
30.75000 368.012
30.76000 376.156
30.77000 384.154
30.78000 384.374
30.79000 380.169
30.80000 376.111
30.81000 376.712
30.82000 378.981
30.83000 380.696
30.84000 376.670
30.85000 371.126
30.86000 366.179
30.87000 364.977
30.88000 364.429
30.89000 363.979
30.90000 372.111
30.91000 379.542
30.92000 387.663
30.93000 397.703
30.94000 407.857
30.95000 415.369
30.96000 417.851
30.97000 420.211
30.98000 421.540
30.99000 426.423
31.00000 429.832
31.01000 437.893
31.02000 449.835
31.03000 461.643
31.04000 466.719
31.05000 468.031
31.06000 469.295
31.07000 477.560
31.08000 487.838
31.09000 498.948
31.10000 518.463
31.11000 540.161
31.12000 561.904
31.13000 583.927
31.14000 605.998
31.15000 624.028
31.16000 635.968
31.17000 645.215
31.18000 659.447
31.19000 687.319
31.20000 715.969
31.21000 743.245
31.22000 767.948
31.23000 792.592
31.24000 806.344
31.25000 878.236
31.26000 928.079
31.27000 959.514
31.28000 975.880
31.29000 992.462
31.30000 1019.354
31.31000 1051.909
31.32000 1083.231
31.33000 1092.775
31.34000 1094.055
31.35000 1095.603
31.36000 1099.793
31.37000 1104.656
31.38000 1110.601
31.39000 1123.069
31.40000 1136.632
31.41000 1147.669
31.42000 1133.508
31.43000 1119.824
31.44000 1106.395
31.45000 1093.653
31.46000 1080.948
31.47000 1062.244
31.48000 1032.507
31.49000 1002.531
31.50000 985.945
31.51000 957.040
31.52000 937.047
31.53000 908.959
31.54000 874.370
31.55000 839.687
31.56000 800.779
31.57000 759.590
31.58000 720.018
31.59000 685.877
31.60000 655.795
31.61000 627.821
31.62000 620.119
31.63000 617.493
31.64000 611.963
31.65000 589.252
31.66000 563.719
31.67000 543.019
31.68000 519.341
31.69000 499.804
31.70000 483.297
31.71000 474.800
31.72000 466.731
31.73000 457.815
31.74000 447.370
31.75000 436.894
31.76000 431.147
31.77000 419.833
31.78000 412.049
31.79000 406.582
31.80000 402.942
31.81000 399.287
31.82000 394.961
31.83000 390.280
31.84000 385.789
31.85000 381.901
31.86000 378.473
31.87000 374.867
31.88000 369.598
31.89000 363.919
31.90000 358.977
31.91000 358.307
31.92000 358.324
31.93000 358.337
31.94000 350.756
31.95000 343.988
31.96000 339.481
31.97000 340.850
31.98000 342.523
31.99000 345.160
32.00000 349.510
32.01000 353.894
32.02000 356.277
32.03000 349.913
32.04000 345.552
32.05000 345.062
32.06000 347.568
32.07000 349.991
32.08000 349.082
32.09000 346.434
32.10000 343.897
32.11000 341.454
32.12000 339.208
32.13000 336.628
32.14000 330.998
32.15000 324.631
32.16000 319.553
32.17000 321.797
32.18000 325.196
32.19000 327.931
32.20000 333.235
32.21000 337.737
32.22000 341.893
32.23000 345.167
32.24000 348.397
32.25000 349.603
32.26000 347.277
32.27000 344.886
32.28000 343.598
32.29000 339.345
32.30000 336.426
32.31000 331.885
32.32000 326.111
32.33000 320.453
32.34000 319.254
32.35000 320.339
32.36000 321.378
32.37000 323.533
32.38000 325.903
32.39000 328.332
32.40000 331.285
32.41000 334.362
32.42000 336.701
32.43000 334.928
32.44000 332.520
32.45000 330.590
32.46000 316.443
32.47000 304.074
32.48000 297.474
32.49000 305.364
32.50000 313.951
32.51000 318.728
32.52000 316.971
32.53000 315.103
32.54000 314.105
32.55000 312.151
32.56000 310.828
32.57000 311.246
32.58000 312.965
32.59000 314.624
32.60000 314.113
32.61000 312.510
32.62000 310.978
32.63000 313.673
32.64000 317.530
32.65000 320.881
32.66000 319.810
32.67000 317.710
32.68000 316.675
32.69000 321.466
32.70000 327.138
32.71000 331.665
32.72000 334.215
32.73000 336.128
32.74000 335.216
32.75000 327.326
32.76000 319.112
32.77000 313.713
32.78000 313.055
32.79000 312.474
32.80000 312.166
32.81000 304.427
32.82000 299.203
32.83000 300.758
32.84000 307.276
32.85000 313.673
32.86000 315.856
32.87000 315.952
32.88000 316.043
32.89000 317.737
32.90000 319.811
32.91000 322.023
32.92000 325.415
32.93000 329.077
32.94000 332.040
32.95000 331.258
32.96000 329.922
32.97000 328.859
32.98000 312.403
32.99000 298.049
33.00000 290.492
33.01000 299.428
33.02000 309.102
33.03000 314.383
33.04000 312.392
33.05000 310.292
33.06000 309.191
33.07000 302.341
33.08000 297.746
33.09000 300.279
33.10000 307.938
33.11000 315.349
33.12000 314.532
33.13000 309.710
33.14000 305.119
33.15000 307.098
33.16000 310.954
33.17000 314.080
33.18000 311.120
33.19000 306.793
33.20000 303.144
33.21000 303.055
33.22000 303.483
33.23000 303.822
33.24000 302.052
33.25000 300.484
33.26000 296.715
33.27000 287.694
33.28000 278.448
33.29000 273.543
33.30000 275.702
33.31000 277.960
33.32000 279.133
33.33000 289.537
33.34000 296.546
33.35000 300.948
33.36000 303.510
33.37000 305.999
33.38000 306.166
33.39000 305.223
33.40000 304.326
33.41000 305.020
33.42000 306.142
33.43000 306.927
33.44000 304.960
33.45000 302.386
33.46000 299.562
33.47000 295.440
33.48000 291.134
33.49000 287.740
33.50000 291.576
33.51000 295.138
33.52000 297.641
33.53000 297.660
33.54000 297.576
33.55000 296.950
33.56000 295.459
33.57000 293.956
33.58000 293.183
33.59000 299.430
33.60000 303.604
33.61000 303.970
33.62000 301.695
33.63000 299.451
33.64000 298.127
33.65000 297.235
33.66000 296.390
33.67000 295.598
33.68000 294.884
33.69000 294.320
33.70000 294.956
33.71000 295.850
33.72000 296.653
33.73000 296.992
33.74000 297.266
33.75000 297.481
33.76000 291.207
33.77000 285.764
33.78000 284.535
33.79000 293.023
33.80000 301.899
33.81000 306.562
33.82000 304.612
33.83000 302.582
33.84000 301.547
33.85000 305.007
33.86000 307.356
33.87000 312.922
33.88000 320.678
33.89000 328.040
33.90000 323.926
33.91000 314.505
33.92000 305.584
33.93000 304.749
33.94000 306.334
33.95000 308.023
33.96000 310.528
33.97000 313.207
33.98000 315.585
33.99000 316.467
34.00000 317.146
34.01000 317.677
34.02000 309.502
34.03000 302.425
34.04000 298.670
34.05000 302.446
34.06000 306.510
34.07000 311.550
34.08000 318.094
34.09000 324.655
34.10000 327.965
34.11000 330.522
34.12000 332.190
34.13000 329.391
34.14000 323.605
34.15000 318.123
34.16000 321.155
34.17000 328.055
34.18000 334.579
34.19000 337.003
34.20000 338.061
34.21000 338.584
34.22000 335.020
34.23000 330.605
34.24000 327.802
34.25000 332.846
34.26000 338.935
34.27000 343.675
34.28000 345.468
34.29000 346.714
34.30000 346.317
34.31000 342.260
34.32000 338.068
34.33000 338.638
34.34000 346.425
34.35000 354.285
34.36000 355.883
34.37000 351.235
34.38000 346.596
34.39000 342.756
34.40000 339.441
34.41000 336.504
34.42000 343.697
34.43000 355.418
34.44000 366.477
34.45000 359.776
34.46000 348.662
34.47000 338.723
34.48000 337.554
34.49000 338.176
34.50000 339.629
34.51000 345.049
34.52000 350.986
34.53000 355.588
34.54000 349.762
34.55000 344.511
34.56000 339.727
34.57000 335.965
34.58000 332.239
34.59000 329.889
34.60000 329.584
34.61000 329.300
34.62000 329.531
34.63000 330.268
34.64000 330.982
34.65000 329.717
34.66000 327.174
34.67000 324.515
34.68000 318.853
34.69000 311.871
34.70000 305.294
34.71000 308.522
34.72000 314.165
34.73000 318.602
34.74000 314.214
34.75000 308.056
34.76000 301.858
34.77000 295.468
34.78000 289.054
34.79000 284.104
34.80000 295.248
34.81000 305.013
34.82000 309.445
34.83000 302.398
34.84000 294.962
34.85000 289.814
34.86000 288.010
34.87000 286.235
34.88000 284.367
34.89000 282.410
34.90000 280.513
34.91000 283.488
34.92000 289.552
34.93000 295.268
34.94000 292.365
34.95000 285.741
34.96000 279.512
34.97000 281.786
34.98000 286.150
34.99000 289.690
35.00000 287.330
35.01000 283.809
35.02000 280.275
35.03000 276.674
35.04000 273.065
35.05000 270.293
35.06000 269.096
35.07000 268.239
35.08000 269.488
35.09000 275.195
35.10000 281.047
35.11000 282.410
35.12000 277.329
35.13000 272.199
35.14000 268.739
35.15000 266.850
35.16000 264.987
35.17000 265.046
35.18000 266.303
35.19000 267.605
35.20000 269.978
35.21000 272.806
35.22000 275.460
35.23000 272.982
35.24000 269.369
35.25000 266.656
35.26000 270.238
35.27000 275.035
35.28000 277.999
35.29000 272.684
35.30000 266.360
35.31000 261.523
35.32000 269.512
35.33000 276.512
35.34000 279.078
35.35000 272.419
35.36000 265.474
35.37000 261.489
35.38000 261.676
35.39000 261.893
35.40000 265.527
35.41000 272.306
35.42000 278.979
35.43000 278.280
35.44000 273.072
35.45000 267.912
35.46000 263.871
35.47000 260.297
35.48000 256.950
35.49000 260.581
35.50000 265.690
35.51000 269.970
35.52000 268.574
35.53000 266.102
35.54000 263.545
35.55000 260.608
35.56000 257.626
35.57000 255.356
35.58000 264.429
35.59000 272.167
35.60000 275.892
35.61000 271.412
35.62000 266.689
35.63000 262.812
35.64000 260.104
35.65000 257.405
35.66000 255.271
35.67000 253.648
35.68000 252.109
35.69000 255.993
35.70000 263.138
35.71000 269.912
35.72000 268.479
35.73000 263.680
35.74000 259.193
35.75000 256.831
35.76000 255.226
35.77000 254.268
35.78000 257.656
35.79000 261.851
35.80000 264.909
35.81000 263.018
35.82000 260.550
35.83000 258.680
35.84000 255.192
35.85000 252.371
35.86000 252.746
35.87000 259.544
35.88000 266.523
35.89000 269.193
35.90000 266.008
35.91000 262.791
35.92000 261.480
35.93000 261.857
35.94000 262.223
35.95000 261.894
35.96000 261.154
35.97000 260.260
35.98000 256.085
35.99000 250.586
36.00000 245.456
36.01000 245.684
36.02000 247.224
36.03000 248.461
36.04000 247.712
36.05000 246.601
36.06000 247.061
36.07000 254.232
36.08000 262.167
36.09000 268.152
36.10000 270.175
36.11000 271.564
36.12000 270.127
36.13000 263.106
36.14000 255.935
36.15000 252.322
36.16000 253.456
36.17000 254.613
36.18000 253.243
36.19000 249.683
36.20000 246.206
36.21000 247.516
36.22000 251.605
36.23000 255.658
36.24000 259.002
36.25000 262.065
36.26000 264.916
36.27000 260.812
36.28000 255.404
36.29000 251.175
36.30000 254.535
36.31000 259.251
36.32000 263.444
36.33000 265.444
36.34000 267.201
36.35000 268.520
36.36000 260.368
36.37000 253.546
36.38000 249.931
36.39000 252.544
36.40000 255.317
36.41000 254.917
36.42000 250.361
36.43000 245.790
36.44000 246.983
36.45000 253.076
36.46000 259.031
36.47000 257.605
36.48000 251.967
36.49000 246.454
36.50000 243.401
36.51000 241.306
36.52000 239.359
36.53000 240.150
36.54000 241.518
36.55000 242.919
36.56000 244.530
36.57000 246.178
36.58000 248.305
36.59000 252.409
36.60000 256.727
36.61000 259.954
36.62000 264.694
36.63000 268.460
36.64000 268.737
36.65000 262.357
36.66000 255.816
36.67000 253.177
36.68000 255.556
36.69000 257.951
36.70000 259.478
36.71000 260.276
36.72000 261.076
36.73000 261.972
36.74000 262.920
36.75000 263.879
36.76000 265.029
36.77000 266.253
36.78000 267.387
36.79000 265.188
36.80000 262.426
36.81000 260.234
36.82000 261.562
36.83000 263.494
36.84000 265.018
36.85000 264.890
36.86000 264.588
36.87000 264.364
36.88000 264.083
36.89000 263.863
36.90000 265.006
36.91000 268.706
36.92000 272.466
36.93000 277.587
36.94000 284.425
36.95000 291.260
36.96000 292.110
36.97000 288.061
36.98000 284.000
36.99000 279.313
37.00000 274.282
37.01000 269.627
37.02000 271.941
37.03000 276.879
37.04000 281.449
37.05000 279.816
37.06000 276.924
37.07000 275.566
37.08000 283.501
37.09000 292.997
37.10000 298.969
37.11000 290.933
37.12000 281.450
37.13000 274.432
37.14000 282.279
37.15000 289.008
37.16000 291.891
37.17000 287.688
37.18000 283.330
37.19000 278.094
37.20000 271.773
37.21000 265.458
37.22000 261.473
37.23000 259.371
37.24000 257.419
37.25000 262.241
37.26000 270.730
37.27000 278.772
37.28000 278.788
37.29000 275.835
37.30000 273.108
37.31000 268.233
37.32000 263.376
37.33000 258.327
37.34000 252.138
37.35000 245.761
37.36000 241.471
37.37000 245.325
37.38000 250.002
37.39000 253.445
37.40000 255.114
37.41000 256.332
37.42000 256.647
37.43000 255.324
37.44000 253.968
37.45000 257.721
37.46000 267.682
37.47000 277.639
37.48000 277.499
37.49000 269.415
37.50000 261.435
37.51000 257.898
37.52000 256.726
37.53000 255.466
37.54000 252.685
37.55000 249.351
37.56000 246.279
37.57000 243.012
37.58000 240.044
37.59000 237.881
37.60000 240.390
37.61000 243.654
37.62000 246.039
37.63000 245.049
37.64000 243.728
37.65000 242.760
37.66000 240.275
37.67000 238.295
37.68000 238.917
37.69000 244.171
37.70000 249.516
37.71000 254.398
37.72000 258.727
37.73000 263.046
37.74000 265.585
37.75000 266.737
37.76000 267.783
37.77000 264.529
37.78000 259.026
37.79000 253.808
37.80000 253.369
37.81000 254.639
37.82000 255.808
37.83000 254.863
37.84000 253.563
37.85000 252.515
37.86000 252.906
37.87000 253.525
37.88000 253.511
37.89000 251.114
37.90000 248.489
37.91000 246.575
37.92000 244.921
37.93000 243.657
37.94000 243.948
37.95000 246.958
37.96000 250.019
37.97000 251.300
37.98000 250.501
37.99000 249.701
38.00000 252.820
38.01000 258.886
38.02000 264.806
38.03000 265.075
38.04000 262.438
38.05000 259.715
38.06000 255.573
38.07000 250.933
38.08000 246.675
38.09000 251.197
38.10000 257.089
38.11000 261.934
38.12000 260.931
38.13000 259.022
38.14000 256.531
38.15000 251.886
38.16000 247.040
38.17000 243.526
38.18000 248.517
38.19000 252.668
38.20000 257.667
38.21000 264.122
38.22000 270.603
38.23000 272.205
38.24000 268.208
38.25000 264.215
38.26000 268.530
38.27000 278.979
38.28000 289.343
38.29000 296.531
38.30000 302.113
38.31000 307.573
38.32000 311.089
38.33000 313.933
38.34000 316.537
38.35000 323.904
38.36000 331.447
38.37000 339.052
38.38000 346.996
38.39000 354.992
38.40000 364.304
38.41000 378.399
38.42000 392.931
38.43000 403.415
38.44000 422.411
38.45000 437.278
38.46000 454.976
38.47000 477.456
38.48000 500.014
38.49000 522.713
38.50000 545.570
38.51000 568.352
38.52000 597.780
38.53000 631.809
38.54000 665.789
38.55000 698.101
38.56000 729.584
38.57000 761.294
38.58000 796.503
38.59000 832.899
38.60000 866.140
38.61000 899.803
38.62000 929.774
38.63000 959.149
38.64000 985.316
38.65000 1011.007
38.66000 1034.544
38.67000 1050.391
38.68000 1065.554
38.69000 1076.437
38.70000 1111.437
38.71000 1139.032
38.72000 1151.287
38.73000 1138.081
38.74000 1124.488
38.75000 1109.951
38.76000 1094.370
38.77000 1078.846
38.78000 1060.274
38.79000 1039.691
38.80000 1019.034
38.81000 995.866
38.82000 971.473
38.83000 946.564
38.84000 913.985
38.85000 878.847
38.86000 846.829
38.87000 802.699
38.88000 761.188
38.89000 721.901
38.90000 694.336
38.91000 668.476
38.92000 641.716
38.93000 611.802
38.94000 581.616
38.95000 560.065
38.96000 517.966
38.97000 485.172
38.98000 457.674
38.99000 438.814
39.00000 420.076
39.01000 401.743
39.02000 383.849
39.03000 366.030
39.04000 347.334
39.05000 328.209
39.06000 309.240
39.07000 295.248
39.08000 283.644
39.09000 272.437
39.10000 266.955
39.11000 263.351
39.12000 260.075
39.13000 263.204
39.14000 267.221
39.15000 269.707
39.16000 264.284
39.17000 257.734
39.18000 252.367
39.19000 251.081
39.20000 250.138
39.21000 249.469
39.22000 247.470
39.23000 245.907
39.24000 245.724
39.25000 247.754
39.26000 249.814
39.27000 245.621
39.28000 234.789
39.29000 224.006
39.30000 224.551
39.31000 232.880
39.32000 240.965
39.33000 241.588
39.34000 238.693
39.35000 235.884
39.36000 234.282
39.37000 233.069
39.38000 231.969
39.39000 228.950
39.40000 225.920
39.41000 223.658
39.42000 225.294
39.43000 227.473
39.44000 229.174
39.45000 229.254
39.46000 229.201
39.47000 229.163
39.48000 233.836
39.49000 237.526
39.50000 236.646
39.51000 228.569
39.52000 220.405
39.53000 217.736
39.54000 220.788
39.55000 223.824
39.56000 226.084
39.57000 227.793
39.58000 229.521
39.59000 231.810
39.60000 234.358
39.61000 236.686
39.62000 235.993
39.63000 234.344
39.64000 232.852
39.65000 237.101
39.66000 241.918
39.67000 246.251
39.68000 248.176
39.69000 249.773
39.70000 250.527
39.71000 248.480
39.72000 246.209
39.73000 244.614
39.74000 238.378
39.75000 233.520
39.76000 233.055
39.77000 239.383
39.78000 245.787
39.79000 244.669
39.80000 235.875
39.81000 227.130
39.82000 226.636
39.83000 231.606
39.84000 236.561
39.85000 241.063
39.86000 245.357
39.87000 249.227
39.88000 247.473
39.89000 243.967
39.90000 240.803
39.91000 237.440
39.92000 234.449
39.93000 231.737
39.94000 230.388
39.95000 229.220
39.96000 228.870
39.97000 231.195
39.98000 233.727
39.99000 235.496
40.00000 237.831
40.01000 239.611
40.02000 238.659
40.03000 233.559
40.04000 228.415
40.05000 227.593
40.06000 231.094
40.07000 234.574
40.08000 236.130
40.09000 236.415
40.10000 236.583
40.11000 233.571
40.12000 229.135
40.13000 225.054
40.14000 225.536
40.15000 227.415
40.16000 229.106
40.17000 226.005
40.18000 222.425
40.19000 218.512
40.20000 213.010
40.21000 207.299
40.22000 204.821
40.23000 212.729
40.24000 221.422
40.25000 227.459
40.26000 219.574
40.27000 213.261
40.28000 212.040
40.29000 218.417
40.30000 224.867
40.31000 229.188
40.32000 231.421
40.33000 233.638
40.34000 231.909
40.35000 227.692
40.36000 223.572
40.37000 221.975
40.38000 221.488
40.39000 221.062
40.40000 221.401
40.41000 221.969
40.42000 222.479
40.43000 218.766
40.44000 214.774
40.45000 211.701
40.46000 212.951
40.47000 214.754
40.48000 216.320
40.49000 217.140
40.50000 217.906
40.51000 218.434
40.52000 217.996
40.53000 217.642
40.54000 217.133
40.55000 216.397
40.56000 215.659
40.57000 213.501
40.58000 209.981
40.59000 206.486
40.60000 207.308
40.61000 210.815
40.62000 214.204
40.63000 214.649
40.64000 213.821
40.65000 213.076
40.66000 213.353
40.67000 213.932
40.68000 214.451
40.69000 216.675
40.70000 218.910
40.71000 220.180
40.72000 216.994
40.73000 213.251
40.74000 211.668
40.75000 216.783
40.76000 222.377
40.77000 226.218
40.78000 218.117
40.79000 211.751
40.80000 209.451
40.81000 213.003
40.82000 216.600
40.83000 217.584
40.84000 216.107
40.85000 214.641
40.86000 214.183
40.87000 214.351
40.88000 214.460
40.89000 213.140
40.90000 211.212
40.91000 209.567
40.92000 211.275
40.93000 213.957
40.94000 216.353
40.95000 216.604
40.96000 216.462
40.97000 216.827
40.98000 219.493
40.99000 222.439
41.00000 223.862
41.01000 220.638
41.02000 217.091
41.03000 214.671
41.04000 220.807
41.05000 225.595
41.06000 226.965
41.07000 223.504
41.08000 220.008
41.09000 216.738
41.10000 213.675
41.11000 210.639
41.12000 211.023
41.13000 213.459
41.14000 215.800
41.15000 215.967
41.16000 215.225
41.17000 214.501
41.18000 213.990
41.19000 213.540
41.20000 213.138
41.21000 211.819
41.22000 210.521
41.23000 210.169
41.24000 214.020
41.25000 218.373
41.26000 221.291
41.27000 219.905
41.28000 218.230
41.29000 217.093
41.30000 213.845
41.31000 211.375
41.32000 213.174
41.33000 220.897
41.34000 228.653
41.35000 229.178
41.36000 223.153
41.37000 217.183
41.38000 211.271
41.39000 205.513
41.40000 200.133
41.41000 203.177
41.42000 209.684
41.43000 215.673
41.44000 215.831
41.45000 214.354
41.46000 213.042
41.47000 214.920
41.48000 217.065
41.49000 218.289
41.50000 215.499
41.51000 212.240
41.52000 210.163
41.53000 211.568
41.54000 213.199
41.55000 214.300
41.56000 214.234
41.57000 214.160
41.58000 212.471
41.59000 208.581
41.60000 204.682
41.61000 204.949
41.62000 208.919
41.63000 212.849
41.64000 217.644
41.65000 222.837
41.66000 227.402
41.67000 218.498
41.68000 204.150
41.69000 191.387
41.70000 196.016
41.71000 205.434
41.72000 213.781
41.73000 207.469
41.74000 199.689
41.75000 194.952
41.76000 203.258
41.77000 213.051
41.78000 220.295
41.79000 220.159
41.80000 219.555
41.81000 219.151
41.82000 215.150
41.83000 212.109
41.84000 212.159
41.85000 216.344
41.86000 220.544
41.87000 219.667
41.88000 214.366
41.89000 209.121
41.90000 205.771
41.91000 203.575
41.92000 201.504
41.93000 202.043
41.94000 203.619
41.95000 205.369
41.96000 208.988
41.97000 213.111
41.98000 216.755
41.99000 214.031
42.00000 210.693
42.01000 208.076
42.02000 208.496
42.03000 209.255
42.04000 211.103
42.05000 216.051
42.06000 221.189
42.07000 224.612
42.08000 219.333
42.09000 215.259
42.10000 212.478
42.11000 211.397
42.12000 210.325
42.13000 209.995
42.14000 210.301
42.15000 210.604
42.16000 210.157
42.17000 209.303
42.18000 208.556
42.19000 209.954
42.20000 212.190
42.21000 214.165
42.22000 213.412
42.23000 211.936
42.24000 210.634
42.25000 210.557
42.26000 210.677
42.27000 210.669
42.28000 210.135
42.29000 209.544
42.30000 211.055
42.31000 218.446
42.32000 226.187
42.33000 231.312
42.34000 222.287
42.35000 215.367
42.36000 214.931
42.37000 222.855
42.38000 230.796
42.39000 230.164
42.40000 222.342
42.41000 214.617
42.42000 211.283
42.43000 210.440
42.44000 209.742
42.45000 211.844
42.46000 215.021
42.47000 217.803
42.48000 216.567
42.49000 214.283
42.50000 212.275
42.51000 211.667
42.52000 211.351
42.53000 211.692
42.54000 214.696
42.55000 217.982
42.56000 219.639
42.57000 216.813
42.58000 213.728
42.59000 211.698
42.60000 208.306
42.61000 205.785
42.62000 205.268
42.63000 207.287
42.64000 209.311
42.65000 209.603
42.66000 208.471
42.67000 207.353
42.68000 207.272
42.69000 207.751
42.70000 208.264
42.71000 209.413
42.72000 210.802
42.73000 211.707
42.74000 207.800
42.75000 202.660
42.76000 198.155
42.77000 200.271
42.78000 203.045
42.79000 205.045
42.80000 203.967
42.81000 202.570
42.82000 202.399
42.83000 205.546
42.84000 208.877
42.85000 211.055
42.86000 199.554
42.87000 190.885
42.88000 190.909
42.89000 201.730
42.90000 212.559
42.91000 215.515
42.92000 212.109
42.93000 208.751
42.94000 207.786
42.95000 208.110
42.96000 208.312
42.97000 206.309
42.98000 203.488
42.99000 200.854
43.00000 200.037
43.01000 199.677
43.02000 199.362
43.03000 198.964
43.04000 198.610
43.05000 198.187
43.06000 197.493
43.07000 196.770
43.08000 196.776
43.09000 198.715
43.10000 200.758
43.11000 202.086
43.12000 202.345
43.13000 202.519
43.14000 201.809
43.15000 200.022
43.16000 198.234
43.17000 196.913
43.18000 195.961
43.19000 195.024
43.20000 197.956
43.21000 202.803
43.22000 207.165
43.23000 203.053
43.24000 195.851
43.25000 189.505
43.26000 191.245
43.27000 194.984
43.28000 198.243
43.29000 196.187
43.30000 193.695
43.31000 190.997
43.32000 187.505
43.33000 183.935
43.34000 182.680
43.35000 187.469
43.36000 192.574
43.37000 195.868
43.38000 201.918
43.39000 206.378
43.40000 207.463
43.41000 204.513
43.42000 201.569
43.43000 202.407
43.44000 206.187
43.45000 209.908
43.46000 208.124
43.47000 203.599
43.48000 199.245
43.49000 197.772
43.50000 197.332
43.51000 196.754
43.52000 194.901
43.53000 192.739
43.54000 190.861
43.55000 193.001
43.56000 195.370
43.57000 196.670
43.58000 193.933
43.59000 190.807
43.60000 189.757
43.61000 194.034
43.62000 198.580
43.63000 201.494
43.64000 196.183
43.65000 192.201
43.66000 189.721
43.67000 189.002
43.68000 188.289
43.69000 188.081
43.70000 188.261
43.71000 188.437
43.72000 187.109
43.73000 185.074
43.74000 183.467
43.75000 188.865
43.76000 196.731
43.77000 203.870
43.78000 204.462
43.79000 203.494
43.80000 202.655
43.81000 200.239
43.82000 197.976
43.83000 196.226
43.84000 196.382
43.85000 196.716
43.86000 197.703
43.87000 200.338
43.88000 203.052
43.89000 204.781
43.90000 196.907
43.91000 191.062
43.92000 188.590
43.93000 190.001
43.94000 191.416
43.95000 192.763
43.96000 194.059
43.97000 195.332
43.98000 194.964
43.99000 193.805
44.00000 192.794
44.01000 194.143
44.02000 196.309
44.03000 197.881
44.04000 194.222
44.05000 189.339
44.06000 185.121
44.07000 185.663
44.08000 186.739
44.09000 188.425
44.10000 192.333
44.11000 196.444
44.12000 199.086
44.13000 198.082
44.14000 196.906
44.15000 196.162
44.16000 198.197
44.17000 199.705
44.18000 198.347
44.19000 193.753
44.20000 189.182
44.21000 189.264
44.22000 192.772
44.23000 196.216
44.24000 197.520
44.25000 197.751
44.26000 197.618
44.27000 191.883
44.28000 184.241
44.29000 177.806
44.30000 181.750
44.31000 188.080
44.32000 193.530
44.33000 192.864
44.34000 191.528
44.35000 192.156
44.36000 199.810
44.37000 208.091
44.38000 212.256
44.39000 206.379
44.40000 200.048
44.41000 196.071
44.42000 202.868
44.43000 207.901
44.44000 209.292
44.45000 206.651
44.46000 204.034
44.47000 205.689
44.48000 210.432
44.49000 215.083
44.50000 216.455
44.51000 216.233
44.52000 215.910
44.53000 214.081
44.54000 211.747
44.55000 209.792
44.56000 211.008
44.57000 212.940
44.58000 214.598
44.59000 222.138
44.60000 229.236
44.61000 234.625
44.62000 234.000
44.63000 232.853
44.64000 232.079
44.65000 232.199
44.66000 232.359
44.67000 232.458
44.68000 226.009
44.69000 221.291
44.70000 218.813
44.71000 218.766
44.72000 218.744
44.73000 222.141
44.74000 227.964
44.75000 233.668
44.76000 233.755
44.77000 231.241
44.78000 229.120
44.79000 232.695
44.80000 238.143
44.81000 243.077
44.82000 243.780
44.83000 243.547
44.84000 243.347
44.85000 242.075
44.86000 240.874
44.87000 240.781
44.88000 244.521
44.89000 248.586
44.90000 250.153
44.91000 245.835
44.92000 241.269
44.93000 238.441
44.94000 243.421
44.95000 247.078
44.96000 251.037
44.97000 255.319
44.98000 259.585
44.99000 261.738
45.00000 262.419
45.01000 263.086
45.02000 263.265
45.03000 263.215
45.04000 263.169
45.05000 263.176
45.06000 263.199
45.07000 263.308
45.08000 264.109
45.09000 265.060
45.10000 265.872
45.11000 269.952
45.12000 273.771
45.13000 276.802
45.14000 277.161
45.15000 277.299
45.16000 275.757
45.17000 270.323
45.18000 264.732
45.19000 261.293
45.20000 260.646
45.21000 260.206
45.22000 257.679
45.23000 252.971
45.24000 248.254
45.25000 242.492
45.26000 236.015
45.27000 229.685
45.28000 226.277
45.29000 224.313
45.30000 222.610
45.31000 224.471
45.32000 227.464
45.33000 230.399
45.34000 232.866
45.35000 235.234
45.36000 237.247
45.37000 231.618
45.38000 226.013
45.39000 220.455
45.40000 215.051
45.41000 209.660
45.42000 207.446
45.43000 212.469
45.44000 217.772
45.45000 221.011
45.46000 217.373
45.47000 214.715
45.48000 214.533
45.49000 216.886
45.50000 219.237
45.51000 221.239
45.52000 223.007
45.53000 224.733
45.54000 223.805
45.55000 221.757
45.56000 219.982
45.57000 221.840
45.58000 224.831
45.59000 226.464
45.60000 217.653
45.61000 206.656
45.62000 197.338
45.63000 199.191
45.64000 201.998
45.65000 203.527
45.66000 200.869
45.67000 197.884
45.68000 196.747
45.69000 199.746
45.70000 202.899
45.71000 204.811
45.72000 204.259
45.73000 203.847
45.74000 203.761
45.75000 204.000
45.76000 204.227
45.77000 203.188
45.78000 201.313
45.79000 199.484
45.80000 195.994
45.81000 191.947
45.82000 188.158
45.83000 187.700
45.84000 188.262
45.85000 188.734
45.86000 188.521
45.87000 188.168
45.88000 187.869
45.89000 182.901
45.90000 178.236
45.91000 175.291
45.92000 177.886
45.93000 180.900
45.94000 182.556
45.95000 181.221
45.96000 179.779
45.97000 178.911
45.98000 175.786
45.99000 173.548
46.00000 172.324
46.01000 172.095
46.02000 171.884
46.03000 173.290
46.04000 175.744
46.05000 178.134
46.06000 181.246
46.07000 184.518
46.08000 187.419
46.09000 185.643
46.10000 182.457
46.11000 180.182
46.12000 184.599
46.13000 190.367
46.14000 195.221
46.15000 191.857
46.16000 188.172
46.17000 184.889
46.18000 182.877
46.19000 180.959
46.20000 179.642
46.21000 179.624
46.22000 179.650
46.23000 179.666
46.24000 185.820
46.25000 190.223
46.26000 187.466
46.27000 177.810
46.28000 168.276
46.29000 168.850
46.30000 175.866
46.31000 182.692
46.32000 185.995
46.33000 187.685
46.34000 188.887
46.35000 184.132
46.36000 177.612
46.37000 171.923
46.38000 172.219
46.39000 173.698
46.40000 174.939
46.41000 173.713
46.42000 172.435
46.43000 172.017
46.44000 174.276
46.45000 176.725
46.46000 178.263
46.47000 177.859
46.48000 177.391
46.49000 177.114
46.50000 185.877
46.51000 192.124
46.52000 193.151
46.53000 189.243
46.54000 185.382
46.55000 185.049
46.56000 186.925
46.57000 188.748
46.58000 187.399
46.59000 184.832
46.60000 182.040
46.61000 176.573
46.62000 170.327
46.63000 165.352
46.64000 169.327
46.65000 175.039
46.66000 179.815
46.67000 183.974
46.68000 187.366
46.69000 188.974
46.70000 185.132
46.71000 180.910
46.72000 179.419
46.73000 183.636
46.74000 188.031
46.75000 190.616
46.76000 184.483
46.77000 180.115
46.78000 179.526
46.79000 182.440
46.80000 185.271
46.81000 182.193
46.82000 175.480
46.83000 168.966
46.84000 169.464
46.85000 172.727
46.86000 175.744
46.87000 175.922
46.88000 175.287
46.89000 174.577
46.90000 173.347
46.91000 172.019
46.92000 170.912
46.93000 167.386
46.94000 164.224
46.95000 161.987
46.96000 162.528
46.97000 163.258
46.98000 164.276
46.99000 165.887
47.00000 167.517
47.01000 168.468
47.02000 167.628
47.03000 167.030
47.04000 167.657
47.05000 169.398
47.06000 171.115
47.07000 171.231
47.08000 170.379
47.09000 169.553
47.10000 168.433
47.11000 167.258
47.12000 166.234
47.13000 166.919
47.14000 168.084
47.15000 169.117
47.16000 169.261
47.17000 169.240
47.18000 169.222
47.19000 165.569
47.20000 162.197
47.21000 160.218
47.22000 162.355
47.23000 164.762
47.24000 168.549
47.25000 175.121
47.26000 181.773
47.27000 185.623
47.28000 174.100
47.29000 165.961
47.30000 163.265
47.31000 165.420
47.32000 167.558
47.33000 168.644
47.34000 169.105
47.35000 169.552
47.36000 167.536
47.37000 164.686
47.38000 161.823
47.39000 158.821
47.40000 155.781
47.41000 153.402
47.42000 155.398
47.43000 158.196
47.44000 160.510
47.45000 160.797
47.46000 160.842
47.47000 161.068
47.48000 161.819
47.49000 162.603
47.50000 163.388
47.51000 164.176
47.52000 164.965
47.53000 165.417
47.54000 173.713
47.55000 179.535
47.56000 179.113
47.57000 173.235
47.58000 167.428
47.59000 165.865
47.60000 166.776
47.61000 167.657
47.62000 162.843
47.63000 156.161
47.64000 150.195
47.65000 151.923
47.66000 155.738
47.67000 159.511
47.68000 163.018
47.69000 166.478
47.70000 169.329
47.71000 161.163
47.72000 153.428
47.73000 147.959
47.74000 148.954
47.75000 150.346
47.76000 152.369
47.77000 155.621
47.78000 158.906
47.79000 160.776
47.80000 170.053
47.81000 176.532
47.82000 174.841
47.83000 166.145
47.84000 157.520
47.85000 152.769
47.86000 150.238
47.87000 147.795
47.88000 149.933
47.89000 153.636
47.90000 157.223
47.91000 159.597
47.92000 161.647
47.93000 163.486
47.94000 163.983
47.95000 164.245
47.96000 164.459
47.97000 161.179
47.98000 158.172
47.99000 155.600
48.00000 154.251
48.01000 152.975
48.02000 152.913
48.03000 155.180
48.04000 157.505
48.05000 158.818
48.06000 159.016
48.07000 159.147
48.08000 157.069
48.09000 153.135
48.10000 149.295
48.11000 150.328
48.12000 154.107
48.13000 157.750
48.14000 157.910
48.15000 156.800
48.16000 155.694
48.17000 154.626
48.18000 153.569
48.19000 153.339
48.20000 158.255
48.21000 164.058
48.22000 168.806
48.23000 165.490
48.24000 162.068
48.25000 159.153
48.26000 157.635
48.27000 156.197
48.28000 155.964
48.29000 158.003
48.30000 160.096
48.31000 161.268
48.32000 160.319
48.33000 159.660
48.34000 160.050
48.35000 161.306
48.36000 162.453
48.37000 158.248
48.38000 151.079
48.39000 144.178
48.40000 145.822
48.41000 150.400
48.42000 154.870
48.43000 158.262
48.44000 161.377
48.45000 163.994
48.46000 163.574
48.47000 162.640
48.48000 161.879
48.49000 160.447
48.50000 159.219
48.51000 158.360
48.52000 158.501
48.53000 158.697
48.54000 159.289
48.55000 160.612
48.56000 161.951
48.57000 162.695
48.58000 161.429
48.59000 160.550
48.60000 159.772
48.61000 159.075
48.62000 158.382
48.63000 157.883
48.64000 157.491
48.65000 157.113
48.66000 158.067
48.67000 159.424
48.68000 160.492
48.69000 158.747
48.70000 156.292
48.71000 154.442
48.72000 156.203
48.73000 158.562
48.74000 160.478
48.75000 160.385
48.76000 160.143
48.77000 158.991
48.78000 155.415
48.79000 151.709
48.80000 152.222
48.81000 160.420
48.82000 168.780
48.83000 173.383
48.84000 160.187
48.85000 151.089
48.86000 148.765
48.87000 151.826
48.88000 154.835
48.89000 155.554
48.90000 155.048
48.91000 154.563
48.92000 150.423
48.93000 145.303
48.94000 140.680
48.95000 140.781
48.96000 142.054
48.97000 143.884
48.98000 148.977
48.99000 154.601
49.00000 159.150
49.01000 161.823
49.02000 163.846
49.03000 165.347
49.04000 165.479
49.05000 165.540
49.06000 164.356
49.07000 160.943
49.08000 157.486
49.09000 155.599
49.10000 146.577
49.11000 140.394
49.12000 140.194
49.13000 144.663
49.14000 149.046
49.15000 149.859
49.16000 148.796
49.17000 147.776
49.18000 146.456
49.19000 145.122
49.20000 144.351
49.21000 148.789
49.22000 154.495
49.23000 159.416
49.24000 159.837
49.25000 159.543
49.26000 159.305
49.27000 160.845
49.28000 162.234
49.29000 162.694
49.30000 160.765
49.31000 158.715
49.32000 155.654
49.33000 150.818
49.34000 145.948
49.35000 143.313
49.36000 149.120
49.37000 153.093
49.38000 154.330
49.39000 153.470
49.40000 152.626
49.41000 152.401
49.42000 152.494
49.43000 152.584
49.44000 151.817
49.45000 150.820
49.46000 149.896
49.47000 149.627
49.48000 149.514
49.49000 148.915
49.50000 145.584
49.51000 141.827
49.52000 138.811
49.53000 146.255
49.54000 153.084
49.55000 155.593
49.56000 147.170
49.57000 138.214
49.58000 134.902
49.59000 141.346
49.60000 147.961
49.61000 151.508
49.62000 150.652
49.63000 150.068
49.64000 150.105
49.65000 150.609
49.66000 151.072
49.67000 149.988
49.68000 148.120
49.69000 146.334
49.70000 148.823
49.71000 152.517
49.72000 155.783
49.73000 155.269
49.74000 153.868
49.75000 152.417
49.76000 150.689
49.77000 148.919
49.78000 147.504
49.79000 148.157
49.80000 148.839
49.81000 150.376
49.82000 154.043
49.83000 157.810
49.84000 158.973
49.85000 155.715
49.86000 152.384
49.87000 150.614
49.88000 145.887
49.89000 142.692
49.90000 143.555
49.91000 147.414
49.92000 151.236
49.93000 153.739
49.94000 155.584
49.95000 157.344
49.96000 153.290
49.97000 147.685
49.98000 142.897
49.99000 145.159
50.00000 149.045
50.01000 152.916
50.02000 156.704
50.03000 160.480
50.04000 163.487
50.05000 158.696
50.06000 154.270
50.07000 150.831
50.08000 149.806
50.09000 148.891
50.10000 148.644
50.11000 149.513
50.12000 150.400
50.13000 150.867
50.14000 157.269
50.15000 161.566
50.16000 157.982
50.17000 148.688
50.18000 139.638
50.19000 138.909
50.20000 142.262
50.21000 145.456
50.22000 147.040
50.23000 148.008
50.24000 149.278
50.25000 153.096
50.26000 157.491
50.27000 160.857
50.28000 158.774
50.29000 155.893
50.30000 153.607
50.31000 159.360
50.32000 164.552
50.33000 167.835
50.34000 166.530
50.35000 165.023
50.36000 164.308
50.37000 164.890
50.38000 165.490
50.39000 165.803
50.40000 159.188
50.41000 154.729
50.42000 152.569
50.43000 152.044
50.44000 151.632
50.45000 154.858
50.46000 159.839
50.47000 164.575
50.48000 163.614
50.49000 160.988
50.50000 158.704
50.51000 159.239
50.52000 160.401
50.53000 161.682
50.54000 163.585
50.55000 165.578
50.56000 167.152
50.57000 158.648
50.58000 151.134
50.59000 147.581
50.60000 153.383
50.61000 159.580
50.62000 164.552
50.63000 167.551
50.64000 170.523
50.65000 172.058
50.66000 169.733
50.67000 168.131
50.68000 162.100
50.69000 152.974
50.70000 144.177
50.71000 145.636
50.72000 151.956
50.73000 157.956
50.74000 160.174
50.75000 161.090
50.76000 162.340
50.77000 166.281
50.78000 170.810
50.79000 174.155
50.80000 171.466
50.81000 167.930
50.82000 165.149
50.83000 160.416
50.84000 156.496
50.85000 155.430
50.86000 160.992
50.87000 166.824
50.88000 168.075
50.89000 162.079
50.90000 155.992
50.91000 152.878
50.92000 151.566
50.93000 150.689
50.94000 150.273
50.95000 150.175
50.96000 150.198
50.97000 153.842
50.98000 159.171
50.99000 164.222
51.00000 165.756
51.01000 166.137
51.02000 165.958
51.03000 161.365
51.04000 155.827
51.05000 151.323
51.06000 151.994
51.07000 153.376
51.08000 154.458
51.09000 155.524
51.10000 156.375
51.11000 156.567
51.12000 155.255
51.13000 153.885
51.14000 154.051
51.15000 156.602
51.16000 159.181
51.17000 160.487
51.18000 158.244
51.19000 156.743
51.20000 155.367
51.21000 154.076
51.22000 152.751
51.23000 150.482
51.24000 147.781
51.25000 145.226
51.26000 147.502
51.27000 150.985
51.28000 154.382
51.29000 157.115
51.30000 159.709
51.31000 160.803
51.32000 154.532
51.33000 147.271
51.34000 141.609
51.35000 141.984
51.36000 142.660
51.37000 143.257
51.38000 143.675
51.39000 144.087
51.40000 144.253
51.41000 144.043
51.42000 143.829
51.43000 143.722
51.44000 146.737
51.45000 148.719
51.46000 147.865
51.47000 145.132
51.48000 142.512
51.49000 142.989
51.50000 144.860
51.51000 146.627
51.52000 146.687
51.53000 146.261
51.54000 145.764
51.55000 144.731
51.56000 143.589
51.57000 142.853
51.58000 144.079
51.59000 145.562
51.60000 146.714
51.61000 146.578
51.62000 146.392
51.63000 146.190
51.64000 145.954
51.65000 145.717
51.66000 145.095
51.67000 143.893
51.68000 142.685
51.69000 140.974
51.70000 138.767
51.71000 136.595
51.72000 137.634
51.73000 140.760
51.74000 143.719
51.75000 142.273
51.76000 138.879
51.77000 135.679
51.78000 138.785
51.79000 143.374
51.80000 147.092
51.81000 144.379
51.82000 140.365
51.83000 137.762
51.84000 141.832
51.85000 146.761
51.86000 150.571
51.87000 144.317
51.88000 138.764
51.89000 135.653
51.90000 137.835
51.91000 140.200
51.92000 140.416
51.93000 137.465
51.94000 134.486
51.95000 134.696
51.96000 137.988
51.97000 141.254
51.98000 142.297
51.99000 141.920
52.00000 141.520
52.01000 140.534
52.02000 139.292
52.03000 138.124
52.04000 136.059
52.05000 133.929
52.06000 132.296
52.07000 134.261
52.08000 136.940
52.09000 138.661
52.10000 135.935
52.11000 132.649
52.12000 130.120
52.13000 133.356
52.14000 136.246
52.15000 137.987
52.16000 137.281
52.17000 136.494
52.18000 135.365
52.19000 133.742
52.20000 132.114
52.21000 131.870
52.22000 132.937
52.23000 134.033
52.24000 137.344
52.25000 142.047
52.26000 146.458
52.27000 143.799
52.28000 138.116
52.29000 132.779
52.30000 134.158
52.31000 137.204
52.32000 139.426
52.33000 135.820
52.34000 131.080
52.35000 127.883
52.36000 131.711
52.37000 136.403
52.38000 139.999
52.39000 145.530
52.40000 150.005
52.41000 152.328
52.42000 150.139
52.43000 147.808
52.44000 143.569
52.45000 136.621
52.46000 129.654
52.47000 128.267
52.48000 132.063
52.49000 135.806
52.50000 135.716
52.51000 133.264
52.52000 130.936
52.53000 131.533
52.54000 133.358
52.55000 135.070
52.56000 137.226
52.57000 139.305
52.58000 140.729
52.59000 137.621
52.60000 133.648
52.61000 130.769
52.62000 132.775
52.63000 135.369
52.64000 137.348
52.65000 135.540
52.66000 133.912
52.67000 134.115
52.68000 138.089
52.69000 142.177
52.70000 142.783
52.71000 138.529
52.72000 134.244
52.73000 132.551
52.74000 133.218
52.75000 133.876
52.76000 133.910
52.77000 133.565
52.78000 133.290
52.79000 134.574
52.80000 136.503
52.81000 138.307
52.82000 141.842
52.83000 145.497
52.84000 148.629
52.85000 148.222
52.86000 147.152
52.87000 146.694
52.88000 148.917
52.89000 151.456
52.90000 153.383
52.91000 143.227
52.92000 134.619
52.93000 129.692
52.94000 132.219
52.95000 134.960
52.96000 138.509
52.97000 143.164
52.98000 147.823
52.99000 148.718
53.00000 146.253
53.01000 143.832
53.02000 144.231
53.03000 146.307
53.04000 148.245
53.05000 147.161
53.06000 144.849
53.07000 142.690
53.08000 145.440
53.09000 149.165
53.10000 153.135
53.11000 158.730
53.12000 164.623
53.13000 168.289
53.14000 162.361
53.15000 155.331
53.16000 150.017
53.17000 147.415
53.18000 145.511
53.19000 145.282
53.20000 148.387
53.21000 151.584
53.22000 153.423
53.23000 153.435
53.24000 153.437
53.25000 154.021
53.26000 155.113
53.27000 156.222
53.28000 158.342
53.29000 161.053
53.30000 163.577
53.31000 162.180
53.32000 159.218
53.33000 156.457
53.34000 153.600
53.35000 150.991
53.36000 149.362
53.37000 154.098
53.38000 159.979
53.39000 164.245
53.40000 161.681
53.41000 158.350
53.42000 155.844
53.43000 155.075
53.44000 154.558
53.45000 154.827
53.46000 156.633
53.47000 158.480
53.48000 159.314
53.49000 158.810
53.50000 158.301
53.51000 155.302
53.52000 150.174
53.53000 145.151
53.54000 145.997
53.55000 150.216
53.56000 154.144
53.57000 152.208
53.58000 147.971
53.59000 144.029
53.60000 145.155
53.61000 147.395
53.62000 149.267
53.63000 148.802
53.64000 147.924
53.65000 146.859
53.66000 145.018
53.67000 143.092
53.68000 141.650
53.69000 141.779
53.70000 141.953
53.71000 142.270
53.72000 142.861
53.73000 143.458
53.74000 144.286
53.75000 145.411
53.76000 146.537
53.77000 146.361
53.78000 145.090
53.79000 143.803
53.80000 141.672
53.81000 139.066
53.82000 136.613
53.83000 137.148
53.84000 138.837
53.85000 140.404
53.86000 140.902
53.87000 141.099
53.88000 141.620
53.89000 144.166
53.90000 147.063
53.91000 149.455
53.92000 149.794
53.93000 149.912
53.94000 150.000
53.95000 150.084
53.96000 150.150
53.97000 149.973
53.98000 149.339
53.99000 148.694
54.00000 147.212
54.01000 144.666
54.02000 142.120
54.03000 141.666
54.04000 142.940
54.05000 144.183
54.06000 143.838
54.07000 142.613
54.08000 141.402
54.09000 140.453
54.10000 139.602
54.11000 138.814
54.12000 136.536
54.13000 134.141
54.14000 132.156
54.15000 132.671
54.16000 133.610
54.17000 135.043
54.18000 138.454
54.19000 142.071
54.20000 144.753
54.21000 135.898
54.22000 128.517
54.23000 125.668
54.24000 131.238
54.25000 136.997
54.26000 138.299
54.27000 134.036
54.28000 129.762
54.29000 131.335
54.30000 137.631
54.31000 143.781
54.32000 143.105
54.33000 138.707
54.34000 134.641
54.35000 136.646
54.36000 140.914
54.37000 144.859
54.38000 144.182
54.39000 142.525
54.40000 140.789
54.41000 138.579
54.42000 136.290
54.43000 135.197
54.44000 138.806
54.45000 142.894
54.46000 145.911
54.47000 142.102
54.48000 138.864
54.49000 136.690
54.50000 136.460
54.51000 136.271
54.52000 136.418
54.53000 136.978
54.54000 137.538
54.55000 136.374
54.56000 133.849
54.57000 131.407
54.58000 132.615
54.59000 135.780
54.60000 138.954
54.61000 142.276
54.62000 145.652
54.63000 148.767
54.64000 149.147
54.65000 148.879
54.66000 147.994
54.67000 143.489
54.68000 138.396
54.69000 134.852
54.70000 137.299
54.71000 140.341
54.72000 142.575
54.73000 139.662
54.74000 137.200
54.75000 136.045
54.76000 137.232
54.77000 138.466
54.78000 140.418
54.79000 143.235
54.80000 146.048
54.81000 145.343
54.82000 141.904
54.83000 138.535
54.84000 138.133
54.85000 139.293
54.86000 140.458
54.87000 141.694
54.88000 142.956
54.89000 144.118
54.90000 144.017
54.91000 143.652
54.92000 143.294
54.93000 142.974
54.94000 142.660
54.95000 142.795
54.96000 144.635
54.97000 146.641
54.98000 148.107
54.99000 147.964
55.00000 147.790
55.01000 148.479
55.02000 150.688
55.03000 152.926
55.04000 153.095
55.05000 150.825
55.06000 148.556
55.07000 146.240
55.08000 143.901
55.09000 141.650
55.10000 142.858
55.11000 145.859
55.12000 148.664
55.13000 148.228
55.14000 146.646
55.15000 145.192
55.16000 147.343
55.17000 150.033
55.18000 152.393
55.19000 152.893
55.20000 153.103
55.21000 154.014
55.22000 157.541
55.23000 161.316
55.24000 164.059
55.25000 161.536
55.26000 159.395
55.27000 159.695
55.28000 164.222
55.29000 168.825
55.30000 171.372
55.31000 171.539
55.32000 171.703
55.33000 171.832
55.34000 171.936
55.35000 172.109
55.36000 174.958
55.37000 179.167
55.38000 183.101
55.39000 182.628
55.40000 180.621
55.41000 178.783
55.42000 179.889
55.43000 181.491
55.44000 183.000
55.45000 184.000
55.46000 184.922
55.47000 187.181
55.48000 194.338
55.49000 201.946
55.50000 207.448
55.51000 212.316
55.52000 216.029
55.53000 220.601
55.54000 226.634
55.55000 232.692
55.56000 239.976
55.57000 248.651
55.58000 257.300
55.59000 266.857
55.60000 277.009
55.61000 287.075
55.62000 294.084
55.63000 299.562
55.64000 305.418
55.65000 317.123
55.66000 330.829
55.67000 343.360
55.68000 358.124
55.69000 371.701
55.70000 385.083
55.71000 397.413
55.72000 409.584
55.73000 420.860
55.74000 428.914
55.75000 436.678
55.76000 442.264
55.77000 453.792
55.78000 462.825
55.79000 480.916
55.80000 514.157
55.81000 547.635
55.82000 572.371
55.83000 587.369
55.84000 602.308
55.85000 607.836
55.86000 606.539
55.87000 605.526
55.88000 614.261
55.89000 627.789
55.90000 640.974
55.91000 648.997
55.92000 655.283
55.93000 661.017
55.94000 663.736
55.95000 665.540
55.96000 667.408
55.97000 669.608
55.98000 671.857
55.99000 672.166
56.00000 665.613
56.01000 658.460
56.02000 653.342
56.03000 640.163
56.04000 629.828
56.05000 616.818
56.06000 599.413
56.07000 581.944
56.08000 567.313
56.09000 555.784
56.10000 544.301
56.11000 532.190
56.12000 519.751
56.13000 507.145
56.14000 489.061
56.15000 468.329
56.16000 447.633
56.17000 427.455
56.18000 407.449
56.19000 389.244
56.20000 374.100
56.21000 361.303
56.22000 349.352
56.23000 341.811
56.24000 334.906
56.25000 327.746
56.26000 319.705
56.27000 311.588
56.28000 305.811
56.29000 284.963
56.30000 268.593
56.31000 255.553
56.32000 247.888
56.33000 240.297
56.34000 230.496
56.35000 218.330
56.36000 206.217
56.37000 200.357
56.38000 198.894
56.39000 197.434
56.40000 196.060
56.41000 194.728
56.42000 193.325
56.43000 190.931
56.44000 188.214
56.45000 185.748
56.46000 180.660
56.47000 175.660
56.48000 171.229
56.49000 169.708
56.50000 168.596
56.51000 167.255
56.52000 165.132
56.53000 162.944
56.54000 161.395
56.55000 156.733
56.56000 153.093
56.57000 150.786
56.58000 150.593
56.59000 150.427
56.60000 149.064
56.61000 146.445
56.62000 143.839
56.63000 146.997
56.64000 154.041
56.65000 160.687
56.66000 155.467
56.67000 144.705
56.68000 134.575
56.69000 133.166
56.70000 134.541
56.71000 135.786
56.72000 135.500
56.73000 134.958
56.74000 135.339
56.75000 140.351
56.76000 146.001
56.77000 149.453
56.78000 145.537
56.79000 141.026
56.80000 137.850
56.81000 142.436
56.82000 146.143
56.83000 147.103
56.84000 143.779
56.85000 140.406
56.86000 138.617
56.87000 138.459
56.88000 138.303
56.89000 136.069
56.90000 132.477
56.91000 129.054
56.92000 130.477
56.93000 134.126
56.94000 137.486
56.95000 136.975
56.96000 135.250
56.97000 133.691
56.98000 132.850
56.99000 132.244
57.00000 132.252
57.01000 135.284
57.02000 138.724
57.03000 140.723
57.04000 137.973
57.05000 134.849
57.06000 132.662
57.07000 133.070
57.08000 133.453
57.09000 134.591
57.10000 136.887
57.11000 139.196
57.12000 139.146
57.13000 136.718
57.14000 134.304
57.15000 131.280
57.16000 127.899
57.17000 124.617
57.18000 124.085
57.19000 124.793
57.20000 125.349
57.21000 123.918
57.22000 121.875
57.23000 120.033
57.24000 124.936
57.25000 130.460
57.26000 135.229
57.27000 136.347
57.28000 136.982
57.29000 137.193
57.30000 136.031
57.31000 134.764
57.32000 133.881
57.33000 126.740
57.34000 121.182
57.35000 119.730
57.36000 124.451
57.37000 129.234
57.38000 132.601
57.39000 134.567
57.40000 136.520
57.41000 133.412
57.42000 127.100
57.43000 121.031
57.44000 121.374
57.45000 124.562
57.46000 127.725
57.47000 130.564
57.48000 133.305
57.49000 135.770
57.50000 132.579
57.51000 128.781
57.52000 125.588
57.53000 125.259
57.54000 125.300
57.55000 125.923
57.56000 128.400
57.57000 131.014
57.58000 132.824
57.59000 128.882
57.60000 125.765
57.61000 123.178
57.62000 121.372
57.63000 119.575
57.64000 119.243
57.65000 120.333
57.66000 121.415
57.67000 123.903
57.68000 127.237
57.69000 130.499
57.70000 131.932
57.71000 132.567
57.72000 132.980
57.73000 130.658
57.74000 127.521
57.75000 124.709
57.76000 122.837
57.77000 121.366
57.78000 120.600
57.79000 123.119
57.80000 126.053
57.81000 127.534
57.82000 124.474
57.83000 121.085
57.84000 118.753
57.85000 120.330
57.86000 121.612
57.87000 122.742
57.88000 123.654
57.89000 124.563
57.90000 124.141
57.91000 122.455
57.92000 120.781
57.93000 121.287
57.94000 123.132
57.95000 124.919
57.96000 125.316
57.97000 125.115
57.98000 124.754
57.99000 122.451
58.00000 119.581
58.01000 117.013
58.02000 116.601
58.03000 116.609
58.04000 117.675
58.05000 123.573
58.06000 130.068
58.07000 134.366
58.08000 131.913
58.09000 128.987
58.10000 126.985
58.11000 128.318
58.12000 129.395
58.13000 129.702
58.14000 128.913
58.15000 128.115
58.16000 126.771
58.17000 124.918
58.18000 123.080
58.19000 121.696
58.20000 120.613
58.21000 119.735
58.22000 123.682
58.23000 129.662
58.24000 134.955
58.25000 132.199
58.26000 127.130
58.27000 122.608
58.28000 120.988
58.29000 120.061
58.30000 119.394
58.31000 119.889
58.32000 120.524
58.33000 121.114
58.34000 121.569
58.35000 122.016
58.36000 122.319
58.37000 123.580
58.38000 124.543
58.39000 125.781
58.40000 127.406
58.41000 129.032
58.42000 128.438
58.43000 125.815
58.44000 123.217
58.45000 120.692
58.46000 118.262
58.47000 115.997
58.48000 117.476
58.49000 120.506
58.50000 123.111
58.51000 120.882
58.52000 117.287
58.53000 114.089
58.54000 116.316
58.55000 119.134
58.56000 121.425
58.57000 121.397
58.58000 121.096
58.59000 120.920
58.60000 121.117
58.61000 121.339
58.62000 121.489
58.63000 120.350
58.64000 119.475
58.65000 119.152
58.66000 119.589
58.67000 120.032
58.68000 121.637
58.69000 124.282
58.70000 126.903
58.71000 127.432
58.72000 126.730
58.73000 125.938
58.74000 123.193
58.75000 119.653
58.76000 116.291
58.77000 114.909
58.78000 114.076
58.79000 113.336
58.80000 117.250
58.81000 121.383
58.82000 124.551
58.83000 123.552
58.84000 122.072
58.85000 121.913
58.86000 125.606
58.87000 129.547
58.88000 132.195
58.89000 133.749
58.90000 134.881
58.91000 133.715
58.92000 129.449
58.93000 125.167
58.94000 121.487
58.95000 118.336
58.96000 115.219
58.97000 111.903
58.98000 108.547
58.99000 105.465
59.00000 108.130
59.01000 113.096
59.02000 117.772
59.03000 119.308
59.04000 119.987
59.05000 120.588
59.06000 117.372
59.07000 113.995
59.08000 111.477
59.09000 112.599
59.10000 114.130
59.11000 116.376
59.12000 120.673
59.13000 125.097
59.14000 128.053
59.15000 125.482
59.16000 123.469
59.17000 123.243
59.18000 125.386
59.19000 127.535
59.20000 126.321
59.21000 122.208
59.22000 118.141
59.23000 117.948
59.24000 119.940
59.25000 121.816
59.26000 121.340
59.27000 119.938
59.28000 118.787
59.29000 120.276
59.30000 122.472
59.31000 124.410
59.32000 123.974
59.33000 123.235
59.34000 122.322
59.35000 120.685
59.36000 118.968
59.37000 117.780
59.38000 118.082
59.39000 118.474
59.40000 118.735
59.41000 118.454
59.42000 118.236
59.43000 117.511
59.44000 116.125
59.45000 114.738
59.46000 114.166
59.47000 114.282
59.48000 114.398
59.49000 114.187
59.50000 113.802
59.51000 113.381
59.52000 112.252
59.53000 110.849
59.54000 109.897
59.55000 113.583
59.56000 118.488
59.57000 122.805
59.58000 123.427
59.59000 123.411
59.60000 123.081
59.61000 121.471
59.62000 119.723
59.63000 118.095
59.64000 116.797
59.65000 115.519
59.66000 114.675
59.67000 118.728
59.68000 121.801
59.69000 122.245
59.70000 119.332
59.71000 116.410
59.72000 114.486
59.73000 113.392
59.74000 112.311
59.75000 111.545
59.76000 110.969
59.77000 110.588
59.78000 113.901
59.79000 118.619
59.80000 122.540
59.81000 118.459
59.82000 112.311
59.83000 106.916
59.84000 110.396
59.85000 114.683
59.86000 118.515
59.87000 120.520
59.88000 122.333
59.89000 123.394
59.90000 122.407
59.91000 121.304
59.92000 120.581
59.93000 113.808
59.94000 108.726
59.95000 107.099
59.96000 109.796
59.97000 112.500
59.98000 112.602
59.99000 110.585
60.00000 108.596
60.01000 108.185
60.02000 108.624
60.03000 109.221
60.04000 112.722
60.05000 117.309
60.06000 121.382
60.07000 120.435
60.08000 118.214
60.09000 116.271
60.10000 113.986
60.11000 111.979
60.12000 110.670
60.13000 112.115
60.14000 113.842
60.15000 114.456
60.16000 112.091
60.17000 109.563
60.18000 107.915
60.19000 111.555
60.20000 114.307
60.21000 115.329
60.22000 114.223
60.23000 113.116
60.24000 113.533
60.25000 115.168
60.26000 116.780
60.27000 117.944
60.28000 118.840
60.29000 119.701
60.30000 119.932
60.31000 119.932
60.32000 120.042
60.33000 121.206
60.34000 122.633
60.35000 123.878
60.36000 120.734
60.37000 117.432
60.38000 114.839
60.39000 114.998
60.40000 115.431
60.41000 115.327
60.42000 113.807
60.43000 112.212
60.44000 111.180
60.45000 108.453
60.46000 106.433
60.47000 107.397
60.48000 111.959
60.49000 116.518
60.50000 117.850
60.51000 116.650
60.52000 115.469
60.53000 114.199
60.54000 112.921
60.55000 111.754
60.56000 112.471
60.57000 113.869
60.58000 115.093
60.59000 114.695
60.60000 113.901
60.61000 113.210
60.62000 115.211
60.63000 117.286
60.64000 119.267
60.65000 120.888
60.66000 122.474
60.67000 122.537
60.68000 118.658
60.69000 114.578
60.70000 111.955
60.71000 114.118
60.72000 115.762
60.73000 117.483
60.74000 119.296
60.75000 121.100
60.76000 120.724
60.77000 118.670
60.78000 116.649
60.79000 115.876
60.80000 115.756
60.81000 115.777
60.82000 118.155
60.83000 121.370
60.84000 124.276
60.85000 124.375
60.86000 123.800
60.87000 123.301
60.88000 123.058
60.89000 122.885
60.90000 122.842
60.91000 123.289
60.92000 123.783
60.93000 123.350
60.94000 120.560
60.95000 117.654
60.96000 115.798
60.97000 121.694
60.98000 126.085
60.99000 126.379
61.00000 121.917
61.01000 117.471
61.02000 117.943
61.03000 122.132
61.04000 126.248
61.05000 124.711
61.06000 120.437
61.07000 116.515
61.08000 118.272
61.09000 122.010
61.10000 125.519
61.11000 126.993
61.12000 127.987
61.13000 128.846
61.14000 127.831
61.15000 126.723
61.16000 125.099
61.17000 121.575
61.18000 117.875
61.19000 116.799
61.20000 122.284
61.21000 128.081
61.22000 131.759
61.23000 128.527
61.24000 126.097
61.25000 124.227
61.26000 122.995
61.27000 121.770
61.28000 121.697
61.29000 122.480
61.30000 123.248
61.31000 125.374
61.32000 128.083
61.33000 130.400
61.34000 126.610
61.35000 120.725
61.36000 115.675
61.37000 117.873
61.38000 121.752
61.39000 125.095
61.40000 124.772
61.41000 124.029
61.42000 123.572
61.43000 124.143
61.44000 124.807
61.45000 124.994
61.46000 124.008
61.47000 122.968
61.48000 122.313
61.49000 129.933
61.50000 135.543
61.51000 141.676
61.52000 148.393
61.53000 155.134
61.54000 165.808
61.55000 179.348
61.56000 192.631
61.57000 204.693
61.58000 215.735
61.59000 226.470
61.60000 232.542
61.61000 237.042
61.62000 242.694
61.63000 258.128
61.64000 275.787
61.65000 290.965
61.66000 289.067
61.67000 285.332
61.68000 281.060
61.69000 274.882
61.70000 268.537
61.71000 267.758
61.72000 280.427
61.73000 293.691
61.74000 301.992
61.75000 283.344
61.76000 269.597
61.77000 256.748
61.78000 244.886
61.79000 233.018
61.80000 220.277
61.81000 206.912
61.82000 193.815
61.83000 183.317
61.84000 174.429
61.85000 165.450
61.86000 155.139
61.87000 144.386
61.88000 134.854
61.89000 135.441
61.90000 138.289
61.91000 140.729
61.92000 137.986
61.93000 135.039
61.94000 132.941
61.95000 133.794
61.96000 134.901
61.97000 136.115
61.98000 137.583
61.99000 139.063
62.00000 139.982
62.01000 141.423
62.02000 142.467
62.03000 139.134
62.04000 131.102
62.05000 123.114
62.06000 121.279
62.07000 123.767
62.08000 126.203
62.09000 124.083
62.10000 119.963
62.11000 116.317
62.12000 119.437
62.13000 124.760
62.14000 129.603
62.15000 130.553
62.16000 130.649
62.17000 130.732
62.18000 126.428
62.19000 122.281
62.20000 119.600
62.21000 121.939
62.22000 124.695
62.23000 126.892
62.24000 127.785
62.25000 128.624
62.26000 129.141
62.27000 130.762
62.28000 131.935
62.29000 132.489
62.30000 132.390
62.31000 132.294
62.32000 132.680
62.33000 133.399
62.34000 134.102
62.35000 132.829
62.36000 130.720
62.37000 128.728
62.38000 128.351
62.39000 128.491
62.40000 128.674
62.41000 129.207
62.42000 129.814
62.43000 130.331
62.44000 126.683
62.45000 123.133
62.46000 120.809
62.47000 122.605
62.48000 124.736
62.49000 125.734
62.50000 124.134
62.51000 122.431
62.52000 121.388
62.53000 117.699
62.54000 115.036
62.55000 117.126
62.56000 124.124
62.57000 131.072
62.58000 132.447
62.59000 130.045
62.60000 127.699
62.61000 127.074
62.62000 127.233
62.63000 127.259
62.64000 125.484
62.65000 123.143
62.66000 121.216
62.67000 122.500
62.68000 124.463
62.69000 126.128
62.70000 128.424
62.71000 130.421
62.72000 132.138
62.73000 132.929
62.74000 133.647
62.75000 134.846
62.76000 137.131
62.77000 139.456
62.78000 140.871
62.79000 136.089
62.80000 132.626
62.81000 130.301
62.82000 129.130
62.83000 127.969
62.84000 127.924
62.85000 128.623
62.86000 129.305
62.87000 130.125
62.88000 130.968
62.89000 131.667
62.90000 130.473
62.91000 128.693
62.92000 127.378
62.93000 129.584
62.94000 132.521
62.95000 135.004
62.96000 132.609
62.97000 130.064
62.98000 127.632
62.99000 125.562
63.00000 123.521
63.01000 122.741
63.02000 124.760
63.03000 126.880
63.04000 128.160
63.05000 129.221
63.06000 129.974
63.07000 130.237
63.08000 130.014
63.09000 129.784
63.10000 128.850
63.11000 127.456
63.12000 126.097
63.13000 129.494
63.14000 134.753
63.15000 139.581
63.16000 138.912
63.17000 136.574
63.18000 134.582
63.19000 135.165
63.20000 136.270
63.21000 137.202
63.22000 137.281
63.23000 137.255
63.24000 136.649
63.25000 134.190
63.26000 131.594
63.27000 130.992
63.28000 134.738
63.29000 138.636
63.30000 140.972
63.31000 144.269
63.32000 146.617
63.33000 144.688
63.34000 138.601
63.35000 132.578
63.36000 132.023
63.37000 134.979
63.38000 137.856
63.39000 139.720
63.40000 141.072
63.41000 142.338
63.42000 142.538
63.43000 142.418
63.44000 142.549
63.45000 144.495
63.46000 146.803
63.47000 148.743
63.48000 143.150
63.49000 137.697
63.50000 133.123
63.51000 131.303
63.52000 129.682
63.53000 129.550
63.54000 132.606
63.55000 135.769
63.56000 137.649
63.57000 137.567
63.58000 137.497
63.59000 138.460
63.60000 140.406
63.61000 142.322
63.62000 141.767
63.63000 139.653
63.64000 137.598
63.65000 136.395
63.66000 135.600
63.67000 134.697
63.68000 132.491
63.69000 129.902
63.70000 128.497
63.71000 135.506
63.72000 144.163
63.73000 151.411
63.74000 149.295
63.75000 146.572
63.76000 142.739
63.77000 135.482
63.78000 127.984
63.79000 124.319
63.80000 128.727
63.81000 133.394
63.82000 136.148
63.83000 138.275
63.84000 139.773
63.85000 140.056
63.86000 139.202
63.87000 138.354
63.88000 137.930
63.89000 137.769
63.90000 137.612
63.91000 140.471
63.92000 144.395
63.93000 148.289
63.94000 151.839
63.95000 155.290
63.96000 158.058
63.97000 156.080
63.98000 153.191
63.99000 150.780
64.00000 146.144
64.01000 142.075
64.02000 139.085
64.03000 139.361
64.04000 139.859
64.05000 140.602
64.06000 141.848
64.07000 143.110
64.08000 143.849
64.09000 151.482
64.10000 156.887
64.11000 156.334
64.12000 150.324
64.13000 144.389
64.14000 143.675
64.15000 146.139
64.16000 148.530
64.17000 148.704
64.18000 147.997
64.19000 147.561
64.20000 150.232
64.21000 153.782
64.22000 156.806
64.23000 156.246
64.24000 155.011
64.25000 153.985
64.26000 151.680
64.27000 149.648
64.28000 149.287
64.29000 153.897
64.30000 158.837
64.31000 161.934
64.32000 161.278
64.33000 160.512
64.34000 160.067
64.35000 156.355
64.36000 153.738
64.37000 155.172
64.38000 160.244
64.39000 165.247
64.40000 165.764
64.41000 163.598
64.42000 161.499
64.43000 159.737
64.44000 158.201
64.45000 156.603
64.46000 154.316
64.47000 151.837
64.48000 149.834
64.49000 151.002
64.50000 152.755
64.51000 154.207
64.52000 156.135
64.53000 157.773
64.54000 159.703
64.55000 162.487
64.56000 165.327
64.57000 165.400
64.58000 159.937
64.59000 154.320
64.60000 151.083
64.61000 155.836
64.62000 159.192
64.63000 161.126
64.64000 161.805
64.65000 162.465
64.66000 161.996
64.67000 160.862
64.68000 159.765
64.69000 159.408
64.70000 159.351
64.71000 159.426
64.72000 160.921
64.73000 162.805
64.74000 164.852
64.75000 167.963
64.76000 171.267
64.77000 173.994
64.78000 175.005
64.79000 175.678
64.80000 176.342
64.81000 176.982
64.82000 177.620
64.83000 176.085
64.84000 170.280
64.85000 164.361
64.86000 160.978
64.87000 165.962
64.88000 169.467
64.89000 171.593
64.90000 172.526
64.91000 173.430
64.92000 172.719
64.93000 171.075
64.94000 169.487
64.95000 172.075
64.96000 176.068
64.97000 179.876
64.98000 181.721
64.99000 183.039
65.00000 183.881
65.01000 181.674
65.02000 178.927
65.03000 176.666
65.04000 179.024
65.05000 181.381
65.06000 183.510
65.07000 184.994
65.08000 186.438
65.09000 188.486
65.10000 191.697
65.11000 194.939
65.12000 196.776
65.13000 196.837
65.14000 196.878
65.15000 199.058
65.16000 203.051
65.17000 206.962
65.18000 206.486
65.19000 203.520
65.20000 200.658
65.21000 201.603
65.22000 203.883
65.23000 206.498
65.24000 212.580
65.25000 219.577
65.26000 226.100
65.27000 229.651
65.28000 232.686
65.29000 235.172
65.30000 230.892
65.31000 226.784
65.32000 225.177
65.33000 230.517
65.34000 236.265
65.35000 241.994
65.36000 247.685
65.37000 253.375
65.38000 256.573
65.39000 244.740
65.40000 236.508
65.41000 237.352
65.42000 245.749
65.43000 254.035
65.44000 256.768
65.45000 256.403
65.46000 256.052
65.47000 261.803
65.48000 269.390
65.49000 276.672
65.50000 280.880
65.51000 284.291
65.52000 288.204
65.53000 295.200
65.54000 302.722
65.55000 308.863
65.56000 312.428
65.57000 315.124
65.58000 320.930
65.59000 335.229
65.60000 350.012
65.61000 365.321
65.62000 381.615
65.63000 397.930
65.64000 407.026
65.65000 436.306
65.66000 456.629
65.67000 484.974
65.68000 519.870
65.69000 555.364
65.70000 619.185
65.71000 698.535
65.72000 774.866
65.73000 889.378
65.74000 1010.159
65.75000 1130.534
65.76000 1246.912
65.77000 1362.274
65.78000 1474.699
65.79000 1569.445
65.80000 1661.234
65.81000 1735.899
65.82000 1783.931
65.83000 1820.913
65.84000 1855.311
65.85000 1882.770
65.86000 1909.848
65.87000 1923.026
65.88000 1910.701
65.89000 1897.827
65.90000 1890.711
65.91000 1854.154
65.92000 1828.785
65.93000 1770.664
65.94000 1686.296
65.95000 1601.677
65.96000 1505.827
65.97000 1403.927
65.98000 1306.046
65.99000 1181.682
66.00000 1056.160
66.01000 933.459
66.02000 837.800
66.03000 748.897
66.04000 664.305
66.05000 605.148
66.06000 550.159
66.07000 505.599
66.08000 483.419
66.09000 467.178
66.10000 449.634
66.11000 428.653
66.12000 407.489
66.13000 390.395
66.14000 380.638
66.15000 371.031
66.16000 365.767
66.17000 357.045
66.18000 351.064
66.19000 351.345
66.20000 356.551
66.21000 361.665
66.22000 362.848
66.23000 361.949
66.24000 361.087
66.25000 374.045
66.26000 390.824
66.27000 407.949
66.28000 428.305
66.29000 449.453
66.30000 469.667
66.31000 484.480
66.32000 498.425
66.33000 509.683
66.34000 528.281
66.35000 543.979
66.36000 560.141
66.37000 577.508
66.38000 594.937
66.39000 604.165
66.40000 598.863
66.41000 593.282
66.42000 590.250
66.43000 585.561
66.44000 582.354
66.45000 581.790
66.46000 583.267
66.47000 584.556
66.48000 578.322
66.49000 568.171
66.50000 558.450
66.51000 537.181
66.52000 513.515
66.53000 490.764
66.54000 476.373
66.55000 463.996
66.56000 450.937
66.57000 434.014
66.58000 416.484
66.59000 402.387
66.60000 385.700
66.61000 371.969
66.62000 361.493
66.63000 359.314
66.64000 357.548
66.65000 355.329
66.66000 352.322
66.67000 349.301
66.68000 347.675
66.69000 347.906
66.70000 348.075
66.71000 350.271
66.72000 354.003
66.73000 357.626
66.74000 357.050
66.75000 354.326
66.76000 351.721
66.77000 351.541
66.78000 352.162
66.79000 352.411
66.80000 349.333
66.81000 345.468
66.82000 341.929
66.83000 340.208
66.84000 338.767
66.85000 337.612
66.86000 338.831
66.87000 339.996
66.88000 340.234
66.89000 338.152
66.90000 335.958
66.91000 335.927
66.92000 339.595
66.93000 343.326
66.94000 345.317
66.95000 352.365
66.96000 357.153
66.97000 358.443
66.98000 357.129
66.99000 355.823
67.00000 354.809
67.01000 353.941
67.02000 353.113
67.03000 357.283
67.04000 362.753
67.05000 367.710
67.06000 368.192
67.07000 367.633
67.08000 367.445
67.09000 369.279
67.10000 371.417
67.11000 373.124
67.12000 372.515
67.13000 371.855
67.14000 372.421
67.15000 376.010
67.16000 379.738
67.17000 380.557
67.18000 376.485
67.19000 372.335
67.20000 370.142
67.21000 375.286
67.22000 378.783
67.23000 382.041
67.24000 385.124
67.25000 388.173
67.26000 390.007
67.27000 391.242
67.28000 392.419
67.29000 394.273
67.30000 396.205
67.31000 397.475
67.32000 393.116
67.33000 387.474
67.34000 382.481
67.35000 380.960
67.36000 379.951
67.37000 379.150
67.38000 390.573
67.39000 400.641
67.40000 406.248
67.41000 401.053
67.42000 395.376
67.43000 393.530
67.44000 398.012
67.45000 402.589
67.46000 404.985
67.47000 408.241
67.48000 410.437
67.49000 411.273
67.50000 411.134
67.51000 410.994
67.52000 410.807
67.53000 410.597
67.54000 410.397
67.55000 415.399
67.56000 421.627
67.57000 427.219
67.58000 427.520
67.59000 426.636
67.60000 426.314
67.61000 428.942
67.62000 431.996
67.63000 434.413
67.64000 427.219
67.65000 420.775
67.66000 418.551
67.67000 426.370
67.68000 434.621
67.69000 439.400
67.70000 438.545
67.71000 437.610
67.72000 437.126
67.73000 438.920
67.74000 440.112
67.75000 438.656
67.76000 435.335
67.77000 432.164
67.78000 433.732
67.79000 437.563
67.80000 441.202
67.81000 449.900
67.82000 459.459
67.83000 467.860
67.84000 466.833
67.85000 463.734
67.86000 461.434
67.87000 463.251
67.88000 465.650
67.89000 467.541
67.90000 461.984
67.91000 457.030
67.92000 455.885
67.93000 463.653
67.94000 471.789
67.95000 473.877
67.96000 466.322
67.97000 458.641
67.98000 454.696
67.99000 470.717
68.00000 481.450
68.01000 486.273
68.02000 487.008
68.03000 487.837
68.04000 491.507
68.05000 496.510
68.06000 501.254
68.07000 495.516
68.08000 487.125
68.09000 480.721
68.10000 490.125
68.11000 502.940
68.12000 513.230
68.13000 510.780
68.14000 506.564
68.15000 503.255
68.16000 510.004
68.17000 516.057
68.18000 520.043
68.19000 519.274
68.20000 518.315
68.21000 519.519
68.22000 524.109
68.23000 528.741
68.24000 531.097
68.25000 533.027
68.26000 534.335
68.27000 537.202
68.28000 541.129
68.29000 544.983
68.30000 546.699
68.31000 547.430
68.32000 548.122
68.33000 560.076
68.34000 574.342
68.35000 587.205
68.36000 589.140
68.37000 588.761
68.38000 589.058
68.39000 592.698
68.40000 596.791
68.41000 599.990
68.42000 615.792
68.43000 629.198
68.44000 638.471
68.45000 638.395
68.46000 637.962
68.47000 643.052
68.48000 656.641
68.49000 670.324
68.50000 677.216
68.51000 675.523
68.52000 674.504
68.53000 684.944
68.54000 703.031
68.55000 721.066
68.56000 737.624
68.57000 753.512
68.58000 768.528
68.59000 784.719
68.60000 799.923
68.61000 817.547
68.62000 853.598
68.63000 893.478
68.64000 932.651
68.65000 968.391
68.66000 1003.676
68.67000 1031.129
68.68000 1063.988
68.69000 1090.477
68.70000 1124.663
68.71000 1175.960
68.72000 1227.884
68.73000 1270.918
68.74000 1300.516
68.75000 1329.976
68.76000 1380.284
68.77000 1451.329
68.78000 1522.096
68.79000 1566.691
68.80000 1594.131
68.81000 1622.144
68.82000 1665.452
68.83000 1715.581
68.84000 1762.874
68.85000 1832.364
68.86000 1902.254
68.87000 1979.431
68.88000 2110.874
68.89000 2253.381
68.90000 2435.098
68.91000 2803.700
68.92000 3196.575
68.93000 3500.918
68.94000 4875.101
68.95000 6030.164
68.96000 7584.057
68.97000 10009.527
68.98000 12465.630
68.99000 15299.653
69.00000 18694.799
69.01000 22095.113
69.02000 25320.182
69.03000 28374.197
69.04000 31419.936
69.05000 33747.836
69.06000 35613.555
69.07000 37454.008
69.08000 38646.184
69.09000 39554.234
69.10000 40409.375
69.11000 41022.645
69.12000 41517.453
69.13000 42048.785
69.14000 42846.293
69.15000 43697.043
69.16000 44498.051
69.17000 45066.391
69.18000 45605.172
69.19000 46020.715
69.20000 44903.254
69.21000 43929.355
69.22000 42370.430
69.23000 39554.770
69.24000 36696.785
69.25000 33989.254
69.26000 31501.125
69.27000 29015.025
69.28000 26976.449
69.29000 25365.934
69.30000 23761.920
69.31000 22680.047
69.32000 21928.428
69.33000 21191.568
69.34000 20818.807
69.35000 20602.916
69.36000 20399.979
69.37000 19885.109
69.38000 19331.285
69.39000 18695.088
69.40000 17471.406
69.41000 16132.433
69.42000 14707.510
69.43000 12887.994
69.44000 11019.464
69.45000 9584.739
69.46000 7823.524
69.47000 6413.021
69.48000 5170.576
69.49000 4283.010
69.50000 3406.884
69.51000 2720.707
69.52000 2306.567
69.53000 1894.587
69.54000 1625.126
69.55000 1489.274
69.56000 1353.922
69.57000 1255.726
69.58000 1180.620
69.59000 1106.469
69.60000 1054.994
69.61000 1013.122
69.62000 973.837
69.63000 938.289
69.64000 906.880
69.65000 875.992
69.66000 848.734
69.67000 822.174
69.68000 797.618
69.69000 782.093
69.70000 767.665
69.71000 756.636
69.72000 731.709
69.73000 711.298
69.74000 692.653
69.75000 677.674
69.76000 662.808
69.77000 649.611
69.78000 638.762
69.79000 627.931
69.80000 619.752
69.81000 614.012
69.82000 608.220
69.83000 598.786
69.84000 587.130
69.85000 575.824
69.86000 572.545
69.87000 572.607
69.88000 572.665
69.89000 558.974
69.90000 542.973
69.91000 528.425
69.92000 523.807
69.93000 521.064
69.94000 517.935
69.95000 513.094
69.96000 508.051
69.97000 504.214
69.98000 497.732
69.99000 492.493
70.00000 489.421
