20.00000 466.285
20.01000 472.395
20.02000 479.379
20.03000 485.347
20.04000 487.312
20.05000 488.867
20.06000 490.016
20.07000 501.710
20.08000 511.220
20.09000 513.763
20.10000 503.561
20.11000 493.087
20.12000 485.573
20.13000 481.694
20.14000 477.832
20.15000 476.538
20.16000 477.294
20.17000 478.044
20.18000 478.592
20.19000 479.031
20.20000 479.491
20.21000 480.340
20.22000 481.331
20.23000 482.246
20.24000 486.511
20.25000 491.080
20.26000 494.241
20.27000 489.118
20.28000 482.642
20.29000 478.913
20.30000 485.821
20.31000 493.790
20.32000 499.646
20.33000 481.113
20.34000 465.786
20.35000 459.293
20.36000 468.681
20.37000 478.390
20.38000 484.267
20.39000 485.526
20.40000 486.772
20.41000 482.701
20.42000 474.502
20.43000 466.417
20.44000 463.118
20.45000 462.345
20.46000 461.981
20.47000 468.604
20.48000 477.752
20.49000 486.173
20.50000 484.665
20.51000 481.145
20.52000 478.480
20.53000 480.741
20.54000 483.790
20.55000 485.707
20.56000 483.314
20.57000 480.501
20.58000 478.445
20.59000 472.553
20.60000 467.858
20.61000 466.257
20.62000 470.125
20.63000 474.096
20.64000 479.382
20.65000 486.223
20.66000 493.051
20.67000 492.273
20.68000 485.681
20.69000 479.209
20.70000 477.510
20.71000 478.287
20.72000 478.568
20.73000 470.602
20.74000 459.710
20.75000 449.704
20.76000 457.182
20.77000 467.604
20.78000 476.467
20.79000 476.518
20.80000 475.187
20.81000 473.322
20.82000 469.465
20.83000 465.418
20.84000 462.475
20.85000 464.043
20.86000 465.420
20.87000 467.402
20.88000 470.436
20.89000 473.488
20.90000 478.628
20.91000 486.192
20.92000 493.739
20.93000 490.401
20.94000 478.917
20.95000 467.589
20.96000 462.206
20.97000 459.856
20.98000 458.083
20.99000 465.615
21.00000 476.393
21.01000 486.271
21.02000 486.440
21.03000 484.550
21.04000 482.348
21.05000 478.415
21.06000 474.216
21.07000 469.979
21.08000 465.600
21.09000 461.208
21.10000 458.031
21.11000 454.336
21.12000 451.481
21.13000 452.631
21.14000 460.613
21.15000 468.709
21.16000 473.525
21.17000 474.607
21.18000 475.682
21.19000 475.233
21.20000 473.664
21.21000 472.213
21.22000 475.015
21.23000 479.948
21.24000 484.421
21.25000 481.702
21.26000 476.517
21.27000 471.775
21.28000 475.796
21.29000 481.173
21.30000 484.786
21.31000 478.818
21.32000 471.409
21.33000 463.518
21.34000 453.893
21.35000 444.112
21.36000 437.071
21.37000 444.325
21.38000 450.383
21.39000 456.125
21.40000 461.338
21.41000 466.543
21.42000 469.880
21.43000 471.132
21.44000 472.377
21.45000 476.078
21.46000 481.522
21.47000 486.736
21.48000 484.064
21.49000 477.507
21.50000 471.350
21.51000 471.262
21.52000 473.219
21.53000 475.005
21.54000 480.275
21.55000 485.651
21.56000 489.839
21.57000 487.690
21.58000 484.608
21.59000 479.985
21.60000 469.907
21.61000 459.350
21.62000 451.790
21.63000 463.378
21.64000 472.877
21.65000 478.857
21.66000 479.041
21.67000 479.140
21.68000 479.160
21.69000 479.095
21.70000 479.030
21.71000 479.924
21.72000 481.490
21.73000 483.082
21.74000 485.532
21.75000 488.400
21.76000 490.905
21.77000 488.105
21.78000 483.547
21.79000 479.398
21.80000 482.064
21.81000 485.770
21.82000 489.449
21.83000 492.988
21.84000 496.507
21.85000 498.184
21.86000 493.446
21.87000 488.159
21.88000 484.394
21.89000 493.758
21.90000 501.319
21.91000 505.936
21.92000 505.787
21.93000 505.573
21.94000 505.852
21.95000 506.659
21.96000 507.464
21.97000 509.543
21.98000 512.487
21.99000 515.461
22.00000 519.355
22.01000 523.689
22.02000 527.531
22.03000 524.375
22.04000 518.939
22.05000 514.003
22.06000 512.141
22.07000 511.092
22.08000 510.189
22.09000 510.043
22.10000 510.002
22.11000 510.385
22.12000 512.213
22.13000 514.162
22.14000 515.543
22.15000 513.944
22.16000 512.636
22.17000 510.994
22.18000 508.819
22.19000 506.638
22.20000 501.298
22.21000 492.634
22.22000 484.012
22.23000 480.462
22.24000 480.412
22.25000 480.453
22.26000 483.239
22.27000 487.309
22.28000 490.844
22.29000 486.973
22.30000 480.733
22.31000 475.079
22.32000 475.439
22.33000 476.897
22.34000 477.184
22.35000 471.585
22.36000 465.173
22.37000 460.330
22.38000 460.759
22.39000 461.615
22.40000 462.218
22.41000 467.630
22.42000 471.877
22.43000 473.525
22.44000 471.114
22.45000 468.654
22.46000 467.260
22.47000 466.964
22.48000 466.670
22.49000 464.561
22.50000 461.266
22.51000 458.115
22.52000 459.152
22.53000 462.115
22.54000 464.779
22.55000 463.400
22.56000 460.751
22.57000 458.357
22.58000 458.147
22.59000 458.368
22.60000 457.235
22.61000 449.423
22.62000 440.707
22.63000 434.909
22.64000 438.748
22.65000 443.346
22.66000 446.568
22.67000 452.967
22.68000 457.898
22.69000 461.019
22.70000 461.365
22.71000 461.680
22.72000 456.981
22.73000 447.210
22.74000 437.496
22.75000 435.587
22.76000 438.823
22.77000 442.245
22.78000 450.782
22.79000 461.631
22.80000 471.231
22.81000 464.492
22.82000 452.704
22.83000 442.078
22.84000 446.939
22.85000 454.021
22.86000 459.556
22.87000 457.599
22.88000 454.650
22.89000 451.439
22.90000 447.372
22.91000 443.241
22.92000 440.362
22.93000 447.530
22.94000 453.214
22.95000 452.022
22.96000 440.468
22.97000 428.810
22.98000 429.532
22.99000 442.528
23.00000 455.440
23.01000 457.564
23.02000 452.711
23.03000 448.122
23.04000 450.540
23.05000 456.073
23.06000 460.977
23.07000 457.859
23.08000 452.306
23.09000 447.312
23.10000 442.484
23.11000 438.285
23.12000 435.624
23.13000 440.268
23.14000 445.859
23.15000 450.285
23.16000 451.001
23.17000 451.440
23.18000 451.745
23.19000 459.000
23.20000 464.644
23.21000 466.871
23.22000 464.042
23.23000 461.166
23.24000 458.873
23.25000 457.146
23.26000 455.432
23.27000 455.632
23.28000 457.038
23.29000 458.256
23.30000 454.682
23.31000 449.014
23.32000 443.988
23.33000 446.918
23.34000 452.222
23.35000 456.979
23.36000 453.938
23.37000 449.921
23.38000 447.110
23.39000 449.923
23.40000 453.449
23.41000 456.669
23.42000 458.936
23.43000 461.134
23.44000 462.648
23.45000 457.630
23.46000 453.699
23.47000 449.369
23.48000 444.457
23.49000 439.541
23.50000 441.441
23.51000 449.835
23.52000 458.164
23.53000 459.464
23.54000 456.385
23.55000 453.440
23.56000 453.793
23.57000 455.564
23.58000 457.503
23.59000 461.472
23.60000 466.035
23.61000 470.119
23.62000 466.769
23.63000 462.579
23.64000 460.127
23.65000 465.630
23.66000 472.118
23.67000 477.453
23.68000 479.237
23.69000 480.771
23.70000 481.822
23.71000 489.376
23.72000 495.190
23.73000 497.800
23.74000 495.838
23.75000 493.842
23.76000 495.340
23.77000 500.100
23.78000 504.821
23.79000 511.287
23.80000 518.697
23.81000 525.889
23.82000 527.951
23.83000 527.847
23.84000 527.920
23.85000 530.058
23.86000 532.792
23.87000 535.232
23.88000 543.226
23.89000 551.111
23.90000 558.320
23.91000 562.490
23.92000 566.292
23.93000 567.903
23.94000 562.881
23.95000 557.406
23.96000 553.679
23.97000 559.007
23.98000 563.194
23.99000 566.781
24.00000 569.527
24.01000 572.266
24.02000 571.618
24.03000 567.868
24.04000 564.153
24.05000 553.416
24.06000 538.699
24.07000 524.491
24.08000 521.827
24.09000 523.956
24.10000 526.593
24.11000 535.026
24.12000 545.101
24.13000 554.067
24.14000 534.515
24.15000 512.873
24.16000 495.367
24.17000 496.107
24.18000 499.003
24.19000 498.005
24.20000 485.421
24.21000 472.069
24.22000 463.032
24.23000 466.472
24.24000 469.308
24.25000 465.597
24.26000 452.876
24.27000 440.104
24.28000 434.816
24.29000 436.250
24.30000 437.670
24.31000 444.490
24.32000 454.329
24.33000 463.802
24.34000 465.249
24.35000 463.420
24.36000 461.371
24.37000 456.864
24.38000 451.674
24.39000 447.067
24.40000 442.060
24.41000 437.656
24.42000 434.598
24.43000 437.364
24.44000 440.803
24.45000 441.815
24.46000 435.732
24.47000 429.192
24.48000 424.793
24.49000 435.632
24.50000 444.004
24.51000 444.085
24.52000 432.962
24.53000 421.785
24.54000 419.653
24.55000 425.488
24.56000 431.262
24.57000 432.257
24.58000 430.484
24.59000 428.801
24.60000 429.053
24.61000 430.080
24.62000 431.073
24.63000 431.704
24.64000 432.236
24.65000 432.707
24.66000 429.986
24.67000 427.134
24.68000 424.089
24.69000 420.228
24.70000 416.274
24.71000 412.107
24.72000 407.325
24.73000 402.504
24.74000 399.281
24.75000 404.435
24.76000 408.421
24.77000 412.037
24.78000 415.164
24.79000 418.288
24.80000 420.550
24.81000 422.066
24.82000 423.566
24.83000 428.428
24.84000 435.073
24.85000 441.089
24.86000 434.300
24.87000 422.460
24.88000 412.278
24.89000 419.636
24.90000 431.700
24.91000 442.350
24.92000 440.290
24.93000 436.566
24.94000 432.679
24.95000 428.111
24.96000 423.469
24.97000 418.522
24.98000 412.712
24.99000 406.851
25.00000 402.956
25.01000 413.065
25.02000 420.801
25.03000 419.629
25.04000 406.853
25.05000 394.046
25.06000 392.137
25.07000 399.467
25.08000 406.709
25.09000 407.565
25.10000 404.865
25.11000 402.345
25.12000 403.376
25.13000 405.783
25.14000 407.845
25.15000 406.347
25.16000 403.911
25.17000 401.766
25.18000 402.660
25.19000 403.886
25.20000 403.623
25.21000 397.263
25.22000 390.247
25.23000 387.285
25.24000 395.581
25.25000 404.536
25.26000 410.450
25.27000 413.568
25.28000 415.819
25.29000 413.079
25.30000 403.959
25.31000 394.824
25.32000 390.252
25.33000 389.475
25.34000 388.708
25.35000 395.747
25.36000 406.840
25.37000 417.473
25.38000 419.368
25.39000 417.932
25.40000 416.422
25.41000 414.169
25.42000 411.723
25.43000 409.576
25.44000 409.250
25.45000 409.237
25.46000 409.158
25.47000 408.820
25.48000 408.454
25.49000 408.515
25.50000 409.743
25.51000 411.036
25.52000 411.885
25.53000 405.302
25.54000 400.334
25.55000 397.586
25.56000 397.623
25.57000 397.673
25.58000 399.203
25.59000 401.941
25.60000 404.642
25.61000 403.239
25.62000 399.686
25.63000 396.279
25.64000 395.536
25.65000 395.791
25.66000 396.279
25.67000 399.062
25.68000 402.428
25.69000 405.375
25.70000 407.260
25.71000 408.723
25.72000 408.824
25.73000 403.539
25.74000 397.701
25.75000 391.876
25.76000 386.088
25.77000 380.301
25.78000 376.528
25.79000 381.707
25.80000 385.648
25.81000 391.764
25.82000 400.561
25.83000 409.348
25.84000 412.105
25.85000 410.031
25.86000 407.988
25.87000 408.630
25.88000 410.657
25.89000 412.428
25.90000 409.637
25.91000 405.166
25.92000 400.979
25.93000 399.516
25.94000 398.733
25.95000 398.049
25.96000 399.365
25.97000 400.771
25.98000 400.089
25.99000 391.301
26.00000 381.700
26.01000 377.125
26.02000 385.801
26.03000 395.180
26.04000 401.256
26.05000 395.350
26.06000 390.850
26.07000 388.351
26.08000 388.272
26.09000 388.193
26.10000 386.610
26.11000 383.843
26.12000 381.118
26.13000 382.734
26.14000 386.528
26.15000 390.410
26.16000 395.785
26.17000 401.700
26.18000 406.490
26.19000 400.749
26.20000 392.425
26.21000 385.180
26.22000 391.137
26.23000 398.031
26.24000 403.191
26.25000 401.738
26.26000 399.639
26.27000 398.125
26.28000 398.128
26.29000 398.209
26.30000 398.262
26.31000 399.634
26.32000 400.654
26.33000 400.329
26.34000 398.411
26.35000 396.492
26.36000 395.348
26.37000 394.799
26.38000 394.260
26.39000 396.041
26.40000 398.935
26.41000 401.601
26.42000 400.468
26.43000 397.984
26.44000 396.167
26.45000 400.441
26.46000 406.182
26.47000 411.163
26.48000 396.343
26.49000 381.065
26.50000 371.816
26.51000 385.152
26.52000 400.638
26.53000 411.639
26.54000 411.210
26.55000 410.215
26.56000 409.579
26.57000 401.016
26.58000 394.678
26.59000 389.817
26.60000 386.676
26.61000 383.542
26.62000 381.473
26.63000 380.211
26.64000 378.970
26.65000 378.288
26.66000 377.906
26.67000 378.062
26.68000 386.930
26.69000 398.846
26.70000 409.564
26.71000 409.600
26.72000 407.111
26.73000 404.957
26.74000 394.688
26.75000 384.896
26.76000 378.267
26.77000 383.277
26.78000 389.368
26.79000 392.349
26.80000 387.536
26.81000 382.350
26.82000 379.057
26.83000 386.933
26.84000 392.789
26.85000 396.021
26.86000 396.260
26.87000 396.476
26.88000 392.964
26.89000 386.678
26.90000 380.505
26.91000 377.125
26.92000 375.217
26.93000 373.752
26.94000 379.224
26.95000 387.081
26.96000 394.253
26.97000 395.458
26.98000 395.276
26.99000 395.120
27.00000 393.012
27.01000 390.974
27.02000 389.267
27.03000 388.756
27.04000 388.352
27.05000 388.198
27.06000 388.657
27.07000 389.144
27.08000 389.451
27.09000 390.895
27.10000 391.953
27.11000 389.467
27.12000 383.013
27.13000 376.572
27.14000 372.872
27.15000 371.172
27.16000 369.505
27.17000 364.180
27.18000 357.307
27.19000 350.991
27.20000 353.164
27.21000 358.203
27.22000 363.140
27.23000 367.195
27.24000 371.051
27.25000 374.365
27.26000 377.679
27.27000 380.483
27.28000 381.537
27.29000 376.370
27.30000 370.656
27.31000 366.542
27.32000 366.304
27.33000 366.238
27.34000 366.197
27.35000 378.378
27.36000 387.306
27.37000 392.749
27.38000 394.364
27.39000 395.929
27.40000 390.203
27.41000 379.248
27.42000 368.512
27.43000 367.611
27.44000 371.340
27.45000 374.790
27.46000 374.138
27.47000 372.124
27.48000 370.240
27.49000 369.433
27.50000 368.868
27.51000 368.384
27.52000 374.851
27.53000 381.161
27.54000 384.506
27.55000 377.505
27.56000 369.615
27.57000 364.602
27.58000 366.434
27.59000 368.559
27.60000 369.881
27.61000 370.678
27.62000 371.247
27.63000 373.421
27.64000 377.324
27.65000 381.161
27.66000 376.152
27.67000 364.913
27.68000 353.910
27.69000 355.873
27.70000 363.704
27.71000 371.261
27.72000 374.887
27.73000 377.231
27.74000 379.931
27.75000 385.538
27.76000 391.783
27.77000 397.119
27.78000 397.510
27.79000 397.249
27.80000 393.338
27.81000 376.914
27.82000 359.444
27.83000 349.901
27.84000 358.901
27.85000 368.667
27.86000 374.697
27.87000 382.200
27.88000 387.602
27.89000 384.121
27.90000 371.260
27.91000 358.468
27.92000 354.379
27.93000 356.309
27.94000 358.195
27.95000 364.999
27.96000 373.738
27.97000 382.002
27.98000 383.659
27.99000 383.197
28.00000 382.436
28.01000 379.293
28.02000 375.637
28.03000 372.523
28.04000 369.650
28.05000 367.263
28.06000 365.230
28.07000 364.391
28.08000 363.650
28.09000 365.235
28.10000 372.171
28.11000 379.319
28.12000 383.702
28.13000 371.499
28.14000 362.617
28.15000 358.165
28.16000 358.299
28.17000 358.487
28.18000 364.732
28.19000 375.090
28.20000 385.210
28.21000 388.851
28.22000 389.476
28.23000 389.360
28.24000 379.223
28.25000 365.927
28.26000 354.436
28.27000 356.988
28.28000 362.512
28.29000 367.201
28.30000 381.519
28.31000 394.626
28.32000 401.421
28.33000 387.321
28.34000 371.567
28.35000 361.277
28.36000 363.340
28.37000 365.875
28.38000 367.417
28.39000 375.339
28.40000 381.047
28.41000 384.096
28.42000 384.447
28.43000 384.728
28.44000 377.840
28.45000 366.172
28.46000 354.785
28.47000 351.587
28.48000 352.080
28.49000 352.878
28.50000 357.686
28.51000 363.735
28.52000 369.636
28.53000 374.405
28.54000 378.938
28.55000 382.774
28.56000 382.147
28.57000 381.127
28.58000 378.558
28.59000 370.950
28.60000 362.955
28.61000 358.208
28.62000 360.678
28.63000 363.413
28.64000 365.066
28.65000 365.847
28.66000 366.397
28.67000 366.940
28.68000 367.476
28.69000 368.018
28.70000 369.187
28.71000 370.766
28.72000 372.305
28.73000 372.869
28.74000 372.993
28.75000 373.088
28.76000 372.810
28.77000 372.417
28.78000 372.399
28.79000 375.161
28.80000 378.490
28.81000 381.298
28.82000 379.383
28.83000 377.271
28.84000 374.498
28.85000 369.612
28.86000 364.568
28.87000 358.977
28.88000 352.194
28.89000 345.368
28.90000 341.275
28.91000 345.291
28.92000 348.197
28.93000 352.873
28.94000 359.274
28.95000 365.629
28.96000 367.972
28.97000 367.731
28.98000 367.497
28.99000 368.175
29.00000 369.202
29.01000 369.961
29.02000 367.397
29.03000 363.838
29.04000 361.543
29.05000 368.449
29.06000 377.194
29.07000 384.544
29.08000 373.446
29.09000 362.245
29.10000 352.405
29.11000 346.843
29.12000 341.591
29.13000 339.124
29.14000 342.634
29.15000 346.345
29.16000 348.554
29.17000 354.087
29.18000 358.026
29.19000 362.690
29.20000 368.046
29.21000 373.284
29.22000 369.032
29.23000 358.780
29.24000 348.811
29.25000 348.745
29.26000 352.740
29.27000 355.944
29.28000 349.585
29.29000 340.416
29.30000 333.464
29.31000 342.318
29.32000 354.274
29.33000 364.288
29.34000 361.057
29.35000 357.004
29.36000 355.560
29.37000 362.170
29.38000 369.350
29.39000 374.237
29.40000 374.283
29.41000 374.174
29.42000 374.109
29.43000 372.595
29.44000 371.517
29.45000 367.936
29.46000 362.010
29.47000 356.151
29.48000 355.251
29.49000 357.432
29.50000 359.551
29.51000 361.914
29.52000 364.258
29.53000 366.558
29.54000 368.354
29.55000 370.004
29.56000 371.626
29.57000 373.063
29.58000 374.463
29.59000 375.632
29.60000 362.370
29.61000 349.915
29.62000 340.967
29.63000 342.661
29.64000 345.085
29.65000 348.114
29.66000 352.398
29.67000 356.721
29.68000 359.254
29.69000 360.365
29.70000 361.140
29.71000 362.440
29.72000 364.220
29.73000 366.054
29.74000 371.637
29.75000 379.507
29.76000 387.140
29.77000 387.338
29.78000 384.592
29.79000 381.800
29.80000 378.482
29.81000 375.014
29.82000 372.326
29.83000 374.960
29.84000 378.599
29.85000 381.625
29.86000 378.181
29.87000 374.693
29.88000 373.718
29.89000 380.232
29.90000 387.246
29.91000 389.934
29.92000 383.797
29.93000 377.401
29.94000 373.682
29.95000 388.307
29.96000 398.651
29.97000 397.569
29.98000 386.196
29.99000 374.985
30.00000 374.276
30.01000 379.866
30.02000 385.281
30.03000 386.627
30.04000 386.325
30.05000 385.820
30.06000 383.035
30.07000 379.614
30.08000 376.880
30.09000 378.733
30.10000 381.435
30.11000 383.675
30.12000 389.271
30.13000 394.214
30.14000 396.772
30.15000 392.340
30.16000 387.457
30.17000 383.028
30.18000 379.510
30.19000 376.019
30.20000 374.004
30.21000 378.982
30.22000 382.495
30.23000 385.070
30.24000 386.817
30.25000 388.417
30.26000 381.042
30.27000 368.380
30.28000 356.130
30.29000 359.328
30.30000 368.216
30.31000 376.235
30.32000 374.785
30.33000 370.741
30.34000 367.849
30.35000 372.502
30.36000 378.525
30.37000 383.499
30.38000 379.216
30.39000 374.822
30.40000 371.885
30.41000 373.147
30.42000 374.673
30.43000 375.243
30.44000 373.933
30.45000 372.573
30.46000 371.795
30.47000 368.406
30.48000 366.031
30.49000 364.457
30.50000 363.576
30.51000 362.769
30.52000 366.115
30.53000 371.867
30.54000 377.424
30.55000 383.062
30.56000 388.407
30.57000 392.929
30.58000 388.711
30.59000 382.141
30.60000 376.427
30.61000 376.201
30.62000 376.952
30.63000 377.571
30.64000 379.244
30.65000 380.715
30.66000 379.871
30.67000 372.468
30.68000 364.666
30.69000 361.590
30.70000 367.668
30.71000 373.978
30.72000 377.559
30.73000 385.073
30.74000 390.312
30.75000 393.133
30.76000 393.898
30.77000 394.680
30.78000 396.382
30.79000 398.608
30.80000 400.756
30.81000 410.380
30.82000 422.173
30.83000 432.456
30.84000 427.100
30.85000 417.611
30.86000 411.507
30.87000 426.679
30.88000 445.563
30.89000 461.047
30.90000 458.334
30.91000 454.495
30.92000 451.772
30.93000 452.156
30.94000 452.722
30.95000 456.534
30.96000 466.523
30.97000 476.662
30.98000 482.367
30.99000 490.717
31.00000 496.521
31.01000 502.786
31.02000 509.435
31.03000 516.138
31.04000 525.576
31.05000 536.544
31.06000 547.112
31.07000 560.331
31.08000 573.703
31.09000 587.400
31.10000 604.377
31.11000 622.205
31.12000 639.658
31.13000 654.801
31.14000 669.549
31.15000 681.597
31.16000 711.440
31.17000 737.404
31.18000 761.017
31.19000 778.199
31.20000 795.014
31.21000 822.368
31.22000 869.439
31.23000 916.961
31.24000 943.480
31.25000 939.156
31.26000 936.116
31.27000 942.017
31.28000 955.237
31.29000 968.453
31.30000 981.481
31.31000 994.406
31.32000 1006.841
31.33000 1005.415
31.34000 999.195
31.35000 993.560
31.36000 993.690
31.37000 995.290
31.38000 995.639
31.39000 988.435
31.40000 979.965
31.41000 973.072
31.42000 959.351
31.43000 947.571
31.44000 935.114
31.45000 920.835
31.46000 906.456
31.47000 888.753
31.48000 864.938
31.49000 840.991
31.50000 827.741
31.51000 795.429
31.52000 773.105
31.53000 753.633
31.54000 736.453
31.55000 719.189
31.56000 698.177
31.57000 675.142
31.58000 653.011
31.59000 635.871
31.60000 621.550
31.61000 607.159
31.62000 592.091
31.63000 576.853
31.64000 561.728
31.65000 547.271
31.66000 532.923
31.67000 521.291
31.68000 505.687
31.69000 492.648
31.70000 481.017
31.71000 473.108
31.72000 465.398
31.73000 458.246
31.74000 452.101
31.75000 445.976
31.76000 442.616
31.77000 436.184
31.78000 431.753
31.79000 427.238
31.80000 422.657
31.81000 418.255
31.82000 421.492
31.83000 428.783
31.84000 435.777
31.85000 425.109
31.86000 409.153
31.87000 394.135
31.88000 387.916
31.89000 383.861
31.90000 381.118
31.91000 385.987
31.92000 392.080
31.93000 397.001
31.94000 392.653
31.95000 388.379
31.96000 382.546
31.97000 372.662
31.98000 362.570
31.99000 357.366
32.00000 360.846
32.01000 364.493
32.02000 366.476
32.03000 374.977
32.04000 380.795
32.05000 381.516
32.06000 378.292
32.07000 375.036
32.08000 370.468
32.09000 365.217
32.10000 360.186
32.11000 358.909
32.12000 358.966
32.13000 358.628
32.14000 354.662
32.15000 349.821
32.16000 346.261
32.17000 349.988
32.18000 354.864
32.19000 358.787
32.20000 362.254
32.21000 365.030
32.22000 368.324
32.23000 372.939
32.24000 377.621
32.25000 375.850
32.26000 362.822
32.27000 349.588
32.28000 342.456
32.29000 345.293
32.30000 347.235
32.31000 347.614
32.32000 346.804
32.33000 345.896
32.34000 341.205
32.35000 334.576
32.36000 328.235
32.37000 330.874
32.38000 336.261
32.39000 341.643
32.40000 346.982
32.41000 352.311
32.42000 355.484
32.43000 346.638
32.44000 335.935
32.45000 327.359
32.46000 334.196
32.47000 340.892
32.48000 345.224
32.49000 343.619
32.50000 341.729
32.51000 336.309
32.52000 324.836
32.53000 313.260
32.54000 307.078
32.55000 319.468
32.56000 327.899
32.57000 330.739
32.58000 329.411
32.59000 328.191
32.60000 330.970
32.61000 335.762
32.62000 340.339
32.63000 339.270
32.64000 336.470
32.65000 333.471
32.66000 328.732
32.67000 323.588
32.68000 319.345
32.69000 320.026
32.70000 321.452
32.71000 322.590
32.72000 326.280
32.73000 329.446
32.74000 330.372
32.75000 325.767
32.76000 320.905
32.77000 319.354
32.78000 323.383
32.79000 327.502
32.80000 329.681
32.81000 326.189
32.82000 323.843
32.83000 326.561
32.84000 332.987
32.85000 339.285
32.86000 341.093
32.87000 340.677
32.88000 340.280
32.89000 334.731
32.90000 327.967
32.91000 321.999
32.92000 322.838
32.93000 325.232
32.94000 327.043
32.95000 325.724
32.96000 323.941
32.97000 322.524
32.98000 316.741
32.99000 311.771
33.00000 310.341
33.01000 317.504
33.02000 325.052
33.03000 328.410
33.04000 324.832
33.05000 321.151
33.06000 319.220
33.07000 314.976
33.08000 312.119
33.09000 312.084
33.10000 314.076
33.11000 315.914
33.12000 312.579
33.13000 306.727
33.14000 301.156
33.15000 302.421
33.16000 305.697
33.17000 308.606
33.18000 308.438
33.19000 307.581
33.20000 307.634
33.21000 312.472
33.22000 318.004
33.23000 322.384
33.24000 316.762
33.25000 311.550
33.26000 306.721
33.27000 302.804
33.28000 298.926
33.29000 299.420
33.30000 307.025
33.31000 314.729
33.32000 318.730
33.33000 307.499
33.34000 299.952
33.35000 297.962
33.36000 299.895
33.37000 301.760
33.38000 301.481
33.39000 300.177
33.40000 298.938
33.41000 301.108
33.42000 304.144
33.43000 306.608
33.44000 304.401
33.45000 301.166
33.46000 299.573
33.47000 306.444
33.48000 314.518
33.49000 320.884
33.50000 321.063
33.51000 320.790
33.52000 319.401
33.53000 315.396
33.54000 311.282
33.55000 308.301
33.56000 307.133
33.57000 305.989
33.58000 305.400
33.59000 302.570
33.60000 300.674
33.61000 299.942
33.62000 300.018
33.63000 300.093
33.64000 300.109
33.65000 300.099
33.66000 300.089
33.67000 300.185
33.68000 300.305
33.69000 300.104
33.70000 297.336
33.71000 294.012
33.72000 291.677
33.73000 294.339
33.74000 297.696
33.75000 300.331
33.76000 307.220
33.77000 313.010
33.78000 315.643
33.79000 311.001
33.80000 306.067
33.81000 303.747
33.82000 305.529
33.83000 307.360
33.84000 308.293
33.85000 308.002
33.86000 307.788
33.87000 305.490
33.88000 301.772
33.89000 298.457
33.90000 306.914
33.91000 320.813
33.92000 333.975
33.93000 332.387
33.94000 326.637
33.95000 320.859
33.96000 314.874
33.97000 308.843
33.98000 304.394
33.99000 307.789
34.00000 312.250
34.01000 315.738
34.02000 314.051
34.03000 312.375
34.04000 311.300
34.05000 311.585
34.06000 311.921
34.07000 311.310
34.08000 309.238
34.09000 307.149
34.10000 306.096
34.11000 310.424
34.12000 313.308
34.13000 315.135
34.14000 316.255
34.15000 317.450
34.16000 320.734
34.17000 324.966
34.18000 328.968
34.19000 327.207
34.20000 323.945
34.21000 321.183
34.22000 322.236
34.23000 324.083
34.24000 326.224
34.25000 329.793
34.26000 333.551
34.27000 336.477
34.28000 331.961
34.29000 327.907
34.30000 326.316
34.31000 330.213
34.32000 334.312
34.33000 336.542
34.34000 335.941
34.35000 335.310
34.36000 335.243
34.37000 335.740
34.38000 336.209
34.39000 334.064
34.40000 330.202
34.41000 326.468
34.42000 326.172
34.43000 327.412
34.44000 328.583
34.45000 331.322
34.46000 334.273
34.47000 336.334
34.48000 331.744
34.49000 325.795
34.50000 320.523
34.51000 318.483
34.52000 316.863
34.53000 315.608
34.54000 312.364
34.55000 309.668
34.56000 307.570
34.57000 306.784
34.58000 306.044
34.59000 304.360
34.60000 301.270
34.61000 298.168
34.62000 297.244
34.63000 298.449
34.64000 299.633
34.65000 298.925
34.66000 296.997
34.67000 295.236
34.68000 297.811
34.69000 302.291
34.70000 306.510
34.71000 299.954
34.72000 290.999
34.73000 283.667
34.74000 288.199
34.75000 295.110
34.76000 300.458
34.77000 298.481
34.78000 295.570
34.79000 293.324
34.80000 290.154
34.81000 287.588
34.82000 285.512
34.83000 284.493
34.84000 283.510
34.85000 284.588
34.86000 288.677
34.87000 292.793
34.88000 290.262
34.89000 281.364
34.90000 272.575
34.91000 272.625
34.92000 278.277
34.93000 283.751
34.94000 284.815
34.95000 283.975
34.96000 283.185
34.97000 281.344
34.98000 279.381
34.99000 277.142
35.00000 272.934
35.01000 268.339
35.02000 265.476
35.03000 270.578
35.04000 276.672
35.05000 281.354
35.06000 278.943
35.07000 276.638
35.08000 274.656
35.09000 273.358
35.10000 272.082
35.11000 268.986
35.12000 263.278
35.13000 257.551
35.14000 260.303
35.15000 271.016
35.16000 281.661
35.17000 287.129
35.18000 289.373
35.19000 291.347
35.20000 286.855
35.21000 279.619
35.22000 272.829
35.23000 269.527
35.24000 267.437
35.25000 265.704
35.26000 266.464
35.27000 267.704
35.28000 268.552
35.29000 267.624
35.30000 266.479
35.31000 265.603
35.32000 265.812
35.33000 266.035
35.34000 266.122
35.35000 265.924
35.36000 265.717
35.37000 268.070
35.38000 274.031
35.39000 280.016
35.40000 281.849
35.41000 279.859
35.42000 277.855
35.43000 274.950
35.44000 271.492
35.45000 267.963
35.46000 262.794
35.47000 256.939
35.48000 251.456
35.49000 255.777
35.50000 262.244
35.51000 268.086
35.52000 269.634
35.53000 270.370
35.54000 271.524
35.55000 274.532
35.56000 277.761
35.57000 280.219
35.58000 272.094
35.59000 265.142
35.60000 259.830
35.61000 257.872
35.62000 256.014
35.63000 256.049
35.64000 258.705
35.65000 261.377
35.66000 264.568
35.67000 268.225
35.68000 271.859
35.69000 274.060
35.70000 275.400
35.71000 276.746
35.72000 278.239
35.73000 279.793
35.74000 281.246
35.75000 278.113
35.76000 274.105
35.77000 270.044
35.78000 265.628
35.79000 261.146
35.80000 257.173
35.81000 255.413
35.82000 253.910
35.83000 252.771
35.84000 258.401
35.85000 263.167
35.86000 264.012
35.87000 256.975
35.88000 249.716
35.89000 247.345
35.90000 251.615
35.91000 255.921
35.92000 259.154
35.93000 261.431
35.94000 263.650
35.95000 262.295
35.96000 258.828
35.97000 255.744
35.98000 260.810
35.99000 269.163
36.00000 276.957
36.01000 273.326
36.02000 267.193
36.03000 261.917
36.04000 262.272
36.05000 263.651
36.06000 265.795
36.07000 271.206
36.08000 276.989
36.09000 281.350
36.10000 271.139
36.11000 262.422
36.12000 256.585
36.13000 256.441
36.14000 256.450
36.15000 258.043
36.16000 261.750
36.17000 265.464
36.18000 264.475
36.19000 259.406
36.20000 254.382
36.21000 251.895
36.22000 250.880
36.23000 249.967
36.24000 251.155
36.25000 253.176
36.26000 255.058
36.27000 251.249
36.28000 246.417
36.29000 242.772
36.30000 246.773
36.31000 252.138
36.32000 256.377
36.33000 255.890
36.34000 254.878
36.35000 254.118
36.36000 256.469
36.37000 258.453
36.38000 258.797
36.39000 255.953
36.40000 253.027
36.41000 250.667
36.42000 249.049
36.43000 247.436
36.44000 250.626
36.45000 257.894
36.46000 264.998
36.47000 263.274
36.48000 256.514
36.49000 250.105
36.50000 250.663
36.51000 253.936
36.52000 256.978
36.53000 258.570
36.54000 259.659
36.55000 260.607
36.56000 260.654
36.57000 260.545
36.58000 260.450
36.59000 260.414
36.60000 260.385
36.61000 260.363
36.62000 258.240
36.63000 256.487
36.64000 257.364
36.65000 263.259
36.66000 269.276
36.67000 273.167
36.68000 274.326
36.69000 275.473
36.70000 274.355
36.71000 271.351
36.72000 268.410
36.73000 268.624
36.74000 270.606
36.75000 272.300
36.76000 268.434
36.77000 262.438
36.78000 256.878
36.79000 260.788
36.80000 266.529
36.81000 270.802
36.82000 266.005
36.83000 259.652
36.84000 255.603
36.85000 260.873
36.86000 267.130
36.87000 271.783
36.88000 266.792
36.89000 262.481
36.90000 260.098
36.91000 261.331
36.92000 262.648
36.93000 266.871
36.94000 274.759
36.95000 282.650
36.96000 283.839
36.97000 279.543
36.98000 275.319
36.99000 274.501
37.00000 275.560
37.01000 276.296
37.02000 271.056
37.03000 263.565
37.04000 256.632
37.05000 259.545
37.06000 264.426
37.07000 268.659
37.08000 268.974
37.09000 268.630
37.10000 268.206
37.11000 267.465
37.12000 266.691
37.13000 266.118
37.14000 261.485
37.15000 257.715
37.16000 254.626
37.17000 252.793
37.18000 250.987
37.19000 250.155
37.20000 250.530
37.21000 250.908
37.22000 251.809
37.23000 253.127
37.24000 254.458
37.25000 256.383
37.26000 258.630
37.27000 260.628
37.28000 258.164
37.29000 254.049
37.30000 250.249
37.31000 249.760
37.32000 250.067
37.33000 250.629
37.34000 252.702
37.35000 255.024
37.36000 256.387
37.37000 254.005
37.38000 251.244
37.39000 249.212
37.40000 251.117
37.41000 252.755
37.42000 255.073
37.43000 258.623
37.44000 262.199
37.45000 262.934
37.46000 260.218
37.47000 257.499
37.48000 256.565
37.49000 257.040
37.50000 257.560
37.51000 260.067
37.52000 263.630
37.53000 266.672
37.54000 260.649
37.55000 251.328
37.56000 242.738
37.57000 246.651
37.58000 252.913
37.59000 258.150
37.60000 257.426
37.61000 255.740
37.62000 254.194
37.63000 253.180
37.64000 252.220
37.65000 251.516
37.66000 251.054
37.67000 250.707
37.68000 249.109
37.69000 245.284
37.70000 241.415
37.71000 243.804
37.72000 253.656
37.73000 263.500
37.74000 265.333
37.75000 260.972
37.76000 256.594
37.77000 251.466
37.78000 245.945
37.79000 240.899
37.80000 243.825
37.81000 249.603
37.82000 254.915
37.83000 252.520
37.84000 248.713
37.85000 246.123
37.86000 250.473
37.87000 255.920
37.88000 259.741
37.89000 257.436
37.90000 254.544
37.91000 252.436
37.92000 246.356
37.93000 241.519
37.94000 243.419
37.95000 257.105
37.96000 271.008
37.97000 272.482
37.98000 259.411
37.99000 246.351
38.00000 242.414
38.01000 245.405
38.02000 248.414
38.03000 252.132
38.04000 256.215
38.05000 259.844
38.06000 256.074
38.07000 249.704
38.08000 243.860
38.09000 258.756
38.10000 276.430
38.11000 289.619
38.12000 277.737
38.13000 261.968
38.14000 250.556
38.15000 255.255
38.16000 261.461
38.17000 265.961
38.18000 268.510
38.19000 270.396
38.20000 272.235
38.21000 273.994
38.22000 275.751
38.23000 278.573
38.24000 282.618
38.25000 286.653
38.26000 288.851
38.27000 289.671
38.28000 290.590
38.29000 295.174
38.30000 301.609
38.31000 307.655
38.32000 307.551
38.33000 305.322
38.34000 303.282
38.35000 311.558
38.36000 321.063
38.37000 330.431
38.38000 339.048
38.39000 347.552
38.40000 354.740
38.41000 357.145
38.42000 359.115
38.43000 360.536
38.44000 383.390
38.45000 401.677
38.46000 416.841
38.47000 426.730
38.48000 436.534
38.49000 449.541
38.50000 466.156
38.51000 482.718
38.52000 502.411
38.53000 524.225
38.54000 545.959
38.55000 564.893
38.56000 582.436
38.57000 599.962
38.58000 617.216
38.59000 634.377
38.60000 650.051
38.61000 670.918
38.62000 690.499
38.63000 707.012
38.64000 707.031
38.65000 704.598
38.66000 704.833
38.67000 714.593
38.68000 725.199
38.69000 732.811
38.70000 725.399
38.71000 719.215
38.72000 710.384
38.73000 697.164
38.74000 683.876
38.75000 666.560
38.76000 644.795
38.77000 623.108
38.78000 604.297
38.79000 587.710
38.80000 571.103
38.81000 553.792
38.82000 536.139
38.83000 518.562
38.84000 502.124
38.85000 486.065
38.86000 471.433
38.87000 458.919
38.88000 448.255
38.89000 436.525
38.90000 419.177
38.91000 401.011
38.92000 382.898
38.93000 364.975
38.94000 347.068
38.95000 334.284
38.96000 326.448
38.97000 320.634
38.98000 316.356
38.99000 314.584
39.00000 312.848
39.01000 306.514
39.02000 295.201
39.03000 283.933
39.04000 278.376
39.05000 276.876
39.06000 275.229
39.07000 268.863
39.08000 260.234
39.09000 252.204
39.10000 252.832
39.11000 256.300
39.12000 259.453
39.13000 262.321
39.14000 264.801
39.15000 266.585
39.16000 264.774
39.17000 262.449
39.18000 259.649
39.19000 255.210
39.20000 250.632
39.21000 247.382
39.22000 248.111
39.23000 248.793
39.24000 248.239
39.25000 245.706
39.26000 243.146
39.27000 243.910
39.28000 248.203
39.29000 252.477
39.30000 253.386
39.31000 251.971
39.32000 250.659
39.33000 252.520
39.34000 255.877
39.35000 258.925
39.36000 257.657
39.37000 254.997
39.38000 252.585
39.39000 250.767
39.40000 249.277
39.41000 248.075
39.42000 248.337
39.43000 248.803
39.44000 249.796
39.45000 252.573
39.46000 255.496
39.47000 257.561
39.48000 253.964
39.49000 251.061
39.50000 246.820
39.51000 240.473
39.52000 234.101
39.53000 234.062
39.54000 240.616
39.55000 247.138
39.56000 248.015
39.57000 245.074
39.58000 242.071
39.59000 237.234
39.60000 231.547
39.61000 226.331
39.62000 227.535
39.63000 230.774
39.64000 233.705
39.65000 235.123
39.66000 236.088
39.67000 236.492
39.68000 234.102
39.69000 231.330
39.70000 229.598
39.71000 231.323
39.72000 233.323
39.73000 234.729
39.74000 233.009
39.75000 231.616
39.76000 231.496
39.77000 233.347
39.78000 235.219
39.79000 237.099
39.80000 238.987
39.81000 240.864
39.82000 240.576
39.83000 238.859
39.84000 237.208
39.85000 237.424
39.86000 238.490
39.87000 239.470
39.88000 239.316
39.89000 238.809
39.90000 238.352
39.91000 237.446
39.92000 236.569
39.93000 236.257
39.94000 238.709
39.95000 241.530
39.96000 242.392
39.97000 236.845
39.98000 230.801
39.99000 226.579
40.00000 226.235
40.01000 226.083
40.02000 228.883
40.03000 236.168
40.04000 243.499
40.05000 243.242
40.06000 235.397
40.07000 227.600
40.08000 227.719
40.09000 232.975
40.10000 238.159
40.11000 241.412
40.12000 243.801
40.13000 245.369
40.14000 236.372
40.15000 224.143
40.16000 213.133
40.17000 218.337
40.18000 225.812
40.19000 232.247
40.20000 233.697
40.21000 234.497
40.22000 234.003
40.23000 229.351
40.24000 224.385
40.25000 220.936
40.26000 224.304
40.27000 227.025
40.28000 228.654
40.29000 228.655
40.30000 228.640
40.31000 226.872
40.32000 223.384
40.33000 219.919
40.34000 219.845
40.35000 221.930
40.36000 223.932
40.37000 223.741
40.38000 222.585
40.39000 221.148
40.40000 216.175
40.41000 210.139
40.42000 204.720
40.43000 207.576
40.44000 211.531
40.45000 214.156
40.46000 210.532
40.47000 206.109
40.48000 204.462
40.49000 211.579
40.50000 219.339
40.51000 224.697
40.52000 220.945
40.53000 217.892
40.54000 214.947
40.55000 212.161
40.56000 209.376
40.57000 211.176
40.58000 217.382
40.59000 223.541
40.60000 222.102
40.61000 215.936
40.62000 210.148
40.63000 213.752
40.64000 221.423
40.65000 228.783
40.66000 232.353
40.67000 234.803
40.68000 236.997
40.69000 231.060
40.70000 224.477
40.71000 218.181
40.72000 213.212
40.73000 208.410
40.74000 206.048
40.75000 211.258
40.76000 217.007
40.77000 220.955
40.78000 215.576
40.79000 211.315
40.80000 207.815
40.81000 205.409
40.82000 203.012
40.83000 201.552
40.84000 200.974
40.85000 200.401
40.86000 202.558
40.87000 206.351
40.88000 210.115
40.89000 213.171
40.90000 215.927
40.91000 218.200
40.92000 214.740
40.93000 209.615
40.94000 205.037
40.95000 202.756
40.96000 201.155
40.97000 201.151
40.98000 208.377
40.99000 216.485
41.00000 222.233
41.01000 220.782
41.02000 218.832
41.03000 217.501
41.04000 220.476
41.05000 222.801
41.06000 222.177
41.07000 217.385
41.08000 212.566
41.09000 214.397
41.10000 222.369
41.11000 230.273
41.12000 232.891
41.13000 232.279
41.14000 231.355
41.15000 223.246
41.16000 212.131
41.17000 201.821
41.18000 200.827
41.19000 202.490
41.20000 203.972
41.21000 210.409
41.22000 216.824
41.23000 221.312
41.24000 217.237
41.25000 212.139
41.26000 209.173
41.27000 212.594
41.28000 216.444
41.29000 219.057
41.30000 210.938
41.31000 204.644
41.32000 204.224
41.33000 211.957
41.34000 219.739
41.35000 220.927
41.36000 216.143
41.37000 211.403
41.38000 210.858
41.39000 212.801
41.40000 214.648
41.41000 214.374
41.42000 213.228
41.43000 212.067
41.44000 210.753
41.45000 209.395
41.46000 208.188
41.47000 213.063
41.48000 218.273
41.49000 222.033
41.50000 219.463
41.51000 216.154
41.52000 213.698
41.53000 213.757
41.54000 213.980
41.55000 214.131
41.56000 217.180
41.57000 219.510
41.58000 222.671
41.59000 226.964
41.60000 231.258
41.61000 228.947
41.62000 220.768
41.63000 212.671
41.64000 213.596
41.65000 219.727
41.66000 225.502
41.67000 223.625
41.68000 218.654
41.69000 214.191
41.70000 215.288
41.71000 217.916
41.72000 220.245
41.73000 213.864
41.74000 206.963
41.75000 202.537
41.76000 208.711
41.77000 216.095
41.78000 220.620
41.79000 216.868
41.80000 212.593
41.81000 209.726
41.82000 215.237
41.83000 219.495
41.84000 222.392
41.85000 223.469
41.86000 224.534
41.87000 222.870
41.88000 218.829
41.89000 214.831
41.90000 212.246
41.91000 210.523
41.92000 209.097
41.93000 213.813
41.94000 220.969
41.95000 227.193
41.96000 223.442
41.97000 216.992
41.98000 211.292
41.99000 214.666
42.00000 218.984
42.01000 222.140
42.02000 220.412
42.03000 218.140
42.04000 218.073
42.05000 224.280
42.06000 230.872
42.07000 235.264
42.08000 226.145
42.09000 219.136
42.10000 215.990
42.11000 217.917
42.12000 219.865
42.13000 221.314
42.14000 222.334
42.15000 223.343
42.16000 220.470
42.17000 215.500
42.18000 210.959
42.19000 214.954
42.20000 222.284
42.21000 228.731
42.22000 225.978
42.23000 220.781
42.24000 216.200
42.25000 219.238
42.26000 223.008
42.27000 226.324
42.28000 227.759
42.29000 228.989
42.30000 230.938
42.31000 234.898
42.32000 238.977
42.33000 241.679
42.34000 238.540
42.35000 236.117
42.36000 232.153
42.37000 226.201
42.38000 220.249
42.39000 218.311
42.40000 219.741
42.41000 221.154
42.42000 220.061
42.43000 217.623
42.44000 215.334
42.45000 215.893
42.46000 217.546
42.47000 219.196
42.48000 220.816
42.49000 222.428
42.50000 223.845
42.51000 224.208
42.52000 224.364
42.53000 223.862
42.54000 220.693
42.55000 217.241
42.56000 215.545
42.57000 218.683
42.58000 222.098
42.59000 224.346
42.60000 227.052
42.61000 229.053
42.62000 227.735
42.63000 222.217
42.64000 216.686
42.65000 211.492
42.66000 206.576
42.67000 201.724
42.68000 204.032
42.69000 210.126
42.70000 215.848
42.71000 214.647
42.72000 210.833
42.73000 207.370
42.74000 207.390
42.75000 208.304
42.76000 209.104
42.77000 208.569
42.78000 207.916
42.79000 208.619
42.80000 214.727
42.81000 221.395
42.82000 225.858
42.83000 224.362
42.84000 222.534
42.85000 221.339
42.86000 214.532
42.87000 209.441
42.88000 205.265
42.89000 202.225
42.90000 199.201
42.91000 200.456
42.92000 205.168
42.93000 209.813
42.94000 210.537
42.95000 209.173
42.96000 207.737
42.97000 205.026
42.98000 201.841
42.99000 199.392
43.00000 204.059
43.01000 210.517
43.02000 216.161
43.03000 208.245
43.04000 199.547
43.05000 194.035
43.06000 200.995
43.07000 209.216
43.08000 214.601
43.09000 212.452
43.10000 209.897
43.11000 208.237
43.12000 207.490
43.13000 206.957
43.14000 205.388
43.15000 202.556
43.16000 199.733
43.17000 200.644
43.18000 204.515
43.19000 208.328
43.20000 207.443
43.21000 204.154
43.22000 201.047
43.23000 201.115
43.24000 202.342
43.25000 203.199
43.26000 200.558
43.27000 197.053
43.28000 193.998
43.29000 199.029
43.30000 204.446
43.31000 208.254
43.32000 205.875
43.33000 202.884
43.34000 200.453
43.35000 199.481
43.36000 198.585
43.37000 198.007
43.38000 192.360
43.39000 188.161
43.40000 188.913
43.41000 195.586
43.42000 202.247
43.43000 202.642
43.44000 198.162
43.45000 193.753
43.46000 192.187
43.47000 192.116
43.48000 191.810
43.49000 187.563
43.50000 181.902
43.51000 177.568
43.52000 185.471
43.53000 196.345
43.54000 205.793
43.55000 206.822
43.56000 206.561
43.57000 205.481
43.58000 201.313
43.59000 196.848
43.60000 192.237
43.61000 187.251
43.62000 182.246
43.63000 179.037
43.64000 185.968
43.65000 191.157
43.66000 194.796
43.67000 196.616
43.68000 198.443
43.69000 202.345
43.70000 207.831
43.71000 213.226
43.72000 212.803
43.73000 209.492
43.74000 206.257
43.75000 204.247
43.76000 202.668
43.77000 200.995
43.78000 198.473
43.79000 195.748
43.80000 193.388
43.81000 191.344
43.82000 189.647
43.83000 188.564
43.84000 189.761
43.85000 191.171
43.86000 193.083
43.87000 196.260
43.88000 199.498
43.89000 201.560
43.90000 201.364
43.91000 201.193
43.92000 198.900
43.93000 194.165
43.94000 189.447
43.95000 188.925
43.96000 191.547
43.97000 194.124
43.98000 196.835
43.99000 199.518
44.00000 201.943
44.01000 200.263
44.02000 197.161
44.03000 194.153
44.04000 191.979
44.05000 189.999
44.06000 188.290
44.07000 191.372
44.08000 194.608
44.09000 197.392
44.10000 198.529
44.11000 199.514
44.12000 201.003
44.13000 203.741
44.14000 206.537
44.15000 208.306
44.16000 204.707
44.17000 202.034
44.18000 199.873
44.19000 198.289
44.20000 196.719
44.21000 197.561
44.22000 200.177
44.23000 202.745
44.24000 201.701
44.25000 198.959
44.26000 196.211
44.27000 193.347
44.28000 190.444
44.29000 188.720
44.30000 197.137
44.31000 207.885
44.32000 217.139
44.33000 210.362
44.34000 202.597
44.35000 196.570
44.36000 196.769
44.37000 197.523
44.38000 197.670
44.39000 196.337
44.40000 194.937
44.41000 194.058
44.42000 201.127
44.43000 206.326
44.44000 207.967
44.45000 205.668
44.46000 203.392
44.47000 205.223
44.48000 210.023
44.49000 214.729
44.50000 217.709
44.51000 219.765
44.52000 221.638
44.53000 220.765
44.54000 218.973
44.55000 217.366
44.56000 217.307
44.57000 217.597
44.58000 217.846
44.59000 220.646
44.60000 223.328
44.61000 224.894
44.62000 222.537
44.63000 219.840
44.64000 217.655
44.65000 216.697
44.66000 215.794
44.67000 215.230
44.68000 216.163
44.69000 216.851
44.70000 219.301
44.71000 223.666
44.72000 228.025
44.73000 231.365
44.74000 233.982
44.75000 236.545
44.76000 236.950
44.77000 236.341
44.78000 235.807
44.79000 236.373
44.80000 237.301
44.81000 238.237
44.82000 239.246
44.83000 240.271
44.84000 241.148
44.85000 238.678
44.86000 236.192
44.87000 232.165
44.88000 222.816
44.89000 213.017
44.90000 210.644
44.91000 225.775
44.92000 241.641
44.93000 251.469
44.94000 248.634
44.95000 246.474
44.96000 245.192
44.97000 244.845
44.98000 244.510
44.99000 245.855
45.00000 248.369
45.01000 250.829
45.02000 247.392
45.03000 241.416
45.04000 235.530
45.05000 230.897
45.06000 226.670
45.07000 223.305
45.08000 226.867
45.09000 231.935
45.10000 236.258
45.11000 238.729
45.12000 240.590
45.13000 241.478
45.14000 239.059
45.15000 236.368
45.16000 233.236
45.17000 229.083
45.18000 224.889
45.19000 222.309
45.20000 222.458
45.21000 222.589
45.22000 222.622
45.23000 222.553
45.24000 222.486
45.25000 222.589
45.26000 222.809
45.27000 223.025
45.28000 223.641
45.29000 224.411
45.30000 225.105
45.31000 224.766
45.32000 224.098
45.33000 223.222
45.34000 220.720
45.35000 217.871
45.36000 215.448
45.37000 215.357
45.38000 215.549
45.39000 215.149
45.40000 212.777
45.41000 210.246
45.42000 207.813
45.43000 205.604
45.44000 203.404
45.45000 202.061
45.46000 200.473
45.47000 199.335
45.48000 200.895
45.49000 205.217
45.50000 209.522
45.51000 212.103
45.52000 213.526
45.53000 214.916
45.54000 208.427
45.55000 198.777
45.56000 189.795
45.57000 189.709
45.58000 192.400
45.59000 194.563
45.60000 192.665
45.61000 189.917
45.62000 187.588
45.63000 191.295
45.64000 195.078
45.65000 198.442
45.66000 200.435
45.67000 202.320
45.68000 200.628
45.69000 190.928
45.70000 180.929
45.71000 174.868
45.72000 183.065
45.73000 189.018
45.74000 192.600
45.75000 193.803
45.76000 194.996
45.77000 195.260
45.78000 194.910
45.79000 194.569
45.80000 190.413
45.81000 184.809
45.82000 179.753
45.83000 181.803
45.84000 186.033
45.85000 189.338
45.86000 185.688
45.87000 180.608
45.88000 176.318
45.89000 174.215
45.90000 172.697
45.91000 172.511
45.92000 176.615
45.93000 181.043
45.94000 184.014
45.95000 183.778
45.96000 183.427
45.97000 183.215
45.98000 186.950
45.99000 189.633
46.00000 192.209
46.01000 194.681
46.02000 197.110
46.03000 195.780
46.04000 192.012
46.05000 188.340
46.06000 184.089
46.07000 179.790
46.08000 175.861
46.09000 176.570
46.10000 178.678
46.11000 180.498
46.12000 180.209
46.13000 179.495
46.14000 178.893
46.15000 177.756
46.16000 176.750
46.17000 176.443
46.18000 178.351
46.19000 180.422
46.20000 180.716
46.21000 177.166
46.22000 173.484
46.23000 171.286
46.24000 174.802
46.25000 177.332
46.26000 180.105
46.27000 183.111
46.28000 186.052
46.29000 183.557
46.30000 177.598
46.31000 171.801
46.32000 171.920
46.33000 174.478
46.34000 177.133
46.35000 180.968
46.36000 185.152
46.37000 188.828
46.38000 188.852
46.39000 188.152
46.40000 187.566
46.41000 184.682
46.42000 182.043
46.43000 179.937
46.44000 179.495
46.45000 179.171
46.46000 180.274
46.47000 184.412
46.48000 188.650
46.49000 191.161
46.50000 192.197
46.51000 192.920
46.52000 190.131
46.53000 184.023
46.54000 178.017
46.55000 179.883
46.56000 186.675
46.57000 193.276
46.58000 188.536
46.59000 179.436
46.60000 170.842
46.61000 168.275
46.62000 167.462
46.63000 166.930
46.64000 168.376
46.65000 170.206
46.66000 171.735
46.67000 167.252
46.68000 162.917
46.69000 161.159
46.70000 167.280
46.71000 173.950
46.72000 179.048
46.73000 180.860
46.74000 182.569
46.75000 183.574
46.76000 177.726
46.77000 173.566
46.78000 170.620
46.79000 168.799
46.80000 167.028
46.81000 168.863
46.82000 172.915
46.83000 176.848
46.84000 175.447
46.85000 171.998
46.86000 169.000
46.87000 171.240
46.88000 174.979
46.89000 178.428
46.90000 179.886
46.91000 180.964
46.92000 181.863
46.93000 181.452
46.94000 180.982
46.95000 180.318
46.96000 179.076
46.97000 177.794
46.98000 176.878
46.99000 176.716
47.00000 176.576
47.01000 176.495
47.02000 172.530
47.03000 169.724
47.04000 167.998
47.05000 167.253
47.06000 166.544
47.07000 168.221
47.08000 171.341
47.09000 174.364
47.10000 174.387
47.11000 173.238
47.12000 172.265
47.13000 173.290
47.14000 174.876
47.15000 175.803
47.16000 172.279
47.17000 167.923
47.18000 164.307
47.19000 165.360
47.20000 166.683
47.21000 167.680
47.22000 167.715
47.23000 167.687
47.24000 166.906
47.25000 164.606
47.26000 162.261
47.27000 160.904
47.28000 165.095
47.29000 168.053
47.30000 166.967
47.31000 162.278
47.32000 157.673
47.33000 158.388
47.34000 162.262
47.35000 166.011
47.36000 167.835
47.37000 168.820
47.38000 169.516
47.39000 167.022
47.40000 163.647
47.41000 160.960
47.42000 162.822
47.43000 165.516
47.44000 167.746
47.45000 169.633
47.46000 171.157
47.47000 171.093
47.48000 166.417
47.49000 161.447
47.50000 159.234
47.51000 162.494
47.52000 165.903
47.53000 167.860
47.54000 173.649
47.55000 177.701
47.56000 173.317
47.57000 161.562
47.58000 150.033
47.59000 151.715
47.60000 161.105
47.61000 170.183
47.62000 171.246
47.63000 169.237
47.64000 167.494
47.65000 168.615
47.66000 170.512
47.67000 171.482
47.68000 166.443
47.69000 160.326
47.70000 155.284
47.71000 158.077
47.72000 161.096
47.73000 162.725
47.74000 160.387
47.75000 157.804
47.76000 157.574
47.77000 161.937
47.78000 166.419
47.79000 168.972
47.80000 165.793
47.81000 163.560
47.82000 162.324
47.83000 161.943
47.84000 161.574
47.85000 161.928
47.86000 162.697
47.87000 163.439
47.88000 165.330
47.89000 167.534
47.90000 169.519
47.91000 169.205
47.92000 168.278
47.93000 167.668
47.94000 169.069
47.95000 170.824
47.96000 172.265
47.97000 171.519
47.98000 170.710
47.99000 169.620
48.00000 167.743
48.01000 165.819
48.02000 164.590
48.03000 164.695
48.04000 164.832
48.05000 164.909
48.06000 162.681
48.07000 161.127
48.08000 160.298
48.09000 160.079
48.10000 159.855
48.11000 159.356
48.12000 158.702
48.13000 158.072
48.14000 160.322
48.15000 163.481
48.16000 166.531
48.17000 168.472
48.18000 170.123
48.19000 172.120
48.20000 176.265
48.21000 180.780
48.22000 184.474
48.23000 173.780
48.24000 163.762
48.25000 155.562
48.26000 152.377
48.27000 149.482
48.28000 150.068
48.29000 157.215
48.30000 164.517
48.31000 168.606
48.32000 163.155
48.33000 159.366
48.34000 160.773
48.35000 166.468
48.36000 172.053
48.37000 172.268
48.38000 169.509
48.39000 166.853
48.40000 167.296
48.41000 168.813
48.42000 169.656
48.43000 163.791
48.44000 156.203
48.45000 149.753
48.46000 150.230
48.47000 151.878
48.48000 153.222
48.49000 156.336
48.50000 159.033
48.51000 159.722
48.52000 154.975
48.53000 149.924
48.54000 148.025
48.55000 151.969
48.56000 156.042
48.57000 158.304
48.58000 158.326
48.59000 158.335
48.60000 157.949
48.61000 157.244
48.62000 156.604
48.63000 159.024
48.64000 163.108
48.65000 167.033
48.66000 163.867
48.67000 158.429
48.68000 153.771
48.69000 156.681
48.70000 161.501
48.71000 165.704
48.72000 166.227
48.73000 166.140
48.74000 166.069
48.75000 163.695
48.76000 161.568
48.77000 159.258
48.78000 156.457
48.79000 153.630
48.80000 154.157
48.81000 160.790
48.82000 167.551
48.83000 171.274
48.84000 170.300
48.85000 169.610
48.86000 165.754
48.87000 159.380
48.88000 153.155
48.89000 153.459
48.90000 157.254
48.91000 160.898
48.92000 157.995
48.93000 153.044
48.94000 148.465
48.95000 147.422
48.96000 147.255
48.97000 148.065
48.98000 154.585
48.99000 162.033
49.00000 168.058
49.01000 164.249
49.02000 160.357
49.03000 158.306
49.04000 161.079
49.05000 164.105
49.06000 164.584
49.07000 160.509
49.08000 156.343
49.09000 154.069
49.10000 155.742
49.11000 156.902
49.12000 159.726
49.13000 163.849
49.14000 167.846
49.15000 166.655
49.16000 162.737
49.17000 158.981
49.18000 157.743
49.19000 157.431
49.20000 157.234
49.21000 158.091
49.22000 159.204
49.23000 159.972
49.24000 158.755
49.25000 157.222
49.26000 155.987
49.27000 153.497
49.28000 151.377
49.29000 151.287
49.30000 156.424
49.31000 161.825
49.32000 162.976
49.33000 156.653
49.34000 150.191
49.35000 146.694
49.36000 147.248
49.37000 147.644
49.38000 150.960
49.39000 156.512
49.40000 161.984
49.41000 164.289
49.42000 164.960
49.43000 165.601
49.44000 164.567
49.45000 163.052
49.46000 161.401
49.47000 158.515
49.48000 155.333
49.49000 153.388
49.50000 158.396
49.51000 164.488
49.52000 169.378
49.53000 162.308
49.54000 155.669
49.55000 152.044
49.56000 156.048
49.57000 160.425
49.58000 162.093
49.59000 159.079
49.60000 155.983
49.61000 154.323
49.62000 154.453
49.63000 154.538
49.64000 153.371
49.65000 151.263
49.66000 149.312
49.67000 153.245
49.68000 160.165
49.69000 166.778
49.70000 165.303
49.71000 161.321
49.72000 157.980
49.73000 160.295
49.74000 163.938
49.75000 166.589
49.76000 163.769
49.77000 160.113
49.78000 157.191
49.79000 155.196
49.80000 153.653
49.81000 153.684
49.82000 157.631
49.83000 161.763
49.84000 162.791
49.85000 158.548
49.86000 154.217
49.87000 151.917
49.88000 151.973
49.89000 152.015
49.90000 152.549
49.91000 153.445
49.92000 154.394
49.93000 157.261
49.94000 161.083
49.95000 164.731
49.96000 162.717
49.97000 159.055
49.98000 155.779
49.99000 155.835
50.00000 156.658
50.01000 157.120
50.02000 155.628
50.03000 153.844
50.04000 152.424
50.05000 149.509
50.06000 147.051
50.07000 146.322
50.08000 149.821
50.09000 153.512
50.10000 156.358
50.11000 157.792
50.12000 159.205
50.13000 159.949
50.14000 164.267
50.15000 167.181
50.16000 167.348
50.17000 165.524
50.18000 163.745
50.19000 163.503
50.20000 164.015
50.21000 164.502
50.22000 161.434
50.23000 157.487
50.24000 153.857
50.25000 152.901
50.26000 152.550
50.27000 152.486
50.28000 153.940
50.29000 155.617
50.30000 156.947
50.31000 159.486
50.32000 161.614
50.33000 163.749
50.34000 165.899
50.35000 168.050
50.36000 168.058
50.37000 164.555
50.38000 161.001
50.39000 159.148
50.40000 161.215
50.41000 162.613
50.42000 163.859
50.43000 164.995
50.44000 166.134
50.45000 167.346
50.46000 168.593
50.47000 169.779
50.48000 169.911
50.49000 169.713
50.50000 169.317
50.51000 167.293
50.52000 164.907
50.53000 163.889
50.54000 169.978
50.55000 177.087
50.56000 182.702
50.57000 176.823
50.58000 171.321
50.59000 166.874
50.60000 164.920
50.61000 163.071
50.62000 164.110
50.63000 169.799
50.64000 175.552
50.65000 178.523
50.66000 173.446
50.67000 170.027
50.68000 167.106
50.69000 164.532
50.70000 162.018
50.71000 161.363
50.72000 161.588
50.73000 161.802
50.74000 162.704
50.75000 163.744
50.76000 165.020
50.77000 168.202
50.78000 171.800
50.79000 174.623
50.80000 173.490
50.81000 171.803
50.82000 170.475
50.83000 167.587
50.84000 165.171
50.85000 162.537
50.86000 159.393
50.87000 156.229
50.88000 154.799
50.89000 156.110
50.90000 157.456
50.91000 158.144
50.92000 159.806
50.93000 160.933
50.94000 163.232
50.95000 166.337
50.96000 169.206
50.97000 165.052
50.98000 157.626
50.99000 150.589
51.00000 146.605
51.01000 143.831
51.02000 141.495
51.03000 142.608
51.04000 144.458
51.05000 146.403
51.06000 148.822
51.07000 151.306
51.08000 153.252
51.09000 154.084
51.10000 154.677
51.11000 156.800
51.12000 162.414
51.13000 168.165
51.14000 170.247
51.15000 166.627
51.16000 162.941
51.17000 161.074
51.18000 157.901
51.19000 155.786
51.20000 154.585
51.21000 154.002
51.22000 153.419
51.23000 152.830
51.24000 152.238
51.25000 151.679
51.26000 151.825
51.27000 152.162
51.28000 152.340
51.29000 151.299
51.30000 150.002
51.31000 149.143
51.32000 150.430
51.33000 152.005
51.34000 153.234
51.35000 152.972
51.36000 152.671
51.37000 152.708
51.38000 153.506
51.39000 154.332
51.40000 154.495
51.41000 153.644
51.42000 152.783
51.43000 152.351
51.44000 150.355
51.45000 149.047
51.46000 150.173
51.47000 152.910
51.48000 155.467
51.49000 153.095
51.50000 148.505
51.51000 144.170
51.52000 144.169
51.53000 145.392
51.54000 146.795
51.55000 149.550
51.56000 152.585
51.57000 153.788
51.58000 146.167
51.59000 137.385
51.60000 130.566
51.61000 136.627
51.62000 142.226
51.63000 146.774
51.64000 149.003
51.65000 151.149
51.66000 150.526
51.67000 145.750
51.68000 140.933
51.69000 137.635
51.70000 135.834
51.71000 134.048
51.72000 133.657
51.73000 134.174
51.74000 134.778
51.75000 137.693
51.76000 141.630
51.77000 145.341
51.78000 141.423
51.79000 135.723
51.80000 131.200
51.81000 135.360
51.82000 141.276
51.83000 146.306
51.84000 147.151
51.85000 147.458
51.86000 147.695
51.87000 146.423
51.88000 145.326
51.89000 143.745
51.90000 141.115
51.91000 138.449
51.92000 138.094
51.93000 141.144
51.94000 144.224
51.95000 144.989
51.96000 143.516
51.97000 142.048
51.98000 140.987
51.99000 140.186
52.00000 139.398
52.01000 138.928
52.02000 138.597
52.03000 138.286
52.04000 140.965
52.05000 144.226
52.06000 147.290
52.07000 148.927
52.08000 150.282
52.09000 150.910
52.10000 148.163
52.11000 144.993
52.12000 142.552
52.13000 145.622
52.14000 148.366
52.15000 149.658
52.16000 147.856
52.17000 145.952
52.18000 144.316
52.19000 143.068
52.20000 141.824
52.21000 140.833
52.22000 140.082
52.23000 139.308
52.24000 136.705
52.25000 132.954
52.26000 129.627
52.27000 136.579
52.28000 147.927
52.29000 158.586
52.30000 156.006
52.31000 150.128
52.32000 144.679
52.33000 142.256
52.34000 140.422
52.35000 138.813
52.36000 138.231
52.37000 137.775
52.38000 137.425
52.39000 140.866
52.40000 143.793
52.41000 146.245
52.42000 147.702
52.43000 149.128
52.44000 149.627
52.45000 148.811
52.46000 147.985
52.47000 146.937
52.48000 145.685
52.49000 144.430
52.50000 143.012
52.51000 141.493
52.52000 140.118
52.53000 142.117
52.54000 145.535
52.55000 148.739
52.56000 147.258
52.57000 144.686
52.58000 142.459
52.59000 142.609
52.60000 143.212
52.61000 143.576
52.62000 142.866
52.63000 142.028
52.64000 141.389
52.65000 140.036
52.66000 138.933
52.67000 138.182
52.68000 138.159
52.69000 138.158
52.70000 138.435
52.71000 139.102
52.72000 139.771
52.73000 139.999
52.74000 139.826
52.75000 139.662
52.76000 140.060
52.77000 140.799
52.78000 141.543
52.79000 142.401
52.80000 143.305
52.81000 144.151
52.82000 144.354
52.83000 144.373
52.84000 144.137
52.85000 142.173
52.86000 139.885
52.87000 138.380
52.88000 140.306
52.89000 142.635
52.90000 144.404
52.91000 149.169
52.92000 153.069
52.93000 154.585
52.94000 151.271
52.95000 147.819
52.96000 146.665
52.97000 148.662
52.98000 150.676
52.99000 149.152
53.00000 144.472
53.01000 139.845
53.02000 138.612
53.03000 139.399
53.04000 140.146
53.05000 140.025
53.06000 139.552
53.07000 139.109
53.08000 139.171
53.09000 139.354
53.10000 139.150
53.11000 136.385
53.12000 133.149
53.13000 130.709
53.14000 131.697
53.15000 133.079
53.16000 134.123
53.17000 139.534
53.18000 143.995
53.19000 146.744
53.20000 146.088
53.21000 145.338
53.22000 144.841
53.23000 144.686
53.24000 144.534
53.25000 144.723
53.26000 145.212
53.27000 145.711
53.28000 146.850
53.29000 148.363
53.30000 149.703
53.31000 147.447
53.32000 143.756
53.33000 140.315
53.34000 141.974
53.35000 144.730
53.36000 147.007
53.37000 146.173
53.38000 144.778
53.39000 143.349
53.40000 141.772
53.41000 140.178
53.42000 138.980
53.43000 142.654
53.44000 145.765
53.45000 147.603
53.46000 146.951
53.47000 146.235
53.48000 144.579
53.49000 141.682
53.50000 138.782
53.51000 138.213
53.52000 139.646
53.53000 141.025
53.54000 139.435
53.55000 136.137
53.56000 133.235
53.57000 138.320
53.58000 146.540
53.59000 154.185
53.60000 151.039
53.61000 145.595
53.62000 141.174
53.63000 143.263
53.64000 146.501
53.65000 149.472
53.66000 151.328
53.67000 153.061
53.68000 154.360
53.69000 147.954
53.70000 142.594
53.71000 139.322
53.72000 140.064
53.73000 140.906
53.74000 142.663
53.75000 145.606
53.76000 148.551
53.77000 148.542
53.78000 146.047
53.79000 143.584
53.80000 142.836
53.81000 143.055
53.82000 143.262
53.83000 143.234
53.84000 143.114
53.85000 143.003
53.86000 142.126
53.87000 141.155
53.88000 140.295
53.89000 140.124
53.90000 140.074
53.91000 139.628
53.92000 137.572
53.93000 135.343
53.94000 133.682
53.95000 132.489
53.96000 131.581
53.97000 133.347
53.98000 140.165
53.99000 147.101
54.00000 151.204
54.01000 151.699
54.02000 152.181
54.03000 150.069
54.04000 145.824
54.05000 141.655
54.06000 141.265
54.07000 142.971
54.08000 144.557
54.09000 143.873
54.10000 142.328
54.11000 140.896
54.12000 140.592
54.13000 140.581
54.14000 140.254
54.15000 138.001
54.16000 135.423
54.17000 133.815
54.18000 136.100
54.19000 138.792
54.20000 140.788
54.21000 135.626
54.22000 131.304
54.23000 129.466
54.24000 132.241
54.25000 135.118
54.26000 137.179
54.27000 138.218
54.28000 139.253
54.29000 140.176
54.30000 141.005
54.31000 141.853
54.32000 143.593
54.33000 145.820
54.34000 147.974
54.35000 148.795
54.36000 149.120
54.37000 149.420
54.38000 148.357
54.39000 147.093
54.40000 146.248
54.41000 147.913
54.42000 149.995
54.43000 151.321
54.44000 149.672
54.45000 147.720
54.46000 146.279
54.47000 142.221
54.48000 138.966
54.49000 137.166
54.50000 138.024
54.51000 138.938
54.52000 137.716
54.53000 133.878
54.54000 130.039
54.55000 130.042
54.56000 133.093
54.57000 136.150
54.58000 139.498
54.59000 143.002
54.60000 146.293
54.61000 145.849
54.62000 144.036
54.63000 142.364
54.64000 139.213
54.65000 136.061
54.66000 133.969
54.67000 138.100
54.68000 143.244
54.69000 147.206
54.70000 146.599
54.71000 145.537
54.72000 144.757
54.73000 143.785
54.74000 143.025
54.75000 143.424
54.76000 145.900
54.77000 148.417
54.78000 147.268
54.79000 141.710
54.80000 136.153
54.81000 135.783
54.82000 139.451
54.83000 143.022
54.84000 142.540
54.85000 139.922
54.86000 137.475
54.87000 137.938
54.88000 139.451
54.89000 140.843
54.90000 142.036
54.91000 143.059
54.92000 144.243
54.93000 146.343
54.94000 148.591
54.95000 150.217
54.96000 149.488
54.97000 148.531
54.98000 147.832
54.99000 152.408
55.00000 156.143
55.01000 157.889
55.02000 156.128
55.03000 154.301
55.04000 152.818
55.05000 151.742
55.06000 150.669
55.07000 148.585
55.08000 145.743
55.09000 143.035
55.10000 145.623
55.11000 150.953
55.12000 155.890
55.13000 154.314
55.14000 150.432
55.15000 146.867
55.16000 147.072
55.17000 148.060
55.18000 149.491
55.19000 153.413
55.20000 157.725
55.21000 161.600
55.22000 163.849
55.23000 165.944
55.24000 167.467
55.25000 160.278
55.26000 154.419
55.27000 152.973
55.28000 159.174
55.29000 165.511
55.30000 167.159
55.31000 163.380
55.32000 159.603
55.33000 158.930
55.34000 160.585
55.35000 162.274
55.36000 165.258
55.37000 168.901
55.38000 172.597
55.39000 177.160
55.40000 182.023
55.41000 186.480
55.42000 188.118
55.43000 188.987
55.44000 189.882
55.45000 190.926
55.46000 191.993
55.47000 193.969
55.48000 199.276
55.49000 204.889
55.50000 208.949
55.51000 201.517
55.52000 195.396
55.53000 193.737
55.54000 199.674
55.55000 205.738
55.56000 208.921
55.57000 208.833
55.58000 208.741
55.59000 211.664
55.60000 216.778
55.61000 221.905
55.62000 227.468
55.63000 233.251
55.64000 239.111
55.65000 246.173
55.66000 253.647
55.67000 260.480
55.68000 260.440
55.69000 258.993
55.70000 258.550
55.71000 263.545
55.72000 269.356
55.73000 274.880
55.74000 279.371
55.75000 283.769
55.76000 286.932
55.77000 292.781
55.78000 297.353
55.79000 302.156
55.80000 307.344
55.81000 312.539
55.82000 313.186
55.83000 308.768
55.84000 304.362
55.85000 306.445
55.86000 313.183
55.87000 319.932
55.88000 327.017
55.89000 334.268
55.90000 341.089
55.91000 341.435
55.92000 339.603
55.93000 337.932
55.94000 338.281
55.95000 338.996
55.96000 338.403
55.97000 330.860
55.98000 322.296
55.99000 314.703
56.00000 310.546
56.01000 306.689
56.02000 303.930
56.03000 305.366
56.04000 306.605
56.05000 300.886
56.06000 283.733
56.07000 266.414
56.08000 259.214
56.09000 263.068
56.10000 266.911
56.11000 268.595
56.12000 268.735
56.13000 268.730
56.14000 263.952
56.15000 256.868
56.16000 250.103
56.17000 248.012
56.18000 247.466
56.19000 246.968
56.20000 239.773
56.21000 232.085
56.22000 225.226
56.23000 222.681
56.24000 220.757
56.25000 217.511
56.26000 209.675
56.27000 201.447
56.28000 195.590
56.29000 202.078
56.30000 207.420
56.31000 207.683
56.32000 199.745
56.33000 191.696
56.34000 185.384
56.35000 180.932
56.36000 176.500
56.37000 173.869
56.38000 172.514
56.39000 171.050
56.40000 166.171
56.41000 159.670
56.42000 153.990
56.43000 159.977
56.44000 169.755
56.45000 178.631
56.46000 172.921
56.47000 165.064
56.48000 158.285
56.49000 157.021
56.50000 156.534
56.51000 156.309
56.52000 156.978
56.53000 157.721
56.54000 158.247
56.55000 163.060
56.56000 166.850
56.57000 166.474
56.58000 159.490
56.59000 152.422
56.60000 147.349
56.61000 144.371
56.62000 141.408
56.63000 140.069
56.64000 139.850
56.65000 139.694
56.66000 141.414
56.67000 144.011
56.68000 146.234
56.69000 143.282
56.70000 138.678
56.71000 134.509
56.72000 135.872
56.73000 138.120
56.74000 139.899
56.75000 139.323
56.76000 138.423
56.77000 138.248
56.78000 140.507
56.79000 142.963
56.80000 144.693
56.81000 144.871
56.82000 144.960
56.83000 144.553
56.84000 143.375
56.85000 142.187
56.86000 140.728
56.87000 138.990
56.88000 137.261
56.89000 136.364
56.90000 136.034
56.91000 135.708
56.92000 135.504
56.93000 135.357
56.94000 135.399
56.95000 137.988
56.96000 141.376
56.97000 144.437
56.98000 142.315
56.99000 139.489
57.00000 136.434
57.01000 132.254
57.02000 127.922
57.03000 124.608
57.04000 124.649
57.05000 124.954
57.06000 125.167
57.07000 129.279
57.08000 132.500
57.09000 133.787
57.10000 132.115
57.11000 130.411
57.12000 129.090
57.13000 128.153
57.14000 127.222
57.15000 129.511
57.16000 133.875
57.17000 138.037
57.18000 136.621
57.19000 132.687
57.20000 129.176
57.21000 131.188
57.22000 134.901
57.23000 138.248
57.24000 135.315
57.25000 131.602
57.26000 128.342
57.27000 127.269
57.28000 126.484
57.29000 126.405
57.30000 128.615
57.31000 131.000
57.32000 132.660
57.33000 128.162
57.34000 124.601
57.35000 123.617
57.36000 126.509
57.37000 129.440
57.38000 129.896
57.39000 127.906
57.40000 125.928
57.41000 123.745
57.42000 121.462
57.43000 119.320
57.44000 120.889
57.45000 124.104
57.46000 127.195
57.47000 128.713
57.48000 129.755
57.49000 130.692
57.50000 127.750
57.51000 124.486
57.52000 121.412
57.53000 119.242
57.54000 117.187
57.55000 116.853
57.56000 121.993
57.57000 127.539
57.58000 131.379
57.59000 132.964
57.60000 134.098
57.61000 135.074
57.62000 135.816
57.63000 136.556
57.64000 137.144
57.65000 137.582
57.66000 138.018
57.67000 133.956
57.68000 127.125
57.69000 120.542
57.70000 120.254
57.71000 122.713
57.72000 124.941
57.73000 124.330
57.74000 122.873
57.75000 121.567
57.76000 130.031
57.77000 139.126
57.78000 145.517
57.79000 139.327
57.80000 131.549
57.81000 126.404
57.82000 129.492
57.83000 133.174
57.84000 135.709
57.85000 130.367
57.86000 126.162
57.87000 123.684
57.88000 123.711
57.89000 123.758
57.90000 123.984
57.91000 124.379
57.92000 124.771
57.93000 125.486
57.94000 126.387
57.95000 127.222
57.96000 126.426
57.97000 124.929
57.98000 123.357
57.99000 120.884
58.00000 118.146
58.01000 115.698
58.02000 118.203
58.03000 121.231
58.04000 124.228
58.05000 127.084
58.06000 129.922
58.07000 131.433
58.08000 128.862
58.09000 126.004
58.10000 124.049
58.11000 125.957
58.12000 127.478
58.13000 128.339
58.14000 128.261
58.15000 128.176
58.16000 126.970
58.17000 124.720
58.18000 122.490
58.19000 123.824
58.20000 127.297
58.21000 130.540
58.22000 128.390
58.23000 123.967
58.24000 120.054
58.25000 122.101
58.26000 125.860
58.27000 129.214
58.28000 123.268
58.29000 116.545
58.30000 111.649
58.31000 114.939
58.32000 119.216
58.33000 122.012
58.34000 120.336
58.35000 118.356
58.36000 117.008
58.37000 116.578
58.38000 116.278
58.39000 117.346
58.40000 120.328
58.41000 123.322
58.42000 122.952
58.43000 119.507
58.44000 116.093
58.45000 115.057
58.46000 115.458
58.47000 115.752
58.48000 113.609
58.49000 110.457
58.50000 108.084
58.51000 114.576
58.52000 123.572
58.53000 131.576
58.54000 126.033
58.55000 119.012
58.56000 113.671
58.57000 115.726
58.58000 118.652
58.59000 121.277
58.60000 123.008
58.61000 124.679
58.62000 125.810
58.63000 124.336
58.64000 123.183
58.65000 122.719
58.66000 123.202
58.67000 123.692
58.68000 125.040
58.69000 127.157
58.70000 129.254
58.71000 126.625
58.72000 121.292
58.73000 116.103
58.74000 114.089
58.75000 113.368
58.76000 112.977
58.77000 116.261
58.78000 120.565
58.79000 124.384
58.80000 119.117
58.81000 113.104
58.82000 109.177
58.83000 114.260
58.84000 120.382
58.85000 123.997
58.86000 120.302
58.87000 116.138
58.88000 113.339
58.89000 114.204
58.90000 114.921
58.91000 116.294
58.92000 118.549
58.93000 120.809
58.94000 123.597
58.95000 126.850
58.96000 130.068
58.97000 129.855
58.98000 127.679
58.99000 125.647
59.00000 126.655
59.01000 128.879
59.02000 130.560
59.03000 126.354
59.04000 120.544
59.05000 115.402
59.06000 117.570
59.07000 120.584
59.08000 123.822
59.09000 128.007
59.10000 132.298
59.11000 135.488
59.12000 135.518
59.13000 135.352
59.14000 135.241
59.15000 129.470
59.16000 125.082
59.17000 121.984
59.18000 120.595
59.19000 119.216
59.20000 120.096
59.21000 122.921
59.22000 125.714
59.23000 124.254
59.24000 120.436
59.25000 116.869
59.26000 118.424
59.27000 121.995
59.28000 125.188
59.29000 124.394
59.30000 122.533
59.31000 120.890
59.32000 123.146
59.33000 125.688
59.34000 127.011
59.35000 123.264
59.36000 118.959
59.37000 116.827
59.38000 120.821
59.39000 125.183
59.40000 128.080
59.41000 125.508
59.42000 123.505
59.43000 124.637
59.44000 129.844
59.45000 135.057
59.46000 134.381
59.47000 128.722
59.48000 123.132
59.49000 120.156
59.50000 118.698
59.51000 117.325
59.52000 117.631
59.53000 118.585
59.54000 119.540
59.55000 120.500
59.56000 121.462
59.57000 122.308
59.58000 120.161
59.59000 117.866
59.60000 116.306
59.61000 117.752
59.62000 119.521
59.63000 120.544
59.64000 119.504
59.65000 118.342
59.66000 117.576
59.67000 120.344
59.68000 122.448
59.69000 122.478
59.70000 119.862
59.71000 117.242
59.72000 116.610
59.73000 117.629
59.74000 118.634
59.75000 120.573
59.76000 122.966
59.77000 125.212
59.78000 124.660
59.79000 123.045
59.80000 121.684
59.81000 122.876
59.82000 124.727
59.83000 126.351
59.84000 124.084
59.85000 121.568
59.86000 119.349
59.87000 118.324
59.88000 117.424
59.89000 116.700
59.90000 116.454
59.91000 116.235
59.92000 116.092
59.93000 116.661
59.94000 117.091
59.95000 118.116
59.96000 119.885
59.97000 121.649
59.98000 120.867
59.99000 118.011
60.00000 115.193
60.01000 113.774
60.02000 113.138
60.03000 112.639
60.04000 114.645
60.05000 117.588
60.06000 120.357
60.07000 121.425
60.08000 122.061
60.09000 122.617
60.10000 124.340
60.11000 125.984
60.12000 126.120
60.13000 120.309
60.14000 113.890
60.15000 110.033
60.16000 113.034
60.17000 116.411
60.18000 118.611
60.19000 118.726
60.20000 118.779
60.21000 118.908
60.22000 119.133
60.23000 119.362
60.24000 120.980
60.25000 123.708
60.26000 126.396
60.27000 126.693
60.28000 125.733
60.29000 124.770
60.30000 123.753
60.31000 122.717
60.32000 121.829
60.33000 122.367
60.34000 123.259
60.35000 124.038
60.36000 122.487
60.37000 120.835
60.38000 118.806
60.39000 115.321
60.40000 111.691
60.41000 110.213
60.42000 114.400
60.43000 118.887
60.44000 121.791
60.45000 119.571
60.46000 117.871
60.47000 117.296
60.48000 118.078
60.49000 118.860
60.50000 118.665
60.51000 117.701
60.52000 116.753
60.53000 116.396
60.54000 116.352
60.55000 116.372
60.56000 117.488
60.57000 118.999
60.58000 120.468
60.59000 121.537
60.60000 122.509
60.61000 123.355
60.62000 120.740
60.63000 118.036
60.64000 115.952
60.65000 116.231
60.66000 116.741
60.67000 117.470
60.68000 118.769
60.69000 120.097
60.70000 120.951
60.71000 120.575
60.72000 120.283
60.73000 118.973
60.74000 116.458
60.75000 113.960
60.76000 116.241
60.77000 122.202
60.78000 128.066
60.79000 126.212
60.80000 120.538
60.81000 115.120
60.82000 113.961
60.83000 114.313
60.84000 114.832
60.85000 116.867
60.86000 119.266
60.87000 121.347
60.88000 122.899
60.89000 124.151
60.90000 124.558
60.91000 121.808
60.92000 118.760
60.93000 116.667
60.94000 117.005
60.95000 117.463
60.96000 117.756
60.97000 123.004
60.98000 126.888
60.99000 128.186
61.00000 126.483
61.01000 124.787
61.02000 125.491
61.03000 128.009
61.04000 130.485
61.05000 130.408
61.06000 129.075
61.07000 127.862
61.08000 128.570
61.09000 129.950
61.10000 131.413
61.11000 133.618
61.12000 135.998
61.13000 138.056
61.14000 137.229
61.15000 136.151
61.16000 134.969
61.17000 133.408
61.18000 131.812
61.19000 129.564
61.20000 125.685
61.21000 121.729
61.22000 119.219
61.23000 129.333
61.24000 136.828
61.25000 138.287
61.26000 132.875
61.27000 127.473
61.28000 125.415
61.29000 125.839
61.30000 126.255
61.31000 125.110
61.32000 123.250
61.33000 121.561
61.34000 122.534
61.35000 124.421
61.36000 126.787
61.37000 133.317
61.38000 140.811
61.39000 147.272
61.40000 143.222
61.41000 138.446
61.42000 134.266
61.43000 132.235
61.44000 130.397
61.45000 129.711
61.46000 131.855
61.47000 134.129
61.48000 135.562
61.49000 143.423
61.50000 149.187
61.51000 156.473
61.52000 165.460
61.53000 174.455
61.54000 184.740
61.55000 195.964
61.56000 206.974
61.57000 222.899
61.58000 240.579
61.59000 257.657
61.60000 265.640
61.61000 270.556
61.62000 275.288
61.63000 278.458
61.64000 281.272
61.65000 283.691
61.66000 290.329
61.67000 296.471
61.68000 299.989
61.69000 294.206
61.70000 287.606
61.71000 284.104
61.72000 288.086
61.73000 292.399
61.74000 295.098
61.75000 280.783
61.76000 270.268
61.77000 253.934
61.78000 231.225
61.79000 208.583
61.80000 196.371
61.81000 191.621
61.82000 186.966
61.83000 182.658
61.84000 178.674
61.85000 174.455
61.86000 166.772
61.87000 157.941
61.88000 149.172
61.89000 140.908
61.90000 132.757
61.91000 125.773
61.92000 126.396
61.93000 127.848
61.94000 128.686
61.95000 127.381
61.96000 125.892
61.97000 125.582
61.98000 128.069
61.99000 130.675
62.00000 132.295
62.01000 133.554
62.02000 134.458
62.03000 136.417
62.04000 139.512
62.05000 142.605
62.06000 145.498
62.07000 148.249
62.08000 150.942
62.09000 146.905
62.10000 139.949
62.11000 133.250
62.12000 130.233
62.13000 128.416
62.14000 126.864
62.15000 127.461
62.16000 128.528
62.17000 129.440
62.18000 129.033
62.19000 128.533
62.20000 127.239
62.21000 123.230
62.22000 118.994
62.23000 116.926
62.24000 119.919
62.25000 123.120
62.26000 125.095
62.27000 123.349
62.28000 122.062
62.29000 121.038
62.30000 120.292
62.31000 119.586
62.32000 123.793
62.33000 131.387
62.34000 138.814
62.35000 140.031
62.36000 138.410
62.37000 136.846
62.38000 136.078
62.39000 135.565
62.40000 134.998
62.41000 134.002
62.42000 132.913
62.43000 131.987
62.44000 134.803
62.45000 137.606
62.46000 139.548
62.47000 138.597
62.48000 137.413
62.49000 136.503
62.50000 136.224
62.51000 135.971
62.52000 135.815
62.53000 134.439
62.54000 133.443
62.55000 132.065
62.56000 130.291
62.57000 128.505
62.58000 125.432
62.59000 121.487
62.60000 117.633
62.61000 121.346
62.62000 128.235
62.63000 134.793
62.64000 136.885
62.65000 137.572
62.66000 138.071
62.67000 137.110
62.68000 135.841
62.69000 134.764
62.70000 134.246
62.71000 133.875
62.72000 134.252
62.73000 137.100
62.74000 140.143
62.75000 142.515
62.76000 143.375
62.77000 144.177
62.78000 144.665
62.79000 140.366
62.80000 137.258
62.81000 136.024
62.82000 136.686
62.83000 137.337
62.84000 136.973
62.85000 135.931
62.86000 134.915
62.87000 133.559
62.88000 132.114
62.89000 130.626
62.90000 128.558
62.91000 126.310
62.92000 124.703
62.93000 127.956
62.94000 132.217
62.95000 135.820
62.96000 137.230
62.97000 138.167
62.98000 139.500
62.99000 142.116
63.00000 144.831
63.01000 145.683
63.02000 142.405
63.03000 138.976
63.04000 136.906
63.05000 140.611
63.06000 143.290
63.07000 142.276
63.08000 137.598
63.09000 132.956
63.10000 131.685
63.11000 132.617
63.12000 133.526
63.13000 133.751
63.14000 133.676
63.15000 133.504
63.16000 132.090
63.17000 130.299
63.18000 128.925
63.19000 130.646
63.20000 132.996
63.21000 134.978
63.22000 133.121
63.23000 131.157
63.24000 130.704
63.25000 135.073
63.26000 139.803
63.27000 141.397
63.28000 136.154
63.29000 130.673
63.30000 127.389
63.31000 130.325
63.32000 132.451
63.33000 132.615
63.34000 130.873
63.35000 129.155
63.36000 129.562
63.37000 131.332
63.38000 133.056
63.39000 134.125
63.40000 134.870
63.41000 135.473
63.42000 134.318
63.43000 132.639
63.44000 131.331
63.45000 132.724
63.46000 134.656
63.47000 136.278
63.48000 133.913
63.49000 131.522
63.50000 131.206
63.51000 137.396
63.52000 144.057
63.53000 148.526
63.54000 148.295
63.55000 147.908
63.56000 147.678
63.57000 141.186
63.58000 136.552
63.59000 134.840
63.60000 135.912
63.61000 136.990
63.62000 138.472
63.63000 140.210
63.64000 141.900
63.65000 144.232
63.66000 146.711
63.67000 148.632
63.68000 143.818
63.69000 137.030
63.70000 131.093
63.71000 131.206
63.72000 132.504
63.73000 133.590
63.74000 137.196
63.75000 140.452
63.76000 142.802
63.77000 142.363
63.78000 141.728
63.79000 142.002
63.80000 144.193
63.81000 146.445
63.82000 147.774
63.83000 146.975
63.84000 146.400
63.85000 146.080
63.86000 145.998
63.87000 145.909
63.88000 145.324
63.89000 144.431
63.90000 143.564
63.91000 146.242
63.92000 150.206
63.93000 153.707
63.94000 151.763
63.95000 148.251
63.96000 145.460
63.97000 147.685
63.98000 150.873
63.99000 153.533
64.00000 155.013
64.01000 156.122
64.02000 155.927
64.03000 151.784
64.04000 147.371
64.05000 144.661
64.06000 145.479
64.07000 146.404
64.08000 146.946
64.09000 142.675
64.10000 139.646
64.11000 139.718
64.12000 142.632
64.13000 145.524
64.14000 146.842
64.15000 147.203
64.16000 147.553
64.17000 148.717
64.18000 150.141
64.19000 151.556
64.20000 152.874
64.21000 154.164
64.22000 154.996
64.23000 152.710
64.24000 149.836
64.25000 147.447
64.26000 145.682
64.27000 144.283
64.28000 144.216
64.29000 148.117
64.30000 152.281
64.31000 154.709
64.32000 153.602
64.33000 152.391
64.34000 151.688
64.35000 152.480
64.36000 153.044
64.37000 154.433
64.38000 156.565
64.39000 158.643
64.40000 157.211
64.41000 153.679
64.42000 150.258
64.43000 153.607
64.44000 159.389
64.45000 164.666
64.46000 164.313
64.47000 162.395
64.48000 160.333
64.49000 157.305
64.50000 154.099
64.51000 151.442
64.52000 153.954
64.53000 156.521
64.54000 159.804
64.55000 165.183
64.56000 170.697
64.57000 173.869
64.58000 172.354
64.59000 170.708
64.60000 169.760
64.61000 170.894
64.62000 171.696
64.63000 172.655
64.64000 173.753
64.65000 174.810
64.66000 173.350
64.67000 170.412
64.68000 167.569
64.69000 166.674
64.70000 166.567
64.71000 166.502
64.72000 166.884
64.73000 167.390
64.74000 167.754
64.75000 167.199
64.76000 166.477
64.77000 165.881
64.78000 165.772
64.79000 165.728
64.80000 167.066
64.81000 172.375
64.82000 177.933
64.83000 180.786
64.84000 178.319
64.85000 175.711
64.86000 174.220
64.87000 186.881
64.88000 195.759
64.89000 198.568
64.90000 196.130
64.91000 193.742
64.92000 194.151
64.93000 196.176
64.94000 198.132
64.95000 194.468
64.96000 188.923
64.97000 184.130
64.98000 187.283
64.99000 192.569
65.00000 197.328
65.01000 198.713
65.02000 199.498
65.03000 200.144
65.04000 205.378
65.05000 210.097
65.06000 214.302
65.07000 217.056
65.08000 219.723
65.09000 221.177
65.10000 220.289
65.11000 219.341
65.12000 218.804
65.13000 213.964
65.14000 210.585
65.15000 208.088
65.16000 206.341
65.17000 204.663
65.18000 206.654
65.19000 210.728
65.20000 214.658
65.21000 217.925
65.22000 220.758
65.23000 223.398
65.24000 224.054
65.25000 224.186
65.26000 224.643
65.27000 227.140
65.28000 229.992
65.29000 232.329
65.30000 239.354
65.31000 245.530
65.32000 247.347
65.33000 237.059
65.34000 226.060
65.35000 222.438
65.36000 232.826
65.37000 243.550
65.38000 249.579
65.39000 255.948
65.40000 260.365
65.41000 263.221
65.42000 264.779
65.43000 266.288
65.44000 265.308
65.45000 262.940
65.46000 260.660
65.47000 270.781
65.48000 284.730
65.49000 297.744
65.50000 301.341
65.51000 302.499
65.52000 304.286
65.53000 309.939
65.54000 316.252
65.55000 321.407
65.56000 325.781
65.57000 329.293
65.58000 338.096
65.59000 361.344
65.60000 385.413
65.61000 404.262
65.62000 413.367
65.63000 422.249
65.64000 427.201
65.65000 493.141
65.66000 538.921
65.67000 594.480
65.68000 658.025
65.69000 722.156
65.70000 813.992
65.71000 921.018
65.72000 1023.973
65.73000 1151.661
65.74000 1280.073
65.75000 1405.708
65.76000 1504.065
65.77000 1595.481
65.78000 1682.789
65.79000 1745.358
65.80000 1803.789
65.81000 1851.320
65.82000 1882.172
65.83000 1905.963
65.84000 1923.176
65.85000 1922.737
65.86000 1921.329
65.87000 1923.482
65.88000 1932.172
65.89000 1941.003
65.90000 1945.884
65.91000 1864.947
65.92000 1808.856
65.93000 1718.089
65.94000 1599.533
65.95000 1480.915
65.96000 1359.551
65.97000 1236.706
65.98000 1118.707
65.99000 998.606
66.00000 885.479
66.01000 775.880
66.02000 700.088
66.03000 632.742
66.04000 568.490
66.05000 522.487
66.06000 479.475
66.07000 444.620
66.08000 420.865
66.09000 402.419
66.10000 389.970
66.11000 393.342
66.12000 397.554
66.13000 395.861
66.14000 383.521
66.15000 370.963
66.16000 364.083
66.17000 372.434
66.18000 378.196
66.19000 382.554
66.20000 385.808
66.21000 389.008
66.22000 389.906
66.23000 389.585
66.24000 389.277
66.25000 409.524
66.26000 435.390
66.27000 460.813
66.28000 482.080
66.29000 502.326
66.30000 521.986
66.31000 538.246
66.32000 553.962
66.33000 566.647
66.34000 590.816
66.35000 611.371
66.36000 625.491
66.37000 622.923
66.38000 619.497
66.39000 617.477
66.40000 617.948
66.41000 618.466
66.42000 618.747
66.43000 621.307
66.44000 623.007
66.45000 610.489
66.46000 586.995
66.47000 563.803
66.48000 552.756
66.49000 548.031
66.50000 543.506
66.51000 526.603
66.52000 506.733
66.53000 486.987
66.54000 468.367
66.55000 450.018
66.56000 431.864
66.57000 414.807
66.58000 397.924
66.59000 384.348
66.60000 379.733
66.61000 376.684
66.62000 375.312
66.63000 378.217
66.64000 381.334
66.65000 378.664
66.66000 365.915
66.67000 352.984
66.68000 346.024
66.69000 344.727
66.70000 343.864
66.71000 347.015
66.72000 353.208
66.73000 359.134
66.74000 354.875
66.75000 345.404
66.76000 336.349
66.77000 339.089
66.78000 345.480
66.79000 351.903
66.80000 358.617
66.81000 365.400
66.82000 370.577
66.83000 366.831
66.84000 361.710
66.85000 357.609
66.86000 360.068
66.87000 362.551
66.88000 364.362
66.89000 364.492
66.90000 364.542
66.91000 365.088
66.92000 366.484
66.93000 367.894
66.94000 368.646
66.95000 367.464
66.96000 366.654
66.97000 365.160
66.98000 363.157
66.99000 361.359
67.00000 367.002
67.01000 376.387
67.02000 385.348
67.03000 378.676
67.04000 367.484
67.05000 358.146
67.06000 364.965
67.07000 375.537
67.08000 385.334
67.09000 390.906
67.10000 395.840
67.11000 399.776
67.12000 397.199
67.13000 394.642
67.14000 393.342
67.15000 395.136
67.16000 397.072
67.17000 397.712
67.18000 396.173
67.19000 394.599
67.20000 393.767
67.21000 401.443
67.22000 406.634
67.23000 407.219
67.24000 404.438
67.25000 401.749
67.26000 402.220
67.27000 404.254
67.28000 406.193
67.29000 401.439
67.30000 394.933
67.31000 389.756
67.32000 395.899
67.33000 404.624
67.34000 412.561
67.35000 416.282
67.36000 419.380
67.37000 421.841
67.38000 422.839
67.39000 423.539
67.40000 421.960
67.41000 414.865
67.42000 407.524
67.43000 405.823
67.44000 413.439
67.45000 421.193
67.46000 425.254
67.47000 430.064
67.48000 433.341
67.49000 439.599
67.50000 447.995
67.51000 456.220
67.52000 458.773
67.53000 458.570
67.54000 458.377
67.55000 452.623
67.56000 445.588
67.57000 439.430
67.58000 440.577
67.59000 443.358
67.60000 445.555
67.61000 444.685
67.62000 443.370
67.63000 442.330
67.64000 441.696
67.65000 441.214
67.66000 444.114
67.67000 455.064
67.68000 466.360
67.69000 470.363
67.70000 462.531
67.71000 454.535
67.72000 450.387
67.73000 464.827
67.74000 474.523
67.75000 476.876
67.76000 474.058
67.77000 471.353
67.78000 472.230
67.79000 474.818
67.80000 477.277
67.81000 477.853
67.82000 477.817
67.83000 477.167
67.84000 471.519
67.85000 464.773
67.86000 459.750
67.87000 463.594
67.88000 468.694
67.89000 472.712
67.90000 472.115
67.91000 471.327
67.92000 473.426
67.93000 482.281
67.94000 491.415
67.95000 498.221
67.96000 501.317
67.97000 504.365
67.98000 505.931
67.99000 514.284
68.00000 519.902
68.01000 525.319
68.02000 530.597
68.03000 535.682
68.04000 534.912
68.05000 531.394
68.06000 528.058
68.07000 525.831
68.08000 524.107
68.09000 522.786
68.10000 524.682
68.11000 527.271
68.12000 529.538
68.13000 530.180
68.14000 530.597
68.15000 530.924
68.16000 547.331
68.17000 561.500
68.18000 567.844
68.19000 556.186
68.20000 543.813
68.21000 543.065
68.22000 560.528
68.23000 578.208
68.24000 587.203
68.25000 572.013
68.26000 561.896
68.27000 559.634
68.28000 562.708
68.29000 566.023
68.30000 576.358
68.31000 589.930
68.32000 602.781
68.33000 612.241
68.34000 619.962
68.35000 627.079
68.36000 629.493
68.37000 630.912
68.38000 632.354
68.39000 633.914
68.40000 635.490
68.41000 636.721
68.42000 642.423
68.43000 647.256
68.44000 651.715
68.45000 655.330
68.46000 658.913
68.47000 669.485
68.48000 690.811
68.49000 712.256
68.50000 723.059
68.51000 724.199
68.52000 725.047
68.53000 734.707
68.54000 750.247
68.55000 766.033
68.56000 788.652
68.57000 814.372
68.58000 838.680
68.59000 867.540
68.60000 895.341
68.61000 924.397
68.62000 963.005
68.63000 1003.598
68.64000 1042.857
68.65000 1075.639
68.66000 1107.561
68.67000 1132.398
68.68000 1177.808
68.69000 1215.220
68.70000 1261.249
68.71000 1326.434
68.72000 1392.320
68.73000 1448.007
68.74000 1488.276
68.75000 1528.387
68.76000 1572.755
68.77000 1621.358
68.78000 1669.891
68.79000 1711.860
68.80000 1749.527
68.81000 1787.887
68.82000 1844.784
68.83000 1909.944
68.84000 1971.420
68.85000 2078.621
68.86000 2189.644
68.87000 2316.509
68.88000 2561.353
68.89000 2830.250
68.90000 3183.061
68.91000 3935.820
68.92000 4740.525
68.93000 5363.896
68.94000 7746.541
68.95000 9743.568
68.96000 12129.084
68.97000 15363.577
68.98000 18627.908
68.99000 21989.137
69.00000 25494.238
69.01000 29000.609
69.02000 31978.867
69.03000 34442.035
69.04000 36897.145
69.05000 38652.875
69.06000 39958.305
69.07000 41244.047
69.08000 42024.477
69.09000 42583.434
69.10000 43109.828
69.11000 43819.238
69.12000 44518.309
69.13000 45217.930
69.14000 45921.574
69.15000 46626.020
69.16000 47184.098
69.17000 47057.531
69.18000 46843.992
69.19000 46679.301
69.20000 44184.039
69.21000 42072.398
69.22000 39648.152
69.23000 36552.383
69.24000 33433.996
69.25000 30738.176
69.26000 28658.572
69.27000 26584.354
69.28000 25040.469
69.29000 24003.693
69.30000 22971.938
69.31000 22343.346
69.32000 21969.760
69.33000 21595.484
69.34000 21204.268
69.35000 20805.750
69.36000 20431.145
69.37000 19465.811
69.38000 18425.867
69.39000 17308.770
69.40000 15641.428
69.41000 13866.101
69.42000 12085.087
69.43000 10277.966
69.44000 8467.602
69.45000 7077.540
69.46000 5685.937
69.47000 4585.790
69.48000 3652.111
69.49000 3069.953
69.50000 2499.126
69.51000 2066.377
69.52000 1831.377
69.53000 1597.938
69.54000 1437.365
69.55000 1345.112
69.56000 1253.182
69.57000 1185.351
69.58000 1132.495
69.59000 1079.827
69.60000 1031.637
69.61000 985.344
69.62000 941.909
69.63000 913.763
69.64000 892.141
69.65000 870.083
69.66000 844.977
69.67000 819.285
69.68000 796.099
69.69000 784.204
69.70000 773.681
69.71000 765.638
69.72000 726.401
69.73000 693.766
69.74000 668.981
69.75000 660.490
69.76000 652.501
69.77000 645.700
69.78000 640.569
69.79000 635.450
69.80000 628.151
69.81000 618.854
69.82000 609.583
69.83000 602.088
69.84000 595.679
69.85000 589.274
69.86000 582.983
69.87000 576.741
69.88000 570.895
69.89000 555.655
69.90000 539.370
69.91000 524.516
69.92000 519.438
69.93000 516.207
69.94000 513.905
69.95000 515.717
69.96000 518.017
69.97000 519.767
69.98000 506.443
69.99000 495.169
70.00000 488.271
