20.00000 485.696
20.01000 484.898
20.02000 483.987
20.03000 483.563
20.04000 485.060
20.05000 486.754
20.06000 488.005
20.07000 487.047
20.08000 486.210
20.09000 482.465
20.10000 473.397
20.11000 464.215
20.12000 458.938
20.13000 458.456
20.14000 457.988
20.15000 463.447
20.16000 473.596
20.17000 483.501
20.18000 482.588
20.19000 475.862
20.20000 469.501
20.21000 469.595
20.22000 472.060
20.23000 474.334
20.24000 477.225
20.25000 479.953
20.26000 482.709
20.27000 485.630
20.28000 488.578
20.29000 489.855
20.30000 484.660
20.31000 478.819
20.32000 474.528
20.33000 475.735
20.34000 476.893
20.35000 476.313
20.36000 472.610
20.37000 468.845
20.38000 466.394
20.39000 465.530
20.40000 464.671
20.41000 465.075
20.42000 466.461
20.43000 467.851
20.44000 469.387
20.45000 470.999
20.46000 472.465
20.47000 471.430
20.48000 469.492
20.49000 467.708
20.50000 469.105
20.51000 471.051
20.52000 472.915
20.53000 474.308
20.54000 475.626
20.55000 476.445
20.56000 475.366
20.57000 474.103
20.58000 473.179
20.59000 463.409
20.60000 455.524
20.61000 452.187
20.62000 456.884
20.63000 461.735
20.64000 464.473
20.65000 464.714
20.66000 464.950
20.67000 470.648
20.68000 480.491
20.69000 490.141
20.70000 492.056
20.71000 489.958
20.72000 487.738
20.73000 483.499
20.74000 478.543
20.75000 473.990
20.76000 465.089
20.77000 456.214
20.78000 448.733
20.79000 449.131
20.80000 450.764
20.81000 451.993
20.82000 451.709
20.83000 451.281
20.84000 450.970
20.85000 463.102
20.86000 472.909
20.87000 476.058
20.88000 467.647
20.89000 459.029
20.90000 454.459
20.91000 454.584
20.92000 454.716
20.93000 458.149
20.94000 464.037
20.95000 469.662
20.96000 465.296
20.97000 455.834
20.98000 446.949
20.99000 447.365
21.00000 451.025
21.01000 454.379
21.02000 464.413
21.03000 474.753
21.04000 481.933
21.05000 471.604
21.06000 458.586
21.07000 448.994
21.08000 451.978
21.09000 456.125
21.10000 459.126
21.11000 463.064
21.12000 466.121
21.13000 466.826
21.14000 463.517
21.15000 460.141
21.16000 460.711
21.17000 465.773
21.18000 470.825
21.19000 475.716
21.20000 480.453
21.21000 484.976
21.22000 481.768
21.23000 474.684
21.24000 467.838
21.25000 464.698
21.26000 462.828
21.27000 461.118
21.28000 458.606
21.29000 456.208
21.30000 454.605
21.31000 457.325
21.32000 460.696
21.33000 463.835
21.34000 466.144
21.35000 468.378
21.36000 469.986
21.37000 459.234
21.38000 450.567
21.39000 447.147
21.40000 452.527
21.41000 458.045
21.42000 457.269
21.43000 449.464
21.44000 441.681
21.45000 445.253
21.46000 456.994
21.47000 468.367
21.48000 467.084
21.49000 459.564
21.50000 452.692
21.51000 455.638
21.52000 461.892
21.53000 467.598
21.54000 468.511
21.55000 468.354
21.56000 468.426
21.57000 469.716
21.58000 471.186
21.59000 472.288
21.60000 472.085
21.61000 471.767
21.62000 471.539
21.63000 468.750
21.64000 466.533
21.65000 465.665
21.66000 467.020
21.67000 468.407
21.68000 468.626
21.69000 467.566
21.70000 466.508
21.71000 464.996
21.72000 463.175
21.73000 461.636
21.74000 469.354
21.75000 481.556
21.76000 493.231
21.77000 497.153
21.78000 498.507
21.79000 499.740
21.80000 499.683
21.81000 499.378
21.82000 500.472
21.83000 508.881
21.84000 518.344
21.85000 525.559
21.86000 524.947
21.87000 523.665
21.88000 522.752
21.89000 522.305
21.90000 521.978
21.91000 527.376
21.92000 542.036
21.93000 556.823
21.94000 566.938
21.95000 572.035
21.96000 577.108
21.97000 577.141
21.98000 573.671
21.99000 570.460
22.00000 575.421
22.01000 584.273
22.02000 592.451
22.03000 591.002
22.04000 586.419
22.05000 582.258
22.06000 578.642
22.07000 575.555
22.08000 572.881
22.09000 572.330
22.10000 572.078
22.11000 569.551
22.12000 559.241
22.13000 548.282
22.14000 540.520
22.15000 546.476
22.16000 551.431
22.17000 550.464
22.18000 540.081
22.19000 529.577
22.20000 525.214
22.21000 527.317
22.22000 529.410
22.23000 529.570
22.24000 528.409
22.25000 526.987
22.26000 517.701
22.27000 504.736
22.28000 492.464
22.29000 489.779
22.30000 490.162
22.31000 490.509
22.32000 483.554
22.33000 476.039
22.34000 470.530
22.35000 475.102
22.36000 481.068
22.37000 486.082
22.38000 487.903
22.39000 489.465
22.40000 490.565
22.41000 480.971
22.42000 473.376
22.43000 469.084
22.44000 469.950
22.45000 470.878
22.46000 468.426
22.47000 462.488
22.48000 456.582
22.49000 454.472
22.50000 454.928
22.51000 455.345
22.52000 454.612
22.53000 453.352
22.54000 452.478
22.55000 456.814
22.56000 462.789
22.57000 468.188
22.58000 460.237
22.59000 450.764
22.60000 442.873
22.61000 442.785
22.62000 443.753
22.63000 444.218
22.64000 443.025
22.65000 441.702
22.66000 440.774
22.67000 438.108
22.68000 436.042
22.69000 434.874
22.70000 435.086
22.71000 435.313
22.72000 438.517
22.73000 444.733
22.74000 450.913
22.75000 450.183
22.76000 444.928
22.77000 439.898
22.78000 441.089
22.79000 445.095
22.80000 448.688
22.81000 446.890
22.82000 443.426
22.83000 440.303
22.84000 442.740
22.85000 445.890
22.86000 448.516
22.87000 448.602
22.88000 448.352
22.89000 448.848
22.90000 451.762
22.91000 454.862
22.92000 457.022
22.93000 453.913
22.94000 451.422
22.95000 452.372
22.96000 458.509
22.97000 464.698
22.98000 459.235
22.99000 442.219
23.00000 425.313
23.01000 417.466
23.02000 415.567
23.03000 414.010
23.04000 421.523
23.05000 433.068
23.06000 444.167
23.07000 449.583
23.08000 453.273
23.09000 456.592
23.10000 446.789
23.11000 435.868
23.12000 428.072
23.13000 435.128
23.14000 444.106
23.15000 449.980
23.16000 445.953
23.17000 441.188
23.18000 437.887
23.19000 442.764
23.20000 446.650
23.21000 446.883
23.22000 441.709
23.23000 436.486
23.24000 432.363
23.25000 429.311
23.26000 426.281
23.27000 423.522
23.28000 420.978
23.29000 418.587
23.30000 420.105
23.31000 423.330
23.32000 426.669
23.33000 431.405
23.34000 436.558
23.35000 441.181
23.36000 440.377
23.37000 438.729
23.38000 435.609
23.39000 425.622
23.40000 414.766
23.41000 409.203
23.42000 420.225
23.43000 432.448
23.44000 440.869
23.45000 433.435
23.46000 427.457
23.47000 426.416
23.48000 432.553
23.49000 438.750
23.50000 437.909
23.51000 430.365
23.52000 422.879
23.53000 422.282
23.54000 425.966
23.55000 429.635
23.56000 432.946
23.57000 436.102
23.58000 438.508
23.59000 431.870
23.60000 422.581
23.61000 414.269
23.62000 427.115
23.63000 441.928
23.64000 453.618
23.65000 451.014
23.66000 446.642
23.67000 444.478
23.68000 449.118
23.69000 454.237
23.70000 457.742
23.71000 454.867
23.72000 452.561
23.73000 451.112
23.74000 450.886
23.75000 450.671
23.76000 453.867
23.77000 460.248
23.78000 466.577
23.79000 469.734
23.80000 470.905
23.81000 472.033
23.82000 472.168
23.83000 471.883
23.84000 471.702
23.85000 472.735
23.86000 474.117
23.87000 475.351
23.88000 470.213
23.89000 464.677
23.90000 461.930
23.91000 471.712
23.92000 483.010
23.93000 491.393
23.94000 490.954
23.95000 489.911
23.96000 489.201
23.97000 483.965
23.98000 479.951
23.99000 481.556
24.00000 491.040
24.01000 500.573
24.02000 500.372
24.03000 491.255
24.04000 482.220
24.05000 478.176
24.06000 477.190
24.07000 476.299
24.08000 477.581
24.09000 479.765
24.10000 482.087
24.11000 485.991
24.12000 490.342
24.13000 494.215
24.14000 483.450
24.15000 471.708
24.16000 461.390
24.17000 457.352
24.18000 454.056
24.19000 451.373
24.20000 450.511
24.21000 449.769
24.22000 449.268
24.23000 444.003
24.24000 439.977
24.25000 442.390
24.26000 453.669
24.27000 464.996
24.28000 467.396
24.29000 461.777
24.30000 456.213
24.31000 449.946
24.32000 443.399
24.33000 436.869
24.34000 430.721
24.35000 424.729
24.36000 419.007
24.37000 416.294
24.38000 414.418
24.39000 412.752
24.40000 416.794
24.41000 421.211
24.42000 424.909
24.43000 425.498
24.44000 425.727
24.45000 427.203
24.46000 432.324
24.47000 437.679
24.48000 441.281
24.49000 431.712
24.50000 424.327
24.51000 419.251
24.52000 417.294
24.53000 415.355
24.54000 414.289
24.55000 413.993
24.56000 413.700
24.57000 412.770
24.58000 411.494
24.59000 410.212
24.60000 408.783
24.61000 407.295
24.62000 406.016
24.63000 407.007
24.64000 408.618
24.65000 410.044
24.66000 409.445
24.67000 408.610
24.68000 407.813
24.69000 407.180
24.70000 406.564
24.71000 405.999
24.72000 405.576
24.73000 405.161
24.74000 404.884
24.75000 410.575
24.76000 414.911
24.77000 416.841
24.78000 415.578
24.79000 414.305
24.80000 417.429
24.81000 424.353
24.82000 431.200
24.83000 432.738
24.84000 431.247
24.85000 429.677
24.86000 426.526
24.87000 422.749
24.88000 418.957
24.89000 414.999
24.90000 410.996
24.91000 407.462
24.92000 410.801
24.93000 414.735
24.94000 417.643
24.95000 416.265
24.96000 414.415
24.97000 412.672
24.98000 411.234
24.99000 409.814
25.00000 408.870
25.01000 418.571
25.02000 425.942
25.03000 426.712
25.04000 418.883
25.05000 411.022
25.06000 406.090
25.07000 403.642
25.08000 401.222
25.09000 395.900
25.10000 389.104
25.11000 382.846
25.12000 387.195
25.13000 395.655
25.14000 403.641
25.15000 406.743
25.16000 408.558
25.17000 410.156
25.18000 407.998
25.19000 405.577
25.20000 402.747
25.21000 398.235
25.22000 393.543
25.23000 391.300
25.24000 395.861
25.25000 400.820
25.26000 404.094
25.27000 400.536
25.28000 397.790
25.29000 395.960
25.30000 395.298
25.31000 394.644
25.32000 395.266
25.33000 396.948
25.34000 398.609
25.35000 394.303
25.36000 386.869
25.37000 380.362
25.38000 391.482
25.39000 409.320
25.40000 425.244
25.41000 421.919
25.42000 413.609
25.43000 406.314
25.44000 396.104
25.45000 386.904
25.46000 381.388
25.47000 390.701
25.48000 401.573
25.49000 407.892
25.50000 401.787
25.51000 394.977
25.52000 390.508
25.53000 402.702
25.54000 411.951
25.55000 412.809
25.56000 403.133
25.57000 393.445
25.58000 391.653
25.59000 396.306
25.60000 400.897
25.61000 402.740
25.62000 403.068
25.63000 403.036
25.64000 396.377
25.65000 387.236
25.66000 378.863
25.67000 378.022
25.68000 379.096
25.69000 380.037
25.70000 383.549
25.71000 386.928
25.72000 389.507
25.73000 388.916
25.74000 388.001
25.75000 389.580
25.76000 397.850
25.77000 406.488
25.78000 412.120
25.79000 403.433
25.80000 396.834
25.81000 391.941
25.82000 389.151
25.83000 386.371
25.84000 385.400
25.85000 385.878
25.86000 386.350
25.87000 388.056
25.88000 390.358
25.89000 392.268
25.90000 387.195
25.91000 379.551
25.92000 373.164
25.93000 378.807
25.94000 387.456
25.95000 395.005
25.96000 391.476
25.97000 386.904
25.98000 384.231
25.99000 388.933
26.00000 394.372
26.01000 396.995
26.02000 392.187
26.03000 386.985
26.04000 383.615
26.05000 379.615
26.06000 376.679
26.07000 375.103
26.08000 375.170
26.09000 375.253
26.10000 378.738
26.11000 384.898
26.12000 390.965
26.13000 391.828
26.14000 389.994
26.15000 388.012
26.16000 383.476
26.17000 378.017
26.18000 373.686
26.19000 379.910
26.20000 388.723
26.21000 396.392
26.22000 392.624
26.23000 387.841
26.24000 384.312
26.25000 385.569
26.26000 387.293
26.27000 387.546
26.28000 383.981
26.29000 380.221
26.30000 377.801
26.31000 383.874
26.32000 388.426
26.33000 392.299
26.34000 395.368
26.35000 398.416
26.36000 396.839
26.37000 391.693
26.38000 386.630
26.39000 385.914
26.40000 387.410
26.41000 389.038
26.42000 392.837
26.43000 397.408
26.44000 401.060
26.45000 396.307
26.46000 389.529
26.47000 383.648
26.48000 389.761
26.49000 396.575
26.50000 401.802
26.51000 401.086
26.52000 399.803
26.53000 397.528
26.54000 392.724
26.55000 387.795
26.56000 384.644
26.57000 388.229
26.58000 390.927
26.59000 391.396
26.60000 389.272
26.61000 387.146
26.62000 385.307
26.63000 383.687
26.64000 382.094
26.65000 380.543
26.66000 379.065
26.67000 377.474
26.68000 374.056
26.69000 369.998
26.70000 367.046
26.71000 373.958
26.72000 383.204
26.73000 391.202
26.74000 388.537
26.75000 384.876
26.76000 381.933
26.77000 381.633
26.78000 381.578
26.79000 382.917
26.80000 387.748
26.81000 392.745
26.82000 395.919
26.83000 395.941
26.84000 395.918
26.85000 392.560
26.86000 385.394
26.87000 378.258
26.88000 377.433
26.89000 381.302
26.90000 385.101
26.91000 387.484
26.92000 389.096
26.93000 390.652
26.94000 391.327
26.95000 391.699
26.96000 390.843
26.97000 379.289
26.98000 365.250
26.99000 353.142
27.00000 361.646
27.01000 371.496
27.02000 379.804
27.03000 382.536
27.04000 384.764
27.05000 386.384
27.06000 386.507
27.07000 386.562
27.08000 386.596
27.09000 378.264
27.10000 372.134
27.11000 372.223
27.12000 379.274
27.13000 386.278
27.14000 384.458
27.15000 376.195
27.16000 368.087
27.17000 366.393
27.18000 367.813
27.19000 369.237
27.20000 370.721
27.21000 372.224
27.22000 373.695
27.23000 374.885
27.24000 376.012
27.25000 376.981
27.26000 380.567
27.27000 383.929
27.28000 385.483
27.29000 380.615
27.30000 375.181
27.31000 371.187
27.32000 370.683
27.33000 370.334
27.34000 370.115
27.35000 368.466
27.36000 367.260
27.37000 371.618
27.38000 382.085
27.39000 392.494
27.40000 393.574
27.41000 387.965
27.42000 382.467
27.43000 380.212
27.44000 379.557
27.45000 378.879
27.46000 377.879
27.47000 376.772
27.48000 376.023
27.49000 378.262
27.50000 381.169
27.51000 383.661
27.52000 383.311
27.53000 382.669
27.54000 382.111
27.55000 381.848
27.56000 381.610
27.57000 381.168
27.58000 380.242
27.59000 379.294
27.60000 378.705
27.61000 382.507
27.62000 385.288
27.63000 384.643
27.64000 380.307
27.65000 376.032
27.66000 380.193
27.67000 390.293
27.68000 400.182
27.69000 392.978
27.70000 378.219
27.71000 364.753
27.72000 369.814
27.73000 380.922
27.74000 390.744
27.75000 390.101
27.76000 387.159
27.77000 384.645
27.78000 374.385
27.79000 364.816
27.80000 359.802
27.81000 370.404
27.82000 382.311
27.83000 388.573
27.84000 381.627
27.85000 374.137
27.86000 369.512
27.87000 380.209
27.88000 388.033
27.89000 392.038
27.90000 392.010
27.91000 391.927
27.92000 385.360
27.93000 374.307
27.94000 363.497
27.95000 358.216
27.96000 355.638
27.97000 353.157
27.98000 352.021
27.99000 351.318
28.00000 351.273
28.01000 356.471
28.02000 362.800
28.03000 368.190
28.04000 359.784
28.05000 351.108
28.06000 345.881
28.07000 352.268
28.08000 359.600
28.09000 363.451
28.10000 359.295
28.11000 354.822
28.12000 352.080
28.13000 354.091
28.14000 355.573
28.15000 356.251
28.16000 356.100
28.17000 355.981
28.18000 359.548
28.19000 365.619
28.20000 371.550
28.21000 369.810
28.22000 364.757
28.23000 360.374
28.24000 365.045
28.25000 372.571
28.26000 378.908
28.27000 375.994
28.28000 371.123
28.29000 366.987
28.30000 363.266
28.31000 360.190
28.32000 358.089
28.33000 359.212
28.34000 360.590
28.35000 361.040
28.36000 359.390
28.37000 357.661
28.38000 356.608
28.39000 353.690
28.40000 351.591
28.41000 350.552
28.42000 350.588
28.43000 350.660
28.44000 354.249
28.45000 360.185
28.46000 365.978
28.47000 366.791
28.48000 365.409
28.49000 363.827
28.50000 359.614
28.51000 354.586
28.52000 350.188
28.53000 350.582
28.54000 351.972
28.55000 353.149
28.56000 355.098
28.57000 356.816
28.58000 357.822
28.59000 356.513
28.60000 355.026
28.61000 353.865
28.62000 353.427
28.63000 353.015
28.64000 352.766
28.65000 352.047
28.66000 351.531
28.67000 352.567
28.68000 355.148
28.69000 357.736
28.70000 361.085
28.71000 364.933
28.72000 368.683
28.73000 364.054
28.74000 356.072
28.75000 348.905
28.76000 352.153
28.77000 358.572
28.78000 363.468
28.79000 357.026
28.80000 348.275
28.81000 340.894
28.82000 348.059
28.83000 355.619
28.84000 361.356
28.85000 361.262
28.86000 360.731
28.87000 358.414
28.88000 352.196
28.89000 345.842
28.90000 342.031
28.91000 349.235
28.92000 354.425
28.93000 359.061
28.94000 363.158
28.95000 367.204
28.96000 366.870
28.97000 363.716
28.98000 360.646
28.99000 361.448
29.00000 363.828
29.01000 365.716
29.02000 361.477
29.03000 355.405
29.04000 349.400
29.05000 343.885
29.06000 338.469
29.07000 333.916
29.08000 339.012
29.09000 344.280
29.10000 349.356
29.11000 353.834
29.12000 358.268
29.13000 362.422
29.14000 365.972
29.15000 369.502
29.16000 371.603
29.17000 361.048
29.18000 353.495
29.19000 352.467
29.20000 357.670
29.21000 362.766
29.22000 359.186
29.23000 350.122
29.24000 341.307
29.25000 347.372
29.26000 359.236
29.27000 369.858
29.28000 365.450
29.29000 356.625
29.30000 348.338
29.31000 343.890
29.32000 340.195
29.33000 337.100
29.34000 342.218
29.35000 347.322
29.36000 350.924
29.37000 349.891
29.38000 348.531
29.39000 348.374
29.40000 350.758
29.41000 353.224
29.42000 354.680
29.43000 357.868
29.44000 360.128
29.45000 359.200
29.46000 355.287
29.47000 351.415
29.48000 350.538
29.49000 351.522
29.50000 352.478
29.51000 355.525
29.52000 359.259
29.53000 362.628
29.54000 361.693
29.55000 359.516
29.56000 356.812
29.57000 350.440
29.58000 343.362
29.59000 337.454
29.60000 337.806
29.61000 338.728
29.62000 340.947
29.63000 347.102
29.64000 353.527
29.65000 357.981
29.66000 358.344
29.67000 358.582
29.68000 358.721
29.69000 358.211
29.70000 357.850
29.71000 360.299
29.72000 365.328
29.73000 370.276
29.74000 369.570
29.75000 365.413
29.76000 361.381
29.77000 361.171
29.78000 362.479
29.79000 363.985
29.80000 367.747
29.81000 372.149
29.82000 377.285
29.83000 387.433
29.84000 398.527
29.85000 407.755
29.86000 399.308
29.87000 390.580
29.88000 383.045
29.89000 379.067
29.90000 375.326
29.91000 374.691
29.92000 380.390
29.93000 386.275
29.94000 389.696
29.95000 389.191
29.96000 388.817
29.97000 386.523
29.98000 382.500
29.99000 378.506
30.00000 376.328
30.01000 375.239
30.02000 374.184
30.03000 374.246
30.04000 374.738
30.05000 375.180
30.06000 375.071
30.07000 374.808
30.08000 375.325
30.09000 381.057
30.10000 387.755
30.11000 393.306
30.12000 393.227
30.13000 392.622
30.14000 390.754
30.15000 385.184
30.16000 379.374
30.17000 374.729
30.18000 372.417
30.19000 370.171
30.20000 368.875
30.21000 370.290
30.22000 371.288
30.23000 369.495
30.24000 365.236
30.25000 361.054
30.26000 361.552
30.27000 364.809
30.28000 367.959
30.29000 367.322
30.30000 365.281
30.31000 363.654
30.32000 366.534
30.33000 370.648
30.34000 373.136
30.35000 364.968
30.36000 354.866
30.37000 346.523
30.38000 346.630
30.39000 347.506
30.40000 347.324
30.41000 344.093
30.42000 340.670
30.43000 341.346
30.44000 350.099
30.45000 359.067
30.46000 364.199
30.47000 364.991
30.48000 365.531
30.49000 367.993
30.50000 372.121
30.51000 376.211
30.52000 378.222
30.53000 379.028
30.54000 379.807
30.55000 372.429
30.56000 362.431
30.57000 353.623
30.58000 357.455
30.59000 364.688
30.60000 370.895
30.61000 370.518
30.62000 368.969
30.63000 367.694
30.64000 363.122
30.65000 359.062
30.66000 354.978
30.67000 350.824
30.68000 346.666
30.69000 345.878
30.70000 351.620
30.71000 357.528
30.72000 360.880
30.73000 369.784
30.74000 375.992
30.75000 377.062
30.76000 373.764
30.77000 370.636
30.78000 376.632
30.79000 387.816
30.80000 398.608
30.81000 395.239
30.82000 386.887
30.83000 379.533
30.84000 382.509
30.85000 388.214
30.86000 393.808
30.87000 398.693
30.88000 403.455
30.89000 407.359
30.90000 399.606
30.91000 392.213
30.92000 390.587
30.93000 405.016
30.94000 420.391
30.95000 430.972
30.96000 432.429
30.97000 433.665
30.98000 434.360
30.99000 465.757
31.00000 487.615
31.01000 500.716
31.02000 506.513
31.03000 512.401
31.04000 522.911
31.05000 536.004
31.06000 548.621
31.07000 572.180
31.08000 598.244
31.09000 624.025
31.10000 646.962
31.11000 669.161
31.12000 693.400
31.13000 730.199
31.14000 769.147
31.15000 800.964
31.16000 846.844
31.17000 885.611
31.18000 921.697
31.19000 950.447
31.20000 978.779
31.21000 1010.382
31.22000 1048.103
31.23000 1085.965
31.24000 1107.094
31.25000 1168.909
31.26000 1211.759
31.27000 1244.429
31.28000 1268.767
31.29000 1292.879
31.30000 1306.170
31.31000 1313.516
31.32000 1320.584
31.33000 1342.355
31.34000 1367.951
31.35000 1390.323
31.36000 1380.929
31.37000 1363.434
31.38000 1346.945
31.39000 1336.520
31.40000 1327.112
31.41000 1319.455
31.42000 1263.722
31.43000 1214.164
31.44000 1171.352
31.45000 1146.681
31.46000 1123.011
31.47000 1094.454
31.48000 1056.910
31.49000 1019.171
31.50000 998.290
31.51000 945.096
31.52000 908.324
31.53000 870.070
31.54000 830.625
31.55000 791.258
31.56000 755.359
31.57000 721.332
31.58000 688.642
31.59000 656.233
31.60000 625.991
31.61000 596.708
31.62000 576.642
31.63000 558.883
31.64000 541.506
31.65000 526.387
31.66000 511.640
31.67000 499.683
31.68000 474.452
31.69000 452.807
31.70000 435.028
31.71000 427.473
31.72000 420.463
31.73000 414.123
31.74000 408.991
31.75000 403.885
31.76000 401.084
31.77000 395.679
31.78000 391.940
31.79000 383.588
31.80000 371.598
31.81000 359.908
31.82000 361.026
31.83000 368.939
31.84000 376.531
31.85000 376.333
31.86000 373.507
31.87000 370.188
31.88000 362.245
31.89000 353.166
31.90000 345.047
31.91000 342.501
31.92000 340.852
31.93000 339.520
31.94000 345.926
31.95000 351.750
31.96000 353.327
31.97000 343.862
31.98000 333.828
31.99000 333.486
32.00000 350.352
32.01000 367.552
32.02000 376.904
32.03000 355.244
32.04000 340.369
32.05000 330.639
32.06000 324.889
32.07000 319.385
32.08000 323.853
32.09000 333.522
32.10000 342.784
32.11000 338.219
32.12000 329.361
32.13000 321.640
32.14000 324.328
32.15000 329.530
32.16000 334.451
32.17000 337.774
32.18000 340.844
32.19000 343.314
32.20000 339.314
32.21000 335.567
32.22000 332.406
32.23000 330.742
32.24000 329.152
32.25000 327.960
32.26000 327.462
32.27000 326.977
32.28000 326.715
32.29000 334.114
32.30000 339.152
32.31000 338.030
32.32000 332.228
32.33000 326.664
32.34000 330.265
32.35000 338.564
32.36000 346.501
32.37000 341.736
32.38000 333.156
32.39000 325.255
32.40000 323.444
32.41000 323.076
32.42000 322.728
32.43000 322.495
32.44000 322.278
32.45000 322.105
32.46000 325.167
32.47000 327.889
32.48000 329.502
32.49000 328.331
32.50000 327.025
32.51000 326.326
32.52000 326.670
32.53000 327.032
32.54000 327.225
32.55000 316.009
32.56000 308.399
32.57000 309.178
32.58000 316.213
32.59000 323.021
32.60000 321.479
32.61000 315.730
32.62000 310.241
32.63000 309.206
32.64000 309.671
32.65000 310.186
32.66000 311.145
32.67000 312.207
32.68000 312.563
32.69000 309.060
32.70000 304.973
32.71000 301.711
32.72000 307.675
32.73000 313.167
32.74000 316.342
32.75000 313.794
32.76000 310.981
32.77000 310.287
32.78000 313.163
32.79000 316.096
32.80000 317.648
32.81000 320.864
32.82000 323.049
32.83000 324.945
32.84000 326.630
32.85000 328.125
32.86000 323.003
32.87000 314.603
32.88000 306.596
32.89000 309.009
32.90000 314.520
32.91000 319.399
32.92000 318.882
32.93000 317.132
32.94000 316.171
32.95000 319.440
32.96000 323.336
32.97000 326.434
32.98000 313.783
32.99000 302.470
33.00000 295.520
33.01000 299.163
33.02000 303.279
33.03000 304.542
33.04000 301.082
33.05000 297.551
33.06000 295.700
33.07000 295.691
33.08000 295.711
33.09000 299.674
33.10000 306.471
33.11000 313.039
33.12000 311.983
33.13000 307.216
33.14000 302.678
33.15000 301.744
33.16000 301.989
33.17000 302.305
33.18000 303.215
33.19000 304.258
33.20000 305.080
33.21000 304.741
33.22000 304.233
33.23000 303.832
33.24000 296.549
33.25000 290.219
33.26000 287.588
33.27000 293.781
33.28000 300.354
33.29000 305.019
33.30000 306.578
33.31000 308.094
33.32000 308.882
33.33000 309.514
33.34000 309.917
33.35000 307.024
33.36000 301.805
33.37000 296.635
33.38000 293.027
33.39000 290.168
33.40000 287.450
33.41000 292.742
33.42000 300.051
33.43000 306.426
33.44000 305.175
33.45000 302.244
33.46000 298.788
33.47000 292.627
33.48000 286.082
33.49000 280.922
33.50000 283.212
33.51000 285.551
33.52000 287.676
33.53000 289.301
33.54000 290.906
33.55000 293.567
33.56000 297.918
33.57000 302.291
33.58000 304.540
33.59000 304.301
33.60000 304.150
33.61000 305.241
33.62000 307.192
33.63000 308.897
33.64000 303.073
33.65000 293.707
33.66000 284.823
33.67000 289.975
33.68000 298.888
33.69000 306.985
33.70000 308.570
33.71000 308.746
33.72000 308.387
33.73000 305.319
33.74000 301.876
33.75000 299.172
33.76000 294.538
33.77000 290.704
33.78000 288.395
33.79000 289.602
33.80000 290.950
33.81000 295.102
33.82000 303.656
33.83000 312.264
33.84000 316.649
33.85000 311.378
33.86000 307.867
33.87000 307.319
33.88000 308.788
33.89000 310.383
33.90000 315.686
33.91000 322.703
33.92000 329.348
33.93000 324.057
33.94000 315.716
33.95000 308.390
33.96000 308.983
33.97000 311.256
33.98000 313.440
33.99000 315.180
34.00000 316.860
34.01000 318.174
34.02000 317.743
34.03000 317.288
34.04000 317.708
34.05000 320.110
34.06000 322.588
34.07000 324.937
34.08000 327.089
34.09000 329.238
34.10000 330.322
34.11000 321.442
34.12000 315.536
34.13000 312.904
34.14000 312.460
34.15000 312.191
34.16000 316.816
34.17000 323.665
34.18000 330.140
34.19000 331.816
34.20000 331.988
34.21000 331.650
34.22000 327.433
34.23000 322.408
34.24000 319.397
34.25000 326.192
34.26000 334.292
34.27000 340.597
34.28000 347.650
34.29000 353.313
34.30000 355.969
34.31000 351.930
34.32000 347.643
34.33000 345.110
34.34000 345.234
34.35000 345.385
34.36000 343.985
34.37000 341.037
34.38000 338.077
34.39000 333.924
34.40000 328.988
34.41000 324.334
34.42000 327.235
34.43000 333.512
34.44000 339.436
34.45000 346.831
34.46000 354.022
34.47000 360.129
34.48000 358.144
34.49000 354.505
34.50000 350.708
34.51000 346.157
34.52000 341.508
34.53000 337.905
34.54000 337.423
34.55000 337.226
34.56000 335.560
34.57000 330.677
34.58000 325.680
34.59000 320.591
34.60000 315.364
34.61000 310.137
34.62000 307.661
34.63000 307.874
34.64000 308.091
34.65000 308.564
34.66000 309.203
34.67000 309.751
34.68000 307.967
34.69000 305.158
34.70000 302.512
34.71000 309.480
34.72000 318.495
34.73000 325.383
34.74000 316.736
34.75000 304.974
34.76000 295.332
34.77000 295.633
34.78000 297.200
34.79000 298.409
34.80000 296.676
34.81000 295.132
34.82000 294.583
34.83000 296.176
34.84000 297.841
34.85000 297.682
34.86000 294.857
34.87000 292.010
34.88000 289.121
34.89000 286.195
34.90000 283.343
34.91000 286.519
34.92000 293.517
34.93000 300.203
34.94000 299.181
34.95000 294.830
34.96000 290.739
34.97000 286.245
34.98000 282.034
34.99000 278.077
35.00000 275.948
35.01000 274.178
35.02000 272.135
35.03000 268.838
35.04000 265.384
35.05000 262.730
35.06000 270.497
35.07000 277.224
35.08000 280.790
35.09000 277.666
35.10000 274.326
35.11000 274.011
35.12000 278.040
35.13000 282.102
35.14000 282.704
35.15000 280.056
35.16000 277.378
35.17000 272.402
35.18000 265.996
35.19000 259.960
35.20000 262.732
35.21000 269.243
35.22000 275.354
35.23000 272.872
35.24000 268.343
35.25000 264.073
35.26000 261.623
35.27000 259.524
35.28000 258.565
35.29000 262.758
35.30000 267.578
35.31000 271.264
35.32000 268.872
35.33000 266.654
35.34000 266.960
35.35000 272.520
35.36000 278.242
35.37000 278.298
35.38000 270.368
35.39000 262.384
35.40000 261.408
35.41000 266.886
35.42000 272.271
35.43000 271.243
35.44000 266.290
35.45000 261.496
35.46000 260.368
35.47000 260.770
35.48000 261.146
35.49000 266.442
35.50000 272.533
35.51000 277.351
35.52000 273.439
35.53000 267.876
35.54000 264.251
35.55000 269.221
35.56000 275.214
35.57000 279.777
35.58000 274.022
35.59000 268.948
35.60000 265.289
35.61000 264.521
35.62000 263.838
35.63000 263.435
35.64000 263.418
35.65000 263.403
35.66000 263.408
35.67000 263.431
35.68000 263.441
35.69000 262.671
35.70000 261.430
35.71000 260.236
35.72000 260.054
35.73000 260.287
35.74000 260.504
35.75000 256.779
35.76000 252.396
35.77000 248.801
35.78000 250.492
35.79000 253.164
35.80000 256.243
35.81000 261.100
35.82000 266.164
35.83000 270.001
35.84000 268.076
35.85000 266.270
35.86000 263.766
35.87000 259.860
35.88000 255.914
35.89000 254.494
35.90000 256.507
35.91000 258.539
35.92000 261.796
35.93000 266.135
35.94000 270.384
35.95000 269.202
35.96000 264.810
35.97000 260.478
35.98000 257.420
35.99000 254.876
36.00000 252.503
36.01000 258.697
36.02000 266.441
36.03000 272.609
36.04000 268.427
36.05000 262.361
36.06000 257.185
36.07000 255.817
36.08000 254.882
36.09000 254.177
36.10000 254.726
36.11000 255.218
36.12000 256.389
36.13000 258.901
36.14000 261.448
36.15000 262.324
36.16000 260.967
36.17000 259.600
36.18000 256.506
36.19000 251.919
36.20000 247.440
36.21000 249.121
36.22000 254.378
36.23000 259.285
36.24000 257.006
36.25000 251.879
36.26000 247.104
36.27000 252.376
36.28000 259.593
36.29000 265.617
36.30000 263.961
36.31000 260.934
36.32000 257.819
36.33000 254.332
36.34000 250.804
36.35000 248.155
36.36000 252.510
36.37000 256.247
36.38000 258.902
36.39000 259.455
36.40000 259.955
36.41000 259.264
36.42000 257.015
36.43000 254.762
36.44000 253.432
36.45000 252.891
36.46000 252.416
36.47000 255.482
36.48000 260.568
36.49000 265.343
36.50000 263.930
36.51000 260.105
36.52000 256.551
36.53000 258.363
36.54000 261.281
36.55000 264.101
36.56000 266.309
36.57000 268.409
36.58000 269.852
36.59000 268.585
36.60000 267.024
36.61000 265.858
36.62000 268.056
36.63000 269.924
36.64000 271.846
36.65000 273.871
36.66000 275.898
36.67000 273.820
36.68000 266.463
36.69000 259.094
36.70000 257.256
36.71000 260.037
36.72000 262.759
36.73000 262.443
36.74000 260.424
36.75000 258.780
36.76000 264.343
36.77000 272.665
36.78000 280.383
36.79000 274.761
36.80000 266.570
36.81000 260.485
36.82000 267.404
36.83000 276.553
36.84000 282.219
36.85000 273.795
36.86000 263.880
36.87000 256.506
36.88000 271.056
36.89000 283.349
36.90000 291.782
36.91000 292.975
36.92000 294.001
36.93000 294.580
36.94000 294.597
36.95000 294.611
36.96000 292.458
36.97000 288.541
36.98000 284.774
36.99000 288.220
37.00000 295.638
37.01000 302.543
37.02000 299.921
37.03000 293.714
37.04000 287.969
37.05000 292.526
37.06000 298.989
37.07000 304.002
37.08000 300.237
37.09000 294.996
37.10000 290.238
37.11000 287.403
37.12000 284.765
37.13000 282.814
37.14000 275.640
37.15000 269.850
37.16000 268.698
37.17000 276.097
37.18000 283.683
37.19000 282.443
37.20000 270.271
37.21000 258.088
37.22000 257.212
37.23000 265.408
37.24000 273.557
37.25000 279.544
37.26000 284.361
37.27000 288.623
37.28000 282.923
37.29000 273.536
37.30000 264.867
37.31000 265.243
37.32000 267.619
37.33000 269.612
37.34000 269.342
37.35000 268.699
37.36000 268.203
37.37000 268.283
37.38000 268.421
37.39000 268.523
37.40000 264.691
37.41000 261.561
37.42000 259.645
37.43000 259.928
37.44000 260.257
37.45000 259.748
37.46000 258.221
37.47000 256.695
37.48000 256.276
37.49000 256.729
37.50000 257.152
37.51000 256.311
37.52000 254.797
37.53000 253.451
37.54000 255.028
37.55000 257.670
37.56000 260.104
37.57000 261.817
37.58000 263.190
37.59000 264.299
37.60000 263.869
37.61000 263.191
37.62000 262.928
37.63000 264.256
37.64000 265.740
37.65000 266.828
37.66000 264.108
37.67000 261.855
37.68000 258.801
37.69000 254.320
37.70000 249.812
37.71000 249.014
37.72000 252.642
37.73000 256.270
37.74000 255.089
37.75000 250.202
37.76000 245.537
37.77000 249.884
37.78000 258.943
37.79000 267.570
37.80000 268.911
37.81000 267.646
37.82000 266.484
37.83000 261.868
37.84000 256.998
37.85000 253.236
37.86000 255.783
37.87000 259.329
37.88000 261.576
37.89000 258.932
37.90000 255.819
37.91000 253.549
37.92000 262.071
37.93000 269.052
37.94000 271.825
37.95000 267.236
37.96000 262.512
37.97000 260.967
37.98000 263.142
37.99000 265.318
38.00000 262.897
38.01000 257.012
38.02000 251.314
38.03000 252.870
38.04000 258.154
38.05000 263.115
38.06000 262.790
38.07000 260.608
38.08000 258.606
38.09000 264.646
38.10000 271.736
38.11000 276.911
38.12000 271.387
38.13000 264.205
38.14000 260.378
38.15000 268.964
38.16000 278.710
38.17000 285.779
38.18000 276.101
38.19000 268.042
38.20000 266.734
38.21000 277.032
38.22000 287.530
38.23000 296.086
38.24000 302.412
38.25000 308.716
38.26000 314.101
38.27000 318.764
38.28000 323.483
38.29000 330.289
38.30000 338.148
38.31000 346.110
38.32000 355.681
38.33000 365.808
38.34000 375.078
38.35000 394.293
38.36000 413.452
38.37000 432.378
38.38000 450.026
38.39000 467.481
38.40000 483.765
38.41000 495.794
38.42000 507.436
38.43000 515.835
38.44000 564.152
38.45000 602.617
38.46000 638.153
38.47000 668.737
38.48000 699.242
38.49000 730.522
38.50000 762.675
38.51000 794.724
38.52000 826.786
38.53000 858.600
38.54000 890.636
38.55000 930.495
38.56000 974.238
38.57000 1016.999
38.58000 1044.692
38.59000 1067.270
38.60000 1087.890
38.61000 1122.668
38.62000 1156.425
38.63000 1186.247
38.64000 1194.927
38.65000 1200.465
38.66000 1210.637
38.67000 1237.351
38.68000 1265.535
38.69000 1285.762
38.70000 1261.897
38.71000 1242.130
38.72000 1229.500
38.73000 1228.714
38.74000 1228.109
38.75000 1228.495
38.76000 1229.978
38.77000 1231.457
38.78000 1209.862
38.79000 1171.981
38.80000 1133.918
38.81000 1089.705
38.82000 1042.492
38.83000 995.770
38.84000 956.364
38.85000 919.398
38.86000 885.715
38.87000 845.439
38.88000 808.442
38.89000 770.898
38.90000 730.465
38.91000 689.612
38.92000 649.883
38.93000 614.095
38.94000 578.648
38.95000 553.342
38.96000 509.993
38.97000 476.328
38.98000 449.934
38.99000 435.398
39.00000 421.029
39.01000 407.526
39.02000 394.960
39.03000 382.446
39.04000 365.728
39.05000 346.231
39.06000 326.977
39.07000 315.540
39.08000 307.853
39.09000 300.240
39.10000 293.696
39.11000 287.501
39.12000 281.871
39.13000 278.809
39.14000 276.605
39.15000 273.531
39.16000 265.960
39.17000 257.749
39.18000 251.283
39.19000 250.830
39.20000 250.884
39.21000 250.922
39.22000 244.826
39.23000 239.993
39.24000 239.276
39.25000 245.154
39.26000 251.120
39.27000 252.001
39.28000 247.485
39.29000 242.989
39.30000 243.256
39.31000 246.796
39.32000 250.037
39.33000 244.137
39.34000 233.925
39.35000 224.584
39.36000 227.476
39.37000 234.311
39.38000 240.509
39.39000 240.230
39.40000 238.744
39.41000 237.310
39.42000 236.139
39.43000 235.004
39.44000 234.781
39.45000 237.647
39.46000 240.766
39.47000 242.969
39.48000 239.950
39.49000 237.499
39.50000 233.023
39.51000 225.360
39.52000 217.658
39.53000 218.563
39.54000 228.427
39.55000 238.241
39.56000 241.004
39.57000 238.979
39.58000 237.057
39.59000 238.168
39.60000 240.684
39.61000 242.813
39.62000 239.655
39.63000 234.822
39.64000 230.450
39.65000 232.866
39.66000 236.265
39.67000 238.301
39.68000 233.558
39.69000 227.889
39.70000 223.478
39.71000 223.249
39.72000 223.354
39.73000 223.428
39.74000 231.504
39.75000 237.854
39.76000 241.237
39.77000 240.032
39.78000 238.775
39.79000 236.173
39.80000 232.198
39.81000 228.246
39.82000 230.052
39.83000 235.645
39.84000 241.086
39.85000 242.257
39.86000 241.482
39.87000 240.634
39.88000 238.814
39.89000 236.691
39.90000 234.775
39.91000 237.505
39.92000 240.756
39.93000 242.819
39.94000 239.081
39.95000 234.567
39.96000 231.233
39.97000 231.755
39.98000 232.576
39.99000 233.150
40.00000 227.067
40.01000 222.286
40.02000 222.109
40.03000 228.926
40.04000 235.816
40.05000 236.300
40.06000 230.377
40.07000 224.491
40.08000 223.248
40.09000 225.036
40.10000 226.801
40.11000 227.967
40.12000 228.863
40.13000 229.759
40.14000 230.639
40.15000 231.514
40.16000 232.302
40.17000 228.693
40.18000 224.739
40.19000 221.464
40.20000 221.442
40.21000 221.845
40.22000 221.057
40.23000 216.446
40.24000 211.546
40.25000 208.143
40.26000 211.139
40.27000 213.567
40.28000 214.932
40.29000 214.711
40.30000 214.475
40.31000 215.845
40.32000 218.790
40.33000 221.715
40.34000 222.231
40.35000 221.204
40.36000 220.255
40.37000 221.319
40.38000 223.269
40.39000 224.888
40.40000 222.349
40.41000 218.560
40.42000 215.157
40.43000 215.603
40.44000 216.670
40.45000 217.989
40.46000 220.494
40.47000 223.150
40.48000 224.895
40.49000 223.762
40.50000 222.417
40.51000 221.489
40.52000 222.646
40.53000 223.569
40.54000 222.408
40.55000 218.193
40.56000 213.953
40.57000 210.441
40.58000 207.629
40.59000 204.839
40.60000 208.536
40.61000 216.228
40.62000 223.670
40.63000 224.864
40.64000 223.354
40.65000 221.994
40.66000 222.466
40.67000 223.479
40.68000 224.387
40.69000 222.417
40.70000 220.201
40.71000 218.152
40.72000 216.871
40.73000 215.687
40.74000 214.475
40.75000 213.174
40.76000 211.867
40.77000 210.970
40.78000 212.379
40.79000 213.492
40.80000 214.953
40.81000 216.913
40.82000 218.877
40.83000 222.266
40.84000 226.998
40.85000 231.692
40.86000 227.970
40.87000 219.153
40.88000 210.650
40.89000 209.676
40.90000 211.905
40.91000 214.060
40.92000 215.343
40.93000 216.374
40.94000 217.294
40.95000 216.805
40.96000 216.141
40.97000 215.866
40.98000 217.355
40.99000 219.058
41.00000 220.586
41.01000 221.578
41.02000 222.532
41.03000 223.184
41.04000 220.274
41.05000 218.015
41.06000 213.861
41.07000 207.029
41.08000 200.180
41.09000 197.724
41.10000 199.325
41.11000 200.912
41.12000 202.311
41.13000 203.569
41.14000 204.851
41.15000 206.699
41.16000 208.783
41.17000 211.009
41.18000 214.865
41.19000 219.187
41.20000 223.038
41.21000 217.396
41.22000 210.925
41.23000 205.730
41.24000 206.213
41.25000 207.374
41.26000 208.727
41.27000 210.654
41.28000 212.620
41.29000 213.954
41.30000 200.678
41.31000 190.450
41.32000 188.474
41.33000 197.949
41.34000 207.494
41.35000 211.169
41.36000 209.527
41.37000 207.899
41.38000 202.624
41.39000 195.302
41.40000 188.329
41.41000 189.145
41.42000 193.162
41.43000 197.088
41.44000 199.997
41.45000 202.619
41.46000 204.950
41.47000 205.996
41.48000 206.697
41.49000 207.094
41.50000 206.168
41.51000 205.087
41.52000 206.267
41.53000 214.105
41.54000 222.378
41.55000 227.959
41.56000 221.434
41.57000 216.324
41.58000 212.380
41.59000 210.027
41.60000 207.686
41.61000 207.539
41.62000 209.343
41.63000 211.129
41.64000 212.684
41.65000 214.070
41.66000 215.174
41.67000 210.206
41.68000 202.783
41.69000 196.220
41.70000 199.085
41.71000 204.546
41.72000 209.385
41.73000 209.036
41.74000 207.913
41.75000 206.655
41.76000 204.816
41.77000 202.911
41.78000 201.845
41.79000 203.207
41.80000 204.722
41.81000 205.739
41.82000 206.485
41.83000 207.033
41.84000 206.480
41.85000 204.455
41.86000 202.425
41.87000 203.882
41.88000 208.376
41.89000 212.821
41.90000 217.927
41.91000 223.292
41.92000 228.239
41.93000 224.537
41.94000 217.398
41.95000 211.008
41.96000 212.628
41.97000 216.416
41.98000 219.763
41.99000 215.149
42.00000 209.933
42.01000 206.066
42.02000 207.872
42.03000 210.309
42.04000 211.596
42.05000 209.606
42.06000 207.414
42.07000 205.955
42.08000 211.481
42.09000 215.706
42.10000 216.534
42.11000 212.901
42.12000 209.250
42.13000 207.121
42.14000 206.292
42.15000 205.473
42.16000 208.287
42.17000 213.061
42.18000 217.583
42.19000 217.073
42.20000 214.598
42.21000 212.571
42.22000 215.217
42.23000 219.105
42.24000 222.532
42.25000 214.185
42.26000 205.208
42.27000 198.882
42.28000 203.503
42.29000 209.315
42.30000 212.736
42.31000 209.471
42.32000 205.809
42.33000 203.384
42.34000 208.234
42.35000 211.947
42.36000 213.672
42.37000 212.835
42.38000 211.985
42.39000 210.117
42.40000 207.395
42.41000 204.707
42.42000 205.160
42.43000 207.323
42.44000 209.409
42.45000 210.019
42.46000 210.063
42.47000 209.876
42.48000 207.353
42.49000 204.219
42.50000 201.465
42.51000 206.944
42.52000 212.874
42.53000 216.968
42.54000 213.611
42.55000 209.463
42.56000 205.580
42.57000 202.427
42.58000 199.315
42.59000 197.268
42.60000 199.467
42.61000 201.159
42.62000 202.758
42.63000 204.237
42.64000 205.713
42.65000 205.682
42.66000 204.411
42.67000 203.157
42.68000 203.610
42.69000 204.967
42.70000 206.237
42.71000 205.872
42.72000 204.891
42.73000 204.230
42.74000 206.756
42.75000 210.099
42.76000 213.029
42.77000 213.399
42.78000 213.345
42.79000 213.442
42.80000 214.133
42.81000 214.886
42.82000 215.160
42.83000 214.138
42.84000 213.044
42.85000 212.329
42.86000 208.856
42.87000 206.260
42.88000 203.936
42.89000 201.949
42.90000 199.976
42.91000 203.031
42.92000 210.147
42.93000 217.163
42.94000 217.844
42.95000 215.165
42.96000 212.567
42.97000 211.425
42.98000 210.824
42.99000 209.815
43.00000 204.858
43.01000 198.909
43.02000 193.709
43.03000 200.169
43.04000 207.351
43.05000 212.905
43.06000 212.084
43.07000 210.618
43.08000 209.366
43.09000 208.684
43.10000 208.032
43.11000 207.609
43.12000 204.838
43.13000 202.772
43.14000 202.818
43.15000 205.437
43.16000 208.048
43.17000 206.468
43.18000 201.564
43.19000 196.732
43.20000 196.345
43.21000 198.268
43.22000 200.095
43.23000 200.251
43.24000 199.796
43.25000 199.330
43.26000 198.754
43.27000 198.150
43.28000 197.623
43.29000 195.324
43.30000 193.115
43.31000 191.506
43.32000 192.210
43.33000 193.141
43.34000 193.856
43.35000 194.007
43.36000 194.127
43.37000 194.205
43.38000 193.000
43.39000 192.101
43.40000 192.855
43.41000 195.586
43.42000 198.315
43.43000 199.522
43.44000 199.546
43.45000 199.569
43.46000 197.096
43.47000 193.432
43.48000 190.106
43.49000 192.484
43.50000 196.907
43.51000 201.057
43.52000 202.686
43.53000 203.702
43.54000 204.585
43.55000 197.498
43.56000 190.378
43.57000 185.413
43.58000 188.588
43.59000 192.546
43.60000 194.377
43.61000 190.747
43.62000 186.841
43.63000 184.336
43.64000 186.198
43.65000 187.613
43.66000 188.812
43.67000 189.756
43.68000 190.693
43.69000 190.021
43.70000 188.120
43.71000 186.251
43.72000 190.365
43.73000 197.327
43.74000 203.881
43.75000 203.739
43.76000 201.239
43.77000 198.875
43.78000 197.735
43.79000 196.888
43.80000 196.154
43.81000 196.441
43.82000 196.821
43.83000 196.861
43.84000 195.641
43.85000 194.302
43.86000 193.618
43.87000 194.585
43.88000 195.633
43.89000 196.301
43.90000 199.106
43.91000 201.172
43.92000 201.804
43.93000 200.785
43.94000 199.754
43.95000 196.775
43.96000 192.336
43.97000 187.975
43.98000 188.922
43.99000 192.434
44.00000 195.405
44.01000 189.776
44.02000 181.168
44.03000 174.275
44.04000 182.466
44.05000 194.188
44.06000 204.311
44.07000 200.958
44.08000 196.369
44.09000 192.550
44.10000 191.534
44.11000 190.774
44.12000 191.196
44.13000 194.548
44.14000 198.038
44.15000 200.246
44.16000 200.197
44.17000 200.135
44.18000 202.454
44.19000 207.461
44.20000 212.441
44.21000 212.104
44.22000 207.854
44.23000 203.682
44.24000 203.218
44.25000 204.551
44.26000 205.708
44.27000 204.142
44.28000 201.649
44.29000 199.522
44.30000 200.550
44.31000 202.303
44.32000 203.812
44.33000 201.302
44.34000 198.667
44.35000 196.890
44.36000 198.179
44.37000 199.742
44.38000 201.016
44.39000 201.586
44.40000 202.124
44.41000 202.462
44.42000 208.153
44.43000 212.327
44.44000 215.004
44.45000 216.024
44.46000 217.033
44.47000 216.546
44.48000 214.977
44.49000 213.439
44.50000 211.446
44.51000 209.313
44.52000 207.490
44.53000 210.295
44.54000 214.649
44.55000 218.324
44.56000 216.287
44.57000 212.963
44.58000 210.109
44.59000 213.891
44.60000 217.906
44.61000 221.798
44.62000 225.254
44.63000 228.671
44.64000 231.267
44.65000 231.890
44.66000 232.427
44.67000 232.763
44.68000 234.433
44.69000 235.652
44.70000 233.656
44.71000 228.169
44.72000 222.726
44.73000 223.658
44.74000 229.115
44.75000 234.460
44.76000 240.863
44.77000 247.506
44.78000 253.504
44.79000 250.130
44.80000 243.674
44.81000 238.250
44.82000 241.302
44.83000 246.231
44.84000 250.449
44.85000 260.113
44.86000 268.921
44.87000 277.815
44.88000 287.007
44.89000 296.224
44.90000 300.321
44.91000 292.347
44.92000 283.866
44.93000 278.613
44.94000 274.314
44.95000 271.232
44.96000 269.955
44.97000 270.600
44.98000 271.269
44.99000 274.940
45.00000 280.702
45.01000 286.341
45.02000 289.754
45.03000 292.018
45.04000 294.169
45.05000 294.707
45.06000 294.724
45.07000 293.967
45.08000 286.992
45.09000 278.665
45.10000 271.564
45.11000 267.954
45.12000 265.327
45.13000 263.362
45.14000 263.639
45.15000 264.101
45.16000 262.684
45.17000 256.915
45.18000 250.971
45.19000 247.314
45.20000 253.470
45.21000 257.971
45.22000 260.462
45.23000 260.855
45.24000 261.224
45.25000 258.843
45.26000 254.580
45.27000 250.413
45.28000 249.814
45.29000 250.828
45.30000 251.047
45.31000 240.388
45.32000 226.274
45.33000 213.746
45.34000 213.683
45.35000 216.280
45.36000 218.487
45.37000 222.562
45.38000 226.198
45.39000 228.036
45.40000 223.873
45.41000 219.230
45.42000 216.815
45.43000 219.478
45.44000 222.338
45.45000 224.084
45.46000 216.916
45.47000 211.717
45.48000 207.052
45.49000 202.934
45.50000 198.876
45.51000 201.217
45.52000 207.862
45.53000 214.349
45.54000 210.514
45.55000 202.334
45.56000 194.676
45.57000 193.959
45.58000 195.409
45.59000 196.604
45.60000 195.831
45.61000 194.647
45.62000 193.644
45.63000 194.511
45.64000 195.448
45.65000 196.253
45.66000 196.629
45.67000 196.970
45.68000 196.278
45.69000 193.270
45.70000 190.175
45.71000 188.299
45.72000 190.908
45.73000 192.802
45.74000 191.484
45.75000 186.942
45.76000 182.453
45.77000 183.045
45.78000 186.991
45.79000 190.839
45.80000 189.735
45.81000 186.556
45.82000 183.915
45.83000 188.222
45.84000 194.662
45.85000 199.833
45.86000 195.473
45.87000 189.154
45.88000 183.817
45.89000 188.094
45.90000 192.723
45.91000 196.348
45.92000 196.736
45.93000 196.880
45.94000 195.054
45.95000 188.896
45.96000 182.582
45.97000 178.784
45.98000 183.582
45.99000 187.054
46.00000 186.424
46.01000 181.763
46.02000 177.127
46.03000 174.655
46.04000 173.589
46.05000 172.550
46.06000 176.528
46.07000 182.434
46.08000 187.868
46.09000 187.372
46.10000 185.089
46.11000 183.115
46.12000 183.420
46.13000 184.185
46.14000 184.829
46.15000 184.957
46.16000 185.009
46.17000 182.514
46.18000 171.961
46.19000 160.813
46.20000 155.686
46.21000 163.584
46.22000 171.929
46.23000 176.912
46.24000 169.932
46.25000 164.907
46.26000 166.642
46.27000 174.892
46.28000 183.053
46.29000 183.814
46.30000 179.859
46.31000 176.012
46.32000 174.835
46.33000 174.816
46.34000 174.756
46.35000 174.185
46.36000 173.464
46.37000 172.627
46.38000 170.952
46.39000 169.113
46.40000 167.569
46.41000 169.546
46.42000 171.558
46.43000 174.213
46.44000 178.869
46.45000 183.668
46.46000 186.251
46.47000 184.121
46.48000 181.836
46.49000 180.482
46.50000 177.249
46.51000 174.952
46.52000 172.388
46.53000 169.572
46.54000 166.755
46.55000 163.903
46.56000 161.028
46.57000 158.234
46.58000 163.386
46.59000 171.503
46.60000 178.830
46.61000 176.736
46.62000 171.901
46.63000 168.319
46.64000 173.559
46.65000 180.511
46.66000 186.324
46.67000 179.408
46.68000 172.369
46.69000 166.990
46.70000 166.686
46.71000 166.735
46.72000 168.084
46.73000 172.149
46.74000 176.299
46.75000 178.740
46.76000 178.920
46.77000 179.035
46.78000 175.796
46.79000 169.451
46.80000 163.211
46.81000 164.485
46.82000 170.379
46.83000 176.099
46.84000 175.957
46.85000 173.490
46.86000 171.482
46.87000 174.800
46.88000 179.641
46.89000 183.538
46.90000 180.921
46.91000 177.065
46.92000 173.852
46.93000 169.780
46.94000 166.321
46.95000 163.755
46.96000 163.873
46.97000 164.172
46.98000 164.985
46.99000 166.852
47.00000 168.752
47.01000 169.860
47.02000 174.479
47.03000 177.742
47.04000 177.069
47.05000 172.821
47.06000 168.629
47.07000 168.209
47.08000 170.068
47.09000 171.871
47.10000 173.717
47.11000 175.481
47.12000 176.867
47.13000 173.971
47.14000 169.871
47.15000 165.946
47.16000 163.200
47.17000 160.673
47.18000 158.575
47.19000 165.752
47.20000 172.584
47.21000 176.021
47.22000 169.431
47.23000 162.184
47.24000 158.864
47.25000 163.474
47.26000 168.312
47.27000 171.112
47.28000 168.139
47.29000 166.029
47.30000 161.444
47.31000 154.655
47.32000 147.996
47.33000 149.512
47.34000 155.880
47.35000 162.045
47.36000 166.063
47.37000 169.040
47.38000 171.634
47.39000 170.021
47.40000 167.246
47.41000 165.068
47.42000 166.832
47.43000 169.319
47.44000 171.376
47.45000 166.806
47.46000 162.410
47.47000 159.459
47.48000 160.700
47.49000 162.208
47.50000 163.126
47.51000 162.874
47.52000 162.589
47.53000 162.426
47.54000 166.794
47.55000 169.862
47.56000 170.131
47.57000 167.954
47.58000 165.806
47.59000 165.339
47.60000 165.851
47.61000 166.347
47.62000 163.213
47.63000 158.890
47.64000 155.017
47.65000 155.961
47.66000 158.211
47.67000 160.607
47.68000 163.945
47.69000 167.452
47.70000 170.343
47.71000 170.423
47.72000 170.230
47.73000 169.542
47.74000 167.440
47.75000 165.250
47.76000 162.451
47.77000 158.461
47.78000 154.440
47.79000 152.150
47.80000 156.898
47.81000 160.232
47.82000 164.633
47.83000 169.948
47.84000 175.217
47.85000 177.936
47.86000 179.194
47.87000 180.408
47.88000 175.550
47.89000 168.735
47.90000 162.495
47.91000 162.285
47.92000 163.681
47.93000 164.641
47.94000 162.837
47.95000 160.547
47.96000 158.667
47.97000 158.584
47.98000 158.678
47.99000 159.016
48.00000 160.039
48.01000 161.102
48.02000 162.486
48.03000 164.484
48.04000 166.497
48.05000 167.634
48.06000 163.212
48.07000 160.132
48.08000 161.318
48.09000 166.093
48.10000 170.700
48.11000 166.638
48.12000 157.691
48.13000 149.066
48.14000 150.326
48.15000 155.089
48.16000 159.496
48.17000 160.274
48.18000 160.104
48.19000 159.980
48.20000 160.147
48.21000 160.364
48.22000 160.542
48.23000 160.709
48.24000 160.845
48.25000 160.986
48.26000 161.140
48.27000 161.296
48.28000 159.813
48.29000 155.241
48.30000 150.596
48.31000 147.995
48.32000 152.244
48.33000 155.199
48.34000 155.406
48.35000 153.345
48.36000 151.351
48.37000 152.636
48.38000 155.736
48.39000 158.720
48.40000 156.763
48.41000 153.170
48.42000 150.322
48.43000 154.892
48.44000 161.369
48.45000 167.485
48.46000 171.409
48.47000 174.963
48.48000 177.859
48.49000 170.269
48.50000 163.173
48.51000 158.245
48.52000 159.194
48.53000 160.472
48.54000 161.717
48.55000 162.900
48.56000 164.082
48.57000 164.738
48.58000 159.134
48.59000 155.259
48.60000 155.141
48.61000 158.067
48.62000 160.983
48.63000 163.460
48.64000 165.698
48.65000 167.849
48.66000 163.275
48.67000 156.645
48.68000 150.314
48.69000 146.876
48.70000 144.170
48.71000 142.705
48.72000 148.654
48.73000 155.831
48.74000 161.659
48.75000 160.139
48.76000 158.290
48.77000 156.985
48.78000 157.130
48.79000 157.352
48.80000 158.464
48.81000 161.195
48.82000 163.959
48.83000 165.482
48.84000 167.184
48.85000 168.351
48.86000 167.335
48.87000 164.584
48.88000 161.865
48.89000 160.551
48.90000 159.988
48.91000 159.448
48.92000 159.252
48.93000 159.188
48.94000 159.308
48.95000 161.191
48.96000 163.510
48.97000 164.769
48.98000 159.826
48.99000 153.875
49.00000 149.061
49.01000 151.647
49.02000 154.348
49.03000 156.508
49.04000 157.249
49.05000 157.917
49.06000 157.653
49.07000 155.721
49.08000 153.756
49.09000 152.684
49.10000 151.591
49.11000 150.843
49.12000 150.698
49.13000 151.022
49.14000 151.339
49.15000 151.339
49.16000 151.173
49.17000 151.014
49.18000 150.418
49.19000 149.714
49.20000 149.046
49.21000 148.700
49.22000 148.433
49.23000 148.593
49.24000 151.208
49.25000 154.214
49.26000 156.635
49.27000 161.215
49.28000 165.103
49.29000 166.560
49.30000 161.760
49.31000 156.643
49.32000 152.790
49.33000 151.159
49.34000 149.570
49.35000 148.710
49.36000 152.311
49.37000 154.778
49.38000 156.730
49.39000 158.286
49.40000 159.743
49.41000 157.260
49.42000 152.742
49.43000 148.418
49.44000 149.732
49.45000 152.811
49.46000 155.679
49.47000 156.638
49.48000 157.140
49.49000 157.179
49.50000 154.617
49.51000 151.650
49.52000 149.268
49.53000 149.917
49.54000 150.674
49.55000 151.049
49.56000 150.458
49.57000 149.819
49.58000 149.973
49.59000 151.497
49.60000 153.045
49.61000 153.875
49.62000 153.888
49.63000 153.885
49.64000 151.521
49.65000 147.384
49.66000 143.372
49.67000 144.090
49.68000 147.209
49.69000 150.189
49.70000 151.763
49.71000 152.774
49.72000 153.791
49.73000 154.868
49.74000 155.957
49.75000 156.430
49.76000 153.501
49.77000 150.053
49.78000 147.296
49.79000 149.013
49.80000 150.733
49.81000 152.375
49.82000 153.825
49.83000 155.265
49.84000 154.437
49.85000 149.758
49.86000 145.015
49.87000 142.495
49.88000 145.088
49.89000 146.854
49.90000 148.498
49.91000 150.052
49.92000 151.549
49.93000 151.035
49.94000 149.517
49.95000 148.069
49.96000 148.686
49.97000 149.912
49.98000 151.372
49.99000 154.859
50.00000 158.811
50.01000 162.291
50.02000 163.215
50.03000 163.756
50.04000 164.188
50.05000 165.829
50.06000 167.240
50.07000 166.829
50.08000 161.962
50.09000 156.892
50.10000 154.789
50.11000 157.637
50.12000 160.562
50.13000 162.102
50.14000 158.522
50.15000 156.108
50.16000 156.272
50.17000 158.306
50.18000 160.348
50.19000 162.644
50.20000 165.065
50.21000 167.371
50.22000 165.072
50.23000 161.511
50.24000 158.350
50.25000 158.560
50.26000 159.531
50.27000 160.248
50.28000 159.608
50.29000 158.770
50.30000 158.105
50.31000 165.981
50.32000 172.917
50.33000 175.993
50.34000 169.793
50.35000 163.187
50.36000 159.763
50.37000 161.555
50.38000 163.423
50.39000 164.397
50.40000 168.532
50.41000 171.313
50.42000 171.759
50.43000 170.544
50.44000 169.482
50.45000 173.427
50.46000 179.784
50.47000 185.830
50.48000 186.439
50.49000 185.345
50.50000 184.536
50.51000 186.077
50.52000 188.140
50.53000 189.639
50.54000 188.206
50.55000 186.353
50.56000 184.889
50.57000 188.581
50.58000 191.896
50.59000 193.638
50.60000 191.662
50.61000 189.530
50.62000 188.706
50.63000 189.991
50.64000 191.304
50.65000 191.982
50.66000 192.727
50.67000 193.212
50.68000 191.479
50.69000 188.194
50.70000 184.965
50.71000 183.428
50.72000 182.695
50.73000 181.998
50.74000 182.168
50.75000 182.585
50.76000 182.659
50.77000 179.978
50.78000 176.695
50.79000 174.352
50.80000 176.800
50.81000 179.921
50.82000 182.376
50.83000 181.760
50.84000 181.064
50.85000 180.832
50.86000 181.680
50.87000 182.571
50.88000 180.677
50.89000 174.376
50.90000 168.020
50.91000 164.768
50.92000 164.052
50.93000 163.579
50.94000 163.978
50.95000 164.975
50.96000 165.954
50.97000 166.399
50.98000 166.595
50.99000 166.781
51.00000 163.968
51.01000 160.498
51.02000 157.386
51.03000 157.097
51.04000 157.413
51.05000 157.697
51.06000 157.824
51.07000 157.929
51.08000 158.011
51.09000 159.476
51.10000 160.736
51.11000 162.177
51.12000 164.032
51.13000 165.902
51.14000 165.639
51.15000 162.057
51.16000 158.438
51.17000 156.604
51.18000 158.163
51.19000 159.208
51.20000 160.399
51.21000 161.688
51.22000 162.758
51.23000 157.605
51.24000 149.603
51.25000 142.032
51.26000 144.113
51.27000 148.804
51.28000 153.316
51.29000 156.450
51.30000 159.295
51.31000 161.442
51.32000 160.159
51.33000 158.415
51.34000 157.055
51.35000 152.378
51.36000 148.442
51.37000 146.369
51.38000 148.475
51.39000 150.738
51.40000 152.839
51.41000 154.691
51.42000 156.540
51.43000 157.467
51.44000 150.967
51.45000 146.658
51.46000 145.149
51.47000 145.494
51.48000 145.709
51.49000 142.391
51.50000 137.481
51.51000 132.844
51.52000 133.278
51.53000 135.106
51.54000 137.141
51.55000 140.737
51.56000 144.655
51.57000 147.970
51.58000 148.378
51.59000 148.404
51.60000 148.424
51.61000 147.522
51.62000 146.749
51.63000 145.554
51.64000 143.431
51.65000 141.274
51.66000 141.457
51.67000 145.148
51.68000 148.873
51.69000 147.159
51.70000 140.080
51.71000 133.083
51.72000 133.606
51.73000 139.020
51.74000 144.236
51.75000 144.268
51.76000 142.006
51.77000 139.874
51.78000 140.883
51.79000 142.677
51.80000 144.032
51.81000 142.149
51.82000 139.612
51.83000 138.013
51.84000 140.852
51.85000 144.262
51.86000 146.899
51.87000 143.073
51.88000 139.658
51.89000 138.333
51.90000 141.544
51.91000 144.911
51.92000 144.992
51.93000 140.233
51.94000 135.431
51.95000 132.946
51.96000 132.700
51.97000 132.484
51.98000 134.764
51.99000 138.639
52.00000 142.320
52.01000 141.118
52.02000 137.792
52.03000 134.662
52.04000 135.033
52.05000 136.322
52.06000 137.799
52.07000 140.634
52.08000 143.738
52.09000 145.443
52.10000 140.655
52.11000 135.050
52.12000 130.736
52.13000 137.246
52.14000 143.016
52.15000 146.178
52.16000 143.781
52.17000 141.200
52.18000 138.738
52.19000 136.447
52.20000 134.159
52.21000 133.546
52.22000 134.522
52.23000 135.534
52.24000 139.284
52.25000 144.753
52.26000 149.962
52.27000 148.861
52.28000 145.061
52.29000 141.492
52.30000 137.488
52.31000 133.720
52.32000 130.778
52.33000 133.668
52.34000 137.694
52.35000 141.267
52.36000 142.774
52.37000 144.028
52.38000 144.989
52.39000 145.207
52.40000 145.337
52.41000 144.935
52.42000 143.414
52.43000 141.857
52.44000 140.799
52.45000 140.447
52.46000 140.101
52.47000 140.528
52.48000 141.672
52.49000 142.832
52.50000 145.083
52.51000 148.008
52.52000 150.711
52.53000 148.249
52.54000 143.615
52.55000 139.271
52.56000 140.490
52.57000 143.052
52.58000 145.335
52.59000 145.689
52.60000 145.674
52.61000 145.437
52.62000 144.208
52.63000 142.859
52.64000 141.831
52.65000 142.261
52.66000 142.678
52.67000 142.114
52.68000 139.527
52.69000 136.879
52.70000 134.002
52.71000 130.805
52.72000 127.608
52.73000 126.236
52.74000 126.527
52.75000 126.895
52.76000 132.513
52.77000 141.311
52.78000 149.664
52.79000 148.009
52.80000 142.218
52.81000 136.800
52.82000 138.251
52.83000 141.328
52.84000 144.407
52.85000 147.510
52.86000 150.616
52.87000 152.710
52.88000 150.362
52.89000 147.492
52.90000 145.313
52.91000 147.107
52.92000 148.722
52.93000 150.113
52.94000 151.050
52.95000 151.974
52.96000 151.007
52.97000 147.452
52.98000 143.883
52.99000 146.545
53.00000 154.766
53.01000 162.855
53.02000 162.612
53.03000 157.411
53.04000 152.312
53.05000 149.423
53.06000 147.431
53.07000 145.572
53.08000 145.240
53.09000 145.323
53.10000 145.886
53.11000 149.626
53.12000 153.950
53.13000 157.486
53.14000 157.622
53.15000 157.368
53.16000 157.177
53.17000 155.255
53.18000 153.661
53.19000 152.977
53.20000 154.104
53.21000 155.281
53.22000 155.880
53.23000 155.704
53.24000 155.523
53.25000 156.932
53.26000 159.728
53.27000 162.490
53.28000 163.203
53.29000 162.717
53.30000 162.334
53.31000 164.086
53.32000 166.691
53.33000 169.119
53.34000 164.345
53.35000 158.252
53.36000 152.860
53.37000 152.026
53.38000 152.013
53.39000 152.361
53.40000 154.240
53.41000 156.290
53.42000 157.833
53.43000 160.241
53.44000 162.167
53.45000 163.137
53.46000 162.239
53.47000 161.291
53.48000 160.485
53.49000 159.866
53.50000 159.248
53.51000 158.489
53.52000 157.611
53.53000 156.696
53.54000 153.730
53.55000 149.584
53.56000 145.582
53.57000 144.455
53.58000 144.456
53.59000 144.458
53.60000 144.296
53.61000 144.112
53.62000 144.077
53.63000 144.995
53.64000 146.081
53.65000 147.075
53.66000 147.683
53.67000 148.249
53.68000 148.673
53.69000 149.611
53.70000 150.368
53.71000 151.858
53.72000 154.759
53.73000 157.695
53.74000 158.478
53.75000 156.471
53.76000 154.455
53.77000 154.494
53.78000 156.263
53.79000 157.925
53.80000 154.041
53.81000 147.025
53.82000 140.232
53.83000 137.768
53.84000 136.974
53.85000 136.238
53.86000 138.738
53.87000 141.757
53.88000 144.389
53.89000 144.606
53.90000 144.405
53.91000 143.697
53.92000 140.921
53.93000 137.923
53.94000 135.689
53.95000 136.599
53.96000 137.449
53.97000 138.745
53.98000 140.882
53.99000 143.038
54.00000 144.834
54.01000 146.170
54.02000 147.503
54.03000 147.916
54.04000 147.569
54.05000 147.251
54.06000 148.393
54.07000 150.345
54.08000 152.031
54.09000 148.702
54.10000 143.470
54.11000 138.623
54.12000 138.721
54.13000 139.954
54.14000 141.577
54.15000 145.580
54.16000 149.987
54.17000 151.944
54.18000 144.092
54.19000 135.216
54.20000 128.634
54.21000 131.029
54.22000 133.282
54.23000 135.570
54.24000 137.923
54.25000 140.277
54.26000 142.542
54.27000 144.697
54.28000 146.848
54.29000 144.812
54.30000 139.395
54.31000 134.046
54.32000 131.888
54.33000 131.471
54.34000 131.388
54.35000 137.401
54.36000 145.686
54.37000 153.345
54.38000 147.906
54.39000 140.048
54.40000 133.553
54.41000 135.221
54.42000 138.245
54.43000 140.353
54.44000 138.859
54.45000 136.998
54.46000 135.624
54.47000 140.057
54.48000 143.736
54.49000 145.521
54.50000 143.850
54.51000 142.106
54.52000 142.328
54.53000 144.961
54.54000 147.594
54.55000 147.353
54.56000 144.831
54.57000 142.419
54.58000 144.847
54.59000 149.870
54.60000 154.416
54.61000 150.563
54.62000 143.631
54.63000 137.238
54.64000 136.321
54.65000 136.719
54.66000 136.936
54.67000 136.095
54.68000 135.082
54.69000 134.971
54.70000 138.352
54.71000 142.080
54.72000 144.817
54.73000 141.685
54.74000 139.026
54.75000 138.378
54.76000 141.338
54.77000 144.370
54.78000 145.976
54.79000 145.866
54.80000 145.753
54.81000 143.244
54.82000 138.882
54.83000 134.649
54.84000 135.781
54.85000 139.739
54.86000 143.501
54.87000 143.922
54.88000 143.139
54.89000 142.419
54.90000 144.983
54.91000 147.993
54.92000 150.951
54.93000 153.613
54.94000 156.227
54.95000 157.786
54.96000 155.338
54.97000 152.503
54.98000 150.431
54.99000 147.940
55.00000 146.003
55.01000 144.368
55.02000 143.263
55.03000 142.168
55.04000 142.353
55.05000 144.050
55.06000 145.745
55.07000 148.682
55.08000 152.550
55.09000 156.283
55.10000 154.623
55.11000 150.172
55.12000 146.201
55.13000 150.163
55.14000 156.936
55.15000 163.155
55.16000 160.222
55.17000 155.648
55.18000 151.819
55.19000 152.186
55.20000 153.209
55.21000 156.395
55.22000 167.639
55.23000 179.646
55.24000 188.373
55.25000 182.188
55.26000 176.866
55.27000 174.387
55.28000 176.833
55.29000 179.366
55.30000 179.793
55.31000 177.782
55.32000 175.773
55.33000 175.982
55.34000 177.849
55.35000 179.848
55.36000 186.829
55.37000 196.346
55.38000 205.599
55.39000 210.632
55.40000 214.197
55.41000 217.464
55.42000 219.929
55.43000 221.957
55.44000 225.122
55.45000 234.578
55.46000 244.998
55.47000 254.257
55.48000 259.269
55.49000 263.888
55.50000 267.229
55.51000 290.581
55.52000 309.228
55.53000 322.101
55.54000 325.142
55.55000 328.019
55.56000 335.883
55.57000 349.408
55.58000 362.896
55.59000 379.276
55.60000 397.652
55.61000 415.947
55.62000 431.275
55.63000 445.119
55.64000 458.938
55.65000 472.364
55.66000 485.657
55.67000 497.809
55.68000 525.316
55.69000 552.912
55.70000 578.837
55.71000 595.709
55.72000 611.223
55.73000 626.924
55.74000 643.297
55.75000 659.731
55.76000 671.552
55.77000 682.435
55.78000 690.733
55.79000 698.110
55.80000 703.945
55.81000 709.757
55.82000 721.270
55.83000 739.135
55.84000 756.941
55.85000 774.607
55.86000 792.021
55.87000 808.744
55.88000 801.780
55.89000 783.168
55.90000 765.106
55.91000 755.345
55.92000 748.375
55.93000 742.017
55.94000 734.104
55.95000 726.775
55.96000 719.482
55.97000 712.380
55.98000 705.307
55.99000 696.852
56.00000 683.518
56.01000 669.756
56.02000 659.908
56.03000 650.091
56.04000 642.596
56.05000 629.433
56.06000 606.956
56.07000 584.343
56.08000 562.409
56.09000 541.216
56.10000 520.108
56.11000 499.596
56.12000 479.703
56.13000 459.826
56.14000 440.465
56.15000 421.355
56.16000 402.565
56.17000 388.447
56.18000 375.875
56.19000 364.433
56.20000 350.086
56.21000 336.817
56.22000 323.668
56.23000 311.143
56.24000 298.707
56.25000 287.914
56.26000 282.822
56.27000 278.216
56.28000 274.938
56.29000 269.686
56.30000 265.621
56.31000 256.632
56.32000 239.690
56.33000 222.640
56.34000 214.673
56.35000 216.435
56.36000 218.193
56.37000 213.128
56.38000 203.386
56.39000 193.779
56.40000 188.412
56.41000 185.060
56.42000 181.842
56.43000 180.546
56.44000 179.874
56.45000 179.264
56.46000 174.639
56.47000 169.781
56.48000 166.100
56.49000 168.442
56.50000 171.632
56.51000 172.586
56.52000 165.906
56.53000 158.592
56.54000 153.415
56.55000 151.664
56.56000 150.439
56.57000 151.612
56.58000 156.587
56.59000 161.611
56.60000 159.487
56.61000 149.857
56.62000 140.274
56.63000 139.635
56.64000 145.088
56.65000 150.268
56.66000 147.297
56.67000 140.519
56.68000 134.133
56.69000 133.149
56.70000 133.891
56.71000 134.562
56.72000 138.354
56.73000 142.285
56.74000 144.911
56.75000 140.991
56.76000 136.169
56.77000 133.139
56.78000 136.116
56.79000 139.578
56.80000 142.016
56.81000 140.256
56.82000 138.798
56.83000 137.577
56.84000 136.727
56.85000 135.881
56.86000 135.913
56.87000 136.849
56.88000 137.780
56.89000 135.771
56.90000 131.826
56.91000 128.083
56.92000 130.156
56.93000 134.899
56.94000 139.301
56.95000 139.117
56.96000 137.495
56.97000 136.030
56.98000 136.847
56.99000 137.989
57.00000 138.496
57.01000 135.880
57.02000 132.844
57.03000 131.259
57.04000 134.457
57.05000 138.031
57.06000 140.533
57.07000 136.335
57.08000 132.969
57.09000 131.536
57.10000 133.063
57.11000 134.622
57.12000 134.370
57.13000 132.290
57.14000 130.222
57.15000 129.803
57.16000 130.469
57.17000 131.081
57.18000 130.210
57.19000 128.669
57.20000 127.299
57.21000 128.140
57.22000 129.663
57.23000 131.037
57.24000 130.696
57.25000 130.086
57.26000 129.789
57.27000 131.004
57.28000 132.419
57.29000 133.399
57.30000 132.971
57.31000 132.437
57.32000 132.064
57.33000 128.990
57.34000 126.597
57.35000 127.323
57.36000 132.739
57.37000 138.201
57.38000 138.779
57.39000 134.526
57.40000 130.302
57.41000 128.531
57.42000 128.361
57.43000 128.214
57.44000 128.663
57.45000 129.377
57.46000 130.012
57.47000 129.669
57.48000 129.029
57.49000 128.454
57.50000 130.683
57.51000 133.134
57.52000 134.159
57.53000 128.428
57.54000 121.826
57.55000 118.152
57.56000 123.791
57.57000 130.124
57.58000 134.507
57.59000 133.831
57.60000 133.189
57.61000 132.886
57.62000 133.083
57.63000 133.284
57.64000 132.988
57.65000 132.209
57.66000 131.435
57.67000 129.004
57.68000 125.568
57.69000 122.321
57.70000 123.862
57.71000 127.491
57.72000 130.738
57.73000 129.267
57.74000 126.390
57.75000 123.810
57.76000 124.638
57.77000 125.954
57.78000 127.787
57.79000 132.026
57.80000 136.568
57.81000 139.833
57.82000 139.101
57.83000 138.080
57.84000 137.377
57.85000 130.091
57.86000 124.458
57.87000 120.395
57.88000 118.609
57.89000 116.842
57.90000 117.750
57.91000 121.198
57.92000 124.620
57.93000 125.391
57.94000 124.510
57.95000 123.602
57.96000 122.028
57.97000 120.170
57.98000 118.664
57.99000 121.385
58.00000 125.342
58.01000 128.882
58.02000 129.686
58.03000 129.922
58.04000 129.908
58.05000 128.755
58.06000 127.462
58.07000 125.688
58.08000 122.441
58.09000 119.089
58.10000 116.796
58.11000 125.334
58.12000 131.984
58.13000 133.229
58.14000 126.775
58.15000 120.265
58.16000 118.520
58.17000 121.215
58.18000 123.887
58.19000 123.535
58.20000 121.355
58.21000 119.353
58.22000 121.530
58.23000 125.470
58.24000 128.968
58.25000 127.308
58.26000 124.164
58.27000 121.360
58.28000 120.172
58.29000 119.407
58.30000 118.926
58.31000 119.718
58.32000 120.663
58.33000 121.007
58.34000 119.531
58.35000 117.932
58.36000 116.843
58.37000 117.583
58.38000 118.176
58.39000 118.695
58.40000 119.109
58.41000 119.523
58.42000 119.243
58.43000 118.332
58.44000 117.428
58.45000 118.248
58.46000 120.077
58.47000 121.851
58.48000 122.402
58.49000 122.446
58.50000 122.270
58.51000 119.596
58.52000 116.216
58.53000 113.210
58.54000 115.930
58.55000 119.226
58.56000 121.870
58.57000 121.639
58.58000 121.070
58.59000 119.622
58.60000 115.562
58.61000 111.329
58.62000 108.467
58.63000 117.554
58.64000 124.582
58.65000 128.382
58.66000 127.749
58.67000 127.088
58.68000 125.121
58.69000 121.984
58.70000 118.877
58.71000 118.023
58.72000 118.504
58.73000 119.088
58.74000 121.898
58.75000 125.615
58.76000 128.543
58.77000 122.714
58.78000 114.456
58.79000 107.129
58.80000 110.900
58.81000 115.938
58.82000 120.204
58.83000 121.137
58.84000 121.686
58.85000 121.585
58.86000 119.587
58.87000 117.468
58.88000 116.044
58.89000 113.492
58.90000 111.572
58.91000 112.305
58.92000 116.615
58.93000 120.943
58.94000 123.707
58.95000 125.096
58.96000 126.471
58.97000 125.013
58.98000 121.962
58.99000 119.000
59.00000 117.880
59.01000 117.498
59.02000 117.364
59.03000 119.912
59.04000 123.192
59.05000 126.095
59.06000 123.589
59.07000 120.579
59.08000 118.968
59.09000 123.294
59.10000 128.287
59.11000 131.872
59.12000 131.417
59.13000 130.711
59.14000 130.239
59.15000 123.397
59.16000 118.201
59.17000 115.933
59.18000 117.541
59.19000 119.167
59.20000 120.129
59.21000 120.519
59.22000 120.904
59.23000 120.998
59.24000 120.925
59.25000 120.814
59.26000 119.923
59.27000 118.725
59.28000 117.570
59.29000 116.874
59.30000 116.300
59.31000 115.794
59.32000 119.097
59.33000 122.529
59.34000 124.791
59.35000 122.181
59.36000 119.036
59.37000 116.881
59.38000 117.522
59.39000 118.331
59.40000 118.868
59.41000 116.041
59.42000 113.889
59.43000 113.247
59.44000 114.567
59.45000 115.897
59.46000 118.321
59.47000 121.672
59.48000 124.982
59.49000 127.789
59.50000 130.249
59.51000 132.487
59.52000 130.393
59.53000 126.622
59.54000 122.945
59.55000 120.228
59.56000 117.763
59.57000 115.594
59.58000 115.405
59.59000 115.539
59.60000 115.840
59.61000 116.826
59.62000 117.887
59.63000 119.393
59.64000 122.134
59.65000 124.948
59.66000 126.804
59.67000 121.491
59.68000 117.447
59.69000 115.050
59.70000 114.753
59.71000 114.464
59.72000 114.234
59.73000 114.051
59.74000 113.872
59.75000 115.102
59.76000 117.063
59.77000 118.853
59.78000 117.398
59.79000 114.709
59.80000 112.007
59.81000 109.172
59.82000 106.302
59.83000 103.784
59.84000 109.972
59.85000 116.561
59.86000 121.600
59.87000 120.419
59.88000 118.587
59.89000 116.670
59.90000 114.527
59.91000 112.370
59.92000 110.956
59.93000 115.497
59.94000 118.935
59.95000 120.450
59.96000 119.556
59.97000 118.655
59.98000 117.593
59.99000 116.400
60.00000 115.223
60.01000 115.349
60.02000 116.164
60.03000 116.950
60.04000 117.218
60.05000 117.294
60.06000 117.221
60.07000 115.703
60.08000 113.818
60.09000 112.169
60.10000 112.892
60.11000 113.850
60.12000 113.993
60.13000 110.919
60.14000 107.516
60.15000 106.528
60.16000 112.005
60.17000 117.836
60.18000 121.634
60.19000 120.497
60.20000 119.586
60.21000 119.211
60.22000 119.495
60.23000 119.781
60.24000 119.977
60.25000 120.103
60.26000 120.226
60.27000 118.754
60.28000 116.493
60.29000 114.389
60.30000 115.061
60.31000 116.754
60.32000 118.303
60.33000 118.473
60.34000 118.299
60.35000 118.148
60.36000 117.055
60.37000 115.989
60.38000 115.682
60.39000 118.315
60.40000 121.240
60.41000 123.069
60.42000 122.014
60.43000 120.807
60.44000 120.025
60.45000 119.836
60.46000 119.706
60.47000 119.458
60.48000 119.066
60.49000 118.675
60.50000 118.595
60.51000 118.757
60.52000 118.917
60.53000 118.129
60.54000 116.881
60.55000 115.726
60.56000 116.186
60.57000 117.229
60.58000 118.167
60.59000 118.128
60.60000 117.850
60.61000 117.608
60.62000 118.617
60.63000 119.650
60.64000 120.309
60.65000 119.549
60.66000 118.650
60.67000 117.312
60.68000 114.836
60.69000 112.303
60.70000 110.674
60.71000 115.476
60.72000 119.069
60.73000 120.896
60.74000 120.632
60.75000 120.358
60.76000 118.562
60.77000 115.594
60.78000 112.675
60.79000 115.009
60.80000 119.910
60.81000 124.451
60.82000 123.019
60.83000 119.467
60.84000 116.371
60.85000 117.425
60.86000 119.477
60.87000 121.256
60.88000 121.836
60.89000 122.170
60.90000 122.071
60.91000 120.354
60.92000 118.484
60.93000 117.408
60.94000 118.355
60.95000 119.400
60.96000 120.068
60.97000 121.016
60.98000 121.710
60.99000 121.232
61.00000 119.394
61.01000 117.572
61.02000 119.463
61.03000 124.163
61.04000 128.781
61.05000 130.639
61.06000 131.074
61.07000 131.303
61.08000 128.226
61.09000 123.994
61.10000 120.029
61.11000 118.426
61.12000 117.380
61.13000 116.476
61.14000 118.629
61.15000 120.858
61.16000 121.713
61.17000 117.520
61.18000 112.859
61.19000 111.432
61.20000 118.089
61.21000 125.132
61.22000 129.600
61.23000 123.495
61.24000 118.935
61.25000 118.672
61.26000 123.303
61.27000 127.917
61.28000 128.441
61.29000 125.929
61.30000 123.463
61.31000 121.842
61.32000 120.687
61.33000 119.651
61.34000 120.483
61.35000 121.954
61.36000 123.482
61.37000 125.494
61.38000 127.618
61.39000 129.449
61.40000 125.671
61.41000 121.752
61.42000 119.304
61.43000 122.161
61.44000 125.496
61.45000 128.308
61.46000 129.833
61.47000 131.300
61.48000 132.224
61.49000 131.763
61.50000 131.414
61.51000 137.981
61.52000 152.273
61.53000 166.558
61.54000 178.657
61.55000 189.163
61.56000 199.470
61.57000 208.147
61.58000 215.734
61.59000 223.651
61.60000 236.564
61.61000 251.162
61.62000 265.424
61.63000 276.841
61.64000 287.610
61.65000 296.865
61.66000 296.809
61.67000 295.601
61.68000 294.423
61.69000 293.354
61.70000 292.295
61.71000 291.646
61.72000 291.988
61.73000 292.375
61.74000 292.617
61.75000 275.210
61.76000 262.457
61.77000 254.223
61.78000 250.941
61.79000 247.583
61.80000 232.744
61.81000 209.690
61.82000 187.098
61.83000 177.478
61.84000 174.270
61.85000 170.736
61.86000 162.410
61.87000 152.495
61.88000 143.560
61.89000 142.747
61.90000 143.748
61.91000 144.605
61.92000 140.285
61.93000 136.007
61.94000 131.993
61.95000 128.900
61.96000 125.885
61.97000 124.435
61.98000 126.702
61.99000 129.127
62.00000 130.634
62.01000 128.520
62.02000 126.962
62.03000 127.023
62.04000 128.823
62.05000 130.609
62.06000 130.391
62.07000 128.767
62.08000 127.177
62.09000 125.732
62.10000 124.411
62.11000 123.229
62.12000 124.021
62.13000 125.457
62.14000 127.047
62.15000 129.886
62.16000 132.999
62.17000 135.658
62.18000 133.517
62.19000 131.141
62.20000 128.886
62.21000 127.045
62.22000 125.238
62.23000 124.314
62.24000 125.452
62.25000 126.675
62.26000 127.429
62.27000 124.744
62.28000 122.785
62.29000 124.039
62.30000 128.677
62.31000 133.285
62.32000 134.191
62.33000 132.542
62.34000 130.929
62.35000 130.932
62.36000 131.659
62.37000 132.488
62.38000 134.716
62.39000 137.391
62.40000 139.555
62.41000 137.660
62.42000 134.891
62.43000 132.534
62.44000 132.874
62.45000 133.472
62.46000 132.969
62.47000 128.765
62.48000 124.260
62.49000 122.078
62.50000 125.223
62.51000 128.578
62.52000 130.633
62.53000 126.921
62.54000 124.214
62.55000 125.825
62.56000 131.896
62.57000 137.898
62.58000 136.266
62.59000 129.460
62.60000 122.812
62.61000 121.169
62.62000 121.803
62.63000 122.554
62.64000 124.893
62.65000 127.731
62.66000 130.108
62.67000 128.912
62.68000 126.962
62.69000 125.307
62.70000 126.586
62.71000 127.990
62.72000 129.816
62.73000 133.034
62.74000 136.363
62.75000 137.914
62.76000 135.458
62.77000 132.849
62.78000 131.263
62.79000 128.211
62.80000 126.020
62.81000 125.246
62.82000 125.906
62.83000 126.592
62.84000 129.863
62.85000 134.855
62.86000 139.726
62.87000 136.898
62.88000 130.867
62.89000 125.329
62.90000 126.245
62.91000 129.156
62.92000 131.624
62.93000 130.731
62.94000 129.141
62.95000 127.797
62.96000 123.739
62.97000 120.043
62.98000 118.123
62.99000 121.968
63.00000 126.255
63.01000 128.840
63.02000 127.649
63.03000 126.319
63.04000 125.517
63.05000 126.464
63.06000 127.151
63.07000 127.993
63.08000 128.991
63.09000 130.011
63.10000 133.149
63.11000 137.669
63.12000 142.075
63.13000 141.757
63.14000 139.448
63.15000 137.056
63.16000 133.620
63.17000 129.866
63.18000 127.025
63.19000 130.967
63.20000 136.286
63.21000 140.771
63.22000 141.906
63.23000 142.492
63.24000 141.371
63.25000 134.804
63.26000 127.831
63.27000 123.572
63.28000 125.228
63.29000 127.090
63.30000 128.206
63.31000 130.218
63.32000 131.652
63.33000 134.013
63.34000 137.275
63.35000 140.501
63.36000 140.599
63.37000 138.689
63.38000 136.830
63.39000 133.540
63.40000 129.810
63.41000 126.672
63.42000 130.873
63.43000 137.266
63.44000 142.847
63.45000 142.544
63.46000 141.066
63.47000 139.824
63.48000 140.064
63.49000 140.420
63.50000 141.036
63.51000 142.468
63.52000 143.959
63.53000 143.066
63.54000 137.064
63.55000 130.891
63.56000 127.221
63.57000 131.675
63.58000 134.878
63.59000 135.840
63.60000 134.666
63.61000 133.512
63.62000 133.897
63.63000 135.252
63.64000 136.571
63.65000 136.753
63.66000 136.463
63.67000 136.229
63.68000 136.686
63.69000 137.344
63.70000 137.924
63.71000 137.942
63.72000 137.850
63.73000 137.773
63.74000 138.901
63.75000 139.963
63.76000 140.316
63.77000 138.484
63.78000 136.498
63.79000 136.057
63.80000 138.874
63.81000 141.794
63.82000 143.517
63.83000 147.060
63.84000 149.570
63.85000 149.153
63.86000 146.002
63.87000 142.890
63.88000 142.679
63.89000 144.266
63.90000 145.807
63.91000 143.757
63.92000 140.371
63.93000 137.366
63.94000 138.824
63.95000 141.568
63.96000 143.909
63.97000 143.439
63.98000 142.431
63.99000 141.589
64.00000 141.247
64.01000 141.013
64.02000 141.485
64.03000 144.097
64.04000 146.855
64.05000 147.947
64.06000 145.588
64.07000 143.122
64.08000 141.679
64.09000 137.284
64.10000 134.177
64.11000 136.430
64.12000 143.595
64.13000 150.652
64.14000 150.247
64.15000 145.300
64.16000 140.501
64.17000 139.535
64.18000 140.128
64.19000 140.657
64.20000 140.456
64.21000 140.048
64.22000 139.800
64.23000 140.644
64.24000 141.694
64.25000 142.566
64.26000 141.453
64.27000 140.338
64.28000 140.655
64.29000 145.238
64.30000 150.105
64.31000 152.659
64.32000 150.507
64.33000 148.218
64.34000 146.889
64.35000 149.331
64.36000 151.061
64.37000 150.263
64.38000 147.194
64.39000 144.179
64.40000 144.644
64.41000 147.193
64.42000 149.661
64.43000 153.038
64.44000 156.584
64.45000 159.736
64.46000 158.502
64.47000 156.048
64.48000 154.214
64.49000 156.516
64.50000 159.583
64.51000 162.124
64.52000 161.933
64.53000 161.514
64.54000 160.988
64.55000 160.150
64.56000 159.292
64.57000 159.880
64.58000 163.361
64.59000 166.923
64.60000 168.975
64.61000 161.045
64.62000 155.459
64.63000 154.006
64.64000 156.195
64.65000 158.409
64.66000 162.115
64.67000 166.699
64.68000 171.132
64.69000 172.934
64.70000 173.637
64.71000 173.912
64.72000 169.544
64.73000 163.906
64.74000 159.531
64.75000 163.406
64.76000 168.775
64.77000 173.207
64.78000 173.519
64.79000 173.392
64.80000 173.637
64.81000 174.949
64.82000 176.328
64.83000 176.933
64.84000 176.015
64.85000 175.058
64.86000 174.510
64.87000 172.527
64.88000 171.144
64.89000 174.401
64.90000 181.670
64.91000 188.754
64.92000 185.448
64.93000 176.139
64.94000 167.146
64.95000 169.805
64.96000 176.645
64.97000 182.809
64.98000 181.817
64.99000 178.905
65.00000 177.323
65.01000 184.248
65.02000 192.685
65.03000 199.624
65.04000 199.144
65.05000 198.077
65.06000 197.495
65.07000 198.288
65.08000 199.164
65.09000 201.498
65.10000 206.649
65.11000 211.872
65.12000 214.833
65.13000 216.980
65.14000 218.474
65.15000 220.479
65.16000 222.919
65.17000 225.384
65.18000 229.217
65.19000 233.827
65.20000 238.274
65.21000 235.935
65.22000 231.259
65.23000 227.288
65.24000 230.597
65.25000 235.827
65.26000 240.269
65.27000 239.772
65.28000 238.415
65.29000 237.303
65.30000 243.168
65.31000 248.595
65.32000 251.935
65.33000 249.481
65.34000 246.688
65.35000 247.245
65.36000 254.166
65.37000 261.241
65.38000 265.218
65.39000 275.440
65.40000 282.544
65.41000 287.281
65.42000 290.048
65.43000 292.781
65.44000 293.846
65.45000 293.980
65.46000 294.109
65.47000 294.536
65.48000 295.043
65.49000 296.286
65.50000 304.933
65.51000 315.497
65.52000 324.649
65.53000 325.125
65.54000 324.119
65.55000 323.298
65.56000 327.205
65.57000 330.809
65.58000 336.566
65.59000 348.202
65.60000 360.172
65.61000 373.949
65.62000 391.102
65.63000 408.331
65.64000 417.936
65.65000 446.705
65.66000 466.700
65.67000 505.737
65.68000 560.324
65.69000 615.496
65.70000 698.275
65.71000 796.190
65.72000 890.381
65.73000 1009.904
65.74000 1130.871
65.75000 1252.270
65.76000 1377.906
65.77000 1504.620
65.78000 1625.911
65.79000 1714.557
65.80000 1797.744
65.81000 1865.412
65.82000 1906.451
65.83000 1937.725
65.84000 1966.134
65.85000 1986.853
65.86000 2007.150
65.87000 2015.043
65.88000 2000.180
65.89000 1984.827
65.90000 1976.341
65.91000 1938.017
65.92000 1911.428
65.93000 1852.017
65.94000 1766.302
65.95000 1679.868
65.96000 1561.272
65.97000 1425.347
65.98000 1294.783
65.99000 1170.666
66.00000 1056.728
66.01000 944.250
66.02000 845.753
66.03000 750.750
66.04000 661.402
66.05000 605.416
66.06000 554.898
66.07000 513.961
66.08000 475.783
66.09000 444.910
66.10000 419.245
66.11000 407.320
66.12000 396.125
66.13000 385.135
66.14000 374.514
66.15000 363.900
66.16000 358.085
66.17000 354.856
66.18000 352.658
66.19000 355.827
66.20000 363.217
66.21000 370.542
66.22000 375.084
66.23000 378.152
66.24000 381.094
66.25000 393.644
66.26000 408.617
66.27000 424.302
66.28000 446.649
66.29000 470.630
66.30000 494.876
66.31000 520.652
66.32000 546.673
66.33000 567.678
66.34000 585.133
66.35000 599.037
66.36000 611.580
66.37000 620.596
66.38000 629.430
66.39000 635.510
66.40000 636.708
66.41000 637.813
66.42000 638.413
66.43000 641.166
66.44000 643.044
66.45000 641.715
66.46000 637.911
66.47000 633.772
66.48000 616.137
66.49000 591.477
66.50000 567.861
66.51000 549.764
66.52000 534.722
66.53000 518.642
66.54000 493.079
66.55000 465.231
66.56000 439.023
66.57000 422.115
66.58000 406.669
66.59000 394.250
66.60000 384.712
66.61000 377.200
66.62000 370.933
66.63000 367.840
66.64000 364.905
66.65000 363.017
66.66000 362.952
66.67000 362.920
66.68000 362.903
66.69000 360.620
66.70000 359.075
66.71000 361.297
66.72000 366.374
66.73000 371.224
66.74000 367.359
66.75000 359.036
66.76000 351.077
66.77000 345.785
66.78000 341.727
66.79000 338.107
66.80000 338.387
66.81000 339.590
66.82000 340.347
66.83000 338.624
66.84000 336.518
66.85000 334.832
66.86000 342.186
66.87000 348.815
66.88000 353.229
66.89000 352.091
66.90000 350.687
66.91000 351.628
66.92000 356.579
66.93000 361.598
66.94000 364.275
66.95000 358.140
66.96000 353.986
66.97000 356.129
66.98000 362.959
66.99000 369.568
67.00000 368.172
67.01000 362.749
67.02000 357.572
67.03000 358.202
67.04000 360.641
67.05000 362.398
67.06000 358.210
67.07000 352.641
67.08000 350.178
67.09000 364.650
67.10000 381.679
67.11000 395.263
67.12000 393.772
67.13000 391.467
67.14000 389.278
67.15000 387.372
67.16000 385.480
67.17000 384.902
67.18000 386.534
67.19000 388.201
67.20000 389.082
67.21000 384.542
67.22000 381.471
67.23000 381.015
67.24000 382.470
67.25000 383.968
67.26000 386.941
67.27000 390.644
67.28000 394.173
67.29000 391.227
67.30000 386.466
67.31000 382.335
67.32000 383.571
67.33000 386.031
67.34000 387.841
67.35000 386.180
67.36000 384.005
67.37000 382.277
67.38000 383.848
67.39000 385.347
67.40000 389.610
67.41000 400.569
67.42000 411.826
67.43000 415.914
67.44000 408.157
67.45000 400.223
67.46000 396.069
67.47000 399.476
67.48000 401.790
67.49000 404.797
67.50000 408.303
67.51000 411.737
67.52000 412.786
67.53000 412.678
67.54000 412.575
67.55000 411.083
67.56000 409.275
67.57000 407.406
67.58000 405.024
67.59000 402.528
67.60000 401.216
67.61000 406.111
67.62000 411.905
67.63000 416.490
67.64000 421.710
67.65000 425.948
67.66000 429.851
67.67000 432.958
67.68000 436.031
67.69000 438.485
67.70000 439.934
67.71000 441.369
67.72000 442.113
67.73000 433.907
67.74000 428.422
67.75000 430.550
67.76000 438.040
67.77000 445.381
67.78000 448.009
67.79000 448.387
67.80000 448.746
67.81000 453.951
67.82000 460.219
67.83000 464.621
67.84000 453.836
67.85000 439.712
67.86000 429.492
67.87000 439.352
67.88000 452.056
67.89000 462.068
67.90000 468.345
67.91000 473.126
67.92000 477.081
67.93000 479.101
67.94000 481.040
67.95000 479.609
67.96000 472.803
67.97000 465.928
67.98000 462.396
67.99000 464.321
68.00000 465.656
68.01000 471.742
68.02000 481.115
68.03000 490.296
68.04000 493.633
68.05000 494.227
68.06000 494.790
68.07000 498.299
68.08000 502.405
68.09000 506.131
68.10000 506.834
68.11000 506.886
68.12000 506.876
68.13000 506.563
68.14000 506.206
68.15000 505.927
68.16000 517.242
68.17000 527.047
68.18000 534.534
68.19000 536.691
68.20000 538.635
68.21000 539.936
68.22000 540.231
68.23000 540.513
68.24000 540.656
68.25000 550.916
68.26000 557.810
68.27000 566.277
68.28000 575.814
68.29000 585.041
68.30000 585.249
68.31000 581.295
68.32000 577.553
68.33000 580.862
68.34000 585.954
68.35000 591.358
68.36000 599.188
68.37000 607.532
68.38000 614.709
68.39000 616.104
68.40000 616.716
68.41000 617.193
68.42000 627.067
68.43000 635.540
68.44000 642.092
68.45000 644.300
68.46000 646.342
68.47000 650.112
68.48000 656.541
68.49000 662.998
68.50000 666.251
68.51000 674.347
68.52000 679.835
68.53000 693.202
68.54000 711.828
68.55000 730.372
68.56000 746.661
68.57000 761.927
68.58000 776.356
68.59000 805.253
68.60000 835.909
68.61000 866.000
68.62000 891.796
68.63000 916.699
68.64000 944.704
68.65000 987.776
68.66000 1032.848
68.67000 1067.916
68.68000 1122.444
68.69000 1167.045
68.70000 1211.875
68.71000 1257.214
68.72000 1302.572
68.73000 1349.241
68.74000 1397.893
68.75000 1446.565
68.76000 1491.311
68.77000 1532.152
68.78000 1572.974
68.79000 1612.016
68.80000 1649.892
68.81000 1688.339
68.82000 1742.009
68.83000 1802.468
68.84000 1859.508
68.85000 1934.050
68.86000 2007.260
68.87000 2090.961
68.88000 2252.789
68.89000 2430.545
68.90000 2664.998
68.91000 3169.683
68.92000 3709.466
68.93000 4127.613
68.94000 5808.236
68.95000 7218.143
68.96000 9031.621
68.97000 11727.042
68.98000 14453.457
68.99000 17547.977
69.00000 21189.043
69.01000 24835.137
69.02000 28256.180
69.03000 31457.594
69.04000 34649.578
69.05000 37023.617
69.06000 38871.016
69.07000 40691.727
69.08000 41827.691
69.09000 42663.535
69.10000 43450.680
69.11000 44114.492
69.12000 44687.984
69.13000 45283.445
69.14000 46038.961
69.15000 46826.500
69.16000 47545.828
69.17000 47946.113
69.18000 48305.867
69.19000 48583.332
69.20000 47015.133
69.21000 45666.035
69.22000 43806.617
69.23000 40850.922
69.24000 37858.313
69.25000 35070.277
69.26000 32580.572
69.27000 30093.570
69.28000 28023.406
69.29000 26351.980
69.30000 24688.217
69.31000 23639.451
69.32000 22979.674
69.33000 22333.141
69.34000 22013.285
69.35000 21834.176
69.36000 21665.813
69.37000 20993.154
69.38000 20243.625
69.39000 19412.947
69.40000 18003.520
69.41000 16480.514
69.42000 14889.750
69.43000 12987.923
69.44000 11047.456
69.45000 9557.496
69.46000 7774.183
69.47000 6348.064
69.48000 5097.531
69.49000 4217.771
69.50000 3349.961
69.51000 2673.127
69.52000 2269.795
69.53000 1868.634
69.54000 1608.650
69.55000 1481.016
69.56000 1353.799
69.57000 1257.703
69.58000 1180.945
69.59000 1105.291
69.60000 1055.850
69.61000 1017.511
69.62000 981.540
69.63000 948.724
69.64000 919.652
69.65000 890.475
69.66000 860.561
69.67000 830.506
69.68000 802.329
69.69000 782.617
69.70000 763.933
69.71000 749.651
69.72000 737.344
69.73000 727.745
69.74000 716.186
69.75000 700.556
69.76000 684.800
69.77000 670.130
69.78000 656.986
69.79000 643.856
69.80000 633.160
69.81000 624.706
69.82000 616.224
69.83000 605.813
69.84000 594.223
69.85000 582.754
69.86000 574.058
69.87000 566.517
69.88000 559.455
69.89000 555.448
69.90000 552.594
69.91000 549.174
69.92000 541.897
69.93000 533.890
69.94000 526.473
69.95000 521.658
69.96000 517.153
69.97000 513.725
69.98000 500.152
69.99000 488.941
70.00000 483.147
