20.00000 464.221
20.01000 467.322
20.02000 470.866
20.03000 475.953
20.04000 487.123
20.05000 498.916
20.06000 507.623
20.07000 512.927
20.08000 516.893
20.09000 514.538
20.10000 500.617
20.11000 486.449
20.12000 477.371
20.13000 474.547
20.14000 471.744
20.15000 475.548
20.16000 484.592
20.17000 493.463
20.18000 494.656
20.19000 491.724
20.20000 488.610
20.21000 482.275
20.22000 474.756
20.23000 467.818
20.24000 464.298
20.25000 461.906
20.26000 460.515
20.27000 465.011
20.28000 470.469
20.29000 474.388
20.30000 472.350
20.31000 469.719
20.32000 467.786
20.33000 465.342
20.34000 463.432
20.35000 466.071
20.36000 476.890
20.37000 487.875
20.38000 492.372
20.39000 489.049
20.40000 485.717
20.41000 481.797
20.42000 477.438
20.43000 473.074
20.44000 468.454
20.45000 463.699
20.46000 459.394
20.47000 462.782
20.48000 468.948
20.49000 474.624
20.50000 471.579
20.51000 466.947
20.52000 464.180
20.53000 472.162
20.54000 481.863
20.55000 489.238
20.56000 487.768
20.57000 485.437
20.58000 483.733
20.59000 477.917
20.60000 473.269
20.61000 469.033
20.62000 465.526
20.63000 462.033
20.64000 460.134
20.65000 460.120
20.66000 460.109
20.67000 460.300
20.68000 460.645
20.69000 461.058
20.70000 464.205
20.71000 468.770
20.72000 473.083
20.73000 473.228
20.74000 471.894
20.75000 470.668
20.76000 468.313
20.77000 465.970
20.78000 465.307
20.79000 474.136
20.80000 484.454
20.81000 491.402
20.82000 485.761
20.83000 478.926
20.84000 473.955
20.85000 467.978
20.86000 463.342
20.87000 461.210
20.88000 463.428
20.89000 465.724
20.90000 467.353
20.91000 468.208
20.92000 469.059
20.93000 471.444
20.94000 474.964
20.95000 478.566
20.96000 485.284
20.97000 493.590
20.98000 501.247
20.99000 498.450
21.00000 492.005
21.01000 486.099
21.02000 481.909
21.03000 478.538
21.04000 474.874
21.05000 469.589
21.06000 464.056
21.07000 459.827
21.08000 460.392
21.09000 461.399
21.10000 462.128
21.11000 475.408
21.12000 486.060
21.13000 487.495
21.14000 473.205
21.15000 458.650
21.16000 453.745
21.17000 459.824
21.18000 465.897
21.19000 469.343
21.20000 470.831
21.21000 472.225
21.22000 470.242
21.23000 466.565
21.24000 463.317
21.25000 466.746
21.26000 472.464
21.27000 477.694
21.28000 470.011
21.29000 460.524
21.30000 453.555
21.31000 460.265
21.32000 469.032
21.33000 475.467
21.34000 473.491
21.35000 470.757
21.36000 468.788
21.37000 466.600
21.38000 464.916
21.39000 464.747
21.40000 467.118
21.41000 469.529
21.42000 468.514
21.43000 463.673
21.44000 458.845
21.45000 458.193
21.46000 460.561
21.47000 462.957
21.48000 466.306
21.49000 470.127
21.50000 473.600
21.51000 471.822
21.52000 468.275
21.53000 465.038
21.54000 473.430
21.55000 483.218
21.56000 490.160
21.57000 481.942
21.58000 471.492
21.59000 464.532
21.60000 469.938
21.61000 476.431
21.62000 481.081
21.63000 486.037
21.64000 489.833
21.65000 487.980
21.66000 476.822
21.67000 465.526
21.68000 462.827
21.69000 469.541
21.70000 476.233
21.71000 479.265
21.72000 479.675
21.73000 480.050
21.74000 479.290
21.75000 477.981
21.76000 476.888
21.77000 478.968
21.78000 482.099
21.79000 484.948
21.80000 484.726
21.81000 483.923
21.82000 483.695
21.83000 486.477
21.84000 489.693
21.85000 491.958
21.86000 490.916
21.87000 489.591
21.88000 488.647
21.89000 497.861
21.90000 505.212
21.91000 515.054
21.92000 528.928
21.93000 542.857
21.94000 544.005
21.95000 531.431
21.96000 518.907
21.97000 510.414
21.98000 504.811
21.99000 499.377
22.00000 499.248
22.01000 501.645
22.02000 503.630
22.03000 499.735
22.04000 493.925
22.05000 488.648
22.06000 499.238
22.07000 511.661
22.08000 520.469
22.09000 510.744
22.10000 498.402
22.11000 490.974
22.12000 500.348
22.13000 511.122
22.14000 518.754
22.15000 502.947
22.16000 490.201
22.17000 485.276
22.18000 492.786
22.19000 500.454
22.20000 499.867
22.21000 490.588
22.22000 481.354
22.23000 482.877
22.24000 491.716
22.25000 500.270
22.26000 500.244
22.27000 496.203
22.28000 492.102
22.29000 487.167
22.30000 481.966
22.31000 477.254
22.32000 478.438
22.33000 480.599
22.34000 481.262
22.35000 474.394
22.36000 466.485
22.37000 461.142
22.38000 464.422
22.39000 468.401
22.40000 471.205
22.41000 456.829
22.42000 445.414
22.43000 441.524
22.44000 449.387
22.45000 457.389
22.46000 460.182
22.47000 457.599
22.48000 455.029
22.49000 455.016
22.50000 456.713
22.51000 458.291
22.52000 456.437
22.53000 453.005
22.54000 450.005
22.55000 452.831
22.56000 457.488
22.57000 461.697
22.58000 458.417
22.59000 454.141
22.60000 450.561
22.61000 450.411
22.62000 450.725
22.63000 452.796
22.64000 460.673
22.65000 469.007
22.66000 474.847
22.67000 457.300
22.68000 443.357
22.69000 434.978
22.70000 435.134
22.71000 435.383
22.72000 440.493
22.73000 450.519
22.74000 460.486
22.75000 462.567
22.76000 459.443
22.77000 456.388
22.78000 455.218
22.79000 454.901
22.80000 454.395
22.81000 451.425
22.82000 447.693
22.83000 444.328
22.84000 446.880
22.85000 450.195
22.86000 452.892
22.87000 452.596
22.88000 451.905
22.89000 451.115
22.90000 450.006
22.91000 448.872
22.92000 448.083
22.93000 450.927
22.94000 453.173
22.95000 454.099
22.96000 453.036
22.97000 451.953
22.98000 446.855
22.99000 437.776
23.00000 428.756
23.01000 432.325
23.02000 443.947
23.03000 455.121
23.04000 454.402
23.05000 448.396
23.06000 442.915
23.07000 444.129
23.08000 447.375
23.09000 450.294
23.10000 457.688
23.11000 464.960
23.12000 469.328
23.13000 459.898
23.14000 448.682
23.15000 440.777
23.16000 443.426
23.17000 446.862
23.18000 449.243
23.19000 449.924
23.20000 450.392
23.21000 450.111
23.22000 448.721
23.23000 447.321
23.24000 447.705
23.25000 449.822
23.26000 451.924
23.27000 454.723
23.28000 457.917
23.29000 460.880
23.30000 457.939
23.31000 452.419
23.32000 447.411
23.33000 448.760
23.34000 452.005
23.35000 454.916
23.36000 453.132
23.37000 450.754
23.38000 449.030
23.39000 450.360
23.40000 452.075
23.41000 452.698
23.42000 449.894
23.43000 446.842
23.44000 444.740
23.45000 454.470
23.46000 462.072
23.47000 459.213
23.48000 441.145
23.49000 422.951
23.50000 419.567
23.51000 430.291
23.52000 440.933
23.53000 448.334
23.54000 453.600
23.55000 458.862
23.56000 464.044
23.57000 469.193
23.58000 473.611
23.59000 469.230
23.60000 462.270
23.61000 456.042
23.62000 458.218
23.63000 461.550
23.64000 464.357
23.65000 464.762
23.66000 464.869
23.67000 466.813
23.68000 474.414
23.69000 482.413
23.70000 487.891
23.71000 488.000
23.72000 487.953
23.73000 490.883
23.74000 498.061
23.75000 505.270
23.76000 506.435
23.77000 501.953
23.78000 497.510
23.79000 504.998
23.80000 519.607
23.81000 533.190
23.82000 522.588
23.83000 501.772
23.84000 482.852
23.85000 486.170
23.86000 495.896
23.87000 504.574
23.88000 510.717
23.89000 515.641
23.90000 519.010
23.91000 515.392
23.92000 510.929
23.93000 509.199
23.94000 515.741
23.95000 522.849
23.96000 527.688
23.97000 532.877
23.98000 536.761
23.99000 540.644
24.00000 544.525
24.01000 548.404
24.02000 548.858
24.03000 546.177
24.04000 543.519
24.05000 537.129
24.06000 528.636
24.07000 520.096
24.08000 510.470
24.09000 500.393
24.10000 491.245
24.11000 492.710
24.12000 497.177
24.13000 501.154
24.14000 496.010
24.15000 490.051
24.16000 483.983
24.17000 477.429
24.18000 470.819
24.19000 467.191
24.20000 472.433
24.21000 478.264
24.22000 482.210
24.23000 481.821
24.24000 481.437
24.25000 477.813
24.26000 469.727
24.27000 461.616
24.28000 457.294
24.29000 456.375
24.30000 455.465
24.31000 453.566
24.32000 451.126
24.33000 448.741
24.34000 447.574
24.35000 446.904
24.36000 445.912
24.37000 441.345
24.38000 435.784
24.39000 430.848
24.40000 427.772
24.41000 425.403
24.42000 423.945
24.43000 426.424
24.44000 429.358
24.45000 430.748
24.46000 427.623
24.47000 424.208
24.48000 421.910
24.49000 423.615
24.50000 424.965
24.51000 426.014
24.52000 426.653
24.53000 427.290
24.54000 426.706
24.55000 425.047
24.56000 423.406
24.57000 419.602
24.58000 414.640
24.59000 410.272
24.60000 418.432
24.61000 431.619
24.62000 443.184
24.63000 437.141
24.64000 426.289
24.65000 416.683
24.66000 426.553
24.67000 438.137
24.68000 445.510
24.69000 434.979
24.70000 422.426
24.71000 413.198
24.72000 413.523
24.73000 414.444
24.74000 415.060
24.75000 420.726
24.76000 425.025
24.77000 425.468
24.78000 420.792
24.79000 416.097
24.80000 415.928
24.81000 419.671
24.82000 423.371
24.83000 420.102
24.84000 412.979
24.85000 406.268
24.86000 407.931
24.87000 412.898
24.88000 417.043
24.89000 412.495
24.90000 405.614
24.91000 399.540
24.92000 398.951
24.93000 399.283
24.94000 399.042
24.95000 396.409
24.96000 393.513
24.97000 396.325
24.98000 415.268
24.99000 435.186
25.00000 448.421
25.01000 448.276
25.02000 447.919
25.03000 443.025
25.04000 432.222
25.05000 421.399
25.06000 413.531
25.07000 408.167
25.08000 402.868
25.09000 402.409
25.10000 404.641
25.11000 406.696
25.12000 405.271
25.13000 402.496
25.14000 400.092
25.15000 401.523
25.16000 403.965
25.17000 406.114
25.18000 405.878
25.19000 405.318
25.20000 404.880
25.21000 404.944
25.22000 405.063
25.23000 406.453
25.24000 411.372
25.25000 416.499
25.26000 419.884
25.27000 409.206
25.28000 401.082
25.29000 399.579
25.30000 406.542
25.31000 413.528
25.32000 416.807
25.33000 417.002
25.34000 417.194
25.35000 415.779
25.36000 413.529
25.37000 411.214
25.38000 407.671
25.39000 403.660
25.40000 400.396
25.41000 404.641
25.42000 410.831
25.43000 416.264
25.44000 413.921
25.45000 410.768
25.46000 408.059
25.47000 407.137
25.48000 406.403
25.49000 404.999
25.50000 401.764
25.51000 398.426
25.52000 396.235
25.53000 401.759
25.54000 405.952
25.55000 405.707
25.56000 399.892
25.57000 394.075
25.58000 394.350
25.59000 399.599
25.60000 404.776
25.61000 403.389
25.62000 398.541
25.63000 394.183
25.64000 398.833
25.65000 406.857
25.66000 414.121
25.67000 413.910
25.68000 411.798
25.69000 409.950
25.70000 409.578
25.71000 409.471
25.72000 408.441
25.73000 403.762
25.74000 398.709
25.75000 396.765
25.76000 403.165
25.77000 410.024
25.78000 414.496
25.79000 402.493
25.80000 393.428
25.81000 387.898
25.82000 386.724
25.83000 385.580
25.84000 390.513
25.85000 400.316
25.86000 409.978
25.87000 415.890
25.88000 419.670
25.89000 422.753
25.90000 413.438
25.91000 399.558
25.92000 387.165
25.93000 389.021
25.94000 394.437
25.95000 399.163
25.96000 398.019
25.97000 396.218
25.98000 393.571
25.99000 387.644
26.00000 381.388
26.01000 378.027
26.02000 382.296
26.03000 386.971
26.04000 389.999
26.05000 386.532
26.06000 383.898
26.07000 384.563
26.08000 389.215
26.09000 393.871
26.10000 397.189
26.11000 399.454
26.12000 401.684
26.13000 400.558
26.14000 397.744
26.15000 394.950
26.16000 392.491
26.17000 390.153
26.18000 388.327
26.19000 391.278
26.20000 395.402
26.21000 398.991
26.22000 400.189
26.23000 400.884
26.24000 400.911
26.25000 398.390
26.26000 395.619
26.27000 392.228
26.28000 387.228
26.29000 382.146
26.30000 378.876
26.31000 394.584
26.32000 406.314
26.33000 409.172
26.34000 401.507
26.35000 393.840
26.36000 390.440
26.37000 390.333
26.38000 390.229
26.39000 388.381
26.40000 385.713
26.41000 383.578
26.42000 390.312
26.43000 400.201
26.44000 408.782
26.45000 405.409
26.46000 399.157
26.47000 393.733
26.48000 396.149
26.49000 399.257
26.50000 400.507
26.51000 394.795
26.52000 388.420
26.53000 383.194
26.54000 380.895
26.55000 378.741
26.56000 377.364
26.57000 391.867
26.58000 402.632
26.59000 403.822
26.60000 393.869
26.61000 383.942
26.62000 382.747
26.63000 388.168
26.64000 393.497
26.65000 392.141
26.66000 387.525
26.67000 383.184
26.68000 383.298
26.69000 384.969
26.70000 386.949
26.71000 391.672
26.72000 397.045
26.73000 401.693
26.74000 400.726
26.75000 399.169
26.76000 395.621
26.77000 384.751
26.78000 373.201
26.79000 366.281
26.80000 370.957
26.81000 376.188
26.82000 379.510
26.83000 382.838
26.84000 385.254
26.85000 384.609
26.86000 380.467
26.87000 376.348
26.88000 377.281
26.89000 381.970
26.90000 386.574
26.91000 387.593
26.92000 386.837
26.93000 386.064
26.94000 385.047
26.95000 383.945
26.96000 383.714
26.97000 391.064
26.98000 400.175
26.99000 408.033
27.00000 400.911
27.01000 392.954
27.02000 387.120
27.03000 388.961
27.04000 391.497
27.05000 393.128
27.06000 392.529
27.07000 391.827
27.08000 391.384
27.09000 390.565
27.10000 389.968
27.11000 386.499
27.12000 379.815
27.13000 373.161
27.14000 372.013
27.15000 374.886
27.16000 377.705
27.17000 377.660
27.18000 376.253
27.19000 374.955
27.20000 375.299
27.21000 376.199
27.22000 377.186
27.23000 378.910
27.24000 380.802
27.25000 382.428
27.26000 381.640
27.27000 380.671
27.28000 379.161
27.29000 375.732
27.30000 372.134
27.31000 371.179
27.32000 376.624
27.33000 382.355
27.34000 385.943
27.35000 380.700
27.36000 376.818
27.37000 374.862
27.38000 375.019
27.39000 375.176
27.40000 375.059
27.41000 374.747
27.42000 374.442
27.43000 372.407
27.44000 369.642
27.45000 367.274
27.46000 370.777
27.47000 376.230
27.48000 381.243
27.49000 382.611
27.50000 383.162
27.51000 383.634
27.52000 382.257
27.53000 380.868
27.54000 379.006
27.55000 375.494
27.56000 371.841
27.57000 371.545
27.58000 379.239
27.59000 387.276
27.60000 392.275
27.61000 389.428
27.62000 387.300
27.63000 388.886
27.64000 394.471
27.65000 400.043
27.66000 403.679
27.67000 405.951
27.68000 408.176
27.69000 407.299
27.70000 405.035
27.71000 402.428
27.72000 394.902
27.73000 385.770
27.74000 377.670
27.75000 377.962
27.76000 380.097
27.77000 381.921
27.78000 380.286
27.79000 378.496
27.80000 377.215
27.81000 377.681
27.82000 378.294
27.83000 377.677
27.84000 374.185
27.85000 370.575
27.86000 368.346
27.87000 376.059
27.88000 381.692
27.89000 384.511
27.90000 384.360
27.91000 384.184
27.92000 380.983
27.93000 375.691
27.94000 370.515
27.95000 368.438
27.96000 367.841
27.97000 367.356
27.98000 368.447
27.99000 370.043
28.00000 371.065
28.01000 367.521
28.02000 362.993
28.03000 359.136
28.04000 363.912
28.05000 368.934
28.06000 371.231
28.07000 364.348
28.08000 356.718
28.09000 351.555
28.10000 352.064
28.11000 352.798
28.12000 353.248
28.13000 367.780
28.14000 378.308
28.15000 382.624
28.16000 380.507
28.17000 378.397
28.18000 377.110
28.19000 376.380
28.20000 375.668
28.21000 376.057
28.22000 376.916
28.23000 377.928
28.24000 381.013
28.25000 384.751
28.26000 387.144
28.27000 379.070
28.28000 368.782
28.29000 360.048
28.30000 363.371
28.31000 367.532
28.32000 369.632
28.33000 364.912
28.34000 359.652
28.35000 358.327
28.36000 365.897
28.37000 373.807
28.38000 378.622
28.39000 367.164
28.40000 358.852
28.41000 353.820
28.42000 352.115
28.43000 350.498
28.44000 357.889
28.45000 371.288
28.46000 384.363
28.47000 391.633
28.48000 396.066
28.49000 399.449
28.50000 389.025
28.51000 374.324
28.52000 361.594
28.53000 363.868
28.54000 369.257
28.55000 373.817
28.56000 380.625
28.57000 386.573
28.58000 391.462
28.59000 392.907
28.60000 394.086
28.61000 394.202
28.62000 391.954
28.63000 389.620
28.64000 388.210
28.65000 381.751
28.66000 377.114
28.67000 372.321
28.68000 367.374
28.69000 362.466
28.70000 361.380
28.71000 362.797
28.72000 364.178
28.73000 366.545
28.74000 369.224
28.75000 371.838
28.76000 373.623
28.77000 375.157
28.78000 376.682
28.79000 378.152
28.80000 379.610
28.81000 380.840
28.82000 376.657
28.83000 372.576
28.84000 369.376
28.85000 368.993
28.86000 368.821
28.87000 370.521
28.88000 376.310
28.89000 382.242
28.90000 385.800
28.91000 371.686
28.92000 361.543
28.93000 356.747
28.94000 357.160
28.95000 357.644
28.96000 364.184
28.97000 374.622
28.98000 384.784
28.99000 382.333
29.00000 374.732
29.01000 367.760
29.02000 368.609
29.03000 371.798
29.04000 374.529
29.05000 373.925
29.06000 372.654
29.07000 371.585
29.08000 369.622
29.09000 367.891
29.10000 367.755
29.11000 372.628
29.12000 377.865
29.13000 380.781
29.14000 378.709
29.15000 376.471
29.16000 375.138
29.17000 373.388
29.18000 372.146
29.19000 369.601
29.20000 365.812
29.21000 362.114
29.22000 365.643
29.23000 373.741
29.24000 381.617
29.25000 378.253
29.26000 370.450
29.27000 363.339
29.28000 364.606
29.29000 368.336
29.30000 371.650
29.31000 371.997
29.32000 371.761
29.33000 371.564
29.34000 380.524
29.35000 388.920
29.36000 393.315
29.37000 385.355
29.38000 376.521
29.39000 367.214
29.40000 356.907
29.41000 346.568
29.42000 340.462
29.43000 352.444
29.44000 361.006
29.45000 367.530
29.46000 372.146
29.47000 376.686
29.48000 375.571
29.49000 370.943
29.50000 366.449
29.51000 361.554
29.52000 356.746
29.53000 352.933
29.54000 360.846
29.55000 372.146
29.56000 381.409
29.57000 376.452
29.58000 368.760
29.59000 362.339
29.60000 369.334
29.61000 376.487
29.62000 380.523
29.63000 375.100
29.64000 369.026
29.65000 365.438
29.66000 367.005
29.67000 368.730
29.68000 369.741
29.69000 376.341
29.70000 381.014
29.71000 380.525
29.72000 375.295
29.73000 370.182
29.74000 373.214
29.75000 381.217
29.76000 388.980
29.77000 388.924
29.78000 385.785
29.79000 382.642
29.80000 379.440
29.81000 376.222
29.82000 373.532
29.83000 374.456
29.84000 376.061
29.85000 377.397
29.86000 377.349
29.87000 377.173
29.88000 378.212
29.89000 382.873
29.90000 387.776
29.91000 391.277
29.92000 391.919
29.93000 392.477
29.94000 392.802
29.95000 385.872
29.96000 380.976
29.97000 380.434
29.98000 383.814
29.99000 387.078
30.00000 382.739
30.01000 373.843
30.02000 365.224
30.03000 367.696
30.04000 374.328
30.05000 380.859
30.06000 386.261
30.07000 391.349
30.08000 395.430
30.09000 392.779
30.10000 388.882
30.11000 385.651
30.12000 377.845
30.13000 370.959
30.14000 366.507
30.15000 369.184
30.16000 372.322
30.17000 373.969
30.18000 372.628
30.19000 371.202
30.20000 370.380
30.21000 377.012
30.22000 381.680
30.23000 381.217
30.24000 376.220
30.25000 371.309
30.26000 371.640
30.27000 375.059
30.28000 378.367
30.29000 377.867
30.30000 375.948
30.31000 374.387
30.32000 376.719
30.33000 380.118
30.34000 383.205
30.35000 384.248
30.36000 384.920
30.37000 385.475
30.38000 382.810
30.39000 380.313
30.40000 377.995
30.41000 376.192
30.42000 374.422
30.43000 373.182
30.44000 372.986
30.45000 372.819
30.46000 372.723
30.47000 374.270
30.48000 375.356
30.49000 375.736
30.50000 375.506
30.51000 375.354
30.52000 379.712
30.53000 386.680
30.54000 393.412
30.55000 391.511
30.56000 386.499
30.57000 381.710
30.58000 379.287
30.59000 377.501
30.60000 376.460
30.61000 380.197
30.62000 384.785
30.63000 388.561
30.64000 398.957
30.65000 408.107
30.66000 412.444
30.67000 403.152
30.68000 393.032
30.69000 388.111
30.70000 393.261
30.71000 398.667
30.72000 401.735
30.73000 390.126
30.74000 382.012
30.75000 381.996
30.76000 388.864
30.77000 395.734
30.78000 402.670
30.79000 409.643
30.80000 416.372
30.81000 418.624
30.82000 419.107
30.83000 419.805
30.84000 422.725
30.85000 426.233
30.86000 429.171
30.87000 428.531
30.88000 427.267
30.89000 426.230
30.90000 443.992
30.91000 460.229
30.92000 472.754
30.93000 474.948
30.94000 476.533
30.95000 476.953
30.96000 475.157
30.97000 473.307
30.98000 472.266
30.99000 476.683
31.00000 479.776
31.01000 489.296
31.02000 504.176
31.03000 519.075
31.04000 534.875
31.05000 551.179
31.06000 566.888
31.07000 577.279
31.08000 585.133
31.09000 594.092
31.10000 614.208
31.11000 637.220
31.12000 659.110
31.13000 674.092
31.14000 687.893
31.15000 699.166
31.16000 715.992
31.17000 730.243
31.18000 747.582
31.19000 773.374
31.20000 799.647
31.21000 825.064
31.22000 848.879
31.23000 872.658
31.24000 885.928
31.25000 896.723
31.26000 904.213
31.27000 921.481
31.28000 946.753
31.29000 971.675
31.30000 979.921
31.31000 979.006
31.32000 978.125
31.33000 976.260
31.34000 974.164
31.35000 971.814
31.36000 966.962
31.37000 961.472
31.38000 955.548
31.39000 947.006
31.40000 938.024
31.41000 930.715
31.42000 912.411
31.43000 896.539
31.44000 882.612
31.45000 873.919
31.46000 865.514
31.47000 852.805
31.48000 832.183
31.49000 811.389
31.50000 799.884
31.51000 765.162
31.52000 741.164
31.53000 719.132
31.54000 698.679
31.55000 678.191
31.56000 656.069
31.57000 633.064
31.58000 610.963
31.59000 601.328
31.60000 596.616
31.61000 591.476
31.62000 582.221
31.63000 571.935
31.64000 561.919
31.65000 553.504
31.66000 545.352
31.67000 538.742
31.68000 517.811
31.69000 499.584
31.70000 482.603
31.71000 468.916
31.72000 455.404
31.73000 449.905
31.74000 458.883
31.75000 468.158
31.76000 473.246
31.77000 443.458
31.78000 422.951
31.79000 414.105
31.80000 414.453
31.81000 414.714
31.82000 411.217
31.83000 405.726
31.84000 400.459
31.85000 396.522
31.86000 393.294
31.87000 390.123
31.88000 387.477
31.89000 384.959
31.90000 382.609
31.91000 381.227
31.92000 380.002
31.93000 379.012
31.94000 376.887
31.95000 375.069
31.96000 374.304
31.97000 376.273
31.98000 378.383
31.99000 377.359
32.00000 370.769
32.01000 364.072
32.02000 360.430
32.03000 365.248
32.04000 368.557
32.05000 370.446
32.06000 371.238
32.07000 371.876
32.08000 366.334
32.09000 357.567
32.10000 349.170
32.11000 349.046
32.12000 351.682
32.13000 354.115
32.14000 354.686
32.15000 354.808
32.16000 355.326
32.17000 358.102
32.18000 361.234
32.19000 363.753
32.20000 362.157
32.21000 360.543
32.22000 359.384
32.23000 359.386
32.24000 359.446
32.25000 355.916
32.26000 346.124
32.27000 336.218
32.28000 330.880
32.29000 345.901
32.30000 356.146
32.31000 356.308
32.32000 348.812
32.33000 341.539
32.34000 342.906
32.35000 348.700
32.36000 354.243
32.37000 347.575
32.38000 337.383
32.39000 328.178
32.40000 327.806
32.41000 329.529
32.42000 331.394
32.43000 334.054
32.44000 336.837
32.45000 339.067
32.46000 334.422
32.47000 330.144
32.48000 329.748
32.49000 339.101
32.50000 348.924
32.51000 350.800
32.52000 339.049
32.53000 327.065
32.54000 320.665
32.55000 327.025
32.56000 331.344
32.57000 330.647
32.58000 326.209
32.59000 321.830
32.60000 319.587
32.61000 318.419
32.62000 317.304
32.63000 319.689
32.64000 323.025
32.65000 326.510
32.66000 331.291
32.67000 336.374
32.68000 341.027
32.69000 343.331
32.70000 345.280
32.71000 346.836
32.72000 334.947
32.73000 324.361
32.74000 317.576
32.75000 320.174
32.76000 323.207
32.77000 325.763
32.78000 327.513
32.79000 329.249
32.80000 330.168
32.81000 324.074
32.82000 319.956
32.83000 320.603
32.84000 324.738
32.85000 328.876
32.86000 333.112
32.87000 337.397
32.88000 341.482
32.89000 338.370
32.90000 333.223
32.91000 329.028
32.92000 332.962
32.93000 338.755
32.94000 342.538
32.95000 335.550
32.96000 326.965
32.97000 320.142
32.98000 313.893
32.99000 308.900
33.00000 306.192
33.01000 309.031
33.02000 312.117
33.03000 315.774
33.04000 320.377
33.05000 324.994
33.06000 327.414
33.07000 313.794
33.08000 304.582
33.09000 298.475
33.10000 294.600
33.11000 290.848
33.12000 291.238
33.13000 293.643
33.14000 295.932
33.15000 296.253
33.16000 295.942
33.17000 295.724
33.18000 296.272
33.19000 296.993
33.20000 297.690
33.21000 298.267
33.22000 298.826
33.23000 299.268
33.24000 294.261
33.25000 289.859
33.26000 288.351
33.27000 293.747
33.28000 299.441
33.29000 305.176
33.30000 310.978
33.31000 316.781
33.32000 319.794
33.33000 310.272
33.34000 303.887
33.35000 304.113
33.36000 309.005
33.37000 313.713
33.38000 312.580
33.39000 308.652
33.40000 304.918
33.41000 301.253
33.42000 297.886
33.43000 295.364
33.44000 299.734
33.45000 305.622
33.46000 310.319
33.47000 308.877
33.48000 306.564
33.49000 304.740
33.50000 299.374
33.51000 294.833
33.52000 290.692
33.53000 287.487
33.54000 284.320
33.55000 286.510
33.56000 297.260
33.57000 308.120
33.58000 313.707
33.59000 305.319
33.60000 299.715
33.61000 299.368
33.62000 302.667
33.63000 305.852
33.64000 305.552
33.65000 303.612
33.66000 301.772
33.67000 301.278
33.68000 301.222
33.69000 301.030
33.70000 299.757
33.71000 298.251
33.72000 296.529
33.73000 293.716
33.74000 290.751
33.75000 288.424
33.76000 298.199
33.77000 306.810
33.78000 312.492
33.79000 311.422
33.80000 310.082
33.81000 308.314
33.82000 305.874
33.83000 303.425
33.84000 302.178
33.85000 305.266
33.86000 307.361
33.87000 312.130
33.88000 318.720
33.89000 324.965
33.90000 321.166
33.91000 312.723
33.92000 304.727
33.93000 310.308
33.94000 319.392
33.95000 326.692
33.96000 320.065
33.97000 310.482
33.98000 302.571
33.99000 302.960
34.00000 304.479
34.01000 305.666
34.02000 309.614
34.03000 312.940
34.04000 316.714
34.05000 321.501
34.06000 326.327
34.07000 328.970
34.08000 328.248
34.09000 327.487
34.10000 327.104
34.11000 323.552
34.12000 321.187
34.13000 319.851
34.14000 319.205
34.15000 318.656
34.16000 320.844
34.17000 324.275
34.18000 327.519
34.19000 330.885
34.20000 334.011
34.21000 336.376
34.22000 332.936
34.23000 328.287
34.24000 325.141
34.25000 329.316
34.26000 334.466
34.27000 338.475
34.28000 334.923
34.29000 331.629
34.30000 327.928
34.31000 323.322
34.32000 318.683
34.33000 315.952
34.34000 316.113
34.35000 316.303
34.36000 321.400
34.37000 331.389
34.38000 341.279
34.39000 341.722
34.40000 335.960
34.41000 330.121
34.42000 322.236
34.43000 313.437
34.44000 305.133
34.45000 305.111
34.46000 307.407
34.47000 309.417
34.48000 309.297
34.49000 308.740
34.50000 308.183
34.51000 307.621
34.52000 307.057
34.53000 306.621
34.54000 302.211
34.55000 298.470
34.56000 297.858
34.57000 304.100
34.58000 310.584
34.59000 313.148
34.60000 309.878
34.61000 306.553
34.62000 302.815
34.63000 298.672
34.64000 294.598
34.65000 296.541
34.66000 302.369
34.67000 307.925
34.68000 306.493
34.69000 301.991
34.70000 297.751
34.71000 298.128
34.72000 299.740
34.73000 300.456
34.74000 294.631
34.75000 287.494
34.76000 281.651
34.77000 281.878
34.78000 282.879
34.79000 283.651
34.80000 279.944
34.81000 276.747
34.82000 277.206
34.83000 285.540
34.84000 294.139
34.85000 297.319
34.86000 292.576
34.87000 287.766
34.88000 283.162
34.89000 278.758
34.90000 274.419
34.91000 275.380
34.92000 279.702
34.93000 283.916
34.94000 285.472
34.95000 285.881
34.96000 286.265
34.97000 288.261
34.98000 290.518
34.99000 292.010
35.00000 288.031
35.01000 282.975
35.02000 279.143
35.03000 280.938
35.04000 283.434
35.05000 285.351
35.06000 282.921
35.07000 280.755
35.08000 279.795
35.09000 281.386
35.10000 283.060
35.11000 281.855
35.12000 276.521
35.13000 271.154
35.14000 272.320
35.15000 279.620
35.16000 286.773
35.17000 282.814
35.18000 271.936
35.19000 261.530
35.20000 262.368
35.21000 267.980
35.22000 273.247
35.23000 276.239
35.24000 278.366
35.25000 279.135
35.26000 270.399
35.27000 259.828
35.28000 252.672
35.29000 260.942
35.30000 271.091
35.31000 278.852
35.32000 277.360
35.33000 275.680
35.34000 272.910
35.35000 267.874
35.36000 262.768
35.37000 261.376
35.38000 265.220
35.39000 269.100
35.40000 269.970
35.41000 268.068
35.42000 266.202
35.43000 266.929
35.44000 269.242
35.45000 271.438
35.46000 270.958
35.47000 269.361
35.48000 267.865
35.49000 267.612
35.50000 267.703
35.51000 267.801
35.52000 267.945
35.53000 268.097
35.54000 267.576
35.55000 264.070
35.56000 260.208
35.57000 257.268
35.58000 266.187
35.59000 273.832
35.60000 276.940
35.61000 270.774
35.62000 264.333
35.63000 262.202
35.64000 266.036
35.65000 269.907
35.66000 270.817
35.67000 269.055
35.68000 267.274
35.69000 264.323
35.70000 260.668
35.71000 257.354
35.72000 261.606
35.73000 268.961
35.74000 275.836
35.75000 268.740
35.76000 258.753
35.77000 250.204
35.78000 251.299
35.79000 254.184
35.80000 257.923
35.81000 265.374
35.82000 273.257
35.83000 279.231
35.84000 272.344
35.85000 266.280
35.86000 261.332
35.87000 258.626
35.88000 255.983
35.89000 256.342
35.90000 260.780
35.91000 265.239
35.92000 268.622
35.93000 271.049
35.94000 273.451
35.95000 274.337
35.96000 274.326
35.97000 274.172
35.98000 270.938
35.99000 266.463
36.00000 262.288
36.01000 263.299
36.02000 265.504
36.03000 267.742
36.04000 270.186
36.05000 272.668
36.06000 274.574
36.07000 274.022
36.08000 273.190
36.09000 272.563
36.10000 265.939
36.11000 260.455
36.12000 258.198
36.13000 262.314
36.14000 266.602
36.15000 268.616
36.16000 267.596
36.17000 266.562
36.18000 265.018
36.19000 263.035
36.20000 261.162
36.21000 265.603
36.22000 273.709
36.23000 281.500
36.24000 282.802
36.25000 281.532
36.26000 280.349
36.27000 273.210
36.28000 265.301
36.29000 258.572
36.30000 259.428
36.31000 261.639
36.32000 263.143
36.33000 261.680
36.34000 259.888
36.35000 258.542
36.36000 252.597
36.37000 247.731
36.38000 246.707
36.39000 253.144
36.40000 259.772
36.41000 264.721
36.42000 267.471
36.43000 270.208
36.44000 272.384
36.45000 274.078
36.46000 275.580
36.47000 266.719
36.48000 251.948
36.49000 237.990
36.50000 240.187
36.51000 248.677
36.52000 256.568
36.53000 256.951
36.54000 255.502
36.55000 254.681
36.56000 257.814
36.57000 261.639
36.58000 264.521
36.59000 263.521
36.60000 262.101
36.61000 261.039
36.62000 256.904
36.63000 253.539
36.64000 251.613
36.65000 252.434
36.66000 253.321
36.67000 254.247
36.68000 255.222
36.69000 256.197
36.70000 258.901
36.71000 263.039
36.72000 267.081
36.73000 266.163
36.74000 262.466
36.75000 259.069
36.76000 261.431
36.77000 265.999
36.78000 270.235
36.79000 271.689
36.80000 272.346
36.81000 272.858
36.82000 272.468
36.83000 271.924
36.84000 271.316
36.85000 270.452
36.86000 269.561
36.87000 268.898
36.88000 274.835
36.89000 279.746
36.90000 281.178
36.91000 276.085
36.92000 270.840
36.93000 269.778
36.94000 273.993
36.95000 278.219
36.96000 274.943
36.97000 265.539
36.98000 256.272
36.99000 253.536
37.00000 254.397
37.01000 255.384
37.02000 258.716
37.03000 262.931
37.04000 266.832
37.05000 267.027
37.06000 266.351
37.07000 265.245
37.08000 261.536
37.09000 257.388
37.10000 253.776
37.11000 252.289
37.12000 251.021
37.13000 250.084
37.14000 245.602
37.15000 241.972
37.16000 242.144
37.17000 249.324
37.18000 256.658
37.19000 259.912
37.20000 258.115
37.21000 256.307
37.22000 257.567
37.23000 261.284
37.24000 264.945
37.25000 266.092
37.26000 265.878
37.27000 265.434
37.28000 260.852
37.29000 254.739
37.30000 249.094
37.31000 255.305
37.32000 263.546
37.33000 269.937
37.34000 265.355
37.35000 258.964
37.36000 253.155
37.37000 249.616
37.38000 246.306
37.39000 243.869
37.40000 247.596
37.41000 250.736
37.42000 254.156
37.43000 258.083
37.44000 262.021
37.45000 263.975
37.46000 263.519
37.47000 263.058
37.48000 262.772
37.49000 262.624
37.50000 262.514
37.51000 264.039
37.52000 266.435
37.53000 268.524
37.54000 265.275
37.55000 260.085
37.56000 255.302
37.57000 257.325
37.58000 260.639
37.59000 262.999
37.60000 259.817
37.61000 255.741
37.62000 251.740
37.63000 248.032
37.64000 244.353
37.65000 241.657
37.66000 243.960
37.67000 245.939
37.68000 250.273
37.69000 258.802
37.70000 267.413
37.71000 268.759
37.72000 261.442
37.73000 254.123
37.74000 248.239
37.75000 243.495
37.76000 238.875
37.77000 239.346
37.78000 242.480
37.79000 245.500
37.80000 246.587
37.81000 246.983
37.82000 247.347
37.83000 253.005
37.84000 259.205
37.85000 264.141
37.86000 261.873
37.87000 258.466
37.88000 255.500
37.89000 254.194
37.90000 253.047
37.91000 252.211
37.92000 255.675
37.93000 258.509
37.94000 259.497
37.95000 257.257
37.96000 254.957
37.97000 254.180
37.98000 255.185
37.99000 256.189
38.00000 257.973
38.01000 260.335
38.02000 262.608
38.03000 261.459
38.04000 258.551
38.05000 256.016
38.06000 259.557
38.07000 265.235
38.08000 270.444
38.09000 265.628
38.10000 259.209
38.11000 253.613
38.12000 252.610
38.13000 252.319
38.14000 253.306
38.15000 259.018
38.16000 265.173
38.17000 269.637
38.18000 270.206
38.19000 270.498
38.20000 270.444
38.21000 269.794
38.22000 269.133
38.23000 270.512
38.24000 274.231
38.25000 277.942
38.26000 282.851
38.27000 288.613
38.28000 294.229
38.29000 294.419
38.30000 291.868
38.31000 289.747
38.32000 294.412
38.33000 301.422
38.34000 307.839
38.35000 310.703
38.36000 312.512
38.37000 315.384
38.38000 324.082
38.39000 333.663
38.40000 342.578
38.41000 349.071
38.42000 355.344
38.43000 359.870
38.44000 373.502
38.45000 384.277
38.46000 391.890
38.47000 394.161
38.48000 396.345
38.49000 404.017
38.50000 417.871
38.51000 431.683
38.52000 444.443
38.53000 456.332
38.54000 468.268
38.55000 481.889
38.56000 496.345
38.57000 510.332
38.58000 517.132
38.59000 521.492
38.60000 525.474
38.61000 528.801
38.62000 531.622
38.63000 535.953
38.64000 548.401
38.65000 562.057
38.66000 573.206
38.67000 575.404
38.68000 576.808
38.69000 577.816
38.70000 570.595
38.71000 564.790
38.72000 558.406
38.73000 551.062
38.74000 543.702
38.75000 532.997
38.76000 518.596
38.77000 504.246
38.78000 495.067
38.79000 489.663
38.80000 484.177
38.81000 475.939
38.82000 466.357
38.83000 456.062
38.84000 435.161
38.85000 410.721
38.86000 388.450
38.87000 371.039
38.88000 356.583
38.89000 343.150
38.90000 335.109
38.91000 327.852
38.92000 322.269
38.93000 322.557
38.94000 323.353
38.95000 323.922
38.96000 313.513
38.97000 305.210
38.98000 299.258
38.99000 297.140
39.00000 295.077
39.01000 289.935
39.02000 281.459
39.03000 273.018
39.04000 269.690
39.05000 269.979
39.06000 270.263
39.07000 270.421
39.08000 270.516
39.09000 270.466
39.10000 268.305
39.11000 265.452
39.12000 262.858
39.13000 258.303
39.14000 253.893
39.15000 250.129
39.16000 249.707
39.17000 249.762
39.18000 249.746
39.19000 249.487
39.20000 249.208
39.21000 249.010
39.22000 251.816
39.23000 254.046
39.24000 255.663
39.25000 256.297
39.26000 256.918
39.27000 255.092
39.28000 250.667
39.29000 246.262
39.30000 243.866
39.31000 242.877
39.32000 242.108
39.33000 248.092
39.34000 257.260
39.35000 265.455
39.36000 259.989
39.37000 250.120
39.38000 241.170
39.39000 239.463
39.40000 239.343
39.41000 238.603
39.42000 234.719
39.43000 230.397
39.44000 227.999
39.45000 232.116
39.46000 236.769
39.47000 240.054
39.48000 236.795
39.49000 234.122
39.50000 234.618
39.51000 240.102
39.52000 245.647
39.53000 243.713
39.54000 233.993
39.55000 224.322
39.56000 223.309
39.57000 228.149
39.58000 232.900
39.59000 235.044
39.60000 235.979
39.61000 236.768
39.62000 235.562
39.63000 233.722
39.64000 232.059
39.65000 232.376
39.66000 233.027
39.67000 234.304
39.68000 238.698
39.69000 243.517
39.70000 246.237
39.71000 241.972
39.72000 237.150
39.73000 233.763
39.74000 235.918
39.75000 237.712
39.76000 239.290
39.77000 240.534
39.78000 241.775
39.79000 239.321
39.80000 233.095
39.81000 226.905
39.82000 222.587
39.83000 219.563
39.84000 216.814
39.85000 221.778
39.86000 230.256
39.87000 238.273
39.88000 240.185
39.89000 240.197
39.90000 240.207
39.91000 240.723
39.92000 241.270
39.93000 241.522
39.94000 240.333
39.95000 238.952
39.96000 238.186
39.97000 239.430
39.98000 240.830
39.99000 241.808
40.00000 238.002
40.01000 234.993
40.02000 233.545
40.03000 234.467
40.04000 235.413
40.05000 235.032
40.06000 233.324
40.07000 231.626
40.08000 232.402
40.09000 234.772
40.10000 237.021
40.11000 236.004
40.12000 233.525
40.13000 231.482
40.14000 235.052
40.15000 240.339
40.16000 245.100
40.17000 237.886
40.18000 229.410
40.19000 222.613
40.20000 223.856
40.21000 226.149
40.22000 227.489
40.23000 225.768
40.24000 223.816
40.25000 222.461
40.26000 229.753
40.27000 235.479
40.28000 237.604
40.29000 234.354
40.30000 231.053
40.31000 227.871
40.32000 224.807
40.33000 221.763
40.34000 222.418
40.35000 225.419
40.36000 228.243
40.37000 226.499
40.38000 222.744
40.39000 219.367
40.40000 220.734
40.41000 223.527
40.42000 226.036
40.43000 224.791
40.44000 223.042
40.45000 221.826
40.46000 223.121
40.47000 224.737
40.48000 225.493
40.49000 223.531
40.50000 221.369
40.51000 219.877
40.52000 214.976
40.53000 211.205
40.54000 209.920
40.55000 212.277
40.56000 214.667
40.57000 218.904
40.58000 224.917
40.59000 230.886
40.60000 230.327
40.61000 225.699
40.62000 221.214
40.63000 220.315
40.64000 220.969
40.65000 221.695
40.66000 223.294
40.67000 225.152
40.68000 226.815
40.69000 223.066
40.70000 218.861
40.71000 215.618
40.72000 216.809
40.73000 218.555
40.74000 219.740
40.75000 219.187
40.76000 218.510
40.77000 218.045
40.78000 217.204
40.79000 216.565
40.80000 219.862
40.81000 228.822
40.82000 237.826
40.83000 238.665
40.84000 231.812
40.85000 225.014
40.86000 217.554
40.87000 209.821
40.88000 202.570
40.89000 206.867
40.90000 216.079
40.91000 224.674
40.92000 225.941
40.93000 225.082
40.94000 224.315
40.95000 228.562
40.96000 233.107
40.97000 235.626
40.98000 228.970
40.99000 221.193
41.00000 215.276
41.01000 215.030
41.02000 215.177
41.03000 215.277
41.04000 218.877
41.05000 221.651
41.06000 222.950
41.07000 222.167
41.08000 221.367
41.09000 218.438
41.10000 213.542
41.11000 208.689
41.12000 207.974
41.13000 209.764
41.14000 211.448
41.15000 210.686
41.16000 208.901
41.17000 207.386
41.18000 209.004
41.19000 211.514
41.20000 213.751
41.21000 206.582
41.22000 198.798
41.23000 193.380
41.24000 198.486
41.25000 204.848
41.26000 209.859
41.27000 210.820
41.28000 211.508
41.29000 211.976
41.30000 217.109
41.31000 221.043
41.32000 224.087
41.33000 225.899
41.34000 227.700
41.35000 226.583
41.36000 222.822
41.37000 219.096
41.38000 215.456
41.39000 211.941
41.40000 208.441
41.41000 205.269
41.42000 202.231
41.43000 199.420
41.44000 199.155
41.45000 199.603
41.46000 200.002
41.47000 202.375
41.48000 204.752
41.49000 207.227
41.50000 210.125
41.51000 213.073
41.52000 215.392
41.53000 215.857
41.54000 216.202
41.55000 216.434
41.56000 209.585
41.57000 204.338
41.58000 204.664
41.59000 212.582
41.60000 220.540
41.61000 223.922
41.62000 223.240
41.63000 222.565
41.64000 221.302
41.65000 219.725
41.66000 218.227
41.67000 218.412
41.68000 219.279
41.69000 219.935
41.70000 218.282
41.71000 215.994
41.72000 213.966
41.73000 216.415
41.74000 219.244
41.75000 220.105
41.76000 212.538
41.77000 204.009
41.78000 200.121
41.79000 209.668
41.80000 220.067
41.81000 227.038
41.82000 218.658
41.83000 212.130
41.84000 207.149
41.85000 204.239
41.86000 201.346
41.87000 204.761
41.88000 213.673
41.89000 222.489
41.90000 224.799
41.91000 223.358
41.92000 221.839
41.93000 218.702
41.94000 214.921
41.95000 211.570
41.96000 212.819
41.97000 215.312
41.98000 217.516
41.99000 219.264
42.00000 220.703
42.01000 221.655
42.02000 220.551
42.03000 219.219
42.04000 219.192
42.05000 222.877
42.06000 226.790
42.07000 229.397
42.08000 226.368
42.09000 224.018
42.10000 222.641
42.11000 222.543
42.12000 222.447
42.13000 220.482
42.14000 216.919
42.15000 213.398
42.16000 213.765
42.17000 216.294
42.18000 218.769
42.19000 220.179
42.20000 221.173
42.21000 222.363
42.22000 225.591
42.23000 229.362
42.24000 232.685
42.25000 227.097
42.26000 220.933
42.27000 216.441
42.28000 218.859
42.29000 222.029
42.30000 223.332
42.31000 219.411
42.32000 215.179
42.33000 212.376
42.34000 207.687
42.35000 204.191
42.36000 206.033
42.37000 214.758
42.38000 223.496
42.39000 225.278
42.40000 221.226
42.41000 217.224
42.42000 215.518
42.43000 215.113
42.44000 214.908
42.45000 218.558
42.46000 223.690
42.47000 228.511
42.48000 230.176
42.49000 231.018
42.50000 231.757
42.51000 230.627
42.52000 229.378
42.53000 227.262
42.54000 221.628
42.55000 215.620
42.56000 211.603
42.57000 213.061
42.58000 214.835
42.59000 216.002
42.60000 216.026
42.61000 216.024
42.62000 213.793
42.63000 208.739
42.64000 203.685
42.65000 202.484
42.66000 204.454
42.67000 206.397
42.68000 209.362
42.69000 212.795
42.70000 215.817
42.71000 211.185
42.72000 203.665
42.73000 197.328
42.74000 202.747
42.75000 211.180
42.76000 218.570
42.77000 216.519
42.78000 213.392
42.79000 210.489
42.80000 208.480
42.81000 206.564
42.82000 204.416
42.83000 201.642
42.84000 198.833
42.85000 196.996
42.86000 206.859
42.87000 214.293
42.88000 217.589
42.89000 215.746
42.90000 213.886
42.91000 210.918
42.92000 207.056
42.93000 203.248
42.94000 202.796
42.95000 204.128
42.96000 205.316
42.97000 203.931
42.98000 201.591
42.99000 199.414
43.00000 198.805
43.01000 198.592
43.02000 198.405
43.03000 196.521
43.04000 194.666
43.05000 193.697
43.06000 196.193
43.07000 199.040
43.08000 201.944
43.09000 205.003
43.10000 208.069
43.11000 210.061
43.12000 205.544
43.13000 202.134
43.14000 199.416
43.15000 197.538
43.16000 195.660
43.17000 192.768
43.18000 189.072
43.19000 185.430
43.20000 186.726
43.21000 190.539
43.22000 194.220
43.23000 195.600
43.24000 196.141
43.25000 196.684
43.26000 197.236
43.27000 197.791
43.28000 198.274
43.29000 196.662
43.30000 194.995
43.31000 194.062
43.32000 195.953
43.33000 198.122
43.34000 198.616
43.35000 194.734
43.36000 190.623
43.37000 187.970
43.38000 191.747
43.39000 194.599
43.40000 197.407
43.41000 200.162
43.42000 202.905
43.43000 202.460
43.44000 199.534
43.45000 196.655
43.46000 195.500
43.47000 195.258
43.48000 195.064
43.49000 195.676
43.50000 196.578
43.51000 197.698
43.52000 200.830
43.53000 204.450
43.54000 207.596
43.55000 208.567
43.56000 209.101
43.57000 206.400
43.58000 191.490
43.59000 175.404
43.60000 166.311
43.61000 175.173
43.62000 184.939
43.63000 191.201
43.64000 190.732
43.65000 190.300
43.66000 191.665
43.67000 195.138
43.68000 198.610
43.69000 200.732
43.70000 201.825
43.71000 202.899
43.72000 203.440
43.73000 203.698
43.74000 203.989
43.75000 204.831
43.76000 205.867
43.77000 206.877
43.78000 207.645
43.79000 208.355
43.80000 208.971
43.81000 210.816
43.82000 212.549
43.83000 212.473
43.84000 205.691
43.85000 198.280
43.86000 193.081
43.87000 193.465
43.88000 194.121
43.89000 194.539
43.90000 194.278
43.91000 194.079
43.92000 193.400
43.93000 192.169
43.94000 190.963
43.95000 194.845
43.96000 202.542
43.97000 210.104
43.98000 206.764
43.99000 198.206
44.00000 190.268
44.01000 192.180
44.02000 197.504
44.03000 202.654
44.04000 206.275
44.05000 209.537
44.06000 212.355
44.07000 203.644
44.08000 194.759
44.09000 188.284
44.10000 190.586
44.11000 193.691
44.12000 195.632
44.13000 194.684
44.14000 193.600
44.15000 192.915
44.16000 193.911
44.17000 194.653
44.18000 195.986
44.19000 197.986
44.20000 199.990
44.21000 202.519
44.22000 205.433
44.23000 208.293
44.24000 207.858
44.25000 205.856
44.26000 203.795
44.27000 200.811
44.28000 197.512
44.29000 194.384
44.30000 192.717
44.31000 191.387
44.32000 190.242
44.33000 198.075
44.34000 205.844
44.35000 211.421
44.36000 209.152
44.37000 206.184
44.38000 205.586
44.39000 210.768
44.40000 216.212
44.41000 219.632
44.42000 211.802
44.43000 206.016
44.44000 205.365
44.45000 210.401
44.46000 215.422
44.47000 217.536
44.48000 217.549
44.49000 217.561
44.50000 219.651
44.51000 222.642
44.52000 225.169
44.53000 220.760
44.54000 214.031
44.55000 207.665
44.56000 204.351
44.57000 201.725
44.58000 199.471
44.59000 202.849
44.60000 206.400
44.61000 210.180
44.62000 214.767
44.63000 219.425
44.64000 221.435
44.65000 217.098
44.66000 212.484
44.67000 209.605
44.68000 222.656
44.69000 232.230
44.70000 235.123
44.71000 230.759
44.72000 226.408
44.73000 224.218
44.74000 223.562
44.75000 222.919
44.76000 219.451
44.77000 214.810
44.78000 210.437
44.79000 209.939
44.80000 210.715
44.81000 211.769
44.82000 215.107
44.83000 218.950
44.84000 222.239
44.85000 221.747
44.86000 220.877
44.87000 221.083
44.88000 225.006
44.89000 229.242
44.90000 231.016
44.91000 226.985
44.92000 222.709
44.93000 220.061
44.94000 227.990
44.95000 233.793
44.96000 235.306
44.97000 232.252
44.98000 229.199
44.99000 226.530
45.00000 224.129
45.01000 221.779
45.02000 223.257
45.03000 226.412
45.04000 229.143
45.05000 225.898
45.06000 220.720
45.07000 216.418
45.08000 219.145
45.09000 223.401
45.10000 227.030
45.11000 228.372
45.12000 229.231
45.13000 229.694
45.14000 228.808
45.15000 227.812
45.16000 227.703
45.17000 229.653
45.18000 231.685
45.19000 232.935
45.20000 227.231
45.21000 223.080
45.22000 221.018
45.23000 221.138
45.24000 221.258
45.25000 221.384
45.26000 221.515
45.27000 221.642
45.28000 220.212
45.29000 218.148
45.30000 216.048
45.31000 213.443
45.32000 210.678
45.33000 208.303
45.34000 208.986
45.35000 210.321
45.36000 211.455
45.37000 203.448
45.38000 195.673
45.39000 191.287
45.40000 198.210
45.41000 206.039
45.42000 210.800
45.43000 208.575
45.44000 206.079
45.45000 204.555
45.46000 195.963
45.47000 189.760
45.48000 192.155
45.49000 203.350
45.50000 214.414
45.51000 211.572
45.52000 199.381
45.53000 187.478
45.54000 183.709
45.55000 183.657
45.56000 183.785
45.57000 186.304
45.58000 189.570
45.59000 192.753
45.60000 195.305
45.61000 197.725
45.62000 199.775
45.63000 199.863
45.64000 199.716
45.65000 199.069
45.66000 196.784
45.67000 194.371
45.68000 192.170
45.69000 190.443
45.70000 188.734
45.71000 187.699
45.72000 195.379
45.73000 200.922
45.74000 201.907
45.75000 198.320
45.76000 194.707
45.77000 188.595
45.78000 180.835
45.79000 173.267
45.80000 176.039
45.81000 183.122
45.82000 189.600
45.83000 188.253
45.84000 184.506
45.85000 181.228
45.86000 181.480
45.87000 182.458
45.88000 183.284
45.89000 182.177
45.90000 181.041
45.91000 180.491
45.92000 181.833
45.93000 183.317
45.94000 183.736
45.95000 181.808
45.96000 179.796
45.97000 178.586
45.98000 173.373
45.99000 169.639
46.00000 169.575
46.01000 173.120
46.02000 176.655
46.03000 179.255
46.04000 181.249
46.05000 183.191
46.06000 183.444
46.07000 182.975
46.08000 182.576
46.09000 183.049
46.10000 183.785
46.11000 184.492
46.12000 184.981
46.13000 185.426
46.14000 185.800
46.15000 180.477
46.16000 175.427
46.17000 172.780
46.18000 177.736
46.19000 183.253
46.20000 186.466
46.21000 184.696
46.22000 182.756
46.23000 181.597
46.24000 180.215
46.25000 179.233
46.26000 180.001
46.27000 182.456
46.28000 184.874
46.29000 184.330
46.30000 181.898
46.31000 179.532
46.32000 177.622
46.33000 175.993
46.34000 174.096
46.35000 168.921
46.36000 162.774
46.37000 158.041
46.38000 163.481
46.39000 170.934
46.40000 177.186
46.41000 175.734
46.42000 173.722
46.43000 173.617
46.44000 179.442
46.45000 185.693
46.46000 189.248
46.47000 187.071
46.48000 184.706
46.49000 183.305
46.50000 181.258
46.51000 179.807
46.52000 179.368
46.53000 179.885
46.54000 180.425
46.55000 182.678
46.56000 186.005
46.57000 189.238
46.58000 185.957
46.59000 180.199
46.60000 174.819
46.61000 173.941
46.62000 174.374
46.63000 175.188
46.64000 178.692
46.65000 182.718
46.66000 186.083
46.67000 185.929
46.68000 185.443
46.69000 184.773
46.70000 183.542
46.71000 182.271
46.72000 180.707
46.73000 178.529
46.74000 176.331
46.75000 175.039
46.76000 171.993
46.77000 169.836
46.78000 169.312
46.79000 170.302
46.80000 171.262
46.81000 170.172
46.82000 167.820
46.83000 165.537
46.84000 165.420
46.85000 166.169
46.86000 166.732
46.87000 165.122
46.88000 162.892
46.89000 161.248
46.90000 163.649
46.91000 166.820
46.92000 169.462
46.93000 174.998
46.94000 179.873
46.95000 182.729
46.96000 179.522
46.97000 175.904
46.98000 173.061
46.99000 171.807
47.00000 170.601
47.01000 169.898
47.02000 165.569
47.03000 162.509
47.04000 162.528
47.05000 165.342
47.06000 168.134
47.07000 169.469
47.08000 169.922
47.09000 170.362
47.10000 170.324
47.11000 170.102
47.12000 169.707
47.13000 167.365
47.14000 164.476
47.15000 162.252
47.16000 164.517
47.17000 167.621
47.18000 170.198
47.19000 174.424
47.20000 178.077
47.21000 179.557
47.22000 174.620
47.23000 169.261
47.24000 166.608
47.25000 169.421
47.26000 172.391
47.27000 174.110
47.28000 169.519
47.29000 166.277
47.30000 166.632
47.31000 170.193
47.32000 173.691
47.33000 173.233
47.34000 170.427
47.35000 167.710
47.36000 167.192
47.37000 167.544
47.38000 167.746
47.39000 166.298
47.40000 164.394
47.41000 163.346
47.42000 167.961
47.43000 173.613
47.44000 178.288
47.45000 174.883
47.46000 171.312
47.47000 168.150
47.48000 166.176
47.49000 164.278
47.50000 163.588
47.51000 165.299
47.52000 167.075
47.53000 168.095
47.54000 166.019
47.55000 164.554
47.56000 162.074
47.57000 158.706
47.58000 155.390
47.59000 155.105
47.60000 156.589
47.61000 158.022
47.62000 161.357
47.63000 165.219
47.64000 168.243
47.65000 162.276
47.66000 153.871
47.67000 147.379
47.68000 153.278
47.69000 161.400
47.70000 168.096
47.71000 169.540
47.72000 170.246
47.73000 171.755
47.74000 175.553
47.75000 179.493
47.76000 181.425
47.77000 179.438
47.78000 177.349
47.79000 176.159
47.80000 176.317
47.81000 176.426
47.82000 172.520
47.83000 165.173
47.84000 157.926
47.85000 156.203
47.86000 157.647
47.87000 159.042
47.88000 160.394
47.89000 161.652
47.90000 162.717
47.91000 161.773
47.92000 160.293
47.93000 159.021
47.94000 159.069
47.95000 159.349
47.96000 159.578
47.97000 165.293
47.98000 170.477
47.99000 173.763
48.00000 171.726
48.01000 169.371
48.02000 166.191
48.03000 161.426
48.04000 156.623
48.05000 153.909
48.06000 161.135
48.07000 166.179
48.08000 167.950
48.09000 166.967
48.10000 165.966
48.11000 164.027
48.12000 161.558
48.13000 159.178
48.14000 155.856
48.15000 152.391
48.16000 149.378
48.17000 150.973
48.18000 153.774
48.19000 156.250
48.20000 156.710
48.21000 156.821
48.22000 156.912
48.23000 167.699
48.24000 177.471
48.25000 181.915
48.26000 171.668
48.27000 160.572
48.28000 154.405
48.29000 157.531
48.30000 160.875
48.31000 162.748
48.32000 163.243
48.33000 163.580
48.34000 162.358
48.35000 159.850
48.36000 157.401
48.37000 157.843
48.38000 159.885
48.39000 161.851
48.40000 162.602
48.41000 162.874
48.42000 162.983
48.43000 161.470
48.44000 159.539
48.45000 158.178
48.46000 160.287
48.47000 162.984
48.48000 165.181
48.49000 158.680
48.50000 152.624
48.51000 150.933
48.52000 161.068
48.53000 171.864
48.54000 177.594
48.55000 173.936
48.56000 170.069
48.57000 167.922
48.58000 162.912
48.59000 159.445
48.60000 156.333
48.61000 153.510
48.62000 150.757
48.63000 151.246
48.64000 153.501
48.65000 155.668
48.66000 158.387
48.67000 161.126
48.68000 163.318
48.69000 160.187
48.70000 155.712
48.71000 151.701
48.72000 150.454
48.73000 149.666
48.74000 149.026
48.75000 153.963
48.76000 158.452
48.77000 161.205
48.78000 159.333
48.79000 157.210
48.80000 157.954
48.81000 163.919
48.82000 169.993
48.83000 173.337
48.84000 161.219
48.85000 152.869
48.86000 152.122
48.87000 157.419
48.88000 162.578
48.89000 161.677
48.90000 157.537
48.91000 153.562
48.92000 153.769
48.93000 155.392
48.94000 157.070
48.95000 159.270
48.96000 161.600
48.97000 163.028
48.98000 159.187
48.99000 154.490
49.00000 150.690
49.01000 154.911
49.02000 158.993
49.03000 162.254
49.04000 163.364
49.05000 164.361
49.06000 164.577
49.07000 163.396
49.08000 162.186
49.09000 161.527
49.10000 159.436
49.11000 157.995
49.12000 155.710
49.13000 152.768
49.14000 149.886
49.15000 149.522
49.16000 150.482
49.17000 151.402
49.18000 151.415
49.19000 151.122
49.20000 150.878
49.21000 151.090
49.22000 151.412
49.23000 152.066
49.24000 154.620
49.25000 157.476
49.26000 159.778
49.27000 155.551
49.28000 151.606
49.29000 148.447
49.30000 147.309
49.31000 146.273
49.32000 147.308
49.33000 151.984
49.34000 156.729
49.35000 159.296
49.36000 158.403
49.37000 157.792
49.38000 158.335
49.39000 159.760
49.40000 161.140
49.41000 160.750
49.42000 159.445
49.43000 158.197
49.44000 157.083
49.45000 156.089
49.46000 155.456
49.47000 158.084
49.48000 161.492
49.49000 163.517
49.50000 157.763
49.51000 150.798
49.52000 145.206
49.53000 152.446
49.54000 159.290
49.55000 164.557
49.56000 165.833
49.57000 166.914
49.58000 166.927
49.59000 165.091
49.60000 163.224
49.61000 162.222
49.62000 164.717
49.63000 166.418
49.64000 166.933
49.65000 166.558
49.66000 166.074
49.67000 161.516
49.68000 154.889
49.69000 148.557
49.70000 149.545
49.71000 152.827
49.72000 155.655
49.73000 154.466
49.74000 152.334
49.75000 150.915
49.76000 153.424
49.77000 156.533
49.78000 159.018
49.79000 161.079
49.80000 162.714
49.81000 163.286
49.82000 161.215
49.83000 159.021
49.84000 157.519
49.85000 157.195
49.86000 156.891
49.87000 156.729
49.88000 148.894
49.89000 143.580
49.90000 142.211
49.91000 143.755
49.92000 145.316
49.93000 147.475
49.94000 149.934
49.95000 152.279
49.96000 154.824
49.97000 157.249
49.98000 159.599
49.99000 161.290
50.00000 162.829
50.01000 164.150
50.02000 164.295
50.03000 164.263
50.04000 164.238
50.05000 161.345
50.06000 158.805
50.07000 156.804
50.08000 156.121
50.09000 155.497
50.10000 156.711
50.11000 160.989
50.12000 165.314
50.13000 167.591
50.14000 164.443
50.15000 162.314
50.16000 161.446
50.17000 161.494
50.18000 161.460
50.19000 158.654
50.20000 154.489
50.21000 150.522
50.22000 150.663
50.23000 152.070
50.24000 153.168
50.25000 151.655
50.26000 149.552
50.27000 148.232
50.28000 151.070
50.29000 154.516
50.30000 157.249
50.31000 160.484
50.32000 163.122
50.33000 164.571
50.34000 163.165
50.35000 161.634
50.36000 161.088
50.37000 162.157
50.38000 163.250
50.39000 163.819
50.40000 164.844
50.41000 165.539
50.42000 166.610
50.43000 167.948
50.44000 169.311
50.45000 171.488
50.46000 174.056
50.47000 176.499
50.48000 175.026
50.49000 172.471
50.50000 170.098
50.51000 169.234
50.52000 168.705
50.53000 168.692
50.54000 171.359
50.55000 174.410
50.56000 176.820
50.57000 176.027
50.58000 175.171
50.59000 174.598
50.60000 174.691
50.61000 174.812
50.62000 175.020
50.63000 175.368
50.64000 175.717
50.65000 175.898
50.66000 178.614
50.67000 180.434
50.68000 180.700
50.69000 179.880
50.70000 179.123
50.71000 180.284
50.72000 182.356
50.73000 184.323
50.74000 178.841
50.75000 171.555
50.76000 164.721
50.77000 161.536
50.78000 159.145
50.79000 157.368
50.80000 158.717
50.81000 160.505
50.82000 161.911
50.83000 164.028
50.84000 165.770
50.85000 167.430
50.86000 168.897
50.87000 170.356
50.88000 171.933
50.89000 173.697
50.90000 175.463
50.91000 176.366
50.92000 168.599
50.93000 163.395
50.94000 159.920
50.95000 157.632
50.96000 155.346
50.97000 153.095
50.98000 150.862
50.99000 148.745
51.00000 149.554
51.01000 151.158
51.02000 153.022
51.03000 156.934
51.04000 161.284
51.05000 164.769
51.06000 163.920
51.07000 162.476
51.08000 161.344
51.09000 161.408
51.10000 161.536
51.11000 161.536
51.12000 161.246
51.13000 160.944
51.14000 159.638
51.15000 156.770
51.16000 153.885
51.17000 152.423
51.18000 149.148
51.19000 146.973
51.20000 146.806
51.21000 147.992
51.22000 149.206
51.23000 151.237
51.24000 153.642
51.25000 155.918
51.26000 152.864
51.27000 148.522
51.28000 144.667
51.29000 144.555
51.30000 145.229
51.31000 146.243
51.32000 148.923
51.33000 151.826
51.34000 154.091
51.35000 151.796
51.36000 149.683
51.37000 147.461
51.38000 144.996
51.39000 142.523
51.40000 141.242
51.41000 141.782
51.42000 142.341
51.43000 142.622
51.44000 148.011
51.45000 151.575
51.46000 151.924
51.47000 150.146
51.48000 148.525
51.49000 151.198
51.50000 155.804
51.51000 160.155
51.52000 157.358
51.53000 152.776
51.54000 148.138
51.55000 143.081
51.56000 137.938
51.57000 134.409
51.58000 138.652
51.59000 143.918
51.60000 148.006
51.61000 146.268
51.62000 144.532
51.63000 144.948
51.64000 150.110
51.65000 155.443
51.66000 156.441
51.67000 150.939
51.68000 145.374
51.69000 142.526
51.70000 142.358
51.71000 142.201
51.72000 143.001
51.73000 144.423
51.74000 145.855
51.75000 147.545
51.76000 149.349
51.77000 151.049
51.78000 149.702
51.79000 147.624
51.80000 145.456
51.81000 142.631
51.82000 139.673
51.83000 137.848
51.84000 141.374
51.85000 145.589
51.86000 148.847
51.87000 145.695
51.88000 142.817
51.89000 141.957
51.90000 145.471
51.91000 149.137
51.92000 148.723
51.93000 142.297
51.94000 135.818
51.95000 132.908
51.96000 133.447
51.97000 133.997
51.98000 135.541
51.99000 137.718
52.00000 140.004
52.01000 145.020
52.02000 151.223
52.03000 157.060
52.04000 152.364
52.05000 145.212
52.06000 139.447
52.07000 143.692
52.08000 149.923
52.09000 155.207
52.10000 156.095
52.11000 156.431
52.12000 156.689
52.13000 154.382
52.14000 152.410
52.15000 151.339
52.16000 152.189
52.17000 153.101
52.18000 150.623
52.19000 143.239
52.20000 135.816
52.21000 131.973
52.22000 131.523
52.23000 131.088
52.24000 131.788
52.25000 133.201
52.26000 134.669
52.27000 137.446
52.28000 140.784
52.29000 143.918
52.30000 143.902
52.31000 143.048
52.32000 141.750
52.33000 137.309
52.34000 132.257
52.35000 127.914
52.36000 126.798
52.37000 126.079
52.38000 125.528
52.39000 132.467
52.40000 138.361
52.41000 141.931
52.42000 140.631
52.43000 139.178
52.44000 138.903
52.45000 140.304
52.46000 141.717
52.47000 140.173
52.48000 135.885
52.49000 131.638
52.50000 130.429
52.51000 131.092
52.52000 131.885
52.53000 135.723
52.54000 140.841
52.55000 145.640
52.56000 147.653
52.57000 148.759
52.58000 149.735
52.59000 149.808
52.60000 149.708
52.61000 148.897
52.62000 144.905
52.63000 140.529
52.64000 137.192
52.65000 138.959
52.66000 140.624
52.67000 142.042
52.68000 142.951
52.69000 143.844
52.70000 143.578
52.71000 141.696
52.72000 139.804
52.73000 140.888
52.74000 144.681
52.75000 148.412
52.76000 147.955
52.77000 144.961
52.78000 142.110
52.79000 142.468
52.80000 144.153
52.81000 145.729
52.82000 142.483
52.83000 138.300
52.84000 134.628
52.85000 134.422
52.86000 134.864
52.87000 135.768
52.88000 138.702
52.89000 141.873
52.90000 144.282
52.91000 142.415
52.92000 140.727
52.93000 138.336
52.94000 134.519
52.95000 130.662
52.96000 131.735
52.97000 139.564
52.98000 147.429
52.99000 150.873
53.00000 150.367
53.01000 149.869
53.02000 149.908
53.03000 150.267
53.04000 150.497
53.05000 147.940
53.06000 144.252
53.07000 140.808
53.08000 136.660
53.09000 132.721
53.10000 129.719
53.11000 132.936
53.12000 137.294
53.13000 141.048
53.14000 142.200
53.15000 143.053
53.16000 143.698
53.17000 144.597
53.18000 145.315
53.19000 145.202
53.20000 143.433
53.21000 141.620
53.22000 140.038
53.23000 138.767
53.24000 137.500
53.25000 138.394
53.26000 141.178
53.27000 143.913
53.28000 143.755
53.29000 141.906
53.30000 140.186
53.31000 141.179
53.32000 143.255
53.33000 145.189
53.34000 145.889
53.35000 146.218
53.36000 146.281
53.37000 144.617
53.38000 142.642
53.39000 141.926
53.40000 146.542
53.41000 151.755
53.42000 155.677
53.43000 152.351
53.44000 149.398
53.45000 147.451
53.46000 147.473
53.47000 147.546
53.48000 147.602
53.49000 147.634
53.50000 147.666
53.51000 147.725
53.52000 147.806
53.53000 147.925
53.54000 150.098
53.55000 153.451
53.56000 156.476
53.57000 152.867
53.58000 146.654
53.59000 140.875
53.60000 141.338
53.61000 143.263
53.62000 144.523
53.63000 141.551
53.64000 137.832
53.65000 134.410
53.66000 132.224
53.67000 130.172
53.68000 128.636
53.69000 129.564
53.70000 130.404
53.71000 133.103
53.72000 139.379
53.73000 145.744
53.74000 148.022
53.75000 145.004
53.76000 141.967
53.77000 139.455
53.78000 137.391
53.79000 135.419
53.80000 138.248
53.81000 143.787
53.82000 148.922
53.83000 146.168
53.84000 140.371
53.85000 134.990
53.86000 135.589
53.87000 137.544
53.88000 138.980
53.89000 137.185
53.90000 134.830
53.91000 133.619
53.92000 137.071
53.93000 141.022
53.94000 143.966
53.95000 144.300
53.96000 144.442
53.97000 145.102
53.98000 146.741
53.99000 148.404
54.00000 149.462
54.01000 149.750
54.02000 150.036
54.03000 146.756
54.04000 140.546
54.05000 134.421
54.06000 132.514
54.07000 132.947
54.08000 133.435
54.09000 134.978
54.10000 136.920
54.11000 138.719
54.12000 139.268
54.13000 139.471
54.14000 139.327
54.15000 137.060
54.16000 134.432
54.17000 132.762
54.18000 134.926
54.19000 137.490
54.20000 139.391
54.21000 144.276
54.22000 148.199
54.23000 149.796
54.24000 147.072
54.25000 144.251
54.26000 141.418
54.27000 138.570
54.28000 135.726
54.29000 135.746
54.30000 138.083
54.31000 140.419
54.32000 142.713
54.33000 144.985
54.34000 147.072
54.35000 145.805
54.36000 143.288
54.37000 140.962
54.38000 141.344
54.39000 142.302
54.40000 142.944
54.41000 141.690
54.42000 140.121
54.43000 138.321
54.44000 135.609
54.45000 132.804
54.46000 130.734
54.47000 128.147
54.48000 126.121
54.49000 126.767
54.50000 132.294
54.51000 137.924
54.52000 139.192
54.53000 135.115
54.54000 131.031
54.55000 132.374
54.56000 138.016
54.57000 143.562
54.58000 144.873
54.59000 143.914
54.60000 142.858
54.61000 140.075
54.62000 136.659
54.63000 133.508
54.64000 133.654
54.65000 134.518
54.66000 135.621
54.67000 138.129
54.68000 140.866
54.69000 142.402
54.70000 139.298
54.71000 135.732
54.72000 133.114
54.73000 132.673
54.74000 132.421
54.75000 132.645
54.76000 133.724
54.77000 134.820
54.78000 136.477
54.79000 138.810
54.80000 141.139
54.81000 142.778
54.82000 143.872
54.83000 144.952
54.84000 145.491
54.85000 145.746
54.86000 145.952
54.87000 145.327
54.88000 144.403
54.89000 143.552
54.90000 143.129
54.91000 142.844
54.92000 142.052
54.93000 138.342
54.94000 134.166
54.95000 130.827
54.96000 130.660
54.97000 130.801
54.98000 130.903
54.99000 135.086
55.00000 138.470
55.01000 141.869
55.02000 145.293
55.03000 148.718
55.04000 150.790
55.05000 151.268
55.06000 151.741
55.07000 151.478
55.08000 150.656
55.09000 149.835
55.10000 149.085
55.11000 148.372
55.12000 147.720
55.13000 148.081
55.14000 148.801
55.15000 149.461
55.16000 152.394
55.17000 155.496
55.18000 157.915
55.19000 156.487
55.20000 154.456
55.21000 153.173
55.22000 154.673
55.23000 156.436
55.24000 157.718
55.25000 159.457
55.26000 160.813
55.27000 161.076
55.28000 159.444
55.29000 157.778
55.30000 157.500
55.31000 158.828
55.32000 160.154
55.33000 165.128
55.34000 172.799
55.35000 180.268
55.36000 180.094
55.37000 176.030
55.38000 172.236
55.39000 172.751
55.40000 174.765
55.41000 176.611
55.42000 175.279
55.43000 173.427
55.44000 172.124
55.45000 173.852
55.46000 176.046
55.47000 177.723
55.48000 177.513
55.49000 177.129
55.50000 176.851
55.51000 168.792
55.52000 162.325
55.53000 162.706
55.54000 174.745
55.55000 186.979
55.56000 193.556
55.57000 193.709
55.58000 193.855
55.59000 193.401
55.60000 192.508
55.61000 191.774
55.62000 196.737
55.63000 204.549
55.64000 212.341
55.65000 219.795
55.66000 227.135
55.67000 233.846
55.68000 233.356
55.69000 231.443
55.70000 230.157
55.71000 232.272
55.72000 234.898
55.73000 237.308
55.74000 238.947
55.75000 240.516
55.76000 241.645
55.77000 242.908
55.78000 243.880
55.79000 246.104
55.80000 250.426
55.81000 254.780
55.82000 259.132
55.83000 263.481
55.84000 267.814
55.85000 268.394
55.86000 266.264
55.87000 264.144
55.88000 262.387
55.89000 260.808
55.90000 259.339
55.91000 259.526
55.92000 260.269
55.93000 260.947
55.94000 259.997
55.95000 258.828
55.96000 257.806
55.97000 257.567
55.98000 257.442
55.99000 256.330
56.00000 251.724
56.01000 246.812
56.02000 243.297
56.03000 239.691
56.04000 236.933
56.05000 233.196
56.06000 227.849
56.07000 222.478
56.08000 219.942
56.09000 220.502
56.10000 221.062
56.11000 223.953
56.12000 228.465
56.13000 232.688
56.14000 227.461
56.15000 217.666
56.16000 208.188
56.17000 203.358
56.18000 200.065
56.19000 197.068
56.20000 192.527
56.21000 188.206
56.22000 185.094
56.23000 188.291
56.24000 192.396
56.25000 195.184
56.26000 193.398
56.27000 191.221
56.28000 189.672
56.29000 187.290
56.30000 185.447
56.31000 184.726
56.32000 185.813
56.33000 186.926
56.34000 183.437
56.35000 175.020
56.36000 166.639
56.37000 164.874
56.38000 167.716
56.39000 170.367
56.40000 167.087
56.41000 160.990
56.42000 155.441
56.43000 157.705
56.44000 162.505
56.45000 166.863
56.46000 159.476
56.47000 150.685
56.48000 143.466
56.49000 144.289
56.50000 146.245
56.51000 147.494
56.52000 146.331
56.53000 144.967
56.54000 144.001
56.55000 144.804
56.56000 145.468
56.57000 143.829
56.58000 138.535
56.59000 133.194
56.60000 132.338
56.61000 136.189
56.62000 140.023
56.63000 139.997
56.64000 137.346
56.65000 134.742
56.66000 133.521
56.67000 132.945
56.68000 132.640
56.69000 136.052
56.70000 140.652
56.71000 144.818
56.72000 145.734
56.73000 145.926
56.74000 145.980
56.75000 145.341
56.76000 144.606
56.77000 142.526
56.78000 135.931
56.79000 128.971
56.80000 124.071
56.81000 128.788
56.82000 132.650
56.83000 133.136
56.84000 128.363
56.85000 123.528
56.86000 121.687
56.87000 122.927
56.88000 124.161
56.89000 126.048
56.90000 128.348
56.91000 130.472
56.92000 127.568
56.93000 122.356
56.94000 117.645
56.95000 119.662
56.96000 123.789
56.97000 127.519
56.98000 129.020
56.99000 129.928
57.00000 131.186
57.01000 134.173
57.02000 137.393
57.03000 139.549
57.04000 138.199
57.05000 136.572
57.06000 135.434
57.07000 135.511
57.08000 135.603
57.09000 134.664
57.10000 132.143
57.11000 129.606
57.12000 129.573
57.13000 132.068
57.14000 134.548
57.15000 134.006
57.16000 131.493
57.17000 128.950
57.18000 125.599
57.19000 121.883
57.20000 118.637
57.21000 121.524
57.22000 126.302
57.23000 130.609
57.24000 129.816
57.25000 128.196
57.26000 126.886
57.27000 127.075
57.28000 127.461
57.29000 128.100
57.30000 129.557
57.31000 131.077
57.32000 132.135
57.33000 130.326
57.34000 128.884
57.35000 127.945
57.36000 127.765
57.37000 127.592
57.38000 128.613
57.39000 130.813
57.40000 132.999
57.41000 131.515
57.42000 127.696
57.43000 124.077
57.44000 125.735
57.45000 129.734
57.46000 133.428
57.47000 133.239
57.48000 131.874
57.49000 130.647
57.50000 132.720
57.51000 135.120
57.52000 136.205
57.53000 131.053
57.54000 125.095
57.55000 122.166
57.56000 128.873
57.57000 136.296
57.58000 141.435
57.59000 128.692
57.60000 118.638
57.61000 113.567
57.62000 115.854
57.63000 118.209
57.64000 121.120
57.65000 124.571
57.66000 127.997
57.67000 128.302
57.68000 126.637
57.69000 124.983
57.70000 123.628
57.71000 122.403
57.72000 121.541
57.73000 125.166
57.74000 130.128
57.75000 134.577
57.76000 133.654
57.77000 131.914
57.78000 130.749
57.79000 132.261
57.80000 134.110
57.81000 135.226
57.82000 134.051
57.83000 132.711
57.84000 131.788
57.85000 128.912
57.86000 126.704
57.87000 125.626
57.88000 126.187
57.89000 126.762
57.90000 125.190
57.91000 121.580
57.92000 117.998
57.93000 119.014
57.94000 122.855
57.95000 126.595
57.96000 127.866
57.97000 128.079
57.98000 128.214
57.99000 127.418
58.00000 126.349
58.01000 125.394
58.02000 127.052
58.03000 128.944
58.04000 130.798
58.05000 132.481
58.06000 134.143
58.07000 134.712
58.08000 131.921
58.09000 128.894
58.10000 126.823
58.11000 124.423
58.12000 122.618
58.13000 122.614
58.14000 125.174
58.15000 127.753
58.16000 129.046
58.17000 129.141
58.18000 129.236
58.19000 128.381
58.20000 126.965
58.21000 125.651
58.22000 126.721
58.23000 128.797
58.24000 130.589
58.25000 129.065
58.26000 126.588
58.27000 124.378
58.28000 126.157
58.29000 128.370
58.30000 129.799
58.31000 127.713
58.32000 125.204
58.33000 123.756
58.34000 125.517
58.35000 127.496
58.36000 128.842
58.37000 123.566
58.38000 119.476
58.39000 117.581
58.40000 118.758
58.41000 119.955
58.42000 121.725
58.43000 124.018
58.44000 126.290
58.45000 122.853
58.46000 116.083
58.47000 109.602
58.48000 109.634
58.49000 112.365
58.50000 115.018
58.51000 116.790
58.52000 118.312
58.53000 119.667
58.54000 119.680
58.55000 119.473
58.56000 119.119
58.57000 118.117
58.58000 117.039
58.59000 117.159
58.60000 120.837
58.61000 124.750
58.62000 127.397
58.63000 128.642
58.64000 129.539
58.65000 128.309
58.66000 124.157
58.67000 119.989
58.68000 117.254
58.69000 115.804
58.70000 114.369
58.71000 115.710
58.72000 118.646
58.73000 121.455
58.74000 121.483
58.75000 120.381
58.76000 119.174
58.77000 116.816
58.78000 114.138
58.79000 111.762
58.80000 112.754
58.81000 114.150
58.82000 114.959
58.83000 113.224
58.84000 111.196
58.85000 110.525
58.86000 113.816
58.87000 117.362
58.88000 119.745
58.89000 122.819
58.90000 125.118
58.91000 124.559
58.92000 120.146
58.93000 115.716
58.94000 115.418
58.95000 118.751
58.96000 122.048
58.97000 122.360
58.98000 120.953
58.99000 119.695
59.00000 121.571
59.01000 124.702
59.02000 127.447
59.03000 126.021
59.04000 123.458
59.05000 121.191
59.06000 122.051
59.07000 123.282
59.08000 124.390
59.09000 124.973
59.10000 125.497
59.11000 125.577
59.12000 124.383
59.13000 123.111
59.14000 122.261
59.15000 116.252
59.16000 111.699
59.17000 111.811
59.18000 118.099
59.19000 124.412
59.20000 126.976
59.21000 126.307
59.22000 125.645
59.23000 125.737
59.24000 126.251
59.25000 126.678
59.26000 125.349
59.27000 123.330
59.28000 121.247
59.29000 118.497
59.30000 115.569
59.31000 112.985
59.32000 116.211
59.33000 119.882
59.34000 122.935
59.35000 123.416
59.36000 123.615
59.37000 123.203
59.38000 121.070
59.39000 118.832
59.40000 117.346
59.41000 121.242
59.42000 124.221
59.43000 124.525
59.44000 121.352
59.45000 118.169
59.46000 117.910
59.47000 120.124
59.48000 122.311
59.49000 123.310
59.50000 123.627
59.51000 123.809
59.52000 121.331
59.53000 117.825
59.54000 114.784
59.55000 116.527
59.56000 119.528
59.57000 122.168
59.58000 120.671
59.59000 118.763
59.60000 116.540
59.61000 113.022
59.62000 109.366
59.63000 108.244
59.64000 114.141
59.65000 120.449
59.66000 124.611
59.67000 123.045
59.68000 121.790
59.69000 121.312
59.70000 121.825
59.71000 122.338
59.72000 121.794
59.73000 120.371
59.74000 118.966
59.75000 117.294
59.76000 115.521
59.77000 113.759
59.78000 112.185
59.79000 110.683
59.80000 109.402
59.81000 110.326
59.82000 111.821
59.83000 113.133
59.84000 113.136
59.85000 112.948
59.86000 113.283
59.87000 115.719
59.88000 118.376
59.89000 120.315
59.90000 120.302
59.91000 120.178
59.92000 120.097
59.93000 122.372
59.94000 124.083
59.95000 123.581
59.96000 120.308
59.97000 117.030
59.98000 115.168
59.99000 114.461
60.00000 113.763
60.01000 116.107
60.02000 120.002
60.03000 123.866
60.04000 127.147
60.05000 130.209
60.06000 132.689
60.07000 129.465
60.08000 124.794
60.09000 120.707
60.10000 117.514
60.11000 114.906
60.12000 113.798
60.13000 118.605
60.14000 124.017
60.15000 126.839
60.16000 122.723
60.17000 118.227
60.18000 115.299
60.19000 112.173
60.20000 109.878
60.21000 111.522
60.22000 118.008
60.23000 124.491
60.24000 125.810
60.25000 123.001
60.26000 120.232
60.27000 119.184
60.28000 119.063
60.29000 118.937
60.30000 118.722
60.31000 118.475
60.32000 118.154
60.33000 117.126
60.34000 115.922
60.35000 114.872
60.36000 114.435
60.37000 114.146
60.38000 114.911
60.39000 119.752
60.40000 124.999
60.41000 126.843
60.42000 119.730
60.43000 112.143
60.44000 107.232
60.45000 119.294
60.46000 128.369
60.47000 130.955
60.48000 125.716
60.49000 120.469
60.50000 117.855
60.51000 117.304
60.52000 116.762
60.53000 117.184
60.54000 118.087
60.55000 118.892
60.56000 118.016
60.57000 116.532
60.58000 115.099
60.59000 114.139
60.60000 113.295
60.61000 112.560
60.62000 114.564
60.63000 116.647
60.64000 118.347
60.65000 118.587
60.66000 118.684
60.67000 118.424
60.68000 117.240
60.69000 116.008
60.70000 115.216
60.71000 122.571
60.72000 128.051
60.73000 129.952
60.74000 127.618
60.75000 125.287
60.76000 125.663
60.77000 128.122
60.78000 130.541
60.79000 130.410
60.80000 129.002
60.81000 127.519
60.82000 124.805
60.83000 121.653
60.84000 118.762
60.85000 118.242
60.86000 118.293
60.87000 118.336
60.88000 119.335
60.89000 120.313
60.90000 121.164
60.91000 121.541
60.92000 121.872
60.93000 122.183
60.94000 122.442
60.95000 122.698
60.96000 122.862
60.97000 115.163
60.98000 109.458
60.99000 109.782
61.00000 117.102
61.01000 124.400
61.02000 124.750
61.03000 119.848
61.04000 115.031
61.05000 114.363
61.06000 115.764
61.07000 116.994
61.08000 115.479
61.09000 113.006
61.10000 110.942
61.11000 112.527
61.12000 114.971
61.13000 117.086
61.14000 123.645
61.15000 129.799
61.16000 134.598
61.17000 134.425
61.18000 133.791
61.19000 132.481
61.20000 129.479
61.21000 126.397
61.22000 124.442
61.23000 123.082
61.24000 122.103
61.25000 122.075
61.26000 123.132
61.27000 124.195
61.28000 126.226
61.29000 128.975
61.30000 131.674
61.31000 130.798
61.32000 128.221
61.33000 125.681
61.34000 123.713
61.35000 121.942
61.36000 120.620
61.37000 123.201
61.38000 126.687
61.39000 129.693
61.40000 129.580
61.41000 129.086
61.42000 128.957
61.43000 130.144
61.44000 131.450
61.45000 133.467
61.46000 137.230
61.47000 141.073
61.48000 143.495
61.49000 153.264
61.50000 160.418
61.51000 167.543
61.52000 174.636
61.53000 181.755
61.54000 193.276
61.55000 208.004
61.56000 222.452
61.57000 234.655
61.58000 245.348
61.59000 255.919
61.60000 264.650
61.61000 272.761
61.62000 280.259
61.63000 282.549
61.64000 283.655
61.65000 284.606
61.66000 288.069
61.67000 291.312
61.68000 294.670
61.69000 298.434
61.70000 302.234
61.71000 304.327
61.72000 302.297
61.73000 300.084
61.74000 298.699
61.75000 271.956
61.76000 252.381
61.77000 236.979
61.78000 226.147
61.79000 215.288
61.80000 200.206
61.81000 182.102
61.82000 164.361
61.83000 153.343
61.84000 145.878
61.85000 139.008
61.86000 140.869
61.87000 145.625
61.88000 149.731
61.89000 148.450
61.90000 145.966
61.91000 143.838
61.92000 140.344
61.93000 137.227
61.94000 134.367
61.95000 132.396
61.96000 130.502
61.97000 129.717
61.98000 131.566
61.99000 133.528
62.00000 134.747
62.01000 129.844
62.02000 126.253
62.03000 125.482
62.04000 127.739
62.05000 129.997
62.06000 132.277
62.07000 134.571
62.08000 136.818
62.09000 134.781
62.10000 130.865
62.11000 127.246
62.12000 127.851
62.13000 129.833
62.14000 131.335
62.15000 128.951
62.16000 125.715
62.17000 122.951
62.18000 122.085
62.19000 121.582
62.20000 121.918
62.21000 125.129
62.22000 128.579
62.23000 131.074
62.24000 131.337
62.25000 131.508
62.26000 131.614
62.27000 130.143
62.28000 129.072
62.29000 130.649
62.30000 135.012
62.31000 139.348
62.32000 140.215
62.33000 138.688
62.34000 137.195
62.35000 137.692
62.36000 139.061
62.37000 140.164
62.38000 137.571
62.39000 133.795
62.40000 130.390
62.41000 129.930
62.42000 130.103
62.43000 130.251
62.44000 135.619
62.45000 140.739
62.46000 143.443
62.47000 138.030
62.48000 131.959
62.49000 128.299
62.50000 130.172
62.51000 132.264
62.52000 133.545
62.53000 135.503
62.54000 136.911
62.55000 135.299
62.56000 130.568
62.57000 125.864
62.58000 124.103
62.59000 124.337
62.60000 124.565
62.61000 127.526
62.62000 131.564
62.63000 135.491
62.64000 137.923
62.65000 139.885
62.66000 141.425
62.67000 139.691
62.68000 137.266
62.69000 135.209
62.70000 134.946
62.71000 134.929
62.72000 134.919
62.73000 134.928
62.74000 134.939
62.75000 135.052
62.76000 135.391
62.77000 135.740
62.78000 135.952
62.79000 134.759
62.80000 133.896
62.81000 133.906
62.82000 134.799
62.83000 135.687
62.84000 136.001
62.85000 135.934
62.86000 135.868
62.87000 134.173
62.88000 131.848
62.89000 129.880
62.90000 132.575
62.91000 136.711
62.92000 140.164
62.93000 138.435
62.94000 135.632
62.95000 133.262
62.96000 133.184
62.97000 133.373
62.98000 133.027
62.99000 130.942
63.00000 128.724
63.01000 126.276
63.02000 123.318
63.03000 120.342
63.04000 118.545
63.05000 125.925
63.06000 131.246
63.07000 134.129
63.08000 134.594
63.09000 135.057
63.10000 135.273
63.11000 135.327
63.12000 135.379
63.13000 133.812
63.14000 131.628
63.15000 129.850
63.16000 133.234
63.17000 138.186
63.18000 142.584
63.19000 142.868
63.20000 142.316
63.21000 141.850
63.22000 138.983
63.23000 136.330
63.24000 134.177
63.25000 133.618
63.26000 133.179
63.27000 133.593
63.28000 135.868
63.29000 138.208
63.30000 139.610
63.31000 138.596
63.32000 137.860
63.33000 136.628
63.34000 134.912
63.35000 133.240
63.36000 135.242
63.37000 139.605
63.38000 143.852
63.39000 143.156
63.40000 140.435
63.41000 137.808
63.42000 136.343
63.43000 135.225
63.44000 133.807
63.45000 130.201
63.46000 126.159
63.47000 122.763
63.48000 126.431
63.49000 130.231
63.50000 134.479
63.51000 140.130
63.52000 145.882
63.53000 149.361
63.54000 147.967
63.55000 146.410
63.56000 145.484
63.57000 145.667
63.58000 145.802
63.59000 144.000
63.60000 140.351
63.61000 136.764
63.62000 138.116
63.63000 142.584
63.64000 146.928
63.65000 146.415
63.66000 143.942
63.67000 141.819
63.68000 143.928
63.69000 147.278
63.70000 149.436
63.71000 143.118
63.72000 135.141
63.73000 128.462
63.74000 134.751
63.75000 141.313
63.76000 146.110
63.77000 145.472
63.78000 144.451
63.79000 143.628
63.80000 143.222
63.81000 142.831
63.82000 142.599
63.83000 138.788
63.84000 136.078
63.85000 136.973
63.86000 141.234
63.87000 145.463
63.88000 147.289
63.89000 147.627
63.90000 147.954
63.91000 148.795
63.92000 149.799
63.93000 150.827
63.94000 152.141
63.95000 153.538
63.96000 154.354
63.97000 151.130
63.98000 147.131
63.99000 143.794
64.00000 147.424
64.01000 151.134
64.02000 152.973
64.03000 149.144
64.04000 144.927
64.05000 142.847
64.06000 145.191
64.07000 147.670
64.08000 149.122
64.09000 153.787
64.10000 157.085
64.11000 155.257
64.12000 148.731
64.13000 142.362
64.14000 146.783
64.15000 157.773
64.16000 168.431
64.17000 168.337
64.18000 164.016
64.19000 159.910
64.20000 158.279
64.21000 157.347
64.22000 156.227
64.23000 153.818
64.24000 151.167
64.25000 148.963
64.26000 150.195
64.27000 151.552
64.28000 153.471
64.29000 157.065
64.30000 160.770
64.31000 163.178
64.32000 162.947
64.33000 162.639
64.34000 162.460
64.35000 157.874
64.36000 154.636
64.37000 151.906
64.38000 149.635
64.39000 147.423
64.40000 149.077
64.41000 153.043
64.42000 156.884
64.43000 157.367
64.44000 156.526
64.45000 155.964
64.46000 158.495
64.47000 161.887
64.48000 164.652
64.49000 163.230
64.50000 161.035
64.51000 159.217
64.52000 162.948
64.53000 166.559
64.54000 168.879
64.55000 167.422
64.56000 165.722
64.57000 163.810
64.58000 161.474
64.59000 159.126
64.60000 157.773
64.61000 167.695
64.62000 174.678
64.63000 175.441
64.64000 170.722
64.65000 166.102
64.66000 167.447
64.67000 172.299
64.68000 176.993
64.69000 175.944
64.70000 172.777
64.71000 169.981
64.72000 171.208
64.73000 173.536
64.74000 175.685
64.75000 176.674
64.76000 177.451
64.77000 178.094
64.78000 176.966
64.79000 175.873
64.80000 176.225
64.81000 180.733
64.82000 185.501
64.83000 187.849
64.84000 185.439
64.85000 182.902
64.86000 181.452
64.87000 181.992
64.88000 182.379
64.89000 185.264
64.90000 190.308
64.91000 195.274
64.92000 195.798
64.93000 193.758
64.94000 191.787
64.95000 186.871
64.96000 181.142
64.97000 176.103
64.98000 178.359
64.99000 182.575
65.00000 186.954
65.01000 192.380
65.02000 197.993
65.03000 202.610
65.04000 200.063
65.05000 197.320
65.06000 194.642
65.07000 192.147
65.08000 189.663
65.09000 190.849
65.10000 199.129
65.11000 207.588
65.12000 212.383
65.13000 212.697
65.14000 212.901
65.15000 212.411
65.16000 211.332
65.17000 210.250
65.18000 209.000
65.19000 207.657
65.20000 206.360
65.21000 209.185
65.22000 213.346
65.23000 217.458
65.24000 221.047
65.25000 224.498
65.26000 227.919
65.27000 231.154
65.28000 234.357
65.29000 236.981
65.30000 234.242
65.31000 231.522
65.32000 230.336
65.33000 233.411
65.34000 236.737
65.35000 242.361
65.36000 252.349
65.37000 262.442
65.38000 268.117
65.39000 263.473
65.40000 260.231
65.41000 260.551
65.42000 263.834
65.43000 267.104
65.44000 269.693
65.45000 271.902
65.46000 274.029
65.47000 276.512
65.48000 278.972
65.49000 281.610
65.50000 286.044
65.51000 290.943
65.52000 296.244
65.53000 304.006
65.54000 312.188
65.55000 318.869
65.56000 329.136
65.57000 337.847
65.58000 346.353
65.59000 354.304
65.60000 362.223
65.61000 376.428
65.62000 402.368
65.63000 428.576
65.64000 443.185
65.65000 499.104
65.66000 537.945
65.67000 601.455
65.68000 685.110
65.69000 769.175
65.70000 872.677
65.71000 986.836
65.72000 1096.652
65.73000 1229.291
65.74000 1361.674
65.75000 1491.396
65.76000 1594.977
65.77000 1691.909
65.78000 1781.565
65.79000 1827.425
65.80000 1865.959
65.81000 1897.306
65.82000 1907.978
65.83000 1914.959
65.84000 1925.415
65.85000 1945.200
65.86000 1965.499
65.87000 1979.440
65.88000 1981.719
65.89000 1983.747
65.90000 1984.868
65.91000 1880.440
65.92000 1808.098
65.93000 1698.091
65.94000 1557.897
65.95000 1418.114
65.96000 1296.681
65.97000 1185.137
65.98000 1077.992
65.99000 960.614
66.00000 847.234
66.01000 737.297
66.02000 660.378
66.03000 591.709
66.04000 529.071
66.05000 502.018
66.06000 480.796
66.07000 463.599
66.08000 440.958
66.09000 422.071
66.10000 405.819
66.11000 396.517
66.12000 387.585
66.13000 382.251
66.14000 383.405
66.15000 384.691
66.16000 385.396
66.17000 373.171
66.18000 364.772
66.19000 364.667
66.20000 371.085
66.21000 377.463
66.22000 382.138
66.23000 385.910
66.24000 389.529
66.25000 406.957
66.26000 427.909
66.27000 448.572
66.28000 466.534
66.29000 483.834
66.30000 503.433
66.31000 536.328
66.32000 571.359
66.33000 599.637
66.34000 619.010
66.35000 634.047
66.36000 644.138
66.37000 641.399
66.38000 638.001
66.39000 635.211
66.40000 633.500
66.41000 631.809
66.42000 630.891
66.43000 623.506
66.44000 618.424
66.45000 610.695
66.46000 600.922
66.47000 591.070
66.48000 578.042
66.49000 563.362
66.50000 549.302
66.51000 522.958
66.52000 494.317
66.53000 467.212
66.54000 454.146
66.55000 444.463
66.56000 434.094
66.57000 419.835
66.58000 404.965
66.59000 393.008
66.60000 383.227
66.61000 375.464
66.62000 368.616
66.63000 364.103
66.64000 359.707
66.65000 357.584
66.66000 359.420
66.67000 361.328
66.68000 362.355
66.69000 352.558
66.70000 345.864
66.71000 342.043
66.72000 340.398
66.73000 338.909
66.74000 343.409
66.75000 350.973
66.76000 358.206
66.77000 362.262
66.78000 365.002
66.79000 367.137
66.80000 363.873
66.81000 359.332
66.82000 355.644
66.83000 356.701
66.84000 358.488
66.85000 359.920
66.86000 372.603
66.87000 383.710
66.88000 387.843
66.89000 374.500
66.90000 360.320
66.91000 352.292
66.92000 354.791
66.93000 357.468
66.94000 358.896
66.95000 362.550
66.96000 365.033
66.97000 365.736
66.98000 365.117
66.99000 364.648
67.00000 369.676
67.01000 377.468
67.02000 384.907
67.03000 388.029
67.04000 389.551
67.05000 390.708
67.06000 388.679
67.07000 385.911
67.08000 384.434
67.09000 389.999
67.10000 396.627
67.11000 401.915
67.12000 396.649
67.13000 391.627
67.14000 388.633
67.15000 390.636
67.16000 392.870
67.17000 394.335
67.18000 394.506
67.19000 394.657
67.20000 394.737
67.21000 407.590
67.22000 416.288
67.23000 418.304
67.24000 415.440
67.25000 412.555
67.26000 408.904
67.27000 404.876
67.28000 401.037
67.29000 404.852
67.30000 410.788
67.31000 416.479
67.32000 420.074
67.33000 423.191
67.34000 424.850
67.35000 418.715
67.36000 411.428
67.37000 405.638
67.38000 409.154
67.39000 412.647
67.40000 417.420
67.41000 425.291
67.42000 433.301
67.43000 439.188
67.44000 441.568
67.45000 443.896
67.46000 445.115
67.47000 433.948
67.48000 426.436
67.49000 427.105
67.50000 433.641
67.51000 439.980
67.52000 439.767
67.53000 436.370
67.54000 433.138
67.55000 437.839
67.56000 444.628
67.57000 451.454
67.58000 458.579
67.59000 465.771
67.60000 470.148
67.61000 459.767
67.62000 447.251
67.63000 437.347
67.64000 439.517
67.65000 442.094
67.66000 446.639
67.67000 455.865
67.68000 465.293
67.69000 470.475
67.70000 468.765
67.71000 466.960
67.72000 466.024
67.73000 476.072
67.74000 482.805
67.75000 482.519
67.76000 477.290
67.77000 472.331
67.78000 475.913
67.79000 483.575
67.80000 490.853
67.81000 490.484
67.82000 487.837
67.83000 484.892
67.84000 479.517
67.85000 473.609
67.86000 470.154
67.87000 479.318
67.88000 490.270
67.89000 498.900
67.90000 498.728
67.91000 498.000
67.92000 500.049
67.93000 508.599
67.94000 517.417
67.95000 521.338
67.96000 517.447
67.97000 513.455
67.98000 511.404
67.99000 529.950
68.00000 542.333
68.01000 542.893
68.02000 535.274
68.03000 527.846
68.04000 526.197
68.05000 527.260
68.06000 528.269
68.07000 528.152
68.08000 527.711
68.09000 528.051
68.10000 534.599
68.11000 542.486
68.12000 549.833
68.13000 554.455
68.14000 558.698
68.15000 562.028
68.16000 559.674
68.17000 557.420
68.18000 556.789
68.19000 559.890
68.20000 563.139
68.21000 567.140
68.22000 572.319
68.23000 577.513
68.24000 580.155
68.25000 575.932
68.26000 573.151
68.27000 576.127
68.28000 583.014
68.29000 589.830
68.30000 594.565
68.31000 598.340
68.32000 601.914
68.33000 607.291
68.34000 612.761
68.35000 618.608
68.36000 627.389
68.37000 636.792
68.38000 644.164
68.39000 641.489
68.40000 637.450
68.41000 634.294
68.42000 648.823
68.43000 661.534
68.44000 671.489
68.45000 675.209
68.46000 678.691
68.47000 688.313
68.48000 707.385
68.49000 726.561
68.50000 736.221
68.51000 753.997
68.52000 765.792
68.53000 768.960
68.54000 766.370
68.55000 764.915
68.56000 795.078
68.57000 839.582
68.58000 881.644
68.59000 905.165
68.60000 921.490
68.61000 940.268
68.62000 977.720
68.63000 1019.052
68.64000 1061.180
68.65000 1107.181
68.66000 1153.697
68.67000 1189.887
68.68000 1234.493
68.69000 1270.519
68.70000 1312.178
68.71000 1366.359
68.72000 1421.000
68.73000 1467.464
68.74000 1501.569
68.75000 1535.548
68.76000 1572.264
68.77000 1611.703
68.78000 1651.195
68.79000 1695.750
68.80000 1743.623
68.81000 1792.534
68.82000 1869.184
68.83000 1958.202
68.84000 2042.185
68.85000 2141.158
68.86000 2236.060
68.87000 2355.756
68.88000 2660.103
68.89000 3002.096
68.90000 3445.498
68.91000 4372.239
68.92000 5361.756
68.93000 6128.292
68.94000 8780.831
68.95000 10999.753
68.96000 13595.463
68.97000 17014.584
68.98000 20462.645
68.99000 23915.090
69.00000 27374.043
69.01000 30832.988
69.02000 33751.422
69.03000 36142.684
69.04000 38524.852
69.05000 40117.762
69.06000 41202.504
69.07000 42273.848
69.08000 43001.238
69.09000 43577.883
69.10000 44120.930
69.11000 44948.176
69.12000 45782.742
69.13000 46592.016
69.14000 47216.973
69.15000 47805.059
69.16000 48229.766
69.17000 47890.234
69.18000 47453.625
69.19000 47116.883
69.20000 44296.723
69.21000 41918.828
69.22000 39287.953
69.23000 36113.633
69.24000 32921.012
69.25000 30210.686
69.26000 28203.668
69.27000 26202.771
69.28000 24748.625
69.29000 23817.256
69.30000 22890.975
69.31000 22373.189
69.32000 22113.781
69.33000 21849.260
69.34000 21458.617
69.35000 21013.633
69.36000 20595.346
69.37000 19517.359
69.38000 18356.043
69.39000 17119.977
69.40000 15350.810
69.41000 13477.021
69.42000 11610.192
69.43000 9775.311
69.44000 7944.397
69.45000 6538.557
69.46000 5237.789
69.47000 4215.412
69.48000 3358.519
69.49000 2851.071
69.50000 2354.887
69.51000 1979.728
69.52000 1777.895
69.53000 1577.430
69.54000 1432.759
69.55000 1340.408
69.56000 1248.314
69.57000 1175.355
69.58000 1114.287
69.59000 1054.214
69.60000 1017.792
69.61000 991.385
69.62000 966.610
69.63000 935.758
69.64000 906.045
69.65000 875.997
69.66000 843.600
69.67000 810.752
69.68000 780.109
69.69000 759.401
69.70000 739.900
69.71000 724.993
69.72000 714.293
69.73000 706.082
69.74000 692.266
69.75000 666.818
69.76000 641.011
69.77000 625.618
69.78000 624.870
69.79000 624.225
69.80000 621.902
69.81000 618.039
69.82000 614.090
69.83000 604.125
69.84000 590.489
69.85000 577.046
69.86000 568.010
69.87000 560.810
69.88000 554.067
69.89000 552.160
69.90000 551.674
69.91000 549.601
69.92000 536.686
69.93000 521.724
69.94000 508.358
69.95000 502.052
69.96000 496.584
69.97000 492.423
69.98000 486.169
69.99000 481.139
70.00000 476.751
