20.00000 478.301
20.01000 476.944
20.02000 475.393
20.03000 473.902
20.04000 472.643
20.05000 471.408
20.06000 470.496
20.07000 469.447
20.08000 468.629
20.09000 468.240
20.10000 468.640
20.11000 469.057
20.12000 467.788
20.13000 464.448
20.14000 461.109
20.15000 463.400
20.16000 470.161
20.17000 476.820
20.18000 478.994
20.19000 478.759
20.20000 478.420
20.21000 476.255
20.22000 473.419
20.23000 470.802
20.24000 469.958
20.25000 469.596
20.26000 468.933
20.27000 466.495
20.28000 463.766
20.29000 462.133
20.30000 464.740
20.31000 467.770
20.32000 469.996
20.33000 468.469
20.34000 467.135
20.35000 465.579
20.36000 463.624
20.37000 461.662
20.38000 465.639
20.39000 476.776
20.40000 487.906
20.41000 486.378
20.42000 474.983
20.43000 463.904
20.44000 466.134
20.45000 475.391
20.46000 484.046
20.47000 482.407
20.48000 477.050
20.49000 472.118
20.50000 472.353
20.51000 473.694
20.52000 474.234
20.53000 470.155
20.54000 465.337
20.55000 461.608
20.56000 462.020
20.57000 462.834
20.58000 463.429
20.59000 462.994
20.60000 462.618
20.61000 463.004
20.62000 464.736
20.63000 466.494
20.64000 464.498
20.65000 458.063
20.66000 451.636
20.67000 456.976
20.68000 471.287
20.69000 485.196
20.70000 483.021
20.71000 472.500
20.72000 462.851
20.73000 467.677
20.74000 477.641
20.75000 486.793
20.76000 490.057
20.77000 491.707
20.78000 492.249
20.79000 486.527
20.80000 479.823
20.81000 473.934
20.82000 471.093
20.83000 468.541
20.84000 466.685
20.85000 461.494
20.86000 457.373
20.87000 456.387
20.88000 460.845
20.89000 465.400
20.90000 466.012
20.91000 462.049
20.92000 458.091
20.93000 457.468
20.94000 459.352
20.95000 461.155
20.96000 459.868
20.97000 457.006
20.98000 454.623
20.99000 459.964
21.00000 467.998
21.01000 475.363
21.02000 472.560
21.03000 467.927
21.04000 464.616
21.05000 468.623
21.06000 473.754
21.07000 475.959
21.08000 467.426
21.09000 457.900
21.10000 451.007
21.11000 455.091
21.12000 458.627
21.13000 461.680
21.14000 463.908
21.15000 466.123
21.16000 465.125
21.17000 460.470
21.18000 455.826
21.19000 458.620
21.20000 466.867
21.21000 475.043
21.22000 480.650
21.23000 484.968
21.24000 489.165
21.25000 491.470
21.26000 493.126
21.27000 494.640
21.28000 485.751
21.29000 475.709
21.30000 467.354
21.31000 468.163
21.32000 470.352
21.33000 472.806
21.34000 476.220
21.35000 479.720
21.36000 482.240
21.37000 463.210
21.38000 447.879
21.39000 440.511
21.40000 446.489
21.41000 452.678
21.42000 454.949
21.43000 452.846
21.44000 450.747
21.45000 453.576
21.46000 459.940
21.47000 466.051
21.48000 463.465
21.49000 456.594
21.50000 450.198
21.51000 451.000
21.52000 454.227
21.53000 457.172
21.54000 461.293
21.55000 465.186
21.56000 469.616
21.57000 476.907
21.58000 484.619
21.59000 489.624
21.60000 485.037
21.61000 479.607
21.62000 475.719
21.63000 473.514
21.64000 471.887
21.65000 466.802
21.66000 456.020
21.67000 445.155
21.68000 443.818
21.69000 452.914
21.70000 461.980
21.71000 468.787
21.72000 473.928
21.73000 478.946
21.74000 479.898
21.75000 478.881
21.76000 478.170
21.77000 481.963
21.78000 487.247
21.79000 492.057
21.80000 490.651
21.81000 488.179
21.82000 487.118
21.83000 493.428
21.84000 500.800
21.85000 506.843
21.86000 508.255
21.87000 509.271
21.88000 509.995
21.89000 514.000
21.90000 517.159
21.91000 519.263
21.92000 519.660
21.93000 520.034
21.94000 520.314
21.95000 520.493
21.96000 520.672
21.97000 516.499
21.98000 509.345
21.99000 502.289
22.00000 498.277
22.01000 495.716
22.02000 493.927
22.03000 503.152
22.04000 515.963
22.05000 527.597
22.06000 524.065
22.07000 518.010
22.08000 513.650
22.09000 517.973
22.10000 523.521
22.11000 527.839
22.12000 527.947
22.13000 527.704
22.14000 527.532
22.15000 521.231
22.16000 516.250
22.17000 511.496
22.18000 507.102
22.19000 502.713
22.20000 503.267
22.21000 509.026
22.22000 514.758
22.23000 512.837
22.24000 505.721
22.25000 498.668
22.26000 493.527
22.27000 489.282
22.28000 485.460
22.29000 487.509
22.30000 491.436
22.31000 494.993
22.32000 488.133
22.33000 480.111
22.34000 472.853
22.35000 469.431
22.36000 466.540
22.37000 466.139
22.38000 474.104
22.39000 482.748
22.40000 488.838
22.41000 480.351
22.42000 473.479
22.43000 468.499
22.44000 466.475
22.45000 464.486
22.46000 465.166
22.47000 468.600
22.48000 472.016
22.49000 467.778
22.50000 458.474
22.51000 449.492
22.52000 449.816
22.53000 454.421
22.54000 458.408
22.55000 454.081
22.56000 447.138
22.57000 440.865
22.58000 449.681
22.59000 460.238
22.60000 468.140
22.61000 462.948
22.62000 455.986
22.63000 451.380
22.64000 454.553
22.65000 458.339
22.66000 460.992
22.67000 454.805
22.68000 449.871
22.69000 448.396
22.70000 452.228
22.71000 456.118
22.72000 460.305
22.73000 464.793
22.74000 469.254
22.75000 468.235
22.76000 463.633
22.77000 458.974
22.78000 452.738
22.79000 445.789
22.80000 439.706
22.81000 444.959
22.82000 453.713
22.83000 461.606
22.84000 458.052
22.85000 452.851
22.86000 448.394
22.87000 447.535
22.88000 447.152
22.89000 447.771
22.90000 451.641
22.91000 455.760
22.92000 458.630
22.93000 458.858
22.94000 458.957
22.95000 457.058
22.96000 452.148
22.97000 447.207
22.98000 445.161
22.99000 445.985
23.00000 446.803
23.01000 446.706
23.02000 446.020
23.03000 445.271
23.04000 442.804
23.05000 439.575
23.06000 436.988
23.07000 442.583
23.08000 450.663
23.09000 457.928
23.10000 459.159
23.11000 459.163
23.12000 457.102
23.13000 445.233
23.14000 432.096
23.15000 423.073
23.16000 427.170
23.17000 432.245
23.18000 435.762
23.19000 442.561
23.20000 447.765
23.21000 450.901
23.22000 450.975
23.23000 451.021
23.24000 451.372
23.25000 452.017
23.26000 452.659
23.27000 454.230
23.28000 456.364
23.29000 457.998
23.30000 446.878
23.31000 430.184
23.32000 415.439
23.33000 424.833
23.34000 441.429
23.35000 456.315
23.36000 454.495
23.37000 449.993
23.38000 446.276
23.39000 446.223
23.40000 446.634
23.41000 446.790
23.42000 446.150
23.43000 445.452
23.44000 444.972
23.45000 446.249
23.46000 447.251
23.47000 446.232
23.48000 442.272
23.49000 438.288
23.50000 438.621
23.51000 443.065
23.52000 447.476
23.53000 452.797
23.54000 458.593
23.55000 464.045
23.56000 461.068
23.57000 454.470
23.58000 448.111
23.59000 444.639
23.60000 442.013
23.61000 439.663
23.62000 450.122
23.63000 461.430
23.64000 470.387
23.65000 468.582
23.66000 465.445
23.67000 463.682
23.68000 466.149
23.69000 468.914
23.70000 470.807
23.71000 475.059
23.72000 478.299
23.73000 483.561
23.74000 491.710
23.75000 499.879
23.76000 502.028
23.77000 498.555
23.78000 495.110
23.79000 497.735
23.80000 504.003
23.81000 510.126
23.82000 512.823
23.83000 514.072
23.84000 515.721
23.85000 522.056
23.86000 529.742
23.87000 536.600
23.88000 531.566
23.89000 525.199
23.90000 521.505
23.91000 529.821
23.92000 539.590
23.93000 546.196
23.94000 543.228
23.95000 539.606
23.96000 537.140
23.97000 526.555
23.98000 518.463
23.99000 518.191
24.00000 528.885
24.01000 539.651
24.02000 543.081
24.03000 539.792
24.04000 536.533
24.05000 538.292
24.06000 543.012
24.07000 547.289
24.08000 541.505
24.09000 531.546
24.10000 522.331
24.11000 521.630
24.12000 523.340
24.13000 524.861
24.14000 520.093
24.15000 514.924
24.16000 509.536
24.17000 503.187
24.18000 496.724
24.19000 490.926
24.20000 487.107
24.21000 483.418
24.22000 480.922
24.23000 480.096
24.24000 479.516
24.25000 474.604
24.26000 463.726
24.27000 452.815
24.28000 447.606
24.29000 447.518
24.30000 447.430
24.31000 447.436
24.32000 447.497
24.33000 447.319
24.34000 441.923
24.35000 434.398
24.36000 427.447
24.37000 426.900
24.38000 428.134
24.39000 429.228
24.40000 427.379
24.41000 425.305
24.42000 423.251
24.43000 421.287
24.44000 419.333
24.45000 418.525
24.46000 421.064
24.47000 423.818
24.48000 425.671
24.49000 419.963
24.50000 415.564
24.51000 416.359
24.52000 424.175
24.53000 432.021
24.54000 430.833
24.55000 421.685
24.56000 412.633
24.57000 412.066
24.58000 416.388
24.59000 420.553
24.60000 421.413
24.61000 420.945
24.62000 420.575
24.63000 421.253
24.64000 422.218
24.65000 423.072
24.66000 421.295
24.67000 419.347
24.68000 417.338
24.69000 415.070
24.70000 412.773
24.71000 410.886
24.72000 410.178
24.73000 409.544
24.74000 409.120
24.75000 420.668
24.76000 429.464
24.77000 431.224
24.78000 423.647
24.79000 416.023
24.80000 406.689
24.81000 395.879
24.82000 385.190
24.83000 384.853
24.84000 390.364
24.85000 395.927
24.86000 402.557
24.87000 409.608
24.88000 415.451
24.89000 408.516
24.90000 398.153
24.91000 389.004
24.92000 398.850
24.93000 410.256
24.94000 419.875
24.95000 422.032
24.96000 423.367
24.97000 423.895
24.98000 422.147
24.99000 420.261
25.00000 419.007
25.01000 427.171
25.02000 433.383
25.03000 430.676
25.04000 416.352
25.05000 401.995
25.06000 398.101
25.07000 403.079
25.08000 407.997
25.09000 409.701
25.10000 409.585
25.11000 409.523
25.12000 410.542
25.13000 411.981
25.14000 413.258
25.15000 412.877
25.16000 412.059
25.17000 411.338
25.18000 409.788
25.19000 408.328
25.20000 405.942
25.21000 399.759
25.22000 393.168
25.23000 389.208
25.24000 392.559
25.25000 396.337
25.26000 398.832
25.27000 402.604
25.28000 405.408
25.29000 405.547
25.30000 402.278
25.31000 399.002
25.32000 398.238
25.33000 399.564
25.34000 400.873
25.35000 395.987
25.36000 387.865
25.37000 380.282
25.38000 382.954
25.39000 389.533
25.40000 395.988
25.41000 401.194
25.42000 406.076
25.43000 410.362
25.44000 417.454
25.45000 423.958
25.46000 428.478
25.47000 425.010
25.48000 420.703
25.49000 415.528
25.50000 407.986
25.51000 400.310
25.52000 395.273
25.53000 391.631
25.54000 388.975
25.55000 390.526
25.56000 397.360
25.57000 404.186
25.58000 401.896
25.59000 392.164
25.60000 382.564
25.61000 380.427
25.62000 382.328
25.63000 384.081
25.64000 383.141
25.65000 381.190
25.66000 380.282
25.67000 389.609
25.68000 401.538
25.69000 411.980
25.70000 409.599
25.71000 405.721
25.72000 402.200
25.73000 400.091
25.74000 398.127
25.75000 395.684
25.76000 391.954
25.77000 388.154
25.78000 385.676
25.79000 396.883
25.80000 405.321
25.81000 406.250
25.82000 397.930
25.83000 389.597
25.84000 385.236
25.85000 384.056
25.86000 382.894
25.87000 385.355
25.88000 389.640
25.89000 393.765
25.90000 395.032
25.91000 395.247
25.92000 394.911
25.93000 389.303
25.94000 382.379
25.95000 376.335
25.96000 375.287
25.97000 375.092
25.98000 376.296
25.99000 382.935
26.00000 390.118
26.01000 395.873
26.02000 397.860
26.03000 399.647
26.04000 400.804
26.05000 397.977
26.06000 395.849
26.07000 392.666
26.08000 388.206
26.09000 383.750
26.10000 381.127
26.11000 379.944
26.12000 378.779
26.13000 385.146
26.14000 395.186
26.15000 404.551
26.16000 402.280
26.17000 395.798
26.18000 389.460
26.19000 384.466
26.20000 379.801
26.21000 375.742
26.22000 374.404
26.23000 373.636
26.24000 374.846
26.25000 383.599
26.26000 393.090
26.27000 398.742
26.28000 394.442
26.29000 389.632
26.30000 386.536
26.31000 397.519
26.32000 405.732
26.33000 406.525
26.34000 398.517
26.35000 390.509
26.36000 386.459
26.37000 385.462
26.38000 384.481
26.39000 387.144
26.40000 391.558
26.41000 395.622
26.42000 393.858
26.43000 390.019
26.44000 386.463
26.45000 385.481
26.46000 385.118
26.47000 384.804
26.48000 385.529
26.49000 386.286
26.50000 386.516
26.51000 384.771
26.52000 382.837
26.53000 384.364
26.54000 394.712
26.55000 405.496
26.56000 412.390
26.57000 396.592
26.58000 384.793
26.59000 377.536
26.60000 375.564
26.61000 373.620
26.62000 376.151
26.63000 382.072
26.64000 387.892
26.65000 384.868
26.66000 377.572
26.67000 370.637
26.68000 369.542
26.69000 370.490
26.70000 371.646
26.71000 374.658
26.72000 378.108
26.73000 381.093
26.74000 382.816
26.75000 384.114
26.76000 385.139
26.77000 385.155
26.78000 385.078
26.79000 383.592
26.80000 378.575
26.81000 373.390
26.82000 370.098
26.83000 380.104
26.84000 387.532
26.85000 389.701
26.86000 385.868
26.87000 382.047
26.88000 381.969
26.89000 384.675
26.90000 387.332
26.91000 386.416
26.92000 383.799
26.93000 381.193
26.94000 378.761
26.95000 376.389
26.96000 374.545
26.97000 377.301
26.98000 381.126
26.99000 384.425
27.00000 383.114
27.01000 381.412
27.02000 380.250
27.03000 381.036
27.04000 381.998
27.05000 384.651
27.06000 391.466
27.07000 398.473
27.08000 402.892
27.09000 396.203
27.10000 391.233
27.11000 386.662
27.12000 382.538
27.13000 378.418
27.14000 374.885
27.15000 371.782
27.16000 368.737
27.17000 371.451
27.18000 376.807
27.19000 381.695
27.20000 379.452
27.21000 374.800
27.22000 370.779
27.23000 372.135
27.24000 374.715
27.25000 376.935
27.26000 377.820
27.27000 378.403
27.28000 377.357
27.29000 370.523
27.30000 363.179
27.31000 361.846
27.32000 375.065
27.33000 388.931
27.34000 397.616
27.35000 387.170
27.36000 379.421
27.37000 377.414
27.38000 381.710
27.39000 385.992
27.40000 387.519
27.41000 387.072
27.42000 386.634
27.43000 389.320
27.44000 393.364
27.45000 396.637
27.46000 388.522
27.47000 376.626
27.48000 366.077
27.49000 366.742
27.50000 369.915
27.51000 372.636
27.52000 371.553
27.53000 370.174
27.54000 369.047
27.55000 368.800
27.56000 368.629
27.57000 370.765
27.58000 378.391
27.59000 386.253
27.60000 391.142
27.61000 379.940
27.62000 371.711
27.63000 367.457
27.64000 367.483
27.65000 367.500
27.66000 366.166
27.67000 363.881
27.68000 361.643
27.69000 365.433
27.70000 371.837
27.71000 377.900
27.72000 379.063
27.73000 378.628
27.74000 378.211
27.75000 377.939
27.76000 377.700
27.77000 377.495
27.78000 383.070
27.79000 388.458
27.80000 389.333
27.81000 374.739
27.82000 358.851
27.83000 351.283
27.84000 363.181
27.85000 375.882
27.86000 383.725
27.87000 376.108
27.88000 370.494
27.89000 366.691
27.90000 364.799
27.91000 362.957
27.92000 366.988
27.93000 375.082
27.94000 382.997
27.95000 380.858
27.96000 374.280
27.97000 367.657
27.98000 360.404
27.99000 352.949
28.00000 346.761
28.01000 350.650
28.02000 356.712
28.03000 361.875
28.04000 362.088
28.05000 361.691
28.06000 360.431
28.07000 356.265
28.08000 351.862
28.09000 350.534
28.10000 356.276
28.11000 362.299
28.12000 365.991
28.13000 376.882
28.14000 384.744
28.15000 383.912
28.16000 374.081
28.17000 364.327
28.18000 363.175
28.19000 367.867
28.20000 372.450
28.21000 368.520
28.22000 360.996
28.23000 354.279
28.24000 358.468
28.25000 366.094
28.26000 372.640
28.27000 370.776
28.28000 367.132
28.29000 364.039
28.30000 363.801
28.31000 363.926
28.32000 363.770
28.33000 362.684
28.34000 361.525
28.35000 360.002
28.36000 357.657
28.37000 355.281
28.38000 353.835
28.39000 353.848
28.40000 353.868
28.41000 356.570
28.42000 361.993
28.43000 367.390
28.44000 370.155
28.45000 371.163
28.46000 372.148
28.47000 374.372
28.48000 377.036
28.49000 379.258
28.50000 375.682
28.51000 370.310
28.52000 365.148
28.53000 361.577
28.54000 358.336
28.55000 355.594
28.56000 357.561
28.57000 359.729
28.58000 362.017
28.59000 364.691
28.60000 367.395
28.61000 366.548
28.62000 357.812
28.63000 348.787
28.64000 343.335
28.65000 364.925
28.66000 380.500
28.67000 382.331
28.68000 370.495
28.69000 358.755
28.70000 356.002
28.71000 359.136
28.72000 362.191
28.73000 355.962
28.74000 346.067
28.75000 337.340
28.76000 343.532
28.77000 354.265
28.78000 363.653
28.79000 363.029
28.80000 360.364
28.81000 358.116
28.82000 354.137
28.83000 350.627
28.84000 348.372
28.85000 350.131
28.86000 352.191
28.87000 354.404
28.88000 356.951
28.89000 359.510
28.90000 361.044
28.91000 362.604
28.92000 363.713
28.93000 365.346
28.94000 367.489
28.95000 369.559
28.96000 365.281
28.97000 356.917
28.98000 348.774
28.99000 351.904
29.00000 359.591
29.01000 366.452
29.02000 363.030
29.03000 356.532
29.04000 351.546
29.05000 357.566
29.06000 365.788
29.07000 372.699
29.08000 372.598
29.09000 371.772
29.10000 369.943
29.11000 364.963
29.12000 359.753
29.13000 355.630
29.14000 353.838
29.15000 352.124
29.16000 351.104
29.17000 356.334
29.18000 360.077
29.19000 361.555
29.20000 360.872
29.21000 360.190
29.22000 359.713
29.23000 359.363
29.24000 359.024
29.25000 364.470
29.26000 372.020
29.27000 378.817
29.28000 376.490
29.29000 371.481
29.30000 366.836
29.31000 364.779
29.32000 363.229
29.33000 361.931
29.34000 359.534
29.35000 357.427
29.36000 356.451
29.37000 358.970
29.38000 361.735
29.39000 364.429
29.40000 366.973
29.41000 369.513
29.42000 371.012
29.43000 367.234
29.44000 364.536
29.45000 359.540
29.46000 352.391
29.47000 345.296
29.48000 342.228
29.49000 341.661
29.50000 341.110
29.51000 341.451
29.52000 342.133
29.53000 343.079
29.54000 347.121
29.55000 352.058
29.56000 356.654
29.57000 358.871
29.58000 360.630
29.59000 362.098
29.60000 356.981
29.61000 352.073
29.62000 349.178
29.63000 352.389
29.64000 356.019
29.65000 359.378
29.66000 362.172
29.67000 364.950
29.68000 366.577
29.69000 360.045
29.70000 355.407
29.71000 356.838
29.72000 363.845
29.73000 370.772
29.74000 372.127
29.75000 370.080
29.76000 368.096
29.77000 365.330
29.78000 362.400
29.79000 360.014
29.80000 363.878
29.81000 369.515
29.82000 374.857
29.83000 378.185
29.84000 381.133
29.85000 383.585
29.86000 389.438
29.87000 394.616
29.88000 395.672
29.89000 384.432
29.90000 372.373
29.91000 368.304
29.92000 380.533
29.93000 393.241
29.94000 400.630
29.95000 395.164
29.96000 391.270
29.97000 390.254
29.98000 391.829
29.99000 393.338
30.00000 390.629
30.01000 385.390
30.02000 380.315
30.03000 381.009
30.04000 383.899
30.05000 386.460
30.06000 385.349
30.07000 383.215
30.08000 380.913
30.09000 377.494
30.10000 373.868
30.11000 370.862
30.12000 375.338
30.13000 379.752
30.14000 381.358
30.15000 374.734
30.16000 367.578
30.17000 365.428
30.18000 373.316
30.19000 381.485
30.20000 386.197
30.21000 385.914
30.22000 385.697
30.23000 387.011
30.24000 389.678
30.25000 392.144
30.26000 382.467
30.27000 365.635
30.28000 349.351
30.29000 355.805
30.30000 370.540
30.31000 383.362
30.32000 375.348
30.33000 361.627
30.34000 350.552
30.35000 356.804
30.36000 366.201
30.37000 373.963
30.38000 370.181
30.39000 365.986
30.40000 362.451
30.41000 360.814
30.42000 359.296
30.43000 362.158
30.44000 373.652
30.45000 385.377
30.46000 392.086
30.47000 380.390
30.48000 372.166
30.49000 369.301
30.50000 371.080
30.51000 372.886
30.52000 376.212
30.53000 380.416
30.54000 384.479
30.55000 380.225
30.56000 373.114
30.57000 366.205
30.58000 361.444
30.59000 357.262
30.60000 355.280
30.61000 367.417
30.62000 382.068
30.63000 394.125
30.64000 386.829
30.65000 379.071
30.66000 372.899
30.67000 371.222
30.68000 369.818
30.69000 369.673
30.70000 371.967
30.71000 374.324
30.72000 375.661
30.73000 383.752
30.74000 389.403
30.75000 393.004
30.76000 394.862
30.77000 396.583
30.78000 390.946
30.79000 381.124
30.80000 371.647
30.81000 377.467
30.82000 388.542
30.83000 399.283
30.84000 406.571
30.85000 412.946
30.86000 417.790
30.87000 413.007
30.88000 406.545
30.89000 401.247
30.90000 408.057
30.91000 414.717
30.92000 421.799
30.93000 430.054
30.94000 438.378
30.95000 446.045
30.96000 452.459
30.97000 458.843
30.98000 462.435
30.99000 467.518
31.00000 471.058
31.01000 478.847
31.02000 490.180
31.03000 501.594
31.04000 517.058
31.05000 534.786
31.06000 551.867
31.07000 569.454
31.08000 586.158
31.09000 602.851
31.10000 619.419
31.11000 635.955
31.12000 653.397
31.13000 676.417
31.14000 700.391
31.15000 719.975
31.16000 737.642
31.17000 751.937
31.18000 775.182
31.19000 822.914
31.20000 872.042
31.21000 911.698
31.22000 933.631
31.23000 955.158
31.24000 967.171
31.25000 1009.709
31.26000 1039.229
31.27000 1073.011
31.28000 1110.281
31.29000 1147.117
31.30000 1163.302
31.31000 1168.141
31.32000 1172.796
31.33000 1194.021
31.34000 1219.762
31.35000 1243.189
31.36000 1243.829
31.37000 1238.658
31.38000 1232.780
31.39000 1222.631
31.40000 1211.766
31.41000 1202.924
31.42000 1190.193
31.43000 1179.469
31.44000 1166.614
31.45000 1148.028
31.46000 1129.125
31.47000 1104.159
31.48000 1068.041
31.49000 1031.682
31.50000 1011.565
31.51000 965.516
31.52000 933.700
31.53000 905.107
31.54000 879.103
31.55000 852.970
31.56000 821.026
31.57000 785.945
31.58000 752.241
31.59000 723.890
31.60000 699.201
31.61000 674.673
31.62000 651.698
31.63000 629.112
31.64000 606.835
31.65000 586.381
31.66000 566.226
31.67000 549.886
31.68000 528.878
31.69000 511.379
31.70000 495.142
31.71000 482.244
31.72000 469.524
31.73000 459.516
31.74000 454.409
31.75000 449.403
31.76000 446.657
31.77000 435.921
31.78000 428.521
31.79000 420.615
31.80000 412.311
31.81000 404.187
31.82000 403.756
31.83000 407.409
31.84000 410.912
31.85000 408.011
31.86000 403.129
31.87000 397.814
31.88000 388.431
31.89000 378.048
31.90000 369.698
31.91000 373.138
31.92000 378.476
31.93000 382.788
31.94000 381.471
31.95000 379.952
31.96000 380.164
31.97000 384.877
31.98000 389.822
31.99000 389.232
32.00000 378.814
32.01000 368.205
32.02000 362.437
32.03000 356.344
32.04000 352.180
32.05000 351.745
32.06000 354.197
32.07000 356.683
32.08000 360.571
32.09000 365.190
32.10000 369.614
32.11000 372.411
32.12000 374.478
32.13000 375.792
32.14000 370.206
32.15000 362.954
32.16000 356.408
32.17000 353.869
32.18000 351.962
32.19000 350.428
32.20000 342.881
32.21000 336.294
32.22000 332.284
32.23000 334.859
32.24000 337.763
32.25000 338.291
32.26000 334.675
32.27000 330.983
32.28000 328.994
32.29000 338.357
32.30000 344.725
32.31000 340.930
32.32000 329.417
32.33000 318.237
32.34000 319.895
32.35000 328.134
32.36000 336.013
32.37000 335.603
32.38000 332.515
32.39000 329.722
32.40000 329.564
32.41000 330.032
32.42000 330.744
32.43000 332.817
32.44000 335.101
32.45000 336.930
32.46000 337.355
32.47000 337.593
32.48000 337.809
32.49000 337.970
32.50000 338.128
32.51000 335.536
32.52000 328.229
32.53000 320.841
32.54000 316.896
32.55000 323.966
32.56000 328.773
32.57000 329.422
32.58000 326.969
32.59000 324.600
32.60000 325.286
32.61000 327.512
32.62000 329.637
32.63000 328.021
32.64000 325.322
32.65000 322.451
32.66000 318.071
32.67000 313.340
32.68000 309.994
32.69000 314.219
32.70000 319.589
32.71000 323.875
32.72000 319.049
32.73000 314.485
32.74000 313.151
32.75000 319.794
32.76000 326.807
32.77000 329.520
32.78000 324.988
32.79000 320.340
32.80000 317.881
32.81000 319.221
32.82000 320.151
32.83000 324.065
32.84000 330.164
32.85000 336.095
32.86000 336.149
32.87000 333.293
32.88000 330.570
32.89000 326.678
32.90000 322.700
32.91000 318.929
32.92000 316.915
32.93000 315.302
32.94000 313.541
32.95000 310.988
32.96000 308.316
32.97000 306.193
32.98000 298.603
32.99000 292.100
33.00000 289.512
33.01000 296.427
33.02000 303.768
33.03000 308.808
33.04000 310.040
33.05000 311.215
33.06000 311.831
33.07000 306.682
33.08000 303.204
33.09000 301.728
33.10000 301.690
33.11000 301.561
33.12000 298.414
33.13000 293.797
33.14000 289.403
33.15000 294.692
33.16000 302.571
33.17000 309.624
33.18000 309.787
33.19000 308.404
33.20000 307.229
33.21000 307.147
33.22000 307.225
33.23000 307.286
33.24000 303.876
33.25000 300.894
33.26000 297.210
33.27000 291.851
33.28000 286.419
33.29000 284.204
33.30000 287.221
33.31000 290.313
33.32000 291.918
33.33000 302.237
33.34000 309.172
33.35000 311.307
33.36000 310.054
33.37000 308.841
33.38000 308.913
33.39000 309.601
33.40000 310.254
33.41000 306.977
33.42000 302.762
33.43000 299.158
33.44000 300.549
33.45000 303.040
33.46000 304.670
33.47000 301.865
33.48000 298.431
33.49000 295.723
33.50000 293.192
33.51000 291.174
33.52000 291.044
33.53000 295.340
33.54000 299.820
33.55000 301.510
33.56000 298.742
33.57000 295.915
33.58000 294.461
33.59000 300.142
33.60000 303.950
33.61000 305.782
33.62000 306.245
33.63000 306.607
33.64000 303.910
33.65000 299.775
33.66000 295.852
33.67000 294.783
33.68000 294.642
33.69000 294.875
33.70000 298.081
33.71000 301.930
33.72000 305.525
33.73000 307.834
33.74000 309.964
33.75000 311.637
33.76000 311.301
33.77000 310.901
33.78000 311.337
33.79000 313.702
33.80000 316.144
33.81000 315.811
33.82000 311.124
33.83000 306.383
33.84000 303.968
33.85000 306.521
33.86000 308.257
33.87000 312.707
33.88000 319.004
33.89000 324.935
33.90000 320.178
33.91000 310.479
33.92000 301.295
33.93000 307.093
33.94000 316.787
33.95000 325.811
33.96000 329.610
33.97000 332.300
33.98000 333.994
33.99000 330.750
34.00000 326.833
34.01000 323.772
34.02000 322.494
34.03000 321.588
34.04000 322.121
34.05000 325.918
34.06000 329.840
34.07000 332.553
34.08000 333.402
34.09000 334.230
34.10000 334.647
34.11000 341.230
34.12000 345.622
34.13000 348.987
34.14000 351.665
34.15000 354.193
34.16000 352.484
34.17000 348.849
34.18000 345.413
34.19000 348.097
34.20000 352.309
34.21000 356.106
34.22000 356.748
34.23000 356.733
34.24000 356.758
34.25000 356.986
34.26000 357.240
34.27000 357.438
34.28000 358.017
34.29000 358.502
34.30000 359.692
34.31000 362.451
34.32000 365.267
34.33000 365.249
34.34000 360.935
34.35000 356.576
34.36000 356.196
34.37000 359.783
34.38000 363.317
34.39000 361.840
34.40000 357.071
34.41000 352.440
34.42000 351.507
34.43000 352.226
34.44000 352.904
34.45000 349.093
34.46000 344.343
34.47000 340.146
34.48000 340.074
34.49000 340.844
34.50000 342.400
34.51000 347.702
34.52000 353.492
34.53000 357.979
34.54000 352.162
34.55000 346.924
34.56000 341.075
34.57000 333.887
34.58000 326.652
34.59000 323.079
34.60000 324.955
34.61000 326.882
34.62000 325.472
34.63000 320.801
34.64000 316.163
34.65000 314.482
34.66000 314.709
34.67000 314.873
34.68000 313.420
34.69000 311.258
34.70000 309.221
34.71000 310.332
34.72000 312.211
34.73000 313.329
34.74000 308.885
34.75000 303.326
34.76000 299.014
34.77000 300.546
34.78000 302.822
34.79000 304.579
34.80000 294.276
34.81000 285.411
34.82000 279.389
34.83000 279.487
34.84000 279.791
34.85000 279.055
34.86000 276.799
34.87000 274.529
34.88000 278.254
34.89000 287.719
34.90000 297.082
34.91000 298.125
34.92000 293.893
34.93000 289.680
34.94000 285.938
34.95000 282.400
34.96000 279.074
34.97000 273.551
34.98000 267.917
34.99000 263.516
35.00000 267.939
35.01000 274.099
35.02000 279.587
35.03000 281.991
35.04000 284.010
35.05000 285.561
35.06000 276.913
35.07000 269.502
35.08000 267.064
35.09000 275.148
35.10000 283.573
35.11000 286.334
35.12000 280.962
35.13000 275.527
35.14000 272.872
35.15000 272.827
35.16000 272.749
35.17000 270.196
35.18000 266.101
35.19000 262.316
35.20000 265.908
35.21000 272.631
35.22000 278.941
35.23000 278.312
35.24000 275.909
35.25000 273.771
35.26000 273.490
35.27000 273.568
35.28000 273.198
35.29000 270.800
35.30000 268.157
35.31000 266.134
35.32000 266.647
35.33000 267.189
35.34000 266.985
35.35000 265.230
35.36000 263.427
35.37000 263.545
35.38000 266.373
35.39000 269.220
35.40000 269.559
35.41000 267.589
35.42000 265.668
35.43000 267.222
35.44000 270.900
35.45000 274.463
35.46000 275.390
35.47000 275.216
35.48000 275.054
35.49000 272.837
35.50000 270.289
35.51000 267.474
35.52000 262.832
35.53000 257.845
35.54000 253.856
35.55000 254.300
35.56000 255.270
35.57000 256.009
35.58000 261.996
35.59000 266.984
35.60000 270.797
35.61000 272.206
35.62000 273.545
35.63000 274.057
35.64000 273.425
35.65000 272.785
35.66000 273.652
35.67000 275.880
35.68000 278.021
35.69000 274.555
35.70000 267.719
35.71000 261.307
35.72000 264.270
35.73000 271.078
35.74000 277.443
35.75000 272.086
35.76000 264.250
35.77000 257.421
35.78000 257.355
35.79000 258.545
35.80000 259.899
35.81000 261.963
35.82000 264.109
35.83000 265.736
35.84000 262.733
35.85000 260.138
35.86000 260.967
35.87000 268.676
35.88000 276.580
35.89000 277.521
35.90000 269.001
35.91000 260.431
35.92000 260.464
35.93000 268.110
35.94000 275.595
35.95000 273.250
35.96000 265.099
35.97000 257.237
35.98000 255.543
35.99000 256.337
36.00000 257.077
36.01000 258.829
36.02000 260.667
36.03000 261.876
36.04000 258.956
36.05000 255.285
36.06000 252.989
36.07000 256.571
36.08000 260.821
36.09000 264.027
36.10000 258.021
36.11000 252.862
36.12000 247.976
36.13000 243.629
36.14000 239.297
36.15000 237.956
36.16000 240.607
36.17000 243.275
36.18000 246.839
36.19000 251.172
36.20000 255.457
36.21000 256.916
36.22000 256.736
36.23000 256.738
36.24000 260.500
36.25000 265.751
36.26000 270.642
36.27000 267.087
36.28000 261.812
36.29000 257.530
36.30000 259.641
36.31000 262.892
36.32000 265.776
36.33000 267.122
36.34000 268.296
36.35000 269.178
36.36000 270.567
36.37000 271.677
36.38000 271.984
36.39000 270.732
36.40000 269.440
36.41000 267.446
36.42000 264.534
36.43000 261.620
36.44000 262.854
36.45000 267.614
36.46000 272.293
36.47000 272.549
36.48000 270.283
36.49000 268.089
36.50000 267.313
36.51000 267.089
36.52000 266.881
36.53000 263.828
36.54000 260.393
36.55000 256.953
36.56000 253.483
36.57000 250.009
36.58000 247.414
36.59000 248.447
36.60000 249.874
36.61000 250.939
36.62000 255.686
36.63000 259.556
36.64000 261.476
36.65000 259.675
36.66000 257.784
36.67000 254.160
36.68000 248.306
36.69000 242.450
36.70000 247.910
36.71000 262.793
36.72000 277.479
36.73000 282.127
36.74000 281.148
36.75000 280.027
36.76000 276.155
36.77000 271.230
36.78000 266.662
36.79000 266.124
36.80000 266.584
36.81000 267.059
36.82000 267.624
36.83000 268.203
36.84000 268.218
36.85000 265.945
36.86000 263.430
36.87000 261.559
36.88000 268.469
36.89000 274.235
36.90000 278.752
36.91000 280.927
36.92000 283.048
36.93000 283.394
36.94000 281.499
36.95000 279.600
36.96000 276.954
36.97000 273.706
36.98000 270.533
36.99000 270.918
37.00000 273.263
37.01000 275.592
37.02000 277.607
37.03000 279.505
37.04000 281.261
37.05000 280.275
37.06000 278.757
37.07000 276.909
37.08000 273.058
37.09000 268.871
37.10000 267.092
37.11000 274.888
37.12000 283.673
37.13000 290.174
37.14000 284.685
37.15000 279.910
37.16000 273.991
37.17000 265.961
37.18000 257.885
37.19000 255.849
37.20000 261.296
37.21000 266.755
37.22000 267.623
37.23000 264.806
37.24000 262.024
37.25000 260.844
37.26000 260.532
37.27000 260.191
37.28000 259.356
37.29000 258.337
37.30000 257.396
37.31000 251.946
37.32000 246.042
37.33000 242.095
37.34000 249.751
37.35000 259.320
37.36000 266.450
37.37000 264.063
37.38000 260.717
37.39000 258.253
37.40000 255.441
37.41000 253.250
37.42000 251.980
37.43000 252.381
37.44000 252.817
37.45000 252.190
37.46000 250.273
37.47000 248.355
37.48000 252.568
37.49000 261.583
37.50000 270.368
37.51000 269.255
37.52000 262.876
37.53000 256.569
37.54000 251.518
37.55000 246.923
37.56000 242.689
37.57000 244.780
37.58000 248.048
37.59000 250.664
37.60000 249.492
37.61000 247.707
37.62000 246.549
37.63000 247.796
37.64000 249.279
37.65000 250.365
37.66000 258.560
37.67000 265.172
37.68000 265.372
37.69000 254.156
37.70000 242.717
37.71000 240.118
37.72000 248.064
37.73000 256.012
37.74000 259.466
37.75000 259.434
37.76000 259.385
37.77000 258.698
37.78000 257.676
37.79000 256.976
37.80000 261.673
37.81000 268.301
37.82000 274.395
37.83000 267.827
37.84000 259.221
37.85000 251.511
37.86000 248.907
37.87000 247.111
37.88000 246.429
37.89000 249.946
37.90000 253.866
37.91000 256.723
37.92000 259.649
37.93000 261.905
37.94000 261.847
37.95000 257.740
37.96000 253.560
37.97000 252.010
37.98000 253.539
37.99000 255.070
38.00000 257.186
38.01000 259.732
38.02000 262.177
38.03000 260.703
38.04000 257.214
38.05000 253.977
38.06000 254.851
38.07000 257.168
38.08000 259.295
38.09000 259.841
38.10000 259.993
38.11000 259.730
38.12000 257.150
38.13000 254.211
38.14000 252.872
38.15000 257.452
38.16000 262.587
38.17000 266.310
38.18000 270.101
38.19000 273.017
38.20000 275.935
38.21000 278.857
38.22000 281.780
38.23000 281.311
38.24000 276.949
38.25000 272.595
38.26000 272.162
38.27000 274.643
38.28000 277.246
38.29000 284.364
38.30000 293.761
38.31000 302.929
38.32000 308.467
38.33000 312.751
38.34000 316.673
38.35000 326.870
38.36000 337.244
38.37000 347.412
38.38000 356.448
38.39000 365.311
38.40000 373.828
38.41000 381.085
38.42000 388.229
38.43000 393.382
38.44000 411.668
38.45000 426.155
38.46000 447.632
38.47000 480.915
38.48000 514.389
38.49000 545.949
38.50000 575.355
38.51000 604.661
38.52000 628.729
38.53000 648.787
38.54000 668.951
38.55000 692.830
38.56000 718.554
38.57000 744.811
38.58000 779.244
38.59000 816.454
38.60000 850.437
38.61000 887.522
38.62000 921.075
38.63000 950.649
38.64000 958.832
38.65000 963.835
38.66000 968.457
38.67000 971.721
38.68000 974.863
38.69000 977.119
38.70000 1004.807
38.71000 1026.856
38.72000 1035.034
38.73000 1020.189
38.74000 1004.994
38.75000 988.644
38.76000 971.018
38.77000 953.457
38.78000 933.421
38.79000 911.797
38.80000 889.959
38.81000 860.932
38.82000 828.397
38.83000 795.938
38.84000 764.623
38.85000 733.691
38.86000 705.505
38.87000 674.635
38.88000 646.751
38.89000 618.485
38.90000 588.207
38.91000 557.635
38.92000 530.073
38.93000 513.063
38.94000 496.966
38.95000 485.474
38.96000 454.491
38.97000 430.212
38.98000 406.441
38.99000 383.501
39.00000 360.573
39.01000 343.673
39.02000 333.302
39.03000 322.978
39.04000 312.645
39.05000 302.409
39.06000 292.301
39.07000 286.247
39.08000 282.139
39.09000 278.222
39.10000 277.075
39.11000 276.836
39.12000 276.618
39.13000 271.445
39.14000 265.903
39.15000 261.152
39.16000 260.487
39.17000 260.405
39.18000 259.010
39.19000 253.093
39.20000 246.794
39.21000 242.322
39.22000 246.002
39.23000 249.062
39.24000 249.734
39.25000 246.581
39.26000 243.377
39.27000 244.433
39.28000 250.011
39.29000 255.564
39.30000 256.459
39.31000 254.141
39.32000 251.874
39.33000 251.168
39.34000 251.199
39.35000 251.030
39.36000 248.055
39.37000 244.175
39.38000 240.656
39.39000 241.066
39.40000 242.178
39.41000 242.860
39.42000 241.354
39.43000 239.544
39.44000 237.956
39.45000 237.122
39.46000 236.349
39.47000 235.804
39.48000 238.624
39.49000 240.866
39.50000 242.841
39.51000 244.394
39.52000 245.942
39.53000 246.322
39.54000 245.488
39.55000 244.657
39.56000 241.485
39.57000 236.772
39.58000 232.261
39.59000 233.676
39.60000 237.838
39.61000 241.345
39.62000 235.916
39.63000 227.656
39.64000 220.183
39.65000 219.414
39.66000 219.994
39.67000 221.115
39.68000 224.932
39.69000 229.115
39.70000 233.025
39.71000 236.023
39.72000 238.948
39.73000 241.002
39.74000 243.748
39.75000 245.847
39.76000 245.672
39.77000 241.983
39.78000 238.253
39.79000 236.164
39.80000 235.749
39.81000 235.336
39.82000 236.522
39.83000 238.752
39.84000 240.902
39.85000 240.828
39.86000 239.740
39.87000 238.757
39.88000 239.174
39.89000 240.026
39.90000 240.796
39.91000 238.609
39.92000 236.145
39.93000 233.778
39.94000 231.882
39.95000 230.049
39.96000 228.584
39.97000 228.319
39.98000 228.147
39.99000 228.027
40.00000 228.545
40.01000 228.953
40.02000 230.976
40.03000 235.451
40.04000 239.951
40.05000 241.253
40.06000 239.358
40.07000 237.474
40.08000 234.903
40.09000 231.922
40.10000 229.054
40.11000 229.242
40.12000 230.797
40.13000 232.295
40.14000 233.045
40.15000 233.566
40.16000 234.035
40.17000 232.736
40.18000 231.280
40.19000 230.053
40.20000 229.926
40.21000 229.942
40.22000 229.114
40.23000 225.571
40.24000 221.823
40.25000 219.219
40.26000 221.455
40.27000 223.269
40.28000 224.819
40.29000 225.976
40.30000 227.130
40.31000 228.245
40.32000 229.323
40.33000 230.394
40.34000 227.458
40.35000 222.015
40.36000 216.778
40.37000 216.881
40.38000 219.337
40.39000 221.798
40.40000 224.330
40.41000 226.883
40.42000 229.176
40.43000 227.570
40.44000 225.478
40.45000 223.935
40.46000 224.968
40.47000 226.331
40.48000 227.826
40.49000 229.736
40.50000 231.677
40.51000 233.018
40.52000 229.365
40.53000 226.493
40.54000 224.445
40.55000 223.605
40.56000 222.777
40.57000 222.518
40.58000 222.806
40.59000 223.092
40.60000 218.445
40.61000 210.791
40.62000 203.538
40.63000 206.276
40.64000 213.338
40.65000 220.282
40.66000 225.772
40.67000 230.833
40.68000 235.367
40.69000 231.657
40.70000 226.998
40.71000 222.915
40.72000 221.488
40.73000 220.393
40.74000 219.104
40.75000 217.215
40.76000 215.283
40.77000 213.957
40.78000 214.577
40.79000 215.090
40.80000 216.661
40.81000 219.753
40.82000 222.856
40.83000 221.989
40.84000 217.382
40.85000 212.812
40.86000 210.140
40.87000 208.681
40.88000 207.514
40.89000 213.347
40.90000 222.159
40.91000 230.109
40.92000 227.831
40.93000 222.583
40.94000 217.894
40.95000 220.521
40.96000 224.043
40.97000 225.341
40.98000 216.568
40.99000 206.566
41.00000 200.469
41.01000 206.284
41.02000 212.925
41.03000 217.458
41.04000 216.997
41.05000 216.536
41.06000 214.388
41.07000 209.858
41.08000 205.311
41.09000 204.546
41.10000 207.273
41.11000 209.976
41.12000 211.013
41.13000 211.028
41.14000 211.047
41.15000 211.175
41.16000 211.348
41.17000 211.376
41.18000 209.713
41.19000 207.568
41.20000 205.657
41.21000 208.243
41.22000 211.233
41.23000 213.218
41.24000 210.737
41.25000 207.722
41.26000 206.370
41.27000 210.006
41.28000 213.976
41.29000 216.670
41.30000 215.926
41.31000 215.294
41.32000 214.310
41.33000 212.836
41.34000 211.361
41.35000 212.506
41.36000 216.024
41.37000 219.510
41.38000 220.158
41.39000 219.119
41.40000 218.068
41.41000 216.785
41.42000 215.407
41.43000 213.992
41.44000 212.161
41.45000 210.214
41.46000 208.484
41.47000 203.517
41.48000 198.684
41.49000 196.427
41.50000 205.404
41.51000 215.694
41.52000 222.285
41.53000 217.980
41.54000 212.964
41.55000 209.582
41.56000 204.786
41.57000 201.188
41.58000 202.293
41.59000 209.808
41.60000 217.352
41.61000 217.207
41.62000 210.229
41.63000 203.321
41.64000 203.635
41.65000 208.126
41.66000 212.459
41.67000 213.382
41.68000 212.927
41.69000 212.813
41.70000 216.436
41.71000 221.088
41.72000 225.212
41.73000 218.486
41.74000 210.949
41.75000 206.032
41.76000 212.340
41.77000 219.929
41.78000 225.221
41.79000 223.866
41.80000 222.090
41.81000 220.899
41.82000 218.037
41.83000 215.880
41.84000 214.370
41.85000 213.727
41.86000 213.089
41.87000 213.539
41.88000 214.938
41.89000 216.321
41.90000 216.907
41.91000 217.026
41.92000 217.018
41.93000 214.381
41.94000 210.699
41.95000 207.571
41.96000 210.360
41.97000 214.749
41.98000 218.629
41.99000 221.260
42.00000 223.340
42.01000 224.208
42.02000 219.981
42.03000 215.187
42.04000 211.877
42.05000 212.792
42.06000 213.966
42.07000 214.748
42.08000 219.936
42.09000 223.860
42.10000 225.619
42.11000 224.534
42.12000 223.438
42.13000 223.040
42.14000 223.240
42.15000 223.438
42.16000 222.486
42.17000 220.915
42.18000 219.308
42.19000 216.990
42.20000 214.394
42.21000 211.937
42.22000 210.929
42.23000 210.306
42.24000 209.757
42.25000 214.662
42.26000 219.715
42.27000 224.302
42.28000 226.963
42.29000 229.414
42.30000 231.928
42.31000 234.619
42.32000 237.321
42.33000 239.110
42.34000 222.894
42.35000 210.596
42.36000 204.308
42.37000 205.771
42.38000 207.269
42.39000 211.740
42.40000 218.706
42.41000 225.585
42.42000 224.884
42.43000 220.049
42.44000 215.298
42.45000 212.142
42.46000 209.600
42.47000 207.671
42.48000 211.977
42.49000 217.910
42.50000 223.125
42.51000 222.798
42.52000 221.696
42.53000 220.164
42.54000 216.880
42.55000 213.411
42.56000 211.190
42.57000 212.400
42.58000 213.808
42.59000 214.734
42.60000 218.113
42.61000 220.643
42.62000 219.297
42.63000 213.044
42.64000 206.785
42.65000 205.177
42.66000 207.396
42.67000 209.585
42.68000 212.053
42.69000 214.603
42.70000 217.054
42.71000 217.629
42.72000 217.497
42.73000 217.187
42.74000 215.108
42.75000 212.576
42.76000 210.357
42.77000 204.089
42.78000 198.125
42.79000 194.581
42.80000 200.685
42.81000 207.790
42.82000 212.264
42.83000 209.630
42.84000 206.599
42.85000 204.617
42.86000 213.022
42.87000 219.363
42.88000 219.823
42.89000 212.977
42.90000 206.120
42.91000 203.010
42.92000 202.927
42.93000 202.846
42.94000 205.954
42.95000 210.658
42.96000 215.025
42.97000 213.328
42.98000 209.380
42.99000 206.076
43.00000 209.002
43.01000 213.497
43.02000 217.425
43.03000 218.869
43.04000 219.754
43.05000 217.694
43.06000 204.110
43.07000 189.360
43.08000 179.847
43.09000 184.250
43.10000 189.403
43.11000 192.751
43.12000 191.771
43.13000 190.988
43.14000 192.821
43.15000 197.845
43.16000 202.867
43.17000 204.966
43.18000 204.750
43.19000 204.536
43.20000 202.832
43.21000 200.406
43.22000 198.134
43.23000 198.556
43.24000 199.961
43.25000 201.360
43.26000 202.710
43.27000 204.049
43.28000 205.215
43.29000 205.487
43.30000 205.596
43.31000 204.646
43.32000 199.628
43.33000 194.208
43.34000 190.353
43.35000 190.583
43.36000 191.027
43.37000 191.313
43.38000 195.793
43.39000 199.127
43.40000 198.141
43.41000 191.987
43.42000 185.841
43.43000 184.153
43.44000 185.933
43.45000 187.685
43.46000 189.574
43.47000 191.473
43.48000 193.407
43.49000 195.907
43.50000 198.611
43.51000 201.368
43.52000 204.619
43.53000 207.990
43.54000 210.918
43.55000 208.160
43.56000 205.039
43.57000 202.658
43.58000 203.075
43.59000 203.761
43.60000 204.257
43.61000 204.267
43.62000 204.252
43.63000 204.243
43.64000 199.868
43.65000 196.621
43.66000 194.368
43.67000 193.281
43.68000 192.202
43.69000 192.478
43.70000 193.788
43.71000 195.077
43.72000 194.906
43.73000 194.013
43.74000 193.303
43.75000 195.601
43.76000 198.960
43.77000 201.650
43.78000 198.316
43.79000 193.545
43.80000 189.412
43.81000 189.706
43.82000 190.542
43.83000 190.601
43.84000 187.782
43.85000 184.692
43.86000 184.261
43.87000 190.543
43.88000 197.151
43.89000 201.360
43.90000 202.105
43.91000 202.602
43.92000 203.072
43.93000 203.511
43.94000 203.923
43.95000 199.174
43.96000 190.554
43.97000 182.085
43.98000 181.766
43.99000 185.444
44.00000 189.279
44.01000 195.615
44.02000 202.817
44.03000 209.011
44.04000 206.332
44.05000 201.575
44.06000 197.467
44.07000 196.435
44.08000 195.956
44.09000 196.765
44.10000 202.261
44.11000 208.186
44.12000 210.579
44.13000 204.208
44.14000 197.426
44.15000 193.136
44.16000 188.037
44.17000 184.330
44.18000 184.819
44.19000 190.046
44.20000 195.270
44.21000 199.417
44.22000 202.771
44.23000 206.063
44.24000 208.736
44.25000 211.016
44.26000 212.979
44.27000 210.051
44.28000 205.458
44.29000 201.467
44.30000 202.645
44.31000 205.010
44.32000 207.047
44.33000 208.677
44.34000 210.006
44.35000 211.689
44.36000 214.634
44.37000 217.691
44.38000 216.899
44.39000 206.716
44.40000 196.107
44.41000 189.443
44.42000 202.630
44.43000 212.383
44.44000 216.101
44.45000 213.135
44.46000 210.189
44.47000 210.984
44.48000 214.483
44.49000 217.914
44.50000 217.977
44.51000 216.451
44.52000 214.822
44.53000 211.662
44.54000 207.990
44.55000 205.117
44.56000 208.960
44.57000 214.318
44.58000 218.918
44.59000 223.361
44.60000 227.097
44.61000 229.241
44.62000 225.780
44.63000 221.833
44.64000 219.199
44.65000 219.713
44.66000 220.364
44.67000 220.771
44.68000 225.947
44.69000 229.728
44.70000 233.441
44.71000 237.080
44.72000 240.679
44.73000 238.581
44.74000 232.441
44.75000 226.427
44.76000 227.502
44.77000 231.814
44.78000 235.857
44.79000 236.007
44.80000 234.877
44.81000 233.360
44.82000 228.661
44.83000 223.257
44.84000 218.633
44.85000 235.759
44.86000 252.824
44.87000 264.060
44.88000 255.158
44.89000 244.552
44.90000 236.916
44.91000 236.282
44.92000 235.941
44.93000 235.730
44.94000 237.118
44.95000 238.132
44.96000 239.922
44.97000 242.539
44.98000 245.126
44.99000 243.964
45.00000 240.188
45.01000 236.494
45.02000 237.094
45.03000 239.619
45.04000 241.999
45.05000 242.346
45.06000 242.035
45.07000 241.972
45.08000 243.901
45.09000 246.262
45.10000 248.276
45.11000 251.819
45.12000 254.981
45.13000 256.434
45.14000 252.090
45.15000 247.269
45.16000 244.022
45.17000 244.424
45.18000 244.973
45.19000 245.311
45.20000 249.425
45.21000 252.408
45.22000 248.788
45.23000 238.273
45.24000 227.806
45.25000 223.002
45.26000 222.075
45.27000 221.169
45.28000 223.336
45.29000 226.781
45.30000 229.631
45.31000 224.321
45.32000 216.421
45.33000 209.200
45.34000 207.313
45.35000 206.564
45.36000 205.927
45.37000 205.414
45.38000 204.997
45.39000 205.542
45.40000 209.295
45.41000 213.304
45.42000 216.485
45.43000 217.778
45.44000 218.998
45.45000 219.743
45.46000 216.707
45.47000 214.505
45.48000 212.127
45.49000 209.568
45.50000 207.029
45.51000 206.560
45.52000 207.482
45.53000 208.383
45.54000 207.072
45.55000 204.852
45.56000 202.617
45.57000 200.195
45.58000 197.713
45.59000 195.700
45.60000 197.290
45.61000 199.634
45.62000 201.620
45.63000 203.754
45.64000 205.559
45.65000 205.709
45.66000 200.434
45.67000 194.735
45.68000 190.522
45.69000 189.636
45.70000 188.873
45.71000 188.411
45.72000 185.839
45.73000 183.989
45.74000 183.936
45.75000 185.687
45.76000 187.420
45.77000 187.519
45.78000 186.538
45.79000 185.581
45.80000 183.801
45.81000 181.749
45.82000 179.944
45.83000 181.335
45.84000 183.707
45.85000 185.473
45.86000 182.696
45.87000 178.984
45.88000 175.850
45.89000 173.646
45.90000 171.905
45.91000 172.401
45.92000 180.101
45.93000 188.347
45.94000 192.413
45.95000 187.279
45.96000 181.816
45.97000 178.529
45.98000 180.541
45.99000 182.008
46.00000 182.179
46.01000 181.076
46.02000 179.975
46.03000 179.103
46.04000 178.379
46.05000 177.675
46.06000 176.264
46.07000 174.621
46.08000 173.375
46.09000 177.107
46.10000 182.341
46.11000 187.105
46.12000 188.415
46.13000 189.030
46.14000 189.547
46.15000 185.683
46.16000 181.991
46.17000 178.798
46.18000 177.184
46.19000 175.686
46.20000 176.008
46.21000 180.269
46.22000 184.665
46.23000 187.290
46.24000 184.225
46.25000 182.015
46.26000 181.212
46.27000 181.766
46.28000 182.302
46.29000 181.413
46.30000 179.614
46.31000 177.865
46.32000 177.600
46.33000 177.960
46.34000 178.534
46.35000 181.719
46.36000 185.677
46.37000 188.835
46.38000 186.230
46.39000 182.484
46.40000 179.343
46.41000 173.409
46.42000 168.180
46.43000 164.752
46.44000 166.929
46.45000 169.507
46.46000 171.336
46.47000 171.572
46.48000 171.756
46.49000 171.865
46.50000 170.774
46.51000 169.996
46.52000 169.788
46.53000 170.118
46.54000 170.451
46.55000 171.008
46.56000 171.704
46.57000 172.380
46.58000 174.425
46.59000 176.924
46.60000 179.061
46.61000 176.898
46.62000 173.483
46.63000 170.442
46.64000 170.041
46.65000 170.151
46.66000 170.244
46.67000 168.606
46.68000 167.069
46.69000 167.886
46.70000 175.896
46.71000 184.407
46.72000 189.441
46.73000 187.208
46.74000 184.746
46.75000 183.298
46.76000 176.341
46.77000 171.406
46.78000 167.948
46.79000 165.856
46.80000 163.791
46.81000 163.617
46.82000 164.605
46.83000 165.564
46.84000 167.160
46.85000 168.929
46.86000 170.374
46.87000 168.077
46.88000 164.709
46.89000 162.037
46.90000 164.171
46.91000 167.219
46.92000 169.759
46.93000 173.658
46.94000 177.024
46.95000 178.941
46.96000 176.506
46.97000 173.777
46.98000 170.911
46.99000 167.763
47.00000 164.607
47.01000 162.766
47.02000 168.723
47.03000 172.946
47.04000 174.236
47.05000 172.861
47.06000 171.460
47.07000 168.297
47.08000 164.070
47.09000 159.973
47.10000 162.560
47.11000 167.619
47.12000 172.384
47.13000 173.815
47.14000 174.309
47.15000 174.316
47.16000 171.029
47.17000 167.128
47.18000 163.889
47.19000 161.185
47.20000 159.001
47.21000 159.914
47.22000 169.972
47.23000 180.630
47.24000 184.266
47.25000 173.716
47.26000 162.760
47.27000 156.418
47.28000 160.882
47.29000 164.055
47.30000 164.942
47.31000 163.792
47.32000 162.655
47.33000 162.273
47.34000 162.339
47.35000 162.403
47.36000 165.055
47.37000 168.555
47.38000 171.531
47.39000 168.745
47.40000 164.368
47.41000 159.961
47.42000 155.349
47.43000 150.700
47.44000 146.854
47.45000 154.040
47.46000 161.008
47.47000 166.748
47.48000 168.922
47.49000 170.869
47.50000 171.737
47.51000 170.460
47.52000 169.124
47.53000 168.358
47.54000 161.557
47.55000 156.786
47.56000 157.831
47.57000 163.958
47.58000 169.960
47.59000 168.590
47.60000 162.922
47.61000 157.441
47.62000 157.916
47.63000 160.603
47.64000 163.087
47.65000 163.397
47.66000 163.118
47.67000 163.254
47.68000 166.076
47.69000 169.380
47.70000 172.103
47.71000 169.932
47.72000 167.694
47.73000 166.066
47.74000 166.179
47.75000 166.399
47.76000 165.883
47.77000 163.927
47.78000 161.935
47.79000 160.800
47.80000 162.217
47.81000 163.216
47.82000 165.927
47.83000 170.105
47.84000 174.174
47.85000 172.278
47.86000 166.963
47.87000 161.832
47.88000 160.846
47.89000 161.448
47.90000 162.172
47.91000 164.185
47.92000 166.541
47.93000 169.132
47.94000 173.214
47.95000 177.558
47.96000 181.126
47.97000 178.008
47.98000 174.849
47.99000 171.495
48.00000 167.596
48.01000 163.663
48.02000 162.003
48.03000 164.700
48.04000 167.505
48.05000 169.089
48.06000 163.331
48.07000 159.310
48.08000 156.300
48.09000 154.142
48.10000 152.047
48.11000 153.175
48.12000 156.120
48.13000 158.959
48.14000 161.837
48.15000 164.557
48.16000 166.992
48.17000 166.517
48.18000 165.280
48.19000 164.234
48.20000 164.369
48.21000 164.708
48.22000 164.986
48.23000 169.044
48.24000 172.700
48.25000 173.370
48.26000 165.809
48.27000 157.772
48.28000 153.032
48.29000 154.507
48.30000 156.129
48.31000 157.037
48.32000 161.035
48.33000 163.808
48.34000 164.068
48.35000 162.255
48.36000 160.444
48.37000 158.765
48.38000 157.159
48.39000 155.614
48.40000 154.243
48.41000 153.018
48.42000 152.300
48.43000 156.625
48.44000 162.246
48.45000 166.810
48.46000 164.940
48.47000 161.981
48.48000 159.569
48.49000 161.132
48.50000 162.747
48.51000 164.462
48.52000 166.444
48.53000 168.442
48.54000 167.844
48.55000 162.435
48.56000 156.918
48.57000 153.855
48.58000 157.374
48.59000 159.815
48.60000 160.649
48.61000 160.182
48.62000 159.753
48.63000 161.050
48.64000 163.287
48.65000 165.438
48.66000 162.680
48.67000 158.384
48.68000 154.310
48.69000 152.388
48.70000 151.008
48.71000 150.351
48.72000 154.002
48.73000 158.367
48.74000 161.913
48.75000 162.825
48.76000 163.352
48.77000 163.664
48.78000 163.406
48.79000 163.118
48.80000 162.326
48.81000 160.619
48.82000 158.892
48.83000 157.942
48.84000 159.287
48.85000 160.217
48.86000 160.867
48.87000 161.293
48.88000 161.694
48.89000 161.018
48.90000 159.765
48.91000 158.563
48.92000 155.359
48.93000 151.680
48.94000 148.553
48.95000 150.667
48.96000 154.081
48.97000 157.272
48.98000 159.165
48.99000 160.847
49.00000 162.208
49.01000 163.652
49.02000 164.834
49.03000 164.576
49.04000 160.548
49.05000 156.323
49.06000 155.056
49.07000 159.084
49.08000 163.217
49.09000 165.473
49.10000 170.794
49.11000 174.431
49.12000 172.035
49.13000 164.933
49.14000 157.937
49.15000 155.332
49.16000 155.035
49.17000 154.750
49.18000 153.638
49.19000 152.322
49.20000 151.392
49.21000 154.035
49.22000 157.548
49.23000 160.191
49.24000 157.849
49.25000 154.713
49.26000 152.186
49.27000 155.108
49.28000 157.909
49.29000 160.304
49.30000 161.657
49.31000 162.958
49.32000 162.670
49.33000 159.589
49.34000 156.457
49.35000 154.762
49.36000 155.973
49.37000 156.804
49.38000 157.205
49.39000 157.276
49.40000 157.315
49.41000 156.091
49.42000 154.213
49.43000 152.416
49.44000 153.187
49.45000 154.750
49.46000 156.182
49.47000 156.426
49.48000 156.386
49.49000 156.058
49.50000 154.109
49.51000 151.907
49.52000 150.140
49.53000 152.387
49.54000 154.514
49.55000 155.467
49.56000 153.449
49.57000 151.287
49.58000 149.196
49.59000 147.229
49.60000 145.265
49.61000 144.211
49.62000 152.069
49.63000 157.412
49.64000 157.275
49.65000 153.017
49.66000 148.838
49.67000 147.614
49.68000 147.892
49.69000 148.157
49.70000 149.908
49.71000 152.015
49.72000 153.813
49.73000 152.881
49.74000 151.308
49.75000 150.611
49.76000 154.742
49.77000 159.610
49.78000 163.502
49.79000 160.288
49.80000 157.162
49.81000 154.637
49.82000 153.605
49.83000 152.645
49.84000 153.051
49.85000 155.778
49.86000 158.544
49.87000 160.013
49.88000 161.151
49.89000 161.902
49.90000 158.391
49.91000 151.736
49.92000 145.307
49.93000 146.989
49.94000 152.718
49.95000 158.183
49.96000 160.999
49.97000 162.772
49.98000 164.365
49.99000 164.400
50.00000 164.076
50.01000 163.720
50.02000 163.194
50.03000 162.642
50.04000 162.203
50.05000 157.620
50.06000 153.625
50.07000 152.249
50.08000 157.274
50.09000 162.591
50.10000 164.869
50.11000 162.077
50.12000 159.207
50.13000 157.696
50.14000 154.886
50.15000 153.004
50.16000 155.216
50.17000 160.393
50.18000 165.347
50.19000 162.710
50.20000 156.349
50.21000 150.290
50.22000 150.995
50.23000 153.751
50.24000 156.121
50.25000 155.249
50.26000 153.644
50.27000 152.563
50.28000 154.268
50.29000 156.380
50.30000 158.056
50.31000 152.488
50.32000 147.501
50.33000 145.535
50.34000 150.833
50.35000 156.449
50.36000 160.123
50.37000 160.613
50.38000 161.058
50.39000 161.290
50.40000 154.260
50.41000 149.545
50.42000 150.636
50.43000 155.860
50.44000 160.974
50.45000 162.533
50.46000 162.378
50.47000 162.230
50.48000 160.610
50.49000 158.662
50.50000 156.942
50.51000 157.103
50.52000 157.682
50.53000 157.898
50.54000 156.230
50.55000 154.292
50.56000 152.761
50.57000 155.528
50.58000 158.042
50.59000 160.599
50.60000 163.255
50.61000 165.915
50.62000 166.854
50.63000 165.020
50.64000 163.148
50.65000 162.181
50.66000 166.147
50.67000 168.794
50.68000 168.040
50.69000 164.909
50.70000 161.940
50.71000 164.001
50.72000 168.445
50.73000 172.664
50.74000 173.463
50.75000 173.178
50.76000 172.925
50.77000 172.927
50.78000 172.985
50.79000 172.170
50.80000 166.901
50.81000 161.006
50.82000 156.370
50.83000 160.381
50.84000 164.166
50.85000 165.192
50.86000 159.810
50.87000 154.168
50.88000 151.749
50.89000 154.430
50.90000 157.176
50.91000 158.580
50.92000 158.750
50.93000 158.848
50.94000 156.939
50.95000 153.655
50.96000 150.518
50.97000 151.778
50.98000 155.085
50.99000 158.219
51.00000 156.491
51.01000 153.474
51.02000 151.071
51.03000 153.513
51.04000 156.991
51.05000 159.035
51.06000 153.898
51.07000 147.776
51.08000 142.981
51.09000 141.206
51.10000 139.982
51.11000 139.137
51.12000 139.158
51.13000 139.213
51.14000 140.707
51.15000 144.437
51.16000 148.192
51.17000 150.095
51.18000 146.652
51.19000 144.391
51.20000 146.933
51.21000 152.711
51.22000 158.308
51.23000 158.748
51.24000 156.826
51.25000 155.007
51.26000 155.841
51.27000 157.370
51.28000 158.221
51.29000 153.847
51.30000 148.375
51.31000 143.772
51.32000 143.429
51.33000 143.660
51.34000 143.839
51.35000 147.897
51.36000 151.374
51.37000 153.954
51.38000 154.520
51.39000 155.011
51.40000 153.565
51.41000 149.162
51.42000 144.727
51.43000 142.503
51.44000 146.605
51.45000 149.320
51.46000 149.885
51.47000 149.027
51.48000 148.222
51.49000 148.897
51.50000 150.239
51.51000 151.506
51.52000 147.812
51.53000 143.022
51.54000 138.631
51.55000 137.253
51.56000 136.495
51.57000 136.173
51.58000 137.950
51.59000 140.003
51.60000 141.597
51.61000 144.900
51.62000 147.629
51.63000 149.712
51.64000 150.367
51.65000 150.972
51.66000 149.858
51.67000 146.167
51.68000 142.451
51.69000 139.560
51.70000 137.483
51.71000 135.432
51.72000 135.691
51.73000 137.453
51.74000 139.282
51.75000 142.849
51.76000 147.186
51.77000 151.275
51.78000 150.053
51.79000 147.464
51.80000 144.954
51.81000 143.023
51.82000 141.209
51.83000 140.237
51.84000 143.253
51.85000 146.781
51.86000 149.509
51.87000 147.513
51.88000 145.653
51.89000 144.566
51.90000 145.156
51.91000 145.803
51.92000 145.317
51.93000 143.162
51.94000 140.991
51.95000 140.982
51.96000 143.060
51.97000 145.147
51.98000 147.974
51.99000 151.275
52.00000 154.375
52.01000 152.418
52.02000 148.261
52.03000 144.350
52.04000 141.249
52.05000 138.634
52.06000 136.079
52.07000 133.955
52.08000 131.916
52.09000 129.941
52.10000 128.265
52.11000 126.626
52.12000 125.364
52.13000 137.714
52.14000 148.265
52.15000 154.408
52.16000 151.152
52.17000 147.586
52.18000 145.163
52.19000 144.395
52.20000 143.641
52.21000 142.542
52.22000 141.119
52.23000 139.709
52.24000 139.384
52.25000 139.738
52.26000 140.049
52.27000 139.283
52.28000 138.058
52.29000 136.907
52.30000 140.106
52.31000 144.182
52.32000 147.364
52.33000 144.229
52.34000 139.864
52.35000 136.360
52.36000 136.773
52.37000 137.668
52.38000 138.354
52.39000 140.102
52.40000 141.541
52.41000 141.652
52.42000 138.981
52.43000 136.222
52.44000 136.374
52.45000 140.665
52.46000 144.985
52.47000 146.820
52.48000 146.348
52.49000 145.885
52.50000 146.062
52.51000 146.633
52.52000 147.107
52.53000 145.317
52.54000 142.576
52.55000 140.006
52.56000 142.675
52.57000 146.473
52.58000 149.735
52.59000 149.297
52.60000 148.152
52.61000 146.524
52.62000 142.730
52.63000 138.677
52.64000 135.584
52.65000 137.835
52.66000 139.893
52.67000 140.682
52.68000 138.856
52.69000 136.951
52.70000 136.520
52.71000 138.147
52.72000 139.786
52.73000 142.576
52.74000 146.410
52.75000 150.172
52.76000 149.104
52.77000 145.108
52.78000 141.295
52.79000 141.583
52.80000 143.566
52.81000 145.422
52.82000 146.160
52.83000 146.546
52.84000 146.706
52.85000 145.339
52.86000 143.686
52.87000 142.053
52.88000 140.512
52.89000 138.982
52.90000 137.820
52.91000 137.654
52.92000 137.575
52.93000 136.958
52.94000 135.255
52.95000 133.520
52.96000 134.718
52.97000 139.933
52.98000 145.170
52.99000 147.604
53.00000 147.533
53.01000 147.436
53.02000 145.654
53.03000 142.871
53.04000 140.381
53.05000 144.276
53.06000 150.765
53.07000 156.824
53.08000 153.355
53.09000 147.818
53.10000 142.923
53.11000 142.278
53.12000 142.414
53.13000 143.511
53.14000 148.747
53.15000 154.458
53.16000 158.776
53.17000 163.883
53.18000 167.928
53.19000 168.008
53.20000 160.197
53.21000 152.168
53.22000 149.154
53.23000 152.883
53.24000 156.646
53.25000 155.943
53.26000 151.333
53.27000 146.812
53.28000 147.543
53.29000 151.345
53.30000 155.079
53.31000 157.400
53.32000 159.157
53.33000 160.795
53.34000 154.492
53.35000 146.834
53.36000 140.820
53.37000 145.485
53.38000 152.074
53.39000 157.256
53.40000 156.491
53.41000 155.058
53.42000 153.980
53.43000 156.169
53.44000 158.039
53.45000 158.949
53.46000 157.980
53.47000 156.961
53.48000 155.769
53.49000 154.347
53.50000 152.925
53.51000 152.371
53.52000 152.561
53.53000 152.825
53.54000 157.118
53.55000 163.728
53.56000 169.696
53.57000 162.734
53.58000 150.697
53.59000 139.500
53.60000 141.751
53.61000 147.027
53.62000 151.765
53.63000 153.078
53.64000 153.787
53.65000 154.079
53.66000 152.640
53.67000 151.011
53.68000 149.792
53.69000 151.350
53.70000 152.697
53.71000 151.079
53.72000 143.763
53.73000 136.306
53.74000 135.297
53.75000 142.646
53.76000 150.023
53.77000 151.463
53.78000 147.903
53.79000 144.385
53.80000 143.017
53.81000 142.863
53.82000 142.676
53.83000 141.842
53.84000 140.758
53.85000 139.753
53.86000 144.243
53.87000 149.591
53.88000 154.068
53.89000 153.123
53.90000 151.239
53.91000 149.922
53.92000 150.914
53.93000 152.154
53.94000 153.077
53.95000 146.348
53.96000 140.762
53.97000 138.249
53.98000 141.542
53.99000 144.973
54.00000 146.781
54.01000 146.522
54.02000 146.257
54.03000 145.219
54.04000 143.547
54.05000 141.889
54.06000 140.920
54.07000 140.333
54.08000 139.800
54.09000 140.303
54.10000 141.198
54.11000 142.027
54.12000 142.735
54.13000 143.345
54.14000 144.148
54.15000 146.131
54.16000 148.313
54.17000 148.662
54.18000 141.668
54.19000 133.906
54.20000 128.150
54.21000 134.037
54.22000 139.118
54.23000 141.839
54.24000 140.175
54.25000 138.413
54.26000 137.200
54.27000 136.671
54.28000 136.145
54.29000 136.911
54.30000 138.719
54.31000 140.447
54.32000 138.445
54.33000 134.407
54.34000 130.526
54.35000 129.499
54.36000 129.536
54.37000 129.570
54.38000 132.653
54.39000 136.113
54.40000 138.871
54.41000 137.423
54.42000 135.275
54.43000 134.072
54.44000 136.584
54.45000 139.474
54.46000 141.607
54.47000 138.139
54.48000 135.216
54.49000 133.298
54.50000 133.215
54.51000 133.172
54.52000 134.891
54.53000 138.772
54.54000 142.650
54.55000 145.197
54.56000 146.675
54.57000 148.106
54.58000 147.455
54.59000 145.689
54.60000 144.043
54.61000 144.505
54.62000 145.742
54.63000 146.882
54.64000 144.848
54.65000 142.318
54.66000 139.878
54.67000 137.958
54.68000 136.124
54.69000 135.163
54.70000 137.578
54.71000 140.328
54.72000 142.348
54.73000 139.861
54.74000 137.755
54.75000 137.257
54.76000 139.643
54.77000 142.088
54.78000 144.253
54.79000 146.082
54.80000 147.907
54.81000 148.959
54.82000 149.404
54.83000 149.861
54.84000 150.826
54.85000 152.059
54.86000 153.135
54.87000 151.533
54.88000 148.967
54.89000 146.605
54.90000 148.169
54.91000 150.425
54.92000 151.964
54.93000 149.382
54.94000 146.141
54.95000 143.674
54.96000 144.141
54.97000 144.893
54.98000 145.443
54.99000 145.854
55.00000 146.166
55.01000 144.959
55.02000 141.073
55.03000 137.136
55.04000 136.340
55.05000 139.250
55.06000 142.159
55.07000 142.518
55.08000 140.929
55.09000 139.473
55.10000 143.304
55.11000 149.872
55.12000 156.152
55.13000 157.666
55.14000 157.492
55.15000 157.333
55.16000 161.082
55.17000 165.263
55.18000 168.692
55.19000 167.877
55.20000 166.399
55.21000 165.135
55.22000 164.669
55.23000 164.278
55.24000 163.994
55.25000 164.928
55.26000 165.692
55.27000 166.646
55.28000 167.931
55.29000 169.221
55.30000 170.091
55.31000 170.473
55.32000 170.853
55.33000 170.652
55.34000 170.016
55.35000 169.411
55.36000 169.962
55.37000 171.100
55.38000 172.632
55.39000 180.471
55.40000 190.505
55.41000 199.699
55.42000 206.744
55.43000 212.567
55.44000 216.854
55.45000 212.648
55.46000 207.141
55.47000 204.112
55.48000 210.156
55.49000 217.036
55.50000 222.012
55.51000 227.860
55.52000 232.380
55.53000 234.834
55.54000 233.773
55.55000 232.653
55.56000 236.569
55.57000 246.203
55.58000 255.813
55.59000 261.177
55.60000 263.380
55.61000 265.760
55.62000 274.509
55.63000 286.443
55.64000 298.371
55.65000 310.189
55.66000 321.970
55.67000 332.740
55.68000 343.467
55.69000 352.990
55.70000 362.986
55.71000 375.553
55.72000 388.505
55.73000 400.883
55.74000 411.193
55.75000 421.318
55.76000 428.602
55.77000 439.806
55.78000 448.520
55.79000 460.307
55.80000 477.232
55.81000 494.238
55.82000 507.479
55.83000 516.527
55.84000 525.540
55.85000 537.008
55.86000 550.145
55.87000 563.078
55.88000 569.007
55.89000 571.492
55.90000 573.665
55.91000 571.124
55.92000 566.998
55.93000 563.234
55.94000 564.753
55.95000 567.162
55.96000 568.034
55.97000 560.732
55.98000 552.229
55.99000 545.319
56.00000 544.041
56.01000 543.255
56.02000 542.693
56.03000 528.982
56.04000 518.069
56.05000 506.385
56.06000 493.433
56.07000 480.463
56.08000 471.495
56.09000 466.899
56.10000 462.323
56.11000 450.019
56.12000 432.372
56.13000 414.748
56.14000 397.879
56.15000 381.376
56.16000 365.147
56.17000 352.935
56.18000 342.050
56.19000 332.146
56.20000 325.498
56.21000 320.257
56.22000 314.838
56.23000 308.486
56.24000 301.999
56.25000 294.239
56.26000 282.052
56.27000 269.489
56.28000 260.546
56.29000 248.558
56.30000 239.326
56.31000 231.075
56.32000 224.407
56.33000 217.760
56.34000 213.380
56.35000 211.428
56.36000 209.486
56.37000 204.171
56.38000 196.575
56.39000 189.097
56.40000 185.343
56.41000 183.358
56.42000 181.378
56.43000 179.458
56.44000 177.558
56.45000 175.833
56.46000 169.352
56.47000 162.711
56.48000 157.219
56.49000 157.603
56.50000 158.814
56.51000 159.819
56.52000 160.119
56.53000 160.360
56.54000 160.531
56.55000 157.167
56.56000 154.501
56.57000 152.065
56.58000 149.993
56.59000 147.926
56.60000 147.100
56.61000 147.577
56.62000 148.053
56.63000 148.056
56.64000 147.739
56.65000 147.348
56.66000 144.756
56.67000 141.137
56.68000 137.658
56.69000 136.118
56.70000 135.197
56.71000 134.363
56.72000 131.845
56.73000 129.308
56.74000 127.729
56.75000 130.962
56.76000 134.857
56.77000 138.055
56.78000 138.910
56.79000 139.577
56.80000 140.046
56.81000 138.900
56.82000 137.984
56.83000 136.091
56.84000 132.674
56.85000 129.240
56.86000 129.851
56.87000 134.627
56.88000 139.378
56.89000 141.889
56.90000 142.875
56.91000 143.787
56.92000 142.557
56.93000 140.346
56.94000 138.270
56.95000 138.026
56.96000 138.356
56.97000 138.654
56.98000 138.006
56.99000 137.261
57.00000 136.392
57.01000 134.914
57.02000 133.355
57.03000 131.597
57.04000 129.189
57.05000 126.730
57.06000 125.008
57.07000 130.869
57.08000 135.518
57.09000 138.489
57.10000 138.892
57.11000 139.268
57.12000 139.993
57.13000 141.069
57.14000 142.138
57.15000 140.830
57.16000 137.983
57.17000 135.135
57.18000 132.261
57.19000 129.376
57.20000 126.588
57.21000 125.061
57.22000 123.924
57.23000 122.899
57.24000 125.946
57.25000 129.358
57.26000 132.015
57.27000 131.028
57.28000 129.560
57.29000 128.122
57.30000 126.780
57.31000 125.445
57.32000 124.515
57.33000 124.719
57.34000 124.904
57.35000 125.704
57.36000 127.429
57.37000 129.162
57.38000 127.426
57.39000 122.260
57.40000 117.127
57.41000 116.068
57.42000 117.642
57.43000 119.225
57.44000 121.051
57.45000 122.983
57.46000 125.069
57.47000 129.096
57.48000 133.712
57.49000 137.861
57.50000 132.565
57.51000 126.251
57.52000 120.861
57.53000 119.855
57.54000 119.413
57.55000 119.801
57.56000 122.828
57.57000 126.051
57.58000 128.282
57.59000 128.548
57.60000 128.698
57.61000 129.278
57.62000 130.495
57.63000 131.718
57.64000 131.821
57.65000 130.837
57.66000 129.860
57.67000 128.586
57.68000 127.145
57.69000 125.694
57.70000 123.973
57.71000 122.135
57.72000 120.557
57.73000 122.186
57.74000 124.771
57.75000 127.089
57.76000 128.658
57.77000 129.898
57.78000 130.748
57.79000 129.785
57.80000 128.594
57.81000 128.404
57.82000 131.346
57.83000 134.515
57.84000 136.696
57.85000 129.379
57.86000 123.651
57.87000 121.627
57.88000 124.976
57.89000 128.369
57.90000 128.431
57.91000 125.329
57.92000 122.251
57.93000 122.245
57.94000 124.138
57.95000 126.047
57.96000 128.307
57.97000 130.719
57.98000 132.778
57.99000 130.595
58.00000 127.171
58.01000 124.109
58.02000 124.527
58.03000 125.484
58.04000 125.996
58.05000 124.480
58.06000 122.714
58.07000 122.430
58.08000 126.698
58.09000 131.286
58.10000 134.425
58.11000 127.515
58.12000 122.102
58.13000 119.481
58.14000 120.836
58.15000 122.222
58.16000 124.817
58.17000 128.541
58.18000 132.233
58.19000 129.404
58.20000 122.671
58.21000 116.204
58.22000 115.986
58.23000 118.402
58.24000 120.803
58.25000 123.027
58.26000 125.201
58.27000 127.140
58.28000 124.563
58.29000 121.569
58.30000 119.444
58.31000 121.214
58.32000 123.453
58.33000 125.253
58.34000 125.725
58.35000 126.106
58.36000 126.366
58.37000 124.717
58.38000 123.443
58.39000 121.174
58.40000 117.515
58.41000 113.848
58.42000 113.268
58.43000 115.508
58.44000 117.728
58.45000 121.086
58.46000 125.056
58.47000 128.878
58.48000 129.351
58.49000 128.436
58.50000 127.194
58.51000 122.232
58.52000 116.219
58.53000 110.869
58.54000 110.890
58.55000 111.784
58.56000 112.774
58.57000 114.189
58.58000 115.654
58.59000 117.082
58.60000 118.402
58.61000 119.714
58.62000 120.602
58.63000 116.953
58.64000 114.137
58.65000 115.010
58.66000 120.951
58.67000 126.918
58.68000 128.229
58.69000 125.367
58.70000 122.533
58.71000 122.539
58.72000 124.206
58.73000 125.799
58.74000 125.801
58.75000 125.155
58.76000 124.359
58.77000 121.910
58.78000 119.002
58.79000 116.422
58.80000 116.019
58.81000 116.017
58.82000 116.617
58.83000 119.818
58.84000 123.320
58.85000 125.935
58.86000 125.965
58.87000 125.828
58.88000 125.737
58.89000 123.874
58.90000 122.454
58.91000 122.695
58.92000 125.178
58.93000 127.668
58.94000 126.120
58.95000 121.024
58.96000 115.981
58.97000 115.366
58.98000 117.302
58.99000 119.119
59.00000 118.421
59.01000 116.715
59.02000 115.223
59.03000 116.038
59.04000 117.482
59.05000 118.760
59.06000 116.739
59.07000 114.477
59.08000 112.437
59.09000 111.342
59.10000 110.353
59.11000 112.048
59.12000 121.439
59.13000 131.308
59.14000 137.902
59.15000 129.316
59.16000 122.657
59.17000 119.146
59.18000 119.805
59.19000 120.482
59.20000 121.078
59.21000 121.602
59.22000 122.120
59.23000 122.371
59.24000 122.467
59.25000 122.380
59.26000 118.592
59.27000 113.347
59.28000 108.711
59.29000 110.485
59.30000 113.976
59.31000 117.057
59.32000 118.836
59.33000 120.172
59.34000 121.245
59.35000 121.221
59.36000 121.077
59.37000 119.741
59.38000 115.043
59.39000 110.143
59.40000 106.890
59.41000 114.807
59.42000 120.866
59.43000 125.137
59.44000 127.083
59.45000 129.012
59.46000 127.164
59.47000 122.120
59.48000 117.137
59.49000 116.873
59.50000 119.221
59.51000 121.452
59.52000 121.397
59.53000 120.456
59.54000 119.491
59.55000 118.278
59.56000 116.999
59.57000 115.874
59.58000 113.533
59.59000 111.336
59.60000 110.030
59.61000 112.365
59.62000 115.090
59.63000 116.112
59.64000 112.411
59.65000 108.434
59.66000 105.810
59.67000 109.718
59.68000 112.714
59.69000 114.913
59.70000 116.096
59.71000 117.276
59.72000 118.623
59.73000 120.109
59.74000 121.576
59.75000 122.819
59.76000 123.908
59.77000 124.885
59.78000 123.726
59.79000 121.755
59.80000 119.784
59.81000 117.811
59.82000 115.839
59.83000 114.108
59.84000 115.146
59.85000 116.442
59.86000 117.717
59.87000 118.908
59.88000 120.090
59.89000 121.357
59.90000 122.856
59.91000 124.367
59.92000 125.359
59.93000 121.031
59.94000 117.760
59.95000 115.167
59.96000 113.420
59.97000 111.684
59.98000 112.867
59.99000 116.426
60.00000 119.938
60.01000 122.669
60.02000 124.910
60.03000 126.894
60.04000 124.165
60.05000 119.675
60.06000 115.440
60.07000 113.704
60.08000 112.601
60.09000 111.636
60.10000 113.092
60.11000 114.686
60.12000 116.321
60.13000 118.117
60.14000 119.929
60.15000 120.619
60.16000 118.305
60.17000 115.827
60.18000 114.213
60.19000 116.252
60.20000 117.805
60.21000 118.044
60.22000 116.668
60.23000 115.293
60.24000 115.477
60.25000 116.908
60.26000 118.318
60.27000 118.428
60.28000 117.856
60.29000 117.412
60.30000 119.239
60.31000 121.900
60.32000 124.009
60.33000 120.849
60.34000 116.376
60.35000 112.473
60.36000 114.456
60.37000 116.976
60.38000 118.898
60.39000 118.506
60.40000 117.883
60.41000 117.945
60.42000 119.809
60.43000 121.769
60.44000 123.037
60.45000 117.380
60.46000 113.139
60.47000 110.433
60.48000 109.577
60.49000 108.738
60.50000 111.394
60.51000 116.792
60.52000 122.108
60.53000 125.305
60.54000 127.320
60.55000 129.306
60.56000 130.810
60.57000 132.138
60.58000 133.067
60.59000 130.271
60.60000 126.562
60.61000 123.336
60.62000 123.697
60.63000 124.495
60.64000 125.809
60.65000 129.087
60.66000 132.557
60.67000 134.367
60.68000 131.888
60.69000 129.190
60.70000 127.455
60.71000 122.014
60.72000 117.993
60.73000 117.727
60.74000 121.905
60.75000 126.068
60.76000 124.849
60.77000 119.486
60.78000 114.209
60.79000 115.660
60.80000 120.445
60.81000 125.004
60.82000 125.812
60.83000 125.289
60.84000 124.935
60.85000 126.133
60.86000 127.705
60.87000 129.067
60.88000 124.034
60.89000 118.892
60.90000 114.421
60.91000 112.454
60.92000 110.725
60.93000 111.575
60.94000 118.984
60.95000 126.717
60.96000 131.656
60.97000 128.517
60.98000 126.127
60.99000 126.207
61.00000 129.154
61.01000 132.087
61.02000 131.093
61.03000 127.130
61.04000 123.234
61.05000 122.336
61.06000 122.946
61.07000 123.585
61.08000 124.700
61.09000 125.982
61.10000 126.892
61.11000 124.502
61.12000 121.334
61.13000 118.593
61.14000 119.906
61.15000 121.550
61.16000 123.391
61.17000 125.949
61.18000 128.575
61.19000 130.102
61.20000 128.883
61.21000 127.533
61.22000 126.677
61.23000 125.655
61.24000 124.911
61.25000 125.386
61.26000 127.247
61.27000 129.097
61.28000 128.562
61.29000 126.257
61.30000 123.994
61.31000 122.046
61.32000 120.319
61.33000 118.679
61.34000 118.394
61.35000 118.575
61.36000 119.101
61.37000 122.622
61.38000 126.837
61.39000 130.471
61.40000 131.624
61.41000 132.284
61.42000 133.224
61.43000 135.171
61.44000 137.208
61.45000 139.132
61.46000 140.774
61.47000 142.404
61.48000 143.431
61.49000 140.880
61.50000 138.992
61.51000 142.498
61.52000 152.029
61.53000 161.589
61.54000 175.353
61.55000 192.180
61.56000 208.686
61.57000 218.487
61.58000 224.745
61.59000 231.562
61.60000 246.839
61.61000 264.968
61.62000 281.138
61.63000 280.679
61.64000 276.438
61.65000 272.793
61.66000 276.780
61.67000 281.105
61.68000 283.583
61.69000 279.518
61.70000 274.877
61.71000 272.595
61.72000 276.007
61.73000 279.671
61.74000 281.964
61.75000 276.817
61.76000 273.023
61.77000 264.046
61.78000 249.392
61.79000 234.720
61.80000 217.636
61.81000 198.829
61.82000 180.398
61.83000 170.666
61.84000 165.358
61.85000 159.831
61.86000 151.086
61.87000 141.274
61.88000 132.668
61.89000 134.070
61.90000 137.706
61.91000 140.822
61.92000 138.202
61.93000 135.293
61.94000 133.564
61.95000 135.948
61.96000 138.684
61.97000 140.711
61.98000 141.051
61.99000 141.319
62.00000 141.486
62.01000 140.875
62.02000 140.427
62.03000 139.265
62.04000 137.335
62.05000 135.397
62.06000 132.402
62.07000 128.663
62.08000 125.003
62.09000 122.514
62.10000 120.660
62.11000 118.925
62.12000 118.900
62.13000 119.432
62.14000 120.445
62.15000 125.363
62.16000 131.139
62.17000 136.071
62.18000 131.640
62.19000 126.793
62.20000 123.581
62.21000 125.964
62.22000 128.814
62.23000 130.460
62.24000 129.298
62.25000 128.021
62.26000 127.234
62.27000 134.893
62.28000 140.469
62.29000 140.532
62.30000 134.786
62.31000 129.085
62.32000 129.050
62.33000 132.924
62.34000 136.711
62.35000 135.413
62.36000 131.884
62.37000 128.552
62.38000 127.951
62.39000 128.224
62.40000 128.541
62.41000 129.204
62.42000 129.942
62.43000 130.570
62.44000 129.093
62.45000 127.607
62.46000 126.676
62.47000 127.612
62.48000 128.699
62.49000 130.056
62.50000 132.031
62.51000 134.032
62.52000 135.257
62.53000 132.235
62.54000 130.036
62.55000 127.452
62.56000 124.473
62.57000 121.509
62.58000 120.231
62.59000 120.096
62.60000 119.964
62.61000 120.367
62.62000 120.988
62.63000 121.759
62.64000 124.542
62.65000 127.957
62.66000 130.805
62.67000 129.250
62.68000 126.766
62.69000 124.658
62.70000 126.558
62.71000 128.607
62.72000 130.965
62.73000 134.345
62.74000 137.807
62.75000 140.050
62.76000 139.545
62.77000 138.935
62.78000 138.565
62.79000 130.460
62.80000 124.612
62.81000 123.531
62.82000 127.274
62.83000 131.005
62.84000 133.561
62.85000 135.334
62.86000 137.065
62.87000 132.717
62.88000 125.934
62.89000 119.625
62.90000 119.530
62.91000 121.356
62.92000 123.820
62.93000 131.128
62.94000 139.440
62.95000 146.471
62.96000 141.041
62.97000 135.117
62.98000 129.359
62.99000 124.139
63.00000 118.961
63.01000 116.477
63.02000 119.972
63.03000 123.684
63.04000 125.925
63.05000 133.689
63.06000 139.256
63.07000 140.669
63.08000 137.960
63.09000 135.247
63.10000 132.169
63.11000 128.853
63.12000 125.621
63.13000 126.228
63.14000 128.436
63.15000 130.335
63.16000 128.288
63.17000 125.044
63.18000 122.508
63.19000 125.236
63.20000 129.034
63.21000 132.235
63.22000 131.409
63.23000 130.283
63.24000 129.455
63.25000 129.574
63.26000 129.763
63.27000 129.965
63.28000 130.192
63.29000 130.420
63.30000 130.557
63.31000 130.538
63.32000 130.523
63.33000 131.090
63.34000 132.222
63.35000 133.337
63.36000 132.956
63.37000 131.613
63.38000 130.307
63.39000 134.156
63.40000 139.970
63.41000 144.992
63.42000 140.202
63.43000 132.483
63.44000 125.999
63.45000 128.477
63.46000 132.744
63.47000 136.329
63.48000 136.265
63.49000 135.827
63.50000 135.870
63.51000 137.423
63.52000 139.085
63.53000 140.856
63.54000 142.859
63.55000 144.870
63.56000 146.066
63.57000 144.682
63.58000 143.686
63.59000 142.152
63.60000 140.103
63.61000 138.095
63.62000 139.310
63.63000 142.558
63.64000 145.715
63.65000 147.944
63.66000 149.685
63.67000 151.028
63.68000 147.579
63.69000 142.725
63.70000 138.865
63.71000 142.069
63.72000 146.655
63.73000 150.495
63.74000 148.098
63.75000 145.464
63.76000 143.357
63.77000 142.875
63.78000 142.507
63.79000 141.511
63.80000 139.192
63.81000 136.831
63.82000 135.438
63.83000 136.528
63.84000 137.310
63.85000 138.176
63.86000 139.120
63.87000 140.070
63.88000 141.536
63.89000 143.323
63.90000 145.057
63.91000 143.812
63.92000 141.436
63.93000 139.252
63.94000 139.332
63.95000 140.066
63.96000 140.720
63.97000 140.824
63.98000 140.823
63.99000 140.822
64.00000 142.595
64.01000 144.244
64.02000 145.989
64.03000 148.027
64.04000 150.085
64.05000 150.545
64.06000 147.699
64.07000 144.752
64.08000 143.026
64.09000 142.536
64.10000 142.198
64.11000 143.024
64.12000 144.916
64.13000 146.792
64.14000 147.552
64.15000 147.633
64.16000 147.710
64.17000 152.163
64.18000 158.106
64.19000 163.163
64.20000 158.109
64.21000 150.192
64.22000 143.243
64.23000 142.888
64.24000 143.774
64.25000 144.511
64.26000 146.541
64.27000 148.347
64.28000 149.760
64.29000 150.003
64.30000 150.167
64.31000 149.364
64.32000 146.592
64.33000 143.762
64.34000 142.119
64.35000 149.183
64.36000 154.178
64.37000 156.626
64.38000 156.783
64.39000 156.937
64.40000 156.797
64.41000 156.481
64.42000 156.176
64.43000 156.057
64.44000 156.016
64.45000 155.987
64.46000 156.075
64.47000 156.196
64.48000 156.423
64.49000 157.356
64.50000 158.419
64.51000 159.301
64.52000 158.961
64.53000 158.564
64.54000 159.443
64.55000 164.051
64.56000 168.899
64.57000 170.727
64.58000 166.512
64.59000 162.129
64.60000 159.603
64.61000 161.694
64.62000 163.174
64.63000 163.469
64.64000 162.719
64.65000 161.999
64.66000 163.022
64.67000 165.070
64.68000 167.052
64.69000 167.702
64.70000 167.810
64.71000 167.789
64.72000 166.355
64.73000 164.536
64.74000 163.504
64.75000 167.624
64.76000 172.678
64.77000 176.849
64.78000 173.930
64.79000 170.865
64.80000 169.543
64.81000 173.228
64.82000 177.226
64.83000 179.340
64.84000 177.749
64.85000 176.060
64.86000 175.095
64.87000 184.477
64.88000 191.053
64.89000 191.797
64.90000 187.497
64.91000 183.236
64.92000 181.214
64.93000 180.484
64.94000 179.779
64.95000 179.849
64.96000 180.202
64.97000 180.824
64.98000 184.301
64.99000 188.543
65.00000 192.758
65.01000 196.801
65.02000 200.813
65.03000 204.113
65.04000 204.865
65.05000 205.253
65.06000 206.280
65.07000 209.115
65.08000 212.059
65.09000 211.973
65.10000 206.034
65.11000 199.947
65.12000 196.496
65.13000 199.722
65.14000 201.992
65.15000 207.386
65.16000 215.427
65.17000 223.258
65.18000 219.845
65.19000 210.051
65.20000 200.602
65.21000 204.639
65.22000 213.359
65.23000 221.314
65.24000 221.366
65.25000 219.333
65.26000 218.100
65.27000 221.877
65.28000 226.527
65.29000 230.338
65.30000 236.876
65.31000 242.480
65.32000 245.844
65.33000 242.990
65.34000 239.770
65.35000 239.817
65.36000 246.069
65.37000 252.469
65.38000 256.068
65.39000 252.237
65.40000 249.569
65.41000 251.260
65.42000 256.580
65.43000 261.929
65.44000 268.777
65.45000 276.460
65.46000 283.861
65.47000 286.664
65.48000 287.649
65.49000 288.878
65.50000 292.558
65.51000 296.874
65.52000 301.890
65.53000 311.215
65.54000 321.274
65.55000 329.488
65.56000 339.143
65.57000 347.167
65.58000 354.925
65.59000 361.955
65.60000 368.944
65.61000 378.496
65.62000 392.832
65.63000 407.278
65.64000 415.330
65.65000 466.102
65.66000 501.352
65.67000 547.869
65.68000 603.588
65.69000 659.877
65.70000 743.076
65.71000 841.030
65.72000 935.258
65.73000 1053.003
65.74000 1171.667
65.75000 1288.578
65.76000 1388.279
65.77000 1483.602
65.78000 1576.233
65.79000 1652.661
65.80000 1726.379
65.81000 1786.344
65.82000 1808.308
65.83000 1823.055
65.84000 1840.185
65.85000 1863.711
65.86000 1887.589
65.87000 1895.195
65.88000 1872.945
65.89000 1850.053
65.90000 1837.401
65.91000 1786.435
65.92000 1751.113
65.93000 1683.956
65.94000 1591.287
65.95000 1498.285
65.96000 1390.373
65.97000 1274.428
65.98000 1163.056
65.99000 1036.713
66.00000 913.308
66.01000 794.070
66.02000 714.785
66.03000 645.481
66.04000 580.244
66.05000 538.998
66.06000 501.684
66.07000 471.446
66.08000 436.849
66.09000 408.313
66.10000 384.830
66.11000 374.681
66.12000 365.241
66.13000 358.650
66.14000 357.196
66.15000 355.847
66.16000 355.108
66.17000 358.031
66.18000 360.047
66.19000 361.849
66.20000 363.484
66.21000 365.124
66.22000 366.968
66.23000 368.921
66.24000 370.794
66.25000 387.500
66.26000 408.123
66.27000 428.969
66.28000 451.901
66.29000 475.345
66.30000 498.161
66.31000 517.351
66.32000 535.958
66.33000 550.979
66.34000 561.299
66.35000 569.313
66.36000 576.873
66.37000 583.254
66.38000 589.575
66.39000 598.852
66.40000 613.366
66.41000 627.980
66.42000 635.917
66.43000 616.319
66.44000 602.857
66.45000 591.678
66.46000 582.262
66.47000 572.721
66.48000 558.116
66.49000 540.875
66.50000 524.365
66.51000 511.883
66.52000 501.583
66.53000 490.427
66.54000 471.466
66.55000 450.624
66.56000 430.227
66.57000 412.352
66.58000 394.873
66.59000 380.818
66.60000 371.485
66.61000 364.282
66.62000 357.048
66.63000 349.736
66.64000 342.421
66.65000 339.482
66.66000 344.166
66.67000 348.987
66.68000 351.582
66.69000 347.920
66.70000 345.417
66.71000 344.359
66.72000 344.395
66.73000 344.352
66.74000 341.305
66.75000 336.721
66.76000 332.337
66.77000 339.786
66.78000 350.572
66.79000 359.826
66.80000 355.415
66.81000 347.770
66.82000 341.230
66.83000 340.832
66.84000 341.382
66.85000 341.822
66.86000 341.130
66.87000 340.485
66.88000 340.338
66.89000 341.438
66.90000 342.598
66.91000 345.442
66.92000 351.165
66.93000 356.938
66.94000 360.017
66.95000 352.595
66.96000 347.555
66.97000 347.147
66.98000 350.187
66.99000 353.332
67.00000 360.304
67.01000 369.202
67.02000 377.697
67.03000 379.672
67.04000 379.424
67.05000 378.723
67.06000 374.069
67.07000 368.496
67.08000 365.225
67.09000 374.497
67.10000 385.663
67.11000 394.571
67.12000 382.396
67.13000 371.029
67.14000 364.683
67.15000 370.707
67.16000 377.304
67.17000 383.192
67.18000 387.888
67.19000 392.565
67.20000 395.037
67.21000 388.745
67.22000 384.491
67.23000 384.411
67.24000 387.379
67.25000 390.227
67.26000 388.843
67.27000 385.369
67.28000 382.057
67.29000 381.002
67.30000 380.730
67.31000 380.772
67.32000 383.484
67.33000 386.805
67.34000 389.494
67.35000 388.805
67.36000 387.617
67.37000 386.673
67.38000 398.042
67.39000 408.072
67.40000 414.278
67.41000 411.225
67.42000 407.760
67.43000 404.416
67.44000 401.271
67.45000 398.130
67.46000 396.485
67.47000 406.864
67.48000 413.877
67.49000 418.038
67.50000 420.154
67.51000 422.200
67.52000 421.923
67.53000 420.517
67.54000 419.180
67.55000 419.581
67.56000 420.485
67.57000 420.998
67.58000 418.240
67.59000 414.751
67.60000 413.206
67.61000 421.857
67.62000 431.983
67.63000 439.996
67.64000 434.040
67.65000 428.291
67.66000 429.104
67.67000 445.543
67.68000 462.652
67.69000 469.893
67.70000 461.118
67.71000 452.120
67.72000 447.453
67.73000 450.398
67.74000 452.360
67.75000 450.585
67.76000 446.179
67.77000 441.992
67.78000 444.772
67.79000 450.878
67.80000 456.679
67.81000 465.371
67.82000 474.272
67.83000 481.973
67.84000 479.909
67.85000 475.700
67.86000 471.318
67.87000 466.048
67.88000 460.651
67.89000 456.399
67.90000 456.635
67.91000 457.124
67.92000 460.319
67.93000 469.847
67.94000 479.635
67.95000 485.537
67.96000 485.240
67.97000 484.864
67.98000 484.671
67.99000 477.326
68.00000 472.431
68.01000 473.293
68.02000 478.136
68.03000 483.027
68.04000 489.341
68.05000 496.323
68.06000 502.945
68.07000 504.653
68.08000 504.774
68.09000 505.040
68.10000 506.462
68.11000 508.133
68.12000 508.593
68.13000 502.948
68.14000 496.456
68.15000 491.361
68.16000 508.011
68.17000 522.742
68.18000 534.896
68.19000 541.119
68.20000 547.106
68.21000 551.696
68.22000 554.097
68.23000 556.472
68.24000 557.680
68.25000 548.444
68.26000 542.304
68.27000 542.263
68.28000 546.366
68.29000 550.560
68.30000 557.430
68.31000 565.533
68.32000 573.206
68.33000 586.318
68.34000 599.962
68.35000 611.975
68.36000 611.290
68.37000 607.917
68.38000 604.104
68.39000 598.111
68.40000 591.822
68.41000 586.908
68.42000 604.392
68.43000 619.759
68.44000 631.000
68.45000 632.910
68.46000 634.464
68.47000 641.128
68.48000 655.658
68.49000 670.274
68.50000 677.637
68.51000 693.831
68.52000 704.564
68.53000 706.118
68.54000 701.548
68.55000 697.902
68.56000 720.012
68.57000 753.803
68.58000 785.740
68.59000 802.467
68.60000 813.499
68.61000 827.638
68.62000 865.420
68.63000 908.115
68.64000 950.990
68.65000 994.741
68.66000 1038.608
68.67000 1072.738
68.68000 1124.893
68.69000 1167.517
68.70000 1206.836
68.71000 1238.809
68.72000 1270.512
68.73000 1306.442
68.74000 1348.760
68.75000 1391.143
68.76000 1431.941
68.77000 1471.161
68.78000 1510.462
68.79000 1557.234
68.80000 1608.903
68.81000 1660.557
68.82000 1711.796
68.83000 1762.850
68.84000 1811.017
68.85000 1916.301
68.86000 2028.746
68.87000 2151.131
68.88000 2347.536
68.89000 2559.031
68.90000 2836.377
68.91000 3427.581
68.92000 4059.549
68.93000 4549.108
68.94000 6485.233
68.95000 8109.019
68.96000 10129.612
68.97000 13017.365
68.98000 15935.595
68.99000 19040.771
69.00000 22423.523
69.01000 25808.797
69.02000 28825.596
69.03000 31482.957
69.04000 34131.559
69.05000 36020.242
69.06000 37419.652
69.07000 38798.215
69.08000 39641.789
69.09000 40250.887
69.10000 40824.500
69.11000 41442.332
69.12000 42019.633
69.13000 42612.598
69.14000 43319.719
69.15000 44049.676
69.16000 44686.426
69.17000 44887.211
69.18000 45032.617
69.19000 45144.762
69.20000 43050.078
69.21000 41262.980
69.22000 39093.254
69.23000 36101.574
69.24000 33082.215
69.25000 30441.746
69.26000 28353.797
69.27000 26270.691
69.28000 24628.402
69.29000 23407.693
69.30000 22193.176
69.31000 21475.732
69.32000 21072.693
69.33000 20671.568
69.34000 20317.691
69.35000 19984.172
69.36000 19670.662
69.37000 18898.459
69.38000 18070.289
69.39000 17167.279
69.40000 15730.523
69.41000 14189.020
69.42000 12600.077
69.43000 10793.351
69.44000 8959.571
69.45000 7551.531
69.46000 6085.688
69.47000 4923.707
69.48000 3922.710
69.49000 3261.653
69.50000 2611.554
69.51000 2121.875
69.52000 1861.941
69.53000 1603.820
69.54000 1426.795
69.55000 1325.807
69.56000 1225.198
69.57000 1152.848
69.58000 1098.059
69.59000 1044.028
69.60000 1008.004
69.61000 979.607
69.62000 952.963
69.63000 905.852
69.64000 857.535
69.65000 811.972
69.66000 785.634
69.67000 762.997
69.68000 743.459
69.69000 737.881
69.70000 733.999
69.71000 731.032
69.72000 711.706
69.73000 695.578
69.74000 679.312
69.75000 662.759
69.76000 646.197
69.77000 630.515
69.78000 616.070
69.79000 601.637
69.80000 592.688
69.81000 588.783
69.82000 584.810
69.83000 576.161
69.84000 564.657
69.85000 553.435
69.86000 548.658
69.87000 546.565
69.88000 544.604
69.89000 544.804
69.90000 545.544
69.91000 545.696
69.92000 541.833
69.93000 537.213
69.94000 530.645
69.95000 515.459
69.96000 499.250
69.97000 486.916
69.98000 488.265
69.99000 490.044
70.00000 490.271
