20.00000 500.913
20.01000 488.750
20.02000 474.850
20.03000 464.112
20.04000 465.838
20.05000 468.839
20.06000 471.055
20.07000 472.342
20.08000 473.301
20.09000 474.428
20.10000 475.864
20.11000 477.307
20.12000 480.808
20.13000 486.839
20.14000 492.865
20.15000 487.278
20.16000 472.478
20.17000 457.888
20.18000 452.647
20.19000 452.426
20.20000 452.347
20.21000 454.753
20.22000 458.072
20.23000 461.134
20.24000 466.110
20.25000 470.996
20.26000 475.163
20.27000 475.102
20.28000 474.350
20.29000 474.023
20.30000 475.336
20.31000 476.814
20.32000 477.899
20.33000 468.660
20.34000 461.094
20.35000 459.219
20.36000 467.572
20.37000 476.133
20.38000 478.278
20.39000 472.690
20.40000 467.096
20.41000 467.714
20.42000 473.173
20.43000 478.569
20.44000 481.340
20.45000 482.725
20.46000 484.050
20.47000 484.341
20.48000 484.259
20.49000 484.183
20.50000 479.110
20.51000 473.480
20.52000 468.248
20.53000 465.313
20.54000 462.745
20.55000 461.217
20.56000 463.639
20.57000 466.445
20.58000 468.497
20.59000 462.203
20.60000 457.020
20.61000 453.731
20.62000 453.789
20.63000 453.910
20.64000 455.965
20.65000 460.308
20.66000 464.644
20.67000 465.513
20.68000 463.722
20.69000 462.092
20.70000 466.866
20.71000 474.964
20.72000 482.678
20.73000 484.032
20.74000 483.129
20.75000 482.300
20.76000 481.974
20.77000 481.792
20.78000 480.826
20.79000 475.432
20.80000 469.344
20.81000 464.456
20.82000 464.046
20.83000 464.063
20.84000 464.074
20.85000 464.282
20.86000 464.450
20.87000 465.955
20.88000 469.780
20.89000 473.646
20.90000 472.905
20.91000 466.819
20.92000 460.742
20.93000 461.927
20.94000 468.554
20.95000 474.972
20.96000 473.447
20.97000 467.870
20.98000 463.196
20.99000 473.028
21.00000 487.922
21.01000 501.573
21.02000 491.583
21.03000 477.720
21.04000 465.703
21.05000 463.919
21.06000 463.706
21.07000 464.144
21.08000 466.970
21.09000 470.018
21.10000 472.223
21.11000 479.003
21.12000 484.375
21.13000 484.398
21.14000 475.295
21.15000 466.039
21.16000 464.259
21.17000 470.989
21.18000 477.707
21.19000 476.786
21.20000 470.249
21.21000 463.929
21.22000 465.453
21.23000 470.909
21.24000 476.025
21.25000 475.810
21.26000 473.767
21.27000 471.899
21.28000 467.842
21.29000 463.785
21.30000 461.283
21.31000 467.235
21.32000 474.458
21.33000 478.570
21.34000 471.462
21.35000 463.342
21.36000 457.497
21.37000 458.312
21.38000 459.171
21.39000 462.010
21.40000 468.171
21.41000 474.384
21.42000 479.540
21.43000 483.516
21.44000 487.478
21.45000 488.267
21.46000 486.759
21.47000 485.216
21.48000 482.483
21.49000 479.162
21.50000 475.613
21.51000 468.595
21.52000 460.409
21.53000 452.940
21.54000 461.794
21.55000 472.939
21.56000 481.445
21.57000 475.888
21.58000 468.260
21.59000 462.049
21.60000 460.854
21.61000 460.101
21.62000 459.561
21.63000 465.937
21.64000 471.042
21.65000 474.862
21.66000 476.567
21.67000 478.240
21.68000 479.107
21.69000 479.089
21.70000 479.071
21.71000 481.780
21.72000 486.395
21.73000 490.766
21.74000 487.086
21.75000 479.507
21.76000 472.326
21.77000 470.999
21.78000 471.612
21.79000 472.169
21.80000 481.353
21.81000 491.185
21.82000 499.184
21.83000 497.597
21.84000 494.629
21.85000 492.768
21.86000 494.761
21.87000 497.084
21.88000 498.739
21.89000 501.629
21.90000 503.871
21.91000 506.459
21.92000 509.609
21.93000 512.766
21.94000 515.608
21.95000 518.113
21.96000 520.607
21.97000 518.488
21.98000 513.186
21.99000 507.934
22.00000 504.292
22.01000 501.416
22.02000 498.869
22.03000 501.013
22.04000 504.685
22.05000 508.020
22.06000 511.821
22.07000 515.268
22.08000 517.645
22.09000 514.537
22.10000 510.654
22.11000 507.909
22.12000 509.056
22.13000 510.528
22.14000 511.571
22.15000 503.870
22.16000 497.744
22.17000 493.769
22.18000 493.213
22.19000 492.700
22.20000 494.693
22.21000 499.322
22.22000 503.930
22.23000 502.532
22.24000 497.057
22.25000 491.721
22.26000 490.605
22.27000 491.464
22.28000 492.034
22.29000 488.599
22.30000 483.881
22.31000 479.608
22.32000 473.148
22.33000 467.039
22.34000 462.351
22.35000 464.807
22.36000 468.249
22.37000 470.089
22.38000 466.543
22.39000 462.560
22.40000 459.754
22.41000 463.210
22.42000 466.017
22.43000 465.575
22.44000 460.059
22.45000 454.483
22.46000 450.868
22.47000 449.276
22.48000 447.692
22.49000 446.862
22.50000 446.546
22.51000 446.282
22.52000 447.540
22.53000 449.498
22.54000 450.992
22.55000 446.242
22.56000 439.528
22.57000 433.461
22.58000 440.549
22.59000 449.226
22.60000 455.801
22.61000 452.003
22.62000 446.802
22.63000 442.023
22.64000 438.637
22.65000 435.360
22.66000 433.064
22.67000 449.656
22.68000 462.747
22.69000 466.855
22.70000 457.182
22.71000 447.357
22.72000 439.097
22.73000 432.418
22.74000 425.779
22.75000 431.685
22.76000 445.742
22.77000 459.331
22.78000 459.964
22.79000 454.737
22.80000 449.650
22.81000 446.373
22.82000 443.657
22.83000 441.207
22.84000 448.488
22.85000 456.647
22.86000 463.213
22.87000 462.069
22.88000 459.905
22.89000 456.839
22.90000 450.846
22.91000 444.629
22.92000 440.297
22.93000 438.071
22.94000 436.450
22.95000 435.509
22.96000 435.597
22.97000 435.694
22.98000 433.506
22.99000 429.051
23.00000 424.625
23.01000 425.048
23.02000 428.588
23.03000 432.160
23.04000 436.611
23.05000 441.452
23.06000 445.583
23.07000 440.669
23.08000 433.009
23.09000 426.121
23.10000 428.057
23.11000 431.323
23.12000 433.771
23.13000 432.330
23.14000 430.386
23.15000 430.974
23.16000 439.632
23.17000 448.892
23.18000 455.308
23.19000 450.229
23.20000 446.104
23.21000 445.196
23.22000 449.047
23.23000 452.941
23.24000 452.404
23.25000 447.562
23.26000 442.753
23.27000 443.802
23.28000 448.535
23.29000 453.143
23.30000 454.563
23.31000 454.589
23.32000 454.519
23.33000 453.257
23.34000 451.640
23.35000 450.190
23.36000 444.414
23.37000 438.611
23.38000 433.979
23.39000 434.803
23.40000 436.317
23.41000 437.827
23.42000 439.323
23.43000 440.818
23.44000 441.848
23.45000 447.099
23.46000 451.148
23.47000 454.045
23.48000 455.269
23.49000 456.477
23.50000 454.593
23.51000 449.762
23.52000 444.969
23.53000 445.251
23.54000 448.676
23.55000 452.275
23.56000 460.133
23.57000 469.820
23.58000 478.823
23.59000 479.572
23.60000 477.901
23.61000 476.406
23.62000 475.955
23.63000 475.740
23.64000 474.677
23.65000 469.734
23.66000 464.312
23.67000 461.775
23.68000 468.129
23.69000 475.108
23.70000 479.887
23.71000 484.733
23.72000 488.364
23.73000 488.835
23.74000 484.794
23.75000 480.721
23.76000 484.204
23.77000 494.744
23.78000 505.197
23.79000 506.244
23.80000 501.552
23.81000 497.230
23.82000 501.662
23.83000 509.789
23.84000 517.202
23.85000 516.222
23.86000 512.826
23.87000 509.795
23.88000 512.267
23.89000 515.337
23.90000 519.930
23.91000 531.361
23.92000 543.620
23.93000 553.130
23.94000 554.321
23.95000 554.943
23.96000 555.367
23.97000 567.944
23.98000 577.617
23.99000 578.573
24.00000 567.307
24.01000 555.960
24.02000 549.943
24.03000 548.805
24.04000 547.678
24.05000 543.220
24.06000 536.861
24.07000 530.680
24.08000 528.536
24.09000 528.069
24.10000 527.228
24.11000 522.109
24.12000 515.780
24.13000 510.148
24.14000 504.380
24.15000 499.348
24.16000 494.924
24.17000 493.185
24.18000 491.762
24.19000 490.506
24.20000 489.743
24.21000 489.013
24.22000 488.519
24.23000 481.540
24.24000 476.199
24.25000 470.015
24.26000 462.669
24.27000 455.321
24.28000 453.247
24.29000 455.911
24.30000 458.550
24.31000 461.223
24.32000 463.860
24.33000 466.366
24.34000 466.002
24.35000 464.467
24.36000 462.564
24.37000 456.575
24.38000 449.450
24.39000 443.125
24.40000 442.799
24.41000 443.476
24.42000 444.188
24.43000 445.047
24.44000 445.924
24.45000 444.182
24.46000 434.785
24.47000 424.894
24.48000 418.240
24.49000 419.119
24.50000 419.928
24.51000 421.795
24.52000 425.092
24.53000 428.396
24.54000 429.430
24.55000 428.467
24.56000 427.513
24.57000 424.906
24.58000 421.405
24.59000 418.434
24.60000 426.626
24.61000 439.298
24.62000 450.226
24.63000 442.235
24.64000 429.076
24.65000 417.428
24.66000 411.406
24.67000 407.079
24.68000 404.754
24.69000 410.942
24.70000 418.091
24.71000 423.008
24.72000 421.511
24.73000 419.615
24.74000 418.346
24.75000 419.994
24.76000 421.273
24.77000 422.312
24.78000 423.034
24.79000 423.752
24.80000 422.312
24.81000 419.007
24.82000 415.739
24.83000 415.577
24.84000 417.171
24.85000 418.425
24.86000 412.743
24.87000 404.327
24.88000 396.915
24.89000 400.125
24.90000 406.186
24.91000 411.536
24.92000 409.519
24.93000 406.650
24.94000 406.119
24.95000 415.348
24.96000 425.653
24.97000 432.233
24.98000 428.292
24.99000 423.713
25.00000 420.671
25.01000 419.744
25.02000 419.097
25.03000 419.878
25.04000 422.517
25.05000 425.152
25.06000 421.148
25.07000 411.514
25.08000 401.995
25.09000 397.333
25.10000 395.475
25.11000 393.952
25.12000 399.028
25.13000 406.662
25.14000 413.726
25.15000 414.916
25.16000 414.556
25.17000 414.239
25.18000 410.647
25.19000 407.063
25.20000 403.446
25.21000 399.698
25.22000 395.936
25.23000 394.030
25.24000 397.280
25.25000 400.833
25.26000 403.178
25.27000 402.938
25.28000 402.715
25.29000 402.399
25.30000 401.965
25.31000 401.534
25.32000 403.320
25.33000 406.948
25.34000 410.530
25.35000 410.720
25.36000 409.061
25.37000 407.171
25.38000 400.879
25.39000 392.909
25.40000 386.272
25.41000 393.044
25.42000 403.288
25.43000 412.281
25.44000 410.544
25.45000 407.478
25.46000 404.597
25.47000 402.461
25.48000 400.402
25.49000 400.456
25.50000 406.273
25.51000 412.418
25.52000 416.450
25.53000 414.046
25.54000 412.170
25.55000 407.193
25.56000 398.324
25.57000 389.462
25.58000 388.351
25.59000 393.567
25.60000 398.713
25.61000 396.370
25.62000 390.100
25.63000 384.145
25.64000 383.979
25.65000 385.982
25.66000 387.877
25.67000 388.718
25.68000 389.292
25.69000 389.793
25.70000 379.612
25.71000 369.352
25.72000 362.095
25.73000 366.716
25.74000 372.555
25.75000 376.638
25.76000 376.010
25.77000 375.123
25.78000 374.545
25.79000 381.298
25.80000 386.369
25.81000 390.640
25.82000 393.927
25.83000 397.196
25.84000 395.379
25.85000 389.487
25.86000 383.680
25.87000 386.595
25.88000 393.987
25.89000 400.894
25.90000 399.163
25.91000 394.252
25.92000 389.589
25.93000 387.300
25.94000 385.604
25.95000 384.123
25.96000 386.949
25.97000 389.969
25.98000 393.656
25.99000 399.929
26.00000 406.460
26.01000 412.023
26.02000 415.030
26.03000 417.903
26.04000 419.763
26.05000 402.327
26.06000 389.281
26.07000 382.650
26.08000 383.773
26.09000 384.918
26.10000 387.642
26.11000 391.606
26.12000 395.510
26.13000 396.000
26.14000 394.724
26.15000 393.415
26.16000 391.525
26.17000 389.426
26.18000 388.026
26.19000 393.172
26.20000 399.924
26.21000 405.800
26.22000 403.429
26.23000 400.276
26.24000 397.105
26.25000 393.872
26.26000 390.633
26.27000 387.955
26.28000 386.734
26.29000 385.587
26.30000 384.849
26.31000 382.819
26.32000 381.320
26.33000 380.833
26.34000 381.546
26.35000 382.262
26.36000 382.968
26.37000 383.667
26.38000 384.354
26.39000 383.301
26.40000 381.405
26.41000 379.556
26.42000 378.480
26.43000 377.679
26.44000 377.742
26.45000 385.706
26.46000 395.573
26.47000 404.135
26.48000 397.796
26.49000 390.400
26.50000 382.666
26.51000 373.664
26.52000 364.540
26.53000 360.063
26.54000 367.426
26.55000 375.376
26.56000 380.458
26.57000 385.399
26.58000 388.995
26.59000 393.350
26.60000 398.588
26.61000 403.792
26.62000 401.251
26.63000 392.841
26.64000 384.574
26.65000 381.427
26.66000 380.914
26.67000 380.432
26.68000 380.432
26.69000 380.600
26.70000 379.982
26.71000 372.337
26.72000 363.031
26.73000 354.980
26.74000 366.151
26.75000 378.163
26.76000 389.489
26.77000 398.291
26.78000 406.858
26.79000 411.254
26.80000 405.199
26.81000 398.643
26.82000 394.481
26.83000 379.889
26.84000 369.166
26.85000 365.681
26.86000 370.457
26.87000 375.235
26.88000 378.716
26.89000 381.230
26.90000 383.700
26.91000 383.769
26.92000 382.670
26.93000 381.557
26.94000 380.211
26.95000 378.786
26.96000 377.085
26.97000 372.986
26.98000 368.330
26.99000 364.315
27.00000 374.588
27.01000 385.129
27.02000 391.524
27.03000 382.935
27.04000 372.989
27.05000 365.704
27.06000 364.974
27.07000 364.545
27.08000 364.275
27.09000 375.680
27.10000 384.071
27.11000 388.360
27.12000 388.056
27.13000 387.738
27.14000 385.884
27.15000 382.908
27.16000 379.988
27.17000 378.624
27.18000 378.050
27.19000 377.391
27.20000 375.439
27.21000 373.049
27.22000 371.239
27.23000 374.356
27.24000 378.596
27.25000 382.242
27.26000 374.187
27.27000 365.908
27.28000 360.661
27.29000 366.183
27.30000 372.655
27.31000 377.267
27.32000 377.376
27.33000 377.284
27.34000 377.227
27.35000 382.263
27.36000 385.954
27.37000 384.185
27.38000 376.420
27.39000 368.698
27.40000 367.990
27.41000 372.309
27.42000 376.542
27.43000 377.899
27.44000 377.860
27.45000 377.379
27.46000 370.358
27.47000 361.167
27.48000 353.411
27.49000 357.599
27.50000 364.461
27.51000 370.343
27.52000 373.949
27.53000 376.716
27.54000 378.611
27.55000 377.465
27.56000 376.058
27.57000 374.628
27.58000 373.145
27.59000 371.660
27.60000 370.736
27.61000 375.184
27.62000 378.441
27.63000 379.589
27.64000 378.466
27.65000 377.365
27.66000 379.500
27.67000 383.913
27.68000 388.234
27.69000 385.681
27.70000 380.076
27.71000 374.357
27.72000 366.998
27.73000 359.104
27.74000 352.325
27.75000 354.618
27.76000 358.904
27.77000 362.566
27.78000 362.332
27.79000 361.671
27.80000 361.071
27.81000 360.682
27.82000 360.311
27.83000 361.092
27.84000 364.570
27.85000 368.159
27.86000 370.375
27.87000 373.901
27.88000 376.445
27.89000 371.527
27.90000 358.728
27.91000 346.040
27.92000 347.125
27.93000 357.734
27.94000 368.110
27.95000 377.677
27.96000 386.488
27.97000 394.205
27.98000 386.703
27.99000 374.320
28.00000 362.876
28.01000 358.907
28.02000 356.550
28.03000 354.542
28.04000 357.070
28.05000 359.723
28.06000 362.765
28.07000 367.114
28.08000 371.569
28.09000 374.478
28.10000 373.827
28.11000 373.036
28.12000 372.551
28.13000 370.627
28.14000 369.238
28.15000 371.836
28.16000 378.563
28.17000 385.219
28.18000 384.055
28.19000 377.578
28.20000 371.251
28.21000 371.799
28.22000 375.361
28.23000 378.540
28.24000 376.553
28.25000 372.939
28.26000 370.032
28.27000 372.630
28.28000 376.394
28.29000 379.588
28.30000 372.670
28.31000 365.716
28.32000 359.937
28.33000 358.046
28.34000 356.464
28.35000 356.617
28.36000 360.693
28.37000 364.920
28.38000 367.492
28.39000 362.620
28.40000 359.081
28.41000 356.703
28.42000 355.502
28.43000 354.365
28.44000 359.632
28.45000 369.173
28.46000 378.483
28.47000 378.529
28.48000 374.557
28.49000 370.966
28.50000 372.383
28.51000 375.351
28.52000 377.892
28.53000 377.178
28.54000 375.788
28.55000 374.612
28.56000 368.738
28.57000 363.299
28.58000 359.464
28.59000 360.847
28.60000 362.632
28.61000 364.612
28.62000 367.026
28.63000 369.455
28.64000 370.923
28.65000 366.795
28.66000 363.814
28.67000 360.482
28.68000 356.801
28.69000 353.138
28.70000 351.145
28.71000 350.246
28.72000 349.370
28.73000 349.795
28.74000 350.755
28.75000 351.749
28.76000 353.178
28.77000 354.740
28.78000 356.112
28.79000 356.068
28.80000 355.736
28.81000 355.456
28.82000 354.863
28.83000 354.334
28.84000 353.409
28.85000 351.219
28.86000 348.935
28.87000 349.131
28.88000 354.744
28.89000 360.548
28.90000 364.028
28.91000 362.655
28.92000 361.648
28.93000 360.268
28.94000 358.523
28.95000 356.783
28.96000 355.537
28.97000 354.608
28.98000 353.703
28.99000 354.542
29.00000 356.070
29.01000 357.806
29.02000 362.133
29.03000 367.235
29.04000 371.261
29.05000 367.454
29.06000 362.080
29.07000 357.564
29.08000 358.695
29.09000 360.235
29.10000 361.646
29.11000 362.651
29.12000 363.626
29.13000 365.103
29.14000 367.659
29.15000 370.251
29.16000 371.794
29.17000 368.607
29.18000 366.320
29.19000 363.421
29.20000 359.936
29.21000 356.457
29.22000 353.421
29.23000 350.665
29.24000 347.984
29.25000 352.868
29.26000 360.613
29.27000 367.796
29.28000 368.181
29.29000 366.569
29.30000 364.916
29.31000 362.972
29.32000 360.970
29.33000 359.293
29.34000 355.499
29.35000 352.127
29.36000 350.779
29.37000 355.685
29.38000 361.033
29.39000 363.659
29.40000 360.539
29.41000 357.235
29.42000 355.283
29.43000 345.968
29.44000 339.349
29.45000 337.524
29.46000 340.189
29.47000 342.872
29.48000 346.840
29.49000 351.607
29.50000 356.237
29.51000 360.683
29.52000 364.831
29.53000 368.323
29.54000 364.092
29.55000 357.632
29.56000 352.334
29.57000 355.146
29.58000 359.520
29.59000 363.171
29.60000 359.742
29.61000 356.184
29.62000 354.604
29.63000 359.025
29.64000 363.858
29.65000 366.249
29.66000 363.572
29.67000 360.739
29.68000 359.079
29.69000 362.470
29.70000 364.883
29.71000 364.721
29.72000 362.195
29.73000 359.729
29.74000 361.357
29.75000 365.484
29.76000 369.487
29.77000 376.056
29.78000 383.294
29.79000 389.760
29.80000 387.357
29.81000 382.437
29.82000 378.735
29.83000 383.346
29.84000 389.527
29.85000 394.668
29.86000 388.844
29.87000 382.946
29.88000 379.775
29.89000 384.735
29.90000 390.237
29.91000 392.879
29.92000 389.687
29.93000 386.323
29.94000 384.368
29.95000 374.672
29.96000 367.834
29.97000 368.240
29.98000 375.171
29.99000 381.989
30.00000 381.475
30.01000 376.565
30.02000 371.808
30.03000 377.210
30.04000 386.254
30.05000 394.721
30.06000 396.741
30.07000 396.963
30.08000 396.035
30.09000 387.406
30.10000 377.351
30.11000 369.017
30.12000 361.771
30.13000 355.892
30.14000 353.930
30.15000 363.451
30.16000 373.716
30.17000 381.490
30.18000 384.272
30.19000 386.914
30.20000 388.438
30.21000 373.871
30.22000 363.612
30.23000 358.965
30.24000 359.277
30.25000 359.672
30.26000 365.058
30.27000 373.385
30.28000 381.442
30.29000 380.390
30.30000 375.935
30.31000 371.517
30.32000 367.496
30.33000 363.583
30.34000 360.396
30.35000 361.956
30.36000 364.379
30.37000 366.380
30.38000 369.531
30.39000 372.235
30.40000 372.951
30.41000 367.940
30.42000 362.569
30.43000 359.326
30.44000 360.275
30.45000 361.336
30.46000 361.944
30.47000 364.787
30.48000 366.779
30.49000 368.634
30.50000 370.369
30.51000 372.028
30.52000 369.407
30.53000 364.308
30.54000 359.381
30.55000 360.886
30.56000 364.703
30.57000 367.690
30.58000 361.863
30.59000 353.664
30.60000 347.474
30.61000 354.181
30.62000 363.182
30.63000 370.590
30.64000 370.933
30.65000 370.573
30.66000 371.671
30.67000 376.901
30.68000 382.382
30.69000 386.577
30.70000 388.280
30.71000 389.919
30.72000 390.850
30.73000 380.132
30.74000 372.641
30.75000 369.039
30.76000 368.742
30.77000 368.630
30.78000 378.437
30.79000 393.887
30.80000 408.793
30.81000 407.167
30.82000 399.589
30.83000 393.246
30.84000 399.698
30.85000 409.532
30.86000 417.277
30.87000 411.895
30.88000 404.223
30.89000 397.933
30.90000 419.587
30.91000 439.829
30.92000 453.917
30.93000 450.878
30.94000 446.830
30.95000 445.635
30.96000 449.874
30.97000 454.243
30.98000 456.703
30.99000 471.477
31.00000 481.758
31.01000 488.294
31.02000 491.705
31.03000 495.178
31.04000 501.768
31.05000 510.100
31.06000 518.128
31.07000 531.173
31.08000 545.230
31.09000 559.544
31.10000 576.460
31.11000 594.052
31.12000 612.264
31.13000 634.295
31.14000 656.980
31.15000 675.511
31.16000 707.442
31.17000 734.735
31.18000 757.991
31.19000 770.205
31.20000 781.788
31.21000 799.624
31.22000 829.159
31.23000 858.961
31.24000 875.591
31.25000 899.577
31.26000 916.203
31.27000 936.517
31.28000 959.850
31.29000 983.033
31.30000 999.076
31.31000 1011.195
31.32000 1022.856
31.33000 1036.729
31.34000 1050.518
31.35000 1063.200
31.36000 1064.975
31.37000 1063.970
31.38000 1062.526
31.39000 1058.434
31.40000 1053.899
31.41000 1050.207
31.42000 1027.140
31.43000 1006.673
31.44000 988.815
31.45000 977.976
31.46000 967.524
31.47000 953.338
31.48000 932.286
31.49000 911.085
31.50000 899.355
31.51000 861.238
31.52000 834.885
31.53000 808.522
31.54000 782.151
31.55000 755.828
31.56000 731.692
31.57000 708.737
31.58000 686.683
31.59000 657.615
31.60000 627.979
31.61000 599.825
31.62000 585.919
31.63000 575.583
31.64000 564.530
31.65000 549.242
31.66000 533.259
31.67000 520.301
31.68000 502.689
31.69000 487.958
31.70000 476.257
31.71000 472.568
31.72000 469.307
31.73000 462.408
31.74000 448.938
31.75000 435.334
31.76000 427.872
31.77000 439.365
31.78000 447.243
31.79000 438.247
31.80000 415.947
31.81000 394.118
31.82000 392.416
31.83000 401.396
31.84000 410.011
31.85000 413.258
31.86000 414.474
31.87000 414.386
31.88000 402.073
31.89000 386.753
31.90000 374.134
31.91000 377.174
31.92000 382.735
31.93000 387.226
31.94000 380.500
31.95000 374.138
31.96000 370.926
31.97000 375.901
31.98000 381.299
31.99000 384.527
32.00000 383.901
32.01000 383.202
32.02000 382.821
32.03000 364.678
32.04000 352.248
32.05000 349.071
32.06000 353.054
32.07000 356.993
32.08000 359.149
32.09000 360.375
32.10000 361.549
32.11000 366.541
32.12000 372.465
32.13000 377.218
32.14000 371.233
32.15000 362.653
32.16000 355.555
32.17000 356.876
32.18000 359.525
32.19000 361.656
32.20000 358.145
32.21000 354.860
32.22000 351.935
32.23000 349.928
32.24000 347.968
32.25000 347.544
32.26000 349.802
32.27000 352.109
32.28000 353.352
32.29000 353.836
32.30000 354.145
32.31000 349.794
32.32000 341.904
32.33000 334.249
32.34000 335.672
32.35000 341.750
32.36000 347.563
32.37000 347.565
32.38000 345.672
32.39000 343.977
32.40000 344.066
32.41000 344.577
32.42000 344.176
32.43000 338.694
32.44000 332.426
32.45000 327.404
32.46000 318.841
32.47000 311.644
32.48000 307.885
32.49000 312.757
32.50000 318.044
32.51000 322.840
32.52000 326.794
32.53000 330.733
32.54000 332.837
32.55000 329.379
32.56000 327.026
32.57000 326.290
32.58000 326.761
32.59000 327.253
32.60000 328.562
32.61000 330.282
32.62000 331.924
32.63000 326.299
32.64000 318.747
32.65000 312.248
32.66000 314.966
32.67000 319.829
32.68000 323.897
32.69000 323.622
32.70000 322.690
32.71000 321.946
32.72000 315.969
32.73000 310.759
32.74000 310.406
32.75000 322.040
32.76000 334.232
32.77000 341.751
32.78000 341.398
32.79000 340.918
32.80000 340.664
32.81000 323.266
32.82000 311.502
32.83000 311.202
32.84000 319.297
32.85000 327.168
32.86000 327.207
32.87000 323.366
32.88000 319.705
32.89000 320.134
32.90000 321.816
32.91000 323.783
32.92000 328.188
32.93000 333.150
32.94000 337.064
32.95000 335.359
32.96000 332.821
32.97000 330.804
32.98000 324.146
32.99000 318.452
33.00000 314.255
33.01000 313.689
33.02000 313.285
33.03000 311.389
33.04000 307.021
33.05000 302.617
33.06000 300.308
33.07000 301.335
33.08000 302.055
33.09000 306.188
33.10000 312.775
33.11000 319.171
33.12000 319.210
33.13000 316.154
33.14000 313.245
33.15000 310.148
33.16000 307.223
33.17000 304.206
33.18000 300.417
33.19000 296.454
33.20000 293.435
33.21000 295.375
33.22000 298.035
33.23000 300.140
33.24000 306.277
33.25000 311.489
33.26000 313.258
33.27000 306.811
33.28000 300.009
33.29000 296.619
33.30000 298.777
33.31000 301.012
33.32000 302.173
33.33000 293.750
33.34000 288.113
33.35000 289.891
33.36000 296.901
33.37000 303.592
33.38000 300.090
33.39000 291.710
33.40000 283.747
33.41000 286.993
33.42000 293.380
33.43000 299.533
33.44000 303.767
33.45000 307.578
33.46000 310.376
33.47000 307.950
33.48000 304.781
33.49000 302.283
33.50000 292.950
33.51000 285.006
33.52000 281.411
33.53000 288.016
33.54000 295.045
33.55000 298.492
33.56000 296.216
33.57000 293.866
33.58000 292.657
33.59000 288.602
33.60000 285.897
33.61000 286.301
33.62000 288.861
33.63000 291.298
33.64000 290.005
33.65000 286.958
33.66000 284.067
33.67000 290.142
33.68000 298.404
33.69000 305.555
33.70000 303.851
33.71000 300.232
33.72000 297.243
33.73000 297.438
33.74000 298.075
33.75000 298.575
33.76000 299.726
33.77000 300.690
33.78000 301.364
33.79000 301.373
33.80000 301.355
33.81000 303.766
33.82000 309.991
33.83000 316.262
33.84000 319.456
33.85000 323.662
33.86000 326.447
33.87000 325.111
33.88000 320.969
33.89000 316.988
33.90000 317.729
33.91000 320.652
33.92000 323.420
33.93000 323.873
33.94000 323.617
33.95000 323.231
33.96000 321.824
33.97000 320.202
33.98000 319.349
33.99000 322.314
34.00000 325.799
34.01000 328.523
34.02000 322.055
34.03000 316.309
34.04000 314.061
34.05000 319.741
34.06000 325.724
34.07000 328.729
34.08000 327.141
34.09000 325.502
34.10000 324.675
34.11000 326.905
34.12000 328.380
34.13000 328.125
34.14000 326.714
34.15000 325.494
34.16000 329.614
34.17000 336.161
34.18000 342.351
34.19000 343.070
34.20000 342.170
34.21000 341.386
34.22000 341.489
34.23000 341.777
34.24000 341.692
34.25000 339.795
34.26000 337.656
34.27000 335.991
34.28000 348.671
34.29000 359.652
34.30000 364.701
34.31000 356.538
34.32000 347.888
34.33000 343.236
34.34000 344.641
34.35000 346.107
34.36000 347.910
34.37000 350.047
34.38000 352.111
34.39000 347.214
34.40000 337.744
34.41000 328.514
34.42000 325.716
34.43000 325.794
34.44000 325.867
34.45000 326.271
34.46000 326.735
34.47000 327.163
34.48000 327.323
34.49000 327.429
34.50000 327.273
34.51000 325.863
34.52000 324.291
34.53000 323.072
34.54000 323.424
34.55000 323.798
34.56000 322.865
34.57000 319.071
34.58000 315.175
34.59000 312.049
34.60000 310.068
34.61000 308.097
34.62000 309.578
34.63000 314.434
34.64000 319.198
34.65000 315.972
34.66000 307.591
34.67000 299.260
34.68000 292.224
34.69000 285.756
34.70000 279.663
34.71000 286.322
34.72000 295.914
34.73000 303.915
34.74000 300.298
34.75000 294.350
34.76000 289.261
34.77000 288.198
34.78000 287.649
34.79000 287.224
34.80000 294.599
34.81000 300.896
34.82000 302.478
34.83000 293.906
34.84000 284.991
34.85000 281.228
34.86000 284.997
34.87000 288.830
34.88000 287.498
34.89000 281.219
34.90000 274.971
34.91000 271.298
34.92000 269.257
34.93000 267.476
34.94000 272.136
34.95000 279.578
34.96000 286.575
34.97000 285.740
34.98000 282.868
34.99000 279.797
35.00000 275.297
35.01000 270.515
35.02000 267.213
35.03000 270.722
35.04000 275.079
35.05000 278.427
35.06000 282.929
35.07000 286.554
35.08000 287.876
35.09000 284.325
35.10000 280.616
35.11000 280.323
35.12000 284.932
35.13000 289.580
35.14000 286.880
35.15000 277.283
35.16000 267.775
35.17000 265.056
35.18000 266.564
35.19000 267.987
35.20000 267.360
35.21000 265.864
35.22000 264.461
35.23000 265.232
35.24000 266.509
35.25000 268.264
35.26000 273.361
35.27000 279.103
35.28000 283.382
35.29000 281.053
35.30000 277.919
35.31000 275.523
35.32000 273.353
35.33000 271.653
35.34000 270.053
35.35000 268.661
35.36000 267.275
35.37000 267.085
35.38000 268.579
35.39000 270.085
35.40000 268.930
35.41000 265.327
35.42000 261.835
35.43000 266.164
35.44000 275.280
35.45000 283.786
35.46000 278.306
35.47000 266.989
35.48000 256.388
35.49000 259.605
35.50000 266.106
35.51000 271.834
35.52000 272.260
35.53000 271.683
35.54000 270.635
35.55000 267.504
35.56000 264.125
35.57000 261.553
35.58000 263.370
35.59000 265.032
35.60000 264.986
35.61000 261.449
35.62000 257.809
35.63000 256.474
35.64000 258.332
35.65000 260.209
35.66000 262.676
35.67000 265.674
35.68000 268.604
35.69000 267.055
35.70000 262.815
35.71000 258.598
35.72000 254.913
35.73000 251.445
35.74000 248.204
35.75000 251.751
35.76000 256.694
35.77000 261.270
35.78000 263.377
35.79000 265.025
35.80000 265.858
35.81000 263.141
35.82000 260.011
35.83000 257.639
35.84000 260.899
35.85000 263.746
35.86000 267.045
35.87000 271.251
35.88000 275.483
35.89000 274.527
35.90000 266.520
35.91000 258.477
35.92000 254.858
35.93000 255.158
35.94000 255.481
35.95000 257.205
35.96000 259.756
35.97000 262.120
35.98000 260.471
35.99000 257.204
36.00000 254.157
36.01000 261.667
36.02000 271.098
36.03000 278.161
36.04000 269.658
36.05000 258.322
36.06000 249.470
36.07000 251.239
36.08000 254.215
36.09000 256.459
36.10000 259.956
36.11000 262.756
36.12000 264.966
36.13000 266.008
36.14000 267.020
36.15000 267.662
36.16000 267.811
36.17000 267.958
36.18000 264.976
36.19000 259.284
36.20000 253.681
36.21000 253.138
36.22000 255.531
36.23000 258.001
36.24000 262.037
36.25000 266.695
36.26000 271.032
36.27000 266.813
36.28000 260.911
36.29000 256.383
36.30000 260.702
36.31000 266.599
36.32000 270.921
36.33000 268.628
36.34000 265.601
36.35000 263.328
36.36000 255.554
36.37000 249.217
36.38000 246.121
36.39000 249.320
36.40000 252.680
36.41000 254.026
36.42000 252.734
36.43000 251.431
36.44000 254.951
36.45000 262.567
36.46000 270.030
36.47000 269.226
36.48000 263.707
36.49000 258.451
36.50000 258.407
36.51000 260.395
36.52000 262.241
36.53000 259.361
36.54000 255.631
36.55000 252.496
36.56000 253.113
36.57000 254.387
36.58000 255.189
36.59000 254.043
36.60000 252.686
36.61000 251.672
36.62000 248.036
36.63000 245.079
36.64000 243.351
36.65000 243.964
36.66000 244.635
36.67000 248.116
36.68000 255.210
36.69000 262.311
36.70000 267.209
36.71000 270.256
36.72000 273.183
36.73000 269.963
36.74000 263.298
36.75000 256.854
36.76000 254.673
36.77000 254.124
36.78000 253.614
36.79000 255.300
36.80000 257.333
36.81000 259.773
36.82000 264.725
36.83000 270.108
36.84000 274.389
36.85000 274.206
36.86000 273.550
36.87000 273.062
36.88000 275.503
36.89000 277.532
36.90000 277.540
36.91000 273.758
36.92000 269.889
36.93000 269.149
36.94000 272.360
36.95000 275.579
36.96000 276.856
36.97000 276.540
36.98000 276.204
36.99000 274.898
37.00000 273.059
37.01000 271.157
37.02000 268.100
37.03000 264.608
37.04000 261.376
37.05000 266.298
37.06000 272.595
37.07000 277.009
37.08000 270.021
37.09000 261.116
37.10000 254.409
37.11000 256.437
37.12000 259.368
37.13000 261.537
37.14000 255.134
37.15000 249.798
37.16000 247.371
37.17000 250.306
37.18000 253.358
37.19000 256.862
37.20000 260.925
37.21000 264.983
37.22000 266.101
37.23000 264.856
37.24000 263.635
37.25000 263.547
37.26000 264.071
37.27000 264.354
37.28000 260.305
37.29000 254.652
37.30000 249.431
37.31000 249.580
37.32000 250.922
37.33000 252.124
37.34000 252.492
37.35000 252.721
37.36000 253.258
37.37000 254.995
37.38000 256.853
37.39000 258.221
37.40000 255.232
37.41000 252.737
37.42000 251.255
37.43000 251.610
37.44000 252.003
37.45000 253.260
37.46000 255.569
37.47000 257.876
37.48000 256.408
37.49000 251.976
37.50000 247.625
37.51000 246.732
37.52000 247.678
37.53000 248.529
37.54000 247.709
37.55000 246.282
37.56000 244.967
37.57000 250.666
37.58000 257.314
37.59000 262.016
37.60000 255.395
37.61000 246.946
37.62000 241.402
37.63000 246.997
37.64000 253.689
37.65000 258.591
37.66000 252.647
37.67000 247.623
37.68000 243.800
37.69000 242.116
37.70000 240.473
37.71000 243.058
37.72000 250.686
37.73000 258.308
37.74000 262.929
37.75000 265.210
37.76000 267.354
37.77000 263.891
37.78000 257.496
37.79000 251.713
37.80000 256.237
37.81000 264.448
37.82000 271.997
37.83000 268.518
37.84000 263.025
37.85000 257.995
37.86000 255.608
37.87000 253.639
37.88000 252.223
37.89000 252.890
37.90000 253.756
37.91000 254.388
37.92000 250.149
37.93000 246.696
37.94000 245.621
37.95000 248.709
37.96000 251.873
37.97000 251.853
37.98000 248.107
37.99000 244.364
38.00000 240.280
38.01000 235.963
38.02000 231.912
38.03000 238.200
38.04000 249.801
38.05000 260.767
38.06000 261.352
38.07000 258.289
38.08000 255.479
38.09000 256.349
38.10000 257.904
38.11000 259.182
38.12000 258.911
38.13000 258.401
38.14000 258.564
38.15000 261.219
38.16000 264.106
38.17000 266.201
38.18000 264.691
38.19000 263.397
38.20000 263.472
38.21000 265.900
38.22000 268.369
38.23000 268.440
38.24000 265.760
38.25000 263.084
38.26000 266.759
38.27000 275.121
38.28000 283.286
38.29000 284.153
38.30000 281.333
38.31000 279.217
38.32000 288.219
38.33000 301.062
38.34000 312.819
38.35000 311.269
38.36000 307.126
38.37000 305.533
38.38000 317.910
38.39000 332.407
38.40000 345.249
38.41000 352.075
38.42000 358.353
38.43000 362.883
38.44000 382.953
38.45000 398.893
38.46000 415.142
38.47000 431.910
38.48000 448.687
38.49000 464.766
38.50000 480.058
38.51000 495.299
38.52000 518.842
38.53000 548.241
38.54000 577.489
38.55000 601.437
38.56000 622.754
38.57000 643.974
38.58000 663.715
38.59000 682.953
38.60000 700.524
38.61000 723.900
38.62000 745.833
38.63000 765.917
38.64000 776.060
38.65000 784.725
38.66000 794.531
38.67000 808.408
38.68000 822.647
38.69000 832.867
38.70000 833.379
38.71000 833.437
38.72000 831.861
38.73000 827.572
38.74000 823.243
38.75000 809.834
38.76000 786.398
38.77000 763.043
38.78000 743.057
38.79000 725.659
38.80000 708.159
38.81000 687.243
38.82000 664.660
38.83000 642.350
38.84000 624.091
38.85000 607.184
38.86000 591.779
38.87000 567.453
38.88000 544.123
38.89000 520.375
38.90000 494.418
38.91000 468.141
38.92000 443.211
38.93000 423.010
38.94000 403.219
38.95000 389.089
38.96000 376.888
38.97000 367.644
38.98000 357.529
38.99000 345.996
39.00000 334.442
39.01000 323.268
39.02000 312.504
39.03000 301.785
39.04000 295.729
39.05000 293.001
39.06000 290.290
39.07000 288.122
39.08000 286.215
39.09000 283.855
39.10000 274.962
39.11000 263.926
39.12000 253.893
39.13000 259.376
39.14000 267.254
39.15000 272.622
39.16000 265.015
39.17000 255.559
39.18000 248.425
39.19000 249.292
39.20000 250.833
39.21000 251.927
39.22000 253.259
39.23000 254.280
39.24000 251.397
39.25000 242.260
39.26000 233.040
39.27000 231.964
39.28000 239.537
39.29000 247.077
39.30000 252.669
39.31000 256.861
39.32000 260.747
39.33000 255.219
39.34000 245.253
39.35000 235.969
39.36000 236.258
39.37000 239.633
39.38000 242.693
39.39000 247.864
39.40000 252.830
39.41000 256.144
39.42000 251.084
39.43000 244.856
39.44000 240.062
39.45000 240.124
39.46000 240.585
39.47000 240.910
39.48000 239.883
39.49000 239.063
39.50000 239.947
39.51000 243.515
39.52000 247.115
39.53000 247.578
39.54000 244.773
39.55000 241.982
39.56000 237.824
39.57000 232.795
39.58000 228.042
39.59000 231.401
39.60000 238.522
39.61000 245.285
39.62000 247.186
39.63000 247.546
39.64000 247.872
39.65000 245.473
39.66000 242.851
39.67000 240.263
39.68000 237.853
39.69000 235.467
39.70000 234.231
39.71000 236.825
39.72000 239.724
39.73000 241.760
39.74000 239.204
39.75000 237.134
39.76000 235.896
39.77000 235.945
39.78000 236.009
39.79000 233.074
39.80000 227.080
39.81000 221.120
39.82000 220.821
39.83000 224.271
39.84000 227.673
39.85000 229.696
39.86000 231.091
39.87000 232.526
39.88000 234.491
39.89000 236.620
39.90000 238.542
39.91000 237.333
39.92000 235.697
39.93000 234.334
39.94000 234.301
39.95000 234.445
39.96000 234.812
39.97000 235.906
39.98000 237.057
39.99000 237.861
40.00000 235.791
40.01000 234.147
40.02000 231.321
40.03000 226.702
40.04000 222.064
40.05000 222.754
40.06000 228.772
40.07000 234.753
40.08000 233.909
40.09000 228.647
40.10000 223.614
40.11000 224.811
40.12000 228.797
40.13000 232.331
40.14000 230.030
40.15000 225.945
40.16000 222.266
40.17000 226.988
40.18000 232.637
40.19000 236.376
40.20000 230.964
40.21000 224.356
40.22000 220.796
40.23000 227.030
40.24000 234.003
40.25000 238.846
40.26000 236.378
40.27000 234.322
40.28000 231.428
40.29000 227.283
40.30000 223.125
40.31000 220.038
40.32000 217.998
40.33000 215.973
40.34000 222.642
40.35000 234.747
40.36000 246.365
40.37000 245.327
40.38000 238.718
40.39000 232.269
40.40000 227.824
40.41000 223.982
40.42000 220.532
40.43000 217.610
40.44000 215.147
40.45000 212.740
40.46000 210.593
40.47000 208.479
40.48000 207.556
40.49000 210.393
40.50000 213.506
40.51000 215.656
40.52000 216.842
40.53000 217.709
40.54000 218.447
40.55000 218.998
40.56000 219.547
40.57000 221.195
40.58000 223.901
40.59000 226.587
40.60000 225.980
40.61000 223.324
40.62000 220.623
40.63000 216.772
40.64000 212.424
40.65000 208.641
40.66000 211.744
40.67000 216.882
40.68000 221.484
40.69000 223.318
40.70000 224.444
40.71000 225.495
40.72000 226.202
40.73000 226.866
40.74000 226.831
40.75000 224.627
40.76000 222.268
40.77000 220.649
40.78000 216.142
40.79000 212.693
40.80000 211.265
40.81000 212.747
40.82000 214.251
40.83000 215.686
40.84000 217.055
40.85000 218.412
40.86000 216.103
40.87000 211.585
40.88000 207.311
40.89000 208.882
40.90000 212.940
40.91000 216.771
40.92000 217.906
40.93000 218.257
40.94000 218.571
40.95000 217.949
40.96000 217.249
40.97000 216.391
40.98000 214.817
40.99000 213.155
41.00000 212.526
41.01000 215.048
41.02000 217.789
41.03000 219.660
41.04000 217.490
41.05000 215.773
41.06000 213.012
41.07000 208.774
41.08000 204.527
41.09000 204.208
41.10000 207.516
41.11000 210.796
41.12000 213.294
41.13000 215.274
41.14000 217.142
41.15000 216.420
41.16000 214.614
41.17000 212.890
41.18000 212.111
41.19000 211.603
41.20000 211.149
41.21000 213.772
41.22000 216.560
41.23000 218.654
41.24000 217.663
41.25000 216.304
41.26000 214.908
41.27000 213.399
41.28000 211.883
41.29000 210.855
41.30000 212.939
41.31000 214.563
41.32000 214.758
41.33000 212.968
41.34000 211.165
41.35000 208.824
41.36000 205.997
41.37000 203.195
41.38000 203.950
41.39000 206.790
41.40000 209.728
41.41000 214.858
41.42000 220.890
41.43000 226.049
41.44000 221.368
41.45000 213.930
41.46000 207.320
41.47000 210.014
41.48000 213.855
41.49000 217.146
41.50000 218.045
41.51000 218.663
41.52000 218.022
41.53000 213.668
41.54000 209.072
41.55000 205.972
41.56000 206.749
41.57000 207.408
41.58000 206.805
41.59000 204.483
41.60000 202.151
41.61000 200.880
41.62000 200.551
41.63000 200.225
41.64000 204.140
41.65000 210.430
41.66000 216.403
41.67000 215.603
41.68000 212.064
41.69000 208.813
41.70000 208.726
41.71000 209.511
41.72000 210.206
41.73000 209.801
41.74000 209.276
41.75000 209.608
41.76000 213.611
41.77000 218.032
41.78000 220.864
41.79000 219.095
41.80000 217.036
41.81000 215.655
41.82000 214.784
41.83000 214.148
41.84000 215.250
41.85000 218.675
41.86000 222.112
41.87000 224.329
41.88000 225.484
41.89000 226.627
41.90000 225.238
41.91000 222.440
41.92000 219.706
41.93000 218.293
41.94000 217.406
41.95000 216.434
41.96000 214.559
41.97000 212.439
41.98000 210.566
41.99000 212.193
42.00000 214.139
42.01000 215.270
42.02000 212.973
42.03000 210.293
42.04000 209.579
42.05000 214.461
42.06000 219.686
42.07000 223.167
42.08000 223.552
42.09000 223.778
42.10000 224.878
42.11000 227.124
42.12000 229.372
42.13000 229.396
42.14000 227.519
42.15000 225.664
42.16000 224.740
42.17000 224.359
42.18000 223.965
42.19000 223.290
42.20000 222.506
42.21000 221.881
42.22000 222.914
42.23000 224.388
42.24000 225.688
42.25000 224.332
42.26000 222.762
42.27000 221.548
42.28000 221.805
42.29000 222.222
42.30000 223.343
42.31000 226.437
42.32000 229.649
42.33000 231.775
42.34000 228.042
42.35000 225.179
42.36000 221.847
42.37000 217.909
42.38000 213.972
42.39000 212.302
42.40000 212.533
42.41000 212.762
42.42000 211.925
42.43000 210.526
42.44000 209.245
42.45000 210.241
42.46000 212.112
42.47000 214.010
42.48000 216.185
42.49000 218.432
42.50000 220.408
42.51000 221.936
42.52000 223.184
42.53000 224.323
42.54000 225.017
42.55000 225.664
42.56000 225.555
42.57000 223.372
42.58000 221.068
42.59000 219.553
42.60000 217.058
42.61000 215.205
42.62000 214.630
42.63000 215.675
42.64000 216.721
42.65000 215.525
42.66000 212.484
42.67000 209.483
42.68000 210.086
42.69000 212.608
42.70000 215.100
42.71000 217.032
42.72000 218.752
42.73000 220.137
42.74000 218.189
42.75000 215.386
42.76000 212.930
42.77000 209.090
42.78000 205.595
42.79000 202.770
42.80000 202.616
42.81000 202.738
42.82000 203.281
42.83000 204.960
42.84000 206.703
42.85000 207.843
42.86000 212.258
42.87000 215.553
42.88000 217.548
42.89000 217.925
42.90000 218.295
42.91000 217.703
42.92000 216.335
42.93000 214.986
42.94000 212.253
42.95000 208.867
42.96000 205.672
42.97000 205.933
42.98000 207.477
42.99000 209.008
43.00000 210.418
43.01000 211.797
43.02000 213.003
43.03000 211.091
43.04000 209.011
43.05000 207.409
43.06000 207.670
43.07000 208.121
43.08000 208.127
43.09000 206.949
43.10000 205.709
43.11000 204.903
43.12000 203.260
43.13000 202.043
43.14000 201.002
43.15000 200.175
43.16000 199.358
43.17000 201.780
43.18000 206.768
43.19000 211.682
43.20000 213.091
43.21000 212.643
43.22000 212.260
43.23000 212.996
43.24000 214.141
43.25000 214.623
43.26000 208.839
43.27000 201.506
43.28000 195.116
43.29000 199.040
43.30000 203.820
43.31000 207.436
43.32000 206.577
43.33000 205.276
43.34000 204.629
43.35000 205.690
43.36000 206.840
43.37000 207.582
43.38000 203.219
43.39000 199.959
43.40000 197.146
43.41000 194.868
43.42000 192.596
43.43000 191.268
43.44000 190.675
43.45000 190.091
43.46000 188.838
43.47000 187.283
43.48000 186.039
43.49000 190.035
43.50000 195.911
43.51000 201.187
43.52000 200.925
43.53000 199.317
43.54000 197.921
43.55000 197.363
43.56000 197.000
43.57000 196.286
43.58000 194.241
43.59000 192.069
43.60000 190.954
43.61000 192.554
43.62000 194.290
43.63000 195.403
43.64000 197.274
43.65000 198.648
43.66000 197.650
43.67000 193.870
43.68000 190.091
43.69000 187.695
43.70000 186.356
43.71000 185.039
43.72000 185.577
43.73000 187.022
43.74000 188.547
43.75000 191.386
43.76000 194.689
43.77000 197.603
43.78000 197.020
43.79000 195.603
43.80000 194.375
43.81000 197.469
43.82000 200.674
43.83000 203.204
43.84000 203.236
43.85000 203.033
43.86000 202.154
43.87000 199.570
43.88000 196.904
43.89000 195.205
43.90000 196.657
43.91000 197.751
43.92000 197.987
43.93000 197.235
43.94000 196.489
43.95000 197.345
43.96000 199.402
43.97000 201.424
43.98000 201.855
43.99000 201.494
44.00000 201.113
44.01000 200.410
44.02000 199.594
44.03000 198.631
44.04000 196.373
44.05000 193.812
44.06000 191.601
44.07000 192.117
44.08000 192.908
44.09000 193.881
44.10000 195.517
44.11000 197.213
44.12000 197.861
44.13000 195.909
44.14000 193.835
44.15000 192.523
44.16000 191.582
44.17000 190.905
44.18000 193.264
44.19000 199.054
44.20000 204.814
44.21000 204.987
44.22000 201.046
44.23000 197.178
44.24000 194.508
44.25000 192.508
44.26000 190.868
44.27000 194.789
44.28000 200.602
44.29000 205.421
44.30000 201.689
44.31000 195.992
44.32000 191.088
44.33000 197.643
44.34000 204.643
44.35000 209.564
44.36000 207.042
44.37000 203.856
44.38000 202.153
44.39000 204.069
44.40000 206.149
44.41000 207.455
44.42000 211.350
44.43000 214.194
44.44000 212.953
44.45000 207.186
44.46000 201.451
44.47000 201.237
44.48000 205.013
44.49000 208.716
44.50000 209.377
44.51000 208.580
44.52000 208.001
44.53000 210.662
44.54000 214.407
44.55000 218.255
44.56000 222.976
44.57000 227.894
44.58000 232.115
44.59000 225.779
44.60000 219.122
44.61000 214.388
44.62000 216.416
44.63000 219.032
44.64000 223.775
44.65000 233.616
44.66000 243.680
44.67000 249.957
44.68000 241.241
44.69000 234.801
44.70000 231.759
44.71000 232.408
44.72000 233.039
44.73000 230.786
44.74000 226.488
44.75000 222.278
44.76000 221.861
44.77000 223.214
44.78000 224.528
44.79000 225.281
44.80000 225.849
44.81000 226.513
44.82000 227.961
44.83000 229.583
44.84000 230.971
44.85000 233.903
44.86000 236.561
44.87000 238.621
44.88000 238.610
44.89000 238.425
44.90000 237.767
44.91000 235.996
44.92000 234.177
44.93000 233.051
44.94000 229.365
44.95000 226.690
44.96000 226.142
44.97000 227.861
44.98000 229.562
44.99000 228.981
45.00000 226.808
45.01000 224.683
45.02000 227.113
45.03000 231.512
45.04000 235.554
45.05000 234.552
45.06000 231.920
45.07000 229.634
45.08000 230.122
45.09000 231.213
45.10000 232.144
45.11000 231.876
45.12000 231.510
45.13000 230.794
45.14000 228.892
45.15000 226.893
45.16000 225.763
45.17000 226.649
45.18000 227.616
45.19000 228.211
45.20000 229.982
45.21000 231.262
45.22000 229.841
45.23000 225.599
45.24000 221.373
45.25000 218.928
45.26000 217.703
45.27000 216.506
45.28000 216.655
45.29000 217.397
45.30000 218.157
45.31000 219.164
45.32000 220.249
45.33000 221.383
45.34000 222.892
45.35000 224.482
45.36000 225.833
45.37000 231.149
45.38000 236.068
45.39000 238.308
45.40000 231.606
45.41000 224.188
45.42000 218.760
45.43000 217.865
45.44000 217.147
45.45000 216.708
45.46000 217.844
45.47000 218.668
45.48000 215.967
45.49000 209.656
45.50000 203.394
45.51000 202.441
45.52000 205.055
45.53000 207.607
45.54000 202.949
45.55000 195.343
45.56000 188.129
45.57000 186.149
45.58000 185.803
45.59000 186.708
45.60000 197.225
45.61000 209.755
45.62000 220.373
45.63000 207.151
45.64000 193.398
45.65000 183.844
45.66000 188.056
45.67000 193.342
45.68000 196.298
45.69000 194.036
45.70000 191.580
45.71000 190.091
45.72000 184.779
45.73000 180.962
45.74000 181.133
45.75000 185.306
45.76000 189.449
45.77000 190.694
45.78000 190.026
45.79000 189.375
45.80000 188.097
45.81000 186.609
45.82000 185.310
45.83000 186.457
45.84000 188.353
45.85000 190.355
45.86000 193.153
45.87000 196.114
45.88000 198.615
45.89000 193.054
45.90000 187.523
45.91000 182.937
45.92000 181.399
45.93000 180.092
45.94000 179.543
45.95000 180.661
45.96000 181.839
45.97000 182.548
45.98000 174.161
45.99000 168.134
46.00000 168.191
46.01000 174.230
46.02000 180.241
46.03000 183.687
46.04000 185.469
46.05000 187.206
46.06000 187.865
46.07000 188.041
46.08000 188.099
46.09000 186.669
46.10000 184.790
46.11000 182.797
46.12000 179.955
46.13000 176.942
46.14000 174.406
46.15000 180.047
46.16000 185.628
46.17000 189.434
46.18000 187.623
46.19000 185.397
46.20000 183.730
46.21000 183.270
46.22000 182.851
46.23000 182.601
46.24000 178.952
46.25000 176.342
46.26000 175.498
46.27000 176.355
46.28000 177.195
46.29000 176.650
46.30000 175.221
46.31000 173.830
46.32000 171.318
46.33000 168.463
46.34000 166.129
46.35000 170.179
46.36000 176.120
46.37000 180.852
46.38000 176.887
46.39000 171.201
46.40000 166.432
46.41000 173.370
46.42000 180.366
46.43000 185.277
46.44000 183.702
46.45000 181.663
46.46000 179.989
46.47000 179.092
46.48000 178.221
46.49000 177.704
46.50000 178.848
46.51000 179.666
46.52000 177.986
46.53000 173.946
46.54000 169.963
46.55000 170.385
46.56000 173.565
46.57000 176.655
46.58000 180.580
46.59000 184.647
46.60000 187.934
46.61000 181.918
46.62000 173.194
46.63000 165.527
46.64000 165.304
46.65000 166.524
46.66000 167.545
46.67000 168.090
46.68000 168.494
46.69000 169.937
46.70000 174.556
46.71000 179.397
46.72000 181.463
46.73000 177.731
46.74000 173.817
46.75000 171.515
46.76000 179.218
46.77000 184.700
46.78000 186.535
46.79000 184.991
46.80000 183.474
46.81000 183.900
46.82000 185.522
46.83000 187.097
46.84000 185.038
46.85000 181.641
46.86000 178.412
46.87000 177.144
46.88000 176.436
46.89000 175.957
46.90000 177.056
46.91000 178.456
46.92000 179.623
46.93000 176.726
46.94000 173.922
46.95000 171.702
46.96000 171.237
46.97000 170.889
46.98000 170.037
46.99000 168.147
47.00000 166.226
47.01000 165.105
47.02000 165.059
47.03000 165.032
47.04000 167.571
47.05000 172.441
47.06000 177.259
47.07000 178.658
47.08000 177.990
47.09000 177.343
47.10000 175.282
47.11000 172.777
47.12000 170.338
47.13000 168.654
47.14000 167.181
47.15000 165.684
47.16000 164.023
47.17000 162.333
47.18000 160.929
47.19000 165.373
47.20000 169.613
47.21000 172.640
47.22000 172.085
47.23000 171.295
47.24000 172.235
47.25000 176.670
47.26000 181.205
47.27000 183.831
47.28000 174.782
47.29000 168.394
47.30000 167.231
47.31000 170.725
47.32000 174.112
47.33000 170.846
47.34000 163.629
47.35000 156.643
47.36000 157.170
47.37000 160.545
47.38000 163.580
47.39000 162.859
47.40000 161.103
47.41000 159.644
47.42000 160.152
47.43000 161.021
47.44000 161.740
47.45000 165.467
47.46000 168.825
47.47000 170.780
47.48000 168.660
47.49000 166.281
47.50000 166.193
47.51000 170.653
47.52000 175.238
47.53000 177.870
47.54000 171.182
47.55000 166.474
47.56000 163.999
47.57000 163.476
47.58000 162.950
47.59000 162.274
47.60000 161.510
47.61000 160.771
47.62000 159.582
47.63000 158.291
47.64000 157.060
47.65000 156.479
47.66000 156.075
47.67000 155.861
47.68000 156.880
47.69000 158.121
47.70000 159.144
47.71000 154.696
47.72000 150.533
47.73000 149.629
47.74000 158.030
47.75000 167.003
47.76000 172.552
47.77000 171.417
47.78000 170.109
47.79000 169.364
47.80000 169.686
47.81000 169.912
47.82000 169.143
47.83000 167.521
47.84000 165.971
47.85000 168.377
47.86000 173.050
47.87000 177.563
47.88000 176.643
47.89000 173.774
47.90000 170.810
47.91000 166.851
47.92000 162.628
47.93000 159.136
47.94000 160.282
47.95000 162.246
47.96000 163.858
47.97000 166.119
47.98000 168.034
47.99000 167.592
48.00000 160.541
48.01000 153.096
48.02000 150.151
48.03000 155.840
48.04000 161.742
48.05000 165.076
48.06000 162.262
48.07000 160.287
48.08000 157.391
48.09000 153.720
48.10000 150.110
48.11000 149.692
48.12000 151.071
48.13000 152.401
48.14000 159.998
48.15000 169.409
48.16000 177.976
48.17000 177.920
48.18000 175.607
48.19000 173.276
48.20000 170.833
48.21000 168.371
48.22000 166.356
48.23000 165.592
48.24000 165.076
48.25000 164.113
48.26000 161.915
48.27000 159.646
48.28000 158.611
48.29000 159.905
48.30000 161.253
48.31000 162.008
48.32000 163.882
48.33000 165.176
48.34000 163.448
48.35000 159.224
48.36000 155.103
48.37000 155.924
48.38000 159.482
48.39000 162.908
48.40000 165.273
48.41000 167.117
48.42000 168.475
48.43000 164.992
48.44000 160.266
48.45000 155.926
48.46000 153.934
48.47000 152.339
48.48000 151.039
48.49000 155.454
48.50000 159.548
48.51000 163.072
48.52000 165.049
48.53000 166.938
48.54000 167.275
48.55000 164.733
48.56000 162.128
48.57000 160.681
48.58000 153.396
48.59000 148.363
48.60000 148.476
48.61000 152.756
48.62000 156.996
48.63000 159.432
48.64000 160.887
48.65000 162.284
48.66000 160.874
48.67000 158.574
48.68000 156.528
48.69000 156.950
48.70000 157.994
48.71000 158.958
48.72000 159.440
48.73000 159.841
48.74000 160.168
48.75000 160.747
48.76000 161.241
48.77000 160.296
48.78000 155.517
48.79000 150.530
48.80000 149.555
48.81000 155.884
48.82000 162.367
48.83000 165.936
48.84000 159.259
48.85000 154.655
48.86000 153.805
48.87000 155.940
48.88000 158.045
48.89000 158.786
48.90000 158.800
48.91000 158.812
48.92000 157.908
48.93000 156.749
48.94000 155.646
48.95000 155.082
48.96000 154.651
48.97000 154.631
48.98000 157.020
48.99000 159.799
49.00000 162.048
49.01000 162.964
49.02000 163.601
49.03000 163.471
49.04000 161.332
49.05000 159.088
49.06000 158.932
49.07000 162.511
49.08000 166.165
49.09000 168.160
49.10000 162.749
49.11000 159.032
49.12000 157.699
49.13000 158.225
49.14000 158.665
49.15000 155.522
49.16000 150.497
49.17000 145.681
49.18000 149.737
49.19000 156.498
49.20000 162.822
49.21000 165.090
49.22000 166.371
49.23000 166.544
49.24000 160.364
49.25000 153.172
49.26000 147.376
49.27000 149.546
49.28000 151.934
49.29000 155.647
49.30000 162.772
49.31000 170.069
49.32000 173.129
49.33000 168.737
49.34000 164.206
49.35000 161.754
49.36000 155.376
49.37000 151.029
49.38000 152.440
49.39000 158.259
49.40000 163.926
49.41000 163.562
49.42000 160.083
49.43000 156.753
49.44000 156.001
49.45000 156.149
49.46000 155.962
49.47000 152.742
49.48000 148.796
49.49000 145.728
49.50000 147.587
49.51000 150.215
49.52000 152.324
49.53000 154.516
49.54000 156.299
49.55000 156.692
49.56000 153.572
49.57000 150.280
49.58000 148.952
49.59000 151.017
49.60000 153.142
49.61000 154.281
49.62000 155.776
49.63000 156.787
49.64000 155.792
49.65000 153.290
49.66000 150.851
49.67000 150.815
49.68000 151.998
49.69000 153.128
49.70000 153.961
49.71000 154.639
49.72000 155.448
49.73000 157.401
49.74000 159.623
49.75000 160.936
49.76000 157.238
49.77000 152.775
49.78000 149.207
49.79000 151.444
49.80000 153.683
49.81000 153.912
49.82000 149.142
49.83000 144.135
49.84000 141.921
49.85000 144.449
49.86000 147.055
49.87000 148.439
49.88000 142.212
49.89000 138.004
49.90000 139.861
49.91000 146.195
49.92000 152.295
49.93000 150.077
49.94000 143.707
49.95000 137.630
49.96000 140.101
49.97000 145.102
49.98000 149.873
49.99000 152.667
50.00000 155.005
50.01000 157.337
50.02000 159.641
50.03000 161.941
50.04000 163.773
50.05000 164.457
50.06000 164.925
50.07000 164.189
50.08000 160.507
50.09000 156.692
50.10000 152.657
50.11000 148.256
50.12000 143.850
50.13000 141.531
50.14000 149.797
50.15000 155.381
50.16000 156.524
50.17000 154.450
50.18000 152.515
50.19000 155.292
50.20000 160.382
50.21000 165.229
50.22000 162.121
50.23000 156.769
50.24000 152.303
50.25000 155.318
50.26000 160.025
50.27000 163.990
50.28000 164.028
50.29000 163.490
50.30000 163.064
50.31000 156.031
50.32000 149.910
50.33000 146.459
50.34000 149.428
50.35000 152.678
50.36000 156.151
50.37000 159.990
50.38000 163.835
50.39000 165.839
50.40000 167.262
50.41000 168.208
50.42000 166.933
50.43000 164.076
50.44000 161.345
50.45000 162.672
50.46000 165.955
50.47000 169.078
50.48000 165.632
50.49000 160.444
50.50000 155.936
50.51000 157.044
50.52000 159.398
50.53000 162.344
50.54000 168.365
50.55000 174.827
50.56000 179.930
50.57000 167.688
50.58000 156.679
50.59000 149.932
50.60000 153.253
50.61000 156.999
50.62000 161.815
50.63000 168.355
50.64000 174.918
50.65000 178.308
50.66000 173.740
50.67000 170.653
50.68000 166.656
50.69000 162.023
50.70000 157.555
50.71000 158.187
50.72000 161.236
50.73000 164.132
50.74000 164.973
50.75000 165.136
50.76000 165.274
50.77000 165.209
50.78000 165.099
50.79000 165.608
50.80000 169.272
50.81000 173.379
50.82000 176.609
50.83000 170.035
50.84000 164.122
50.85000 161.273
50.86000 165.542
50.87000 170.101
50.88000 171.270
50.89000 167.077
50.90000 162.816
50.91000 160.637
50.92000 163.871
50.93000 166.006
50.94000 163.601
50.95000 158.082
50.96000 152.604
50.97000 148.383
50.98000 144.747
50.99000 141.300
51.00000 143.900
51.01000 148.069
51.02000 151.798
51.03000 152.062
51.04000 151.586
51.05000 151.358
51.06000 152.375
51.07000 153.564
51.08000 154.494
51.09000 150.953
51.10000 147.837
51.11000 145.847
51.12000 146.429
51.13000 147.113
51.14000 148.324
51.15000 150.355
51.16000 152.396
51.17000 153.430
51.18000 150.647
51.19000 148.812
51.20000 149.918
51.21000 153.008
51.22000 156.011
51.23000 156.543
51.24000 155.943
51.25000 155.375
51.26000 153.852
51.27000 152.178
51.28000 150.418
51.29000 148.003
51.30000 145.451
51.31000 142.810
51.32000 139.734
51.33000 136.601
51.34000 134.156
51.35000 134.732
51.36000 135.379
51.37000 136.405
51.38000 138.284
51.39000 140.194
51.40000 140.202
51.41000 137.304
51.42000 134.375
51.43000 132.907
51.44000 136.007
51.45000 138.073
51.46000 139.806
51.47000 141.317
51.48000 142.734
51.49000 141.558
51.50000 139.215
51.51000 137.002
51.52000 136.930
51.53000 137.469
51.54000 138.183
51.55000 140.212
51.56000 142.512
51.57000 143.932
51.58000 141.109
51.59000 137.728
51.60000 135.102
51.61000 137.482
51.62000 139.677
51.63000 140.906
51.64000 140.001
51.65000 139.021
51.66000 139.472
51.67000 142.071
51.68000 144.691
51.69000 144.304
51.70000 140.952
51.71000 137.658
51.72000 139.573
51.73000 144.877
51.74000 149.938
51.75000 148.623
51.76000 144.486
51.77000 140.586
51.78000 142.034
51.79000 144.839
51.80000 146.824
51.81000 142.760
51.82000 137.474
51.83000 134.121
51.84000 139.905
51.85000 146.866
51.86000 152.247
51.87000 146.309
51.88000 140.933
51.89000 136.876
51.90000 135.681
51.91000 134.585
51.92000 135.516
51.93000 139.433
51.94000 143.377
51.95000 145.655
51.96000 146.325
51.97000 146.972
51.98000 145.817
51.99000 143.509
52.00000 141.295
52.01000 141.436
52.02000 142.603
52.03000 143.700
52.04000 144.660
52.05000 145.499
52.06000 145.719
52.07000 141.473
52.08000 136.342
52.09000 132.680
52.10000 135.839
52.11000 139.855
52.12000 142.947
52.13000 141.798
52.14000 140.647
52.15000 141.227
52.16000 145.497
52.17000 149.888
52.18000 151.117
52.19000 147.768
52.20000 144.382
52.21000 143.070
52.22000 143.723
52.23000 144.346
52.24000 142.544
52.25000 139.222
52.26000 136.038
52.27000 136.216
52.28000 137.833
52.29000 139.351
52.30000 139.762
52.31000 139.841
52.32000 139.734
52.33000 138.306
52.34000 136.622
52.35000 135.906
52.36000 139.599
52.37000 143.835
52.38000 147.080
52.39000 140.740
52.40000 135.204
52.41000 131.260
52.42000 130.653
52.43000 130.151
52.44000 130.212
52.45000 131.072
52.46000 131.938
52.47000 133.384
52.48000 135.369
52.49000 137.340
52.50000 138.340
52.51000 138.742
52.52000 139.148
52.53000 139.660
52.54000 140.215
52.55000 140.735
52.56000 140.046
52.57000 139.103
52.58000 138.490
52.59000 140.160
52.60000 142.265
52.61000 144.099
52.62000 144.718
52.63000 145.191
52.64000 145.553
52.65000 139.700
52.66000 134.758
52.67000 133.334
52.68000 139.160
52.69000 145.205
52.70000 149.185
52.71000 150.284
52.72000 151.364
52.73000 151.510
52.74000 150.806
52.75000 150.126
52.76000 151.019
52.77000 152.865
52.78000 154.531
52.79000 152.138
52.80000 148.067
52.81000 144.259
52.82000 143.778
52.83000 144.193
52.84000 143.869
52.85000 138.545
52.86000 132.285
52.87000 128.087
52.88000 132.936
52.89000 138.850
52.90000 143.340
52.91000 142.866
52.92000 142.237
52.93000 142.122
52.94000 143.049
52.95000 144.007
52.96000 144.828
52.97000 145.462
52.98000 146.094
52.99000 145.846
53.00000 144.813
53.01000 143.756
53.02000 141.259
53.03000 137.905
53.04000 134.759
53.05000 136.149
53.06000 139.382
53.07000 142.400
53.08000 140.879
53.09000 138.360
53.10000 136.866
53.11000 142.160
53.12000 148.701
53.13000 153.014
53.14000 147.723
53.15000 141.329
53.16000 136.496
53.17000 138.157
53.18000 139.785
53.19000 143.157
53.20000 150.001
53.21000 156.942
53.22000 157.565
53.23000 149.693
53.24000 141.781
53.25000 139.443
53.26000 141.987
53.27000 144.533
53.28000 147.212
53.29000 149.967
53.30000 152.683
53.31000 154.564
53.32000 156.111
53.33000 157.553
53.34000 155.891
53.35000 153.624
53.36000 151.912
53.37000 153.814
53.38000 156.366
53.39000 158.126
53.40000 156.535
53.41000 154.568
53.42000 153.088
53.43000 145.108
53.44000 138.550
53.45000 134.951
53.46000 137.137
53.47000 139.475
53.48000 141.198
53.49000 142.110
53.50000 143.017
53.51000 143.919
53.52000 144.816
53.53000 145.743
53.54000 148.384
53.55000 152.011
53.56000 155.513
53.57000 156.510
53.58000 156.523
53.59000 156.536
53.60000 151.854
53.61000 146.493
53.62000 141.940
53.63000 142.526
53.64000 144.020
53.65000 144.475
53.66000 140.616
53.67000 136.284
53.68000 133.040
53.69000 137.203
53.70000 140.799
53.71000 142.665
53.72000 141.203
53.73000 139.658
53.74000 140.215
53.75000 143.499
53.76000 146.790
53.77000 145.267
53.78000 139.698
53.79000 134.239
53.80000 134.479
53.81000 137.938
53.82000 141.220
53.83000 141.069
53.84000 139.593
53.85000 138.223
53.86000 142.739
53.87000 148.202
53.88000 152.610
53.89000 150.445
53.90000 147.144
53.91000 144.033
53.92000 141.698
53.93000 139.447
53.94000 137.769
53.95000 142.712
53.96000 146.860
53.97000 150.128
53.98000 151.732
53.99000 153.296
54.00000 154.002
54.01000 153.616
54.02000 153.227
54.03000 149.001
54.04000 141.622
54.05000 134.328
54.06000 131.140
54.07000 130.233
54.08000 129.519
54.09000 132.463
54.10000 136.795
54.11000 140.807
54.12000 142.617
54.13000 143.734
54.14000 144.767
54.15000 145.284
54.16000 145.714
54.17000 145.050
54.18000 140.002
54.19000 134.496
54.20000 130.413
54.21000 134.054
54.22000 137.221
54.23000 138.489
54.24000 136.234
54.25000 133.899
54.26000 132.032
54.27000 130.748
54.28000 129.467
54.29000 131.657
54.30000 136.647
54.31000 141.532
54.32000 141.561
54.33000 138.941
54.34000 136.608
54.35000 139.502
54.36000 144.345
54.37000 148.822
54.38000 145.302
54.39000 140.326
54.40000 136.130
54.41000 136.611
54.42000 137.868
54.43000 138.903
54.44000 139.057
54.45000 139.123
54.46000 139.171
54.47000 140.380
54.48000 141.367
54.49000 143.404
54.50000 147.361
54.51000 151.358
54.52000 151.332
54.53000 146.374
54.54000 141.412
54.55000 139.177
54.56000 139.115
54.57000 139.058
54.58000 139.240
54.59000 139.548
54.60000 139.539
54.61000 133.927
54.62000 126.261
54.63000 119.190
54.64000 124.887
54.65000 132.833
54.66000 139.848
54.67000 141.394
54.68000 142.049
54.69000 142.156
54.70000 140.149
54.71000 137.931
54.72000 136.303
54.73000 143.232
54.74000 148.935
54.75000 151.169
54.76000 147.178
54.77000 143.062
54.78000 139.701
54.79000 137.248
54.80000 134.801
54.81000 136.607
54.82000 141.712
54.83000 146.757
54.84000 149.273
54.85000 150.456
54.86000 151.509
54.87000 150.331
54.88000 148.350
54.89000 146.526
54.90000 145.339
54.91000 144.417
54.92000 143.916
54.93000 145.833
54.94000 148.136
54.95000 148.995
54.96000 144.373
54.97000 139.220
54.98000 135.455
54.99000 141.873
55.00000 147.221
55.01000 149.319
55.02000 145.689
55.03000 141.950
55.04000 140.392
55.05000 141.406
55.06000 142.423
55.07000 145.807
55.08000 150.978
55.09000 156.055
55.10000 157.418
55.11000 156.859
55.12000 156.162
55.13000 153.193
55.14000 149.421
55.15000 145.957
55.16000 147.024
55.17000 148.945
55.18000 150.634
55.19000 151.013
55.20000 151.188
55.21000 151.403
55.22000 151.773
55.23000 152.158
55.24000 152.437
55.25000 158.055
55.26000 162.578
55.27000 164.062
55.28000 160.280
55.29000 156.406
55.30000 156.098
55.31000 159.921
55.32000 163.740
55.33000 168.009
55.34000 172.587
55.35000 177.066
55.36000 177.778
55.37000 176.574
55.38000 175.699
55.39000 180.109
55.40000 186.357
55.41000 192.083
55.42000 188.163
55.43000 182.651
55.44000 178.408
55.45000 181.179
55.46000 185.024
55.47000 187.496
55.48000 184.938
55.49000 181.916
55.50000 179.731
55.51000 186.234
55.52000 191.540
55.53000 199.192
55.54000 210.840
55.55000 222.555
55.56000 227.961
55.57000 226.205
55.58000 224.448
55.59000 229.692
55.60000 240.037
55.61000 250.282
55.62000 256.928
55.63000 261.773
55.64000 266.607
55.65000 271.262
55.66000 275.856
55.67000 280.056
55.68000 286.660
55.69000 293.022
55.70000 299.617
55.71000 307.480
55.72000 315.533
55.73000 323.982
55.74000 333.859
55.75000 343.863
55.76000 351.060
55.77000 355.485
55.78000 358.774
55.79000 364.108
55.80000 372.862
55.81000 381.669
55.82000 385.180
55.83000 382.793
55.84000 380.410
55.85000 382.320
55.86000 387.305
55.87000 392.341
55.88000 399.085
55.89000 406.669
55.90000 414.026
55.91000 417.963
55.92000 420.750
55.93000 423.292
55.94000 431.893
55.95000 440.739
55.96000 446.884
55.97000 438.670
55.98000 428.347
55.99000 419.666
56.00000 416.792
56.01000 414.427
56.02000 412.734
56.03000 400.654
56.04000 391.080
56.05000 384.108
56.06000 381.410
56.07000 378.776
56.08000 372.143
56.09000 361.144
56.10000 350.186
56.11000 339.372
56.12000 328.764
56.13000 318.405
56.14000 316.199
56.15000 317.933
56.16000 319.155
56.17000 312.873
56.18000 304.111
56.19000 296.138
56.20000 284.674
56.21000 273.842
56.22000 264.326
56.23000 261.672
56.24000 260.005
56.25000 255.783
56.26000 242.686
56.27000 228.832
56.28000 218.972
56.29000 215.867
56.30000 213.719
56.31000 213.241
56.32000 215.456
56.33000 217.708
56.34000 214.672
56.35000 205.972
56.36000 197.309
56.37000 191.173
56.38000 186.853
56.39000 182.594
56.40000 180.220
56.41000 178.742
56.42000 177.270
56.43000 175.889
56.44000 174.538
56.45000 173.312
56.46000 168.584
56.47000 163.733
56.48000 160.383
56.49000 164.715
56.50000 170.129
56.51000 173.443
56.52000 169.591
56.53000 165.144
56.54000 161.996
56.55000 163.824
56.56000 165.368
56.57000 162.436
56.58000 152.405
56.59000 142.284
56.60000 138.772
56.61000 142.203
56.62000 145.618
56.63000 146.495
56.64000 145.636
56.65000 144.893
56.66000 147.593
56.67000 151.902
56.68000 155.727
56.69000 152.875
56.70000 147.891
56.71000 143.378
56.72000 141.183
56.73000 139.688
56.74000 138.621
56.75000 139.700
56.76000 141.074
56.77000 142.350
56.78000 143.295
56.79000 144.212
56.80000 144.858
56.81000 140.150
56.82000 136.422
56.83000 134.303
56.84000 134.691
56.85000 135.108
56.86000 135.845
56.87000 136.909
56.88000 137.967
56.89000 136.756
56.90000 134.047
56.91000 131.433
56.92000 131.538
56.93000 132.892
56.94000 134.319
56.95000 136.721
56.96000 139.429
56.97000 141.876
56.98000 139.124
56.99000 135.741
57.00000 132.951
57.01000 133.080
57.02000 133.602
57.03000 135.628
57.04000 142.607
57.05000 149.975
57.06000 155.134
57.07000 148.322
57.08000 142.830
57.09000 138.747
57.10000 136.819
57.11000 134.914
57.12000 134.254
57.13000 134.848
57.14000 135.438
57.15000 131.928
57.16000 125.782
57.17000 119.837
57.18000 119.444
57.19000 121.556
57.20000 123.903
57.21000 129.307
57.22000 135.654
57.23000 141.374
57.24000 140.991
57.25000 139.549
57.26000 137.256
57.27000 130.853
57.28000 123.907
57.29000 119.371
57.30000 122.635
57.31000 126.496
57.32000 129.184
57.33000 128.290
57.34000 127.518
57.35000 127.026
57.36000 126.957
57.37000 126.892
57.38000 124.402
57.39000 119.516
57.40000 114.662
57.41000 117.088
57.42000 124.154
57.43000 130.926
57.44000 129.958
57.45000 125.555
57.46000 121.519
57.47000 122.129
57.48000 124.147
57.49000 125.961
57.50000 128.787
57.51000 131.442
57.52000 133.304
57.53000 131.412
57.54000 129.036
57.55000 126.412
57.56000 122.999
57.57000 119.528
57.58000 117.125
57.59000 119.110
57.60000 120.719
57.61000 121.665
57.62000 121.632
57.63000 121.590
57.64000 123.072
57.65000 126.030
57.66000 128.968
57.67000 131.489
57.68000 133.708
57.69000 135.786
57.70000 134.266
57.71000 131.177
57.72000 128.548
57.73000 131.584
57.74000 136.307
57.75000 140.542
57.76000 134.741
57.77000 127.928
57.78000 122.764
57.79000 125.273
57.80000 128.751
57.81000 130.959
57.82000 129.197
57.83000 127.148
57.84000 125.737
57.85000 126.922
57.86000 127.876
57.87000 127.473
57.88000 125.103
57.89000 122.716
57.90000 123.676
57.91000 127.816
57.92000 131.924
57.93000 131.663
57.94000 128.705
57.95000 125.815
57.96000 124.571
57.97000 124.032
57.98000 123.380
57.99000 121.353
58.00000 118.924
58.01000 116.752
58.02000 119.731
58.03000 123.205
58.04000 125.990
58.05000 125.623
58.06000 124.867
58.07000 124.482
58.08000 125.238
58.09000 126.074
58.10000 126.646
58.11000 130.677
58.12000 133.777
58.13000 135.606
58.14000 135.624
58.15000 135.628
58.16000 133.837
58.17000 130.373
58.18000 126.939
58.19000 126.303
58.20000 127.375
58.21000 128.333
58.22000 126.608
58.23000 123.751
58.24000 121.246
58.25000 122.844
58.26000 125.622
58.27000 128.100
58.28000 125.775
58.29000 122.953
58.30000 120.325
58.31000 118.574
58.32000 116.928
58.33000 116.561
58.34000 120.059
58.35000 123.819
58.36000 126.378
58.37000 124.873
58.38000 123.657
58.39000 122.332
58.40000 120.857
58.41000 119.380
58.42000 118.306
58.43000 117.599
58.44000 116.899
58.45000 115.986
58.46000 114.964
58.47000 113.969
58.48000 113.574
58.49000 113.427
58.50000 113.568
58.51000 116.983
58.52000 121.322
58.53000 125.183
58.54000 123.140
58.55000 120.403
58.56000 118.418
58.57000 119.735
58.58000 121.443
58.59000 122.856
58.60000 123.396
58.61000 123.878
58.62000 124.204
58.63000 123.523
58.64000 122.994
58.65000 124.759
58.66000 129.675
58.67000 134.607
58.68000 135.275
58.69000 132.122
58.70000 129.000
58.71000 126.338
58.72000 124.001
58.73000 121.761
58.74000 121.618
58.75000 122.329
58.76000 122.779
58.77000 120.339
58.78000 117.096
58.79000 114.219
58.80000 117.401
58.81000 121.124
58.82000 124.452
58.83000 126.075
58.84000 127.502
58.85000 127.684
58.86000 124.238
58.87000 120.560
58.88000 118.087
58.89000 115.528
58.90000 113.624
58.91000 114.545
58.92000 119.274
58.93000 124.021
58.94000 125.952
58.95000 125.409
58.96000 124.871
58.97000 121.157
58.98000 115.706
58.99000 110.653
59.00000 113.978
59.01000 120.656
59.02000 126.971
59.03000 129.372
59.04000 130.705
59.05000 131.885
59.06000 125.120
59.07000 118.032
59.08000 113.002
59.09000 116.708
59.10000 121.396
59.11000 125.195
59.12000 126.444
59.13000 127.535
59.14000 128.264
59.15000 122.813
59.16000 118.652
59.17000 115.182
59.18000 112.624
59.19000 110.075
59.20000 110.107
59.21000 112.364
59.22000 114.595
59.23000 116.796
59.24000 118.929
59.25000 121.058
59.26000 123.141
59.27000 125.204
59.28000 127.018
59.29000 126.193
59.30000 124.662
59.31000 123.311
59.32000 121.854
59.33000 120.580
59.34000 119.626
59.35000 120.004
59.36000 120.528
59.37000 121.489
59.38000 123.684
59.39000 125.954
59.40000 127.461
59.41000 122.234
59.42000 118.246
59.43000 116.276
59.44000 116.930
59.45000 117.593
59.46000 117.266
59.47000 116.101
59.48000 114.951
59.49000 115.165
59.50000 116.126
59.51000 117.183
59.52000 120.125
59.53000 123.796
59.54000 126.986
59.55000 125.236
59.56000 122.186
59.57000 119.501
59.58000 120.549
59.59000 122.008
59.60000 123.093
59.61000 122.649
59.62000 122.041
59.63000 121.956
59.64000 123.319
59.65000 124.767
59.66000 125.722
59.67000 124.451
59.68000 123.475
59.69000 123.807
59.70000 125.809
59.71000 127.813
59.72000 127.710
59.73000 125.858
59.74000 124.030
59.75000 121.262
59.76000 118.058
59.77000 115.063
59.78000 116.041
59.79000 118.531
59.80000 120.821
59.81000 121.116
59.82000 120.896
59.83000 120.703
59.84000 118.756
59.85000 116.827
59.86000 115.902
59.87000 119.012
59.88000 122.545
59.89000 124.643
59.90000 122.835
59.91000 120.807
59.92000 119.477
59.93000 116.383
59.94000 114.078
59.95000 114.063
59.96000 116.915
59.97000 119.769
59.98000 119.705
59.99000 117.265
60.00000 114.859
60.01000 116.772
60.02000 120.929
60.03000 124.915
60.04000 125.777
60.05000 125.470
60.06000 124.944
60.07000 122.272
60.08000 119.055
60.09000 116.240
60.10000 115.122
60.11000 114.406
60.12000 114.284
60.13000 116.505
60.14000 118.966
60.15000 119.561
60.16000 115.162
60.17000 110.490
60.18000 107.446
60.19000 114.595
60.20000 119.998
60.21000 122.582
60.22000 121.700
60.23000 120.807
60.24000 119.084
60.25000 116.697
60.26000 114.344
60.27000 116.592
60.28000 121.176
60.29000 125.493
60.30000 125.077
60.31000 122.921
60.32000 120.921
60.33000 120.398
60.34000 120.244
60.35000 120.109
60.36000 121.644
60.37000 123.191
60.38000 123.633
60.39000 119.800
60.40000 115.540
60.41000 112.797
60.42000 114.047
60.43000 115.508
60.44000 116.454
60.45000 120.354
60.46000 123.250
60.47000 123.574
60.48000 120.798
60.49000 118.028
60.50000 119.198
60.51000 123.457
60.52000 127.650
60.53000 126.055
60.54000 121.545
60.55000 117.396
60.56000 119.461
60.57000 123.769
60.58000 127.476
60.59000 125.572
60.60000 122.294
60.61000 119.442
60.62000 116.983
60.63000 114.939
60.64000 112.939
60.65000 111.112
60.66000 109.301
60.67000 108.573
60.68000 110.646
60.69000 112.862
60.70000 114.287
60.71000 124.542
60.72000 132.147
60.73000 136.072
60.74000 135.642
60.75000 135.194
60.76000 132.535
60.77000 128.174
60.78000 123.882
60.79000 121.897
60.80000 121.133
60.81000 120.676
60.82000 125.320
60.83000 131.775
60.84000 137.362
60.85000 135.050
60.86000 130.840
60.87000 127.189
60.88000 127.583
60.89000 128.459
60.90000 128.384
60.91000 124.752
60.92000 120.783
60.93000 117.765
60.94000 117.166
60.95000 116.686
60.96000 116.380
60.97000 121.540
60.98000 125.367
60.99000 126.217
61.00000 123.613
61.01000 121.009
61.02000 119.287
61.03000 118.232
61.04000 117.195
61.05000 118.109
61.06000 119.955
61.07000 121.953
61.08000 126.407
61.09000 131.719
61.10000 136.384
61.11000 135.308
61.12000 132.878
61.13000 130.776
61.14000 127.207
61.15000 123.982
61.16000 121.802
61.17000 123.460
61.18000 125.473
61.19000 126.668
61.20000 125.817
61.21000 124.869
61.22000 124.268
61.23000 128.011
61.24000 130.781
61.25000 131.582
61.26000 130.140
61.27000 128.698
61.28000 127.532
61.29000 126.572
61.30000 125.630
61.31000 125.518
61.32000 125.813
61.33000 126.027
61.34000 124.981
61.35000 123.503
61.36000 122.831
61.37000 129.162
61.38000 137.116
61.39000 143.973
61.40000 142.381
61.41000 139.954
61.42000 137.358
61.43000 134.156
61.44000 130.899
61.45000 129.514
61.46000 132.727
61.47000 136.152
61.48000 138.310
61.49000 144.738
61.50000 149.439
61.51000 155.335
61.52000 162.564
61.53000 169.818
61.54000 180.975
61.55000 194.976
61.56000 208.710
61.57000 218.352
61.58000 225.699
61.59000 233.107
61.60000 241.445
61.61000 250.097
61.62000 258.671
61.63000 266.590
61.64000 274.359
61.65000 281.037
61.66000 284.589
61.67000 287.205
61.68000 289.527
61.69000 290.809
61.70000 292.000
61.71000 293.459
61.72000 295.566
61.73000 297.702
61.74000 299.039
61.75000 282.970
61.76000 271.186
61.77000 258.715
61.78000 245.492
61.79000 232.266
61.80000 218.606
61.81000 204.635
61.82000 190.945
61.83000 180.006
61.84000 170.766
61.85000 161.789
61.86000 156.674
61.87000 152.840
61.88000 148.917
61.89000 144.262
61.90000 139.444
61.91000 135.315
61.92000 134.643
61.93000 134.496
61.94000 133.865
61.95000 131.548
61.96000 129.086
61.97000 127.900
61.98000 129.744
61.99000 131.716
62.00000 132.942
62.01000 126.189
62.02000 121.249
62.03000 122.107
62.04000 129.193
62.05000 136.238
62.06000 137.580
62.07000 134.914
62.08000 132.305
62.09000 127.065
62.10000 120.827
62.11000 115.382
62.12000 121.240
62.13000 130.779
62.14000 138.925
62.15000 135.774
62.16000 130.147
62.17000 125.342
62.18000 127.670
62.19000 130.479
62.20000 131.381
62.21000 125.755
62.22000 119.584
62.23000 116.715
62.24000 121.551
62.25000 126.704
62.26000 129.883
62.27000 123.119
62.28000 118.172
62.29000 118.142
62.30000 123.290
62.31000 128.427
62.32000 132.023
62.33000 134.557
62.34000 137.034
62.35000 137.110
62.36000 136.104
62.37000 135.085
62.38000 133.893
62.39000 132.645
62.40000 131.129
62.41000 127.482
62.42000 123.376
62.43000 119.880
62.44000 124.556
62.45000 129.436
62.46000 132.915
62.47000 131.687
62.48000 130.076
62.49000 128.521
62.50000 127.095
62.51000 125.674
62.52000 124.804
62.53000 131.722
62.54000 136.741
62.55000 137.343
62.56000 133.386
62.57000 129.457
62.58000 128.801
62.59000 130.363
62.60000 131.888
62.61000 129.438
62.62000 125.341
62.63000 121.591
62.64000 122.506
62.65000 124.889
62.66000 127.314
62.67000 130.072
62.68000 132.901
62.69000 135.301
62.70000 136.716
62.71000 137.791
62.72000 138.214
62.73000 136.488
62.74000 134.592
62.75000 133.640
62.76000 134.820
62.77000 136.080
62.78000 136.847
62.79000 134.251
62.80000 132.371
62.81000 132.288
62.82000 134.025
62.83000 135.735
62.84000 134.807
62.85000 132.121
62.86000 129.501
62.87000 127.069
62.88000 124.825
62.89000 123.051
62.90000 127.425
62.91000 133.699
62.92000 139.036
62.93000 137.261
62.94000 134.011
62.95000 131.263
62.96000 131.286
62.97000 131.613
62.98000 132.103
62.99000 133.124
63.00000 134.185
63.01000 134.810
63.02000 134.469
63.03000 134.092
63.04000 133.864
63.05000 130.569
63.06000 128.200
63.07000 128.286
63.08000 130.806
63.09000 133.303
63.10000 133.622
63.11000 132.518
63.12000 131.442
63.13000 132.313
63.14000 133.970
63.15000 135.597
63.16000 136.837
63.17000 137.959
63.18000 138.566
63.19000 135.352
63.20000 131.361
63.21000 127.997
63.22000 129.048
63.23000 130.403
63.24000 131.680
63.25000 132.708
63.26000 133.717
63.27000 135.037
63.28000 137.036
63.29000 139.058
63.30000 140.269
63.31000 135.194
63.32000 131.550
63.33000 131.777
63.34000 135.769
63.35000 139.711
63.36000 139.362
63.37000 136.257
63.38000 133.234
63.39000 135.366
63.40000 139.544
63.41000 143.193
63.42000 140.301
63.43000 135.456
63.44000 131.432
63.45000 133.381
63.46000 136.521
63.47000 139.159
63.48000 137.667
63.49000 135.989
63.50000 135.108
63.51000 136.727
63.52000 138.527
63.53000 139.062
63.54000 136.882
63.55000 134.611
63.56000 133.261
63.57000 132.789
63.58000 132.460
63.59000 131.547
63.60000 130.079
63.61000 128.650
63.62000 130.327
63.63000 133.964
63.64000 137.499
63.65000 135.631
63.66000 131.646
63.67000 128.012
63.68000 128.601
63.69000 130.430
63.70000 132.533
63.71000 136.589
63.72000 141.026
63.73000 144.742
63.74000 144.173
63.75000 143.259
63.76000 143.016
63.77000 144.840
63.78000 146.811
63.79000 147.525
63.80000 145.594
63.81000 143.579
63.82000 142.390
63.83000 143.838
63.84000 144.874
63.85000 145.308
63.86000 145.181
63.87000 145.029
63.88000 143.137
63.89000 140.166
63.90000 137.282
63.91000 137.785
63.92000 139.622
63.93000 141.261
63.94000 140.566
63.95000 139.198
63.96000 138.045
63.97000 138.381
63.98000 139.004
63.99000 139.524
64.00000 140.234
64.01000 140.842
64.02000 141.158
64.03000 140.589
64.04000 139.960
64.05000 140.345
64.06000 142.832
64.07000 145.382
64.08000 146.876
64.09000 149.822
64.10000 151.902
64.11000 151.602
64.12000 149.120
64.13000 146.612
64.14000 142.324
64.15000 136.953
64.16000 131.744
64.17000 132.566
64.18000 135.719
64.19000 139.026
64.20000 144.092
64.21000 149.657
64.22000 154.040
64.23000 150.371
64.24000 145.186
64.25000 140.875
64.26000 144.689
64.27000 148.641
64.28000 151.881
64.29000 153.003
64.30000 153.984
64.31000 154.685
64.32000 154.815
64.33000 154.929
64.34000 154.995
64.35000 159.705
64.36000 163.030
64.37000 162.599
64.38000 158.793
64.39000 155.039
64.40000 154.568
64.41000 156.063
64.42000 157.510
64.43000 155.366
64.44000 151.950
64.45000 149.001
64.46000 151.251
64.47000 154.946
64.48000 157.989
64.49000 156.676
64.50000 154.559
64.51000 152.805
64.52000 148.643
64.53000 144.977
64.54000 144.668
64.55000 154.179
64.56000 164.322
64.57000 170.152
64.58000 167.354
64.59000 164.315
64.60000 162.563
64.61000 163.675
64.62000 164.465
64.63000 166.866
64.64000 170.686
64.65000 174.449
64.66000 174.797
64.67000 173.137
64.68000 171.532
64.69000 174.412
64.70000 178.833
64.71000 182.800
64.72000 181.846
64.73000 179.548
64.74000 177.189
64.75000 174.432
64.76000 171.602
64.77000 169.266
64.78000 175.335
64.79000 181.117
64.80000 184.314
64.81000 180.077
64.82000 175.375
64.83000 173.285
64.84000 176.330
64.85000 179.511
64.86000 181.329
64.87000 187.942
64.88000 192.567
64.89000 192.088
64.90000 187.196
64.91000 182.375
64.92000 181.527
64.93000 182.975
64.94000 184.373
64.95000 185.549
64.96000 186.575
64.97000 187.859
64.98000 191.873
64.99000 196.620
65.00000 200.522
65.01000 199.022
65.02000 196.563
65.03000 194.540
65.04000 204.788
65.05000 214.325
65.06000 219.722
65.07000 213.421
65.08000 206.410
65.09000 201.254
65.10000 199.679
65.11000 198.194
65.12000 197.353
65.13000 202.834
65.14000 206.670
65.15000 212.244
65.16000 219.291
65.17000 226.214
65.18000 226.583
65.19000 223.232
65.20000 219.998
65.21000 219.212
65.22000 219.365
65.23000 219.434
65.24000 218.643
65.25000 217.624
65.26000 216.635
65.27000 215.826
65.28000 215.049
65.29000 214.412
65.30000 215.415
65.31000 216.383
65.32000 219.942
65.33000 230.698
65.34000 241.877
65.35000 248.721
65.36000 247.333
65.37000 245.748
65.38000 244.857
65.39000 241.459
65.40000 239.109
65.41000 243.506
65.42000 253.517
65.43000 263.432
65.44000 268.545
65.45000 270.979
65.46000 273.323
65.47000 277.601
65.48000 282.312
65.49000 286.575
65.50000 286.337
65.51000 284.934
65.52000 284.963
65.53000 293.798
65.54000 304.135
65.55000 312.575
65.56000 318.972
65.57000 324.031
65.58000 331.154
65.59000 343.911
65.60000 356.988
65.61000 370.253
65.62000 383.867
65.63000 397.489
65.64000 405.083
65.65000 452.843
65.66000 486.016
65.67000 535.601
65.68000 598.588
65.69000 662.081
65.70000 749.460
65.71000 849.934
65.72000 946.587
65.73000 1065.526
65.74000 1184.875
65.75000 1302.660
65.76000 1405.083
65.77000 1503.599
65.78000 1600.240
65.79000 1685.600
65.80000 1769.073
65.81000 1836.975
65.82000 1867.903
65.83000 1890.056
65.84000 1912.184
65.85000 1934.249
65.86000 1956.311
65.87000 1962.332
65.88000 1938.924
65.89000 1914.882
65.90000 1901.594
65.91000 1833.267
65.92000 1785.976
65.93000 1719.324
65.94000 1637.155
65.95000 1554.347
65.96000 1442.906
65.97000 1316.038
65.98000 1194.174
65.99000 1067.447
66.00000 947.167
66.01000 829.779
66.02000 740.100
66.03000 657.345
66.04000 581.004
66.05000 542.510
66.06000 510.219
66.07000 484.052
66.08000 455.009
66.09000 431.118
66.10000 410.395
66.11000 398.032
66.12000 386.113
66.13000 375.634
66.14000 367.749
66.15000 359.917
66.16000 355.626
66.17000 359.895
66.18000 362.828
66.19000 361.204
66.20000 355.996
66.21000 351.018
66.22000 355.834
66.23000 365.835
66.24000 375.428
66.25000 394.860
66.26000 416.341
66.27000 437.918
66.28000 460.392
66.29000 483.086
66.30000 505.452
66.31000 525.918
66.32000 546.078
66.33000 562.353
66.34000 575.451
66.35000 585.844
66.36000 596.453
66.37000 607.622
66.38000 618.819
66.39000 624.714
66.40000 621.214
66.41000 617.533
66.42000 615.534
66.43000 605.536
66.44000 598.685
66.45000 595.143
66.46000 594.155
66.47000 592.813
66.48000 577.173
66.49000 554.090
66.50000 531.984
66.51000 515.833
66.52000 502.748
66.53000 488.904
66.54000 468.121
66.55000 445.665
66.56000 425.602
66.57000 419.108
66.58000 414.749
66.59000 411.244
66.60000 386.467
66.61000 364.732
66.62000 348.967
66.63000 348.422
66.64000 348.632
66.65000 350.380
66.66000 354.806
66.67000 359.280
66.68000 361.689
66.69000 353.172
66.70000 347.349
66.71000 343.450
66.72000 341.010
66.73000 338.734
66.74000 342.776
66.75000 350.049
66.76000 357.003
66.77000 355.327
66.78000 350.956
66.79000 347.105
66.80000 347.890
66.81000 349.772
66.82000 351.965
66.83000 355.881
66.84000 360.064
66.85000 363.414
66.86000 365.737
66.87000 367.539
66.88000 365.915
66.89000 355.705
66.90000 345.082
66.91000 342.328
66.92000 353.037
66.93000 363.975
66.94000 369.810
66.95000 373.610
66.96000 376.198
66.97000 378.785
66.98000 381.369
66.99000 383.765
67.00000 379.271
67.01000 371.312
67.02000 363.714
67.03000 364.143
67.04000 367.106
67.05000 369.889
67.06000 371.107
67.07000 371.961
67.08000 372.904
67.09000 374.328
67.10000 375.826
67.11000 377.021
67.12000 382.977
67.13000 388.133
67.14000 389.793
67.15000 382.842
67.16000 375.493
67.17000 373.282
67.18000 379.708
67.19000 386.272
67.20000 389.741
67.21000 397.389
67.22000 402.535
67.23000 399.132
67.24000 389.483
67.25000 380.083
67.26000 379.318
67.27000 382.821
67.28000 386.160
67.29000 389.439
67.30000 392.459
67.31000 395.702
67.32000 400.841
67.33000 406.412
67.34000 410.213
67.35000 404.548
67.36000 397.484
67.37000 391.871
67.38000 404.199
67.39000 415.401
67.40000 423.427
67.41000 423.765
67.42000 423.759
67.43000 422.621
67.44000 419.609
67.45000 416.570
67.46000 414.979
67.47000 414.813
67.48000 414.685
67.49000 412.161
67.50000 407.919
67.51000 404.046
67.52000 412.464
67.53000 426.852
67.54000 440.544
67.55000 441.907
67.56000 439.380
67.57000 436.792
67.58000 433.709
67.59000 430.515
67.60000 428.356
67.61000 431.618
67.62000 435.666
67.63000 438.869
67.64000 441.919
67.65000 444.360
67.66000 446.181
67.67000 446.526
67.68000 446.809
67.69000 446.542
67.70000 445.384
67.71000 444.214
67.72000 443.607
67.73000 443.440
67.74000 443.353
67.75000 446.773
67.76000 452.662
67.77000 458.572
67.78000 465.142
67.79000 472.028
67.80000 478.569
67.81000 473.214
67.82000 464.679
67.83000 456.811
67.84000 454.359
67.85000 453.098
67.86000 454.477
67.87000 469.437
67.88000 486.322
67.89000 499.627
67.90000 495.067
67.91000 490.215
67.92000 485.494
67.93000 481.083
67.94000 476.684
67.95000 475.994
67.96000 481.216
67.97000 486.516
67.98000 489.238
67.99000 497.101
68.00000 502.392
68.01000 507.776
68.02000 513.224
68.03000 518.663
68.04000 523.805
68.05000 528.808
68.06000 533.553
68.07000 529.732
68.08000 523.674
68.09000 517.993
68.10000 515.306
68.11000 513.265
68.12000 512.940
68.13000 521.271
68.14000 530.802
68.15000 538.282
68.16000 531.918
68.17000 525.927
68.18000 524.451
68.19000 533.365
68.20000 542.691
68.21000 552.588
68.22000 563.379
68.23000 574.182
68.24000 579.677
68.25000 577.517
68.26000 576.117
68.27000 580.230
68.28000 588.089
68.29000 595.684
68.30000 595.633
68.31000 592.055
68.32000 588.666
68.33000 590.375
68.34000 593.426
68.35000 597.480
68.36000 609.334
68.37000 622.839
68.38000 633.571
68.39000 630.577
68.40000 625.720
68.41000 621.925
68.42000 625.765
68.43000 629.311
68.44000 638.173
68.45000 659.055
68.46000 680.396
68.47000 691.138
68.48000 685.569
68.49000 679.819
68.50000 676.922
68.51000 708.014
68.52000 728.733
68.53000 743.249
68.54000 753.626
68.55000 763.929
68.56000 772.174
68.57000 779.486
68.58000 786.397
68.59000 818.787
68.60000 855.783
68.61000 891.369
68.62000 916.216
68.63000 938.832
68.64000 963.927
68.65000 1001.065
68.66000 1039.802
68.67000 1069.941
68.68000 1123.540
68.69000 1167.647
68.70000 1213.976
68.71000 1265.243
68.72000 1316.692
68.73000 1366.812
68.74000 1414.923
68.75000 1463.015
68.76000 1503.924
68.77000 1537.688
68.78000 1571.561
68.79000 1615.625
68.80000 1666.369
68.81000 1717.576
68.82000 1781.172
68.83000 1850.291
68.84000 1915.501
68.85000 2002.931
68.86000 2089.270
68.87000 2189.587
68.88000 2394.000
68.89000 2619.637
68.90000 2899.473
68.91000 3437.637
68.92000 4009.352
68.93000 4452.236
68.94000 6407.884
68.95000 8051.115
68.96000 10085.533
68.97000 12974.826
68.98000 15894.163
68.99000 19065.254
69.00000 22610.139
69.01000 26158.441
69.02000 29341.527
69.03000 32168.336
69.04000 34985.867
69.05000 36998.473
69.06000 38492.816
69.07000 39965.074
69.08000 40870.477
69.09000 41527.430
69.10000 42146.105
69.11000 42853.566
69.12000 43525.055
69.13000 44203.168
69.14000 44929.527
69.15000 45665.535
69.16000 46303.441
69.17000 46482.453
69.18000 46603.176
69.19000 46696.281
69.20000 44739.992
69.21000 43071.637
69.22000 40968.133
69.23000 37929.855
69.24000 34860.098
69.25000 32122.066
69.26000 29867.773
69.27000 27617.750
69.28000 25822.527
69.29000 24462.277
69.30000 23108.672
69.31000 22288.422
69.32000 21805.523
69.33000 21330.857
69.34000 21059.275
69.35000 20875.189
69.36000 20702.148
69.37000 19944.047
69.38000 19094.826
69.39000 18160.486
69.40000 16619.072
69.41000 14958.521
69.42000 13266.627
69.43000 11430.839
69.44000 9577.178
69.45000 8153.871
69.46000 6553.587
69.47000 5278.665
69.48000 4185.763
69.49000 3477.225
69.50000 2781.075
69.51000 2255.075
69.52000 1972.754
69.53000 1692.355
69.54000 1500.711
69.55000 1392.283
69.56000 1284.253
69.57000 1205.915
69.58000 1146.026
69.59000 1086.693
69.60000 1040.517
69.61000 999.914
69.62000 961.818
69.63000 927.447
69.64000 897.108
69.65000 866.670
69.66000 835.539
69.67000 804.274
69.68000 775.524
69.69000 758.106
69.70000 742.063
69.71000 729.801
69.72000 710.738
69.73000 695.335
69.74000 681.196
69.75000 669.682
69.76000 658.249
69.77000 643.427
69.78000 623.840
69.79000 604.224
69.80000 596.238
69.81000 598.938
69.82000 601.591
69.83000 600.998
69.84000 598.422
69.85000 595.434
69.86000 583.007
69.87000 566.652
69.88000 551.335
69.89000 547.303
69.90000 546.549
69.91000 545.033
69.92000 538.308
69.93000 530.600
69.94000 523.406
69.95000 518.485
69.96000 513.835
69.97000 510.296
69.98000 502.633
69.99000 496.387
70.00000 490.073
