20.00000 698.569
20.01000 698.372
20.02000 698.146
20.03000 699.790
20.04000 708.714
20.05000 718.370
20.06000 725.452
20.07000 719.620
20.08000 714.592
20.09000 709.297
20.10000 703.527
20.11000 697.749
20.12000 699.092
20.13000 708.751
20.14000 718.395
20.15000 719.435
20.16000 714.052
20.17000 708.811
20.18000 708.694
20.19000 711.147
20.20000 712.687
20.21000 700.258
20.22000 683.094
20.23000 667.446
20.24000 674.400
20.25000 685.092
20.26000 694.592
20.27000 697.859
20.28000 700.228
20.29000 702.954
20.30000 706.910
20.31000 710.969
20.32000 713.839
20.33000 707.629
20.34000 702.633
20.35000 697.068
20.36000 690.617
20.37000 684.154
20.38000 685.000
20.39000 693.287
20.40000 701.524
20.41000 713.754
20.42000 728.416
20.43000 742.772
20.44000 748.971
20.45000 751.543
20.46000 754.094
20.47000 756.368
20.48000 758.560
20.49000 760.524
20.50000 772.116
20.51000 783.907
20.52000 791.925
20.53000 782.672
20.54000 771.282
20.55000 764.027
20.56000 769.364
20.57000 775.572
20.58000 779.790
20.59000 775.500
20.60000 772.108
20.61000 770.081
20.62000 769.936
20.63000 769.799
20.64000 765.897
20.65000 758.656
20.66000 751.491
20.67000 748.461
20.68000 747.861
20.69000 746.784
20.70000 735.993
20.71000 721.369
20.72000 708.150
20.73000 709.537
20.74000 714.797
20.75000 719.424
20.76000 722.917
20.77000 725.754
20.78000 725.086
20.79000 710.304
20.80000 694.039
20.81000 685.492
20.82000 697.771
20.83000 711.207
20.84000 719.950
20.85000 715.798
20.86000 712.554
20.87000 713.798
20.88000 720.466
20.89000 727.123
20.90000 727.623
20.91000 723.340
20.92000 719.127
20.93000 723.393
20.94000 731.766
20.95000 739.493
20.96000 736.754
20.97000 730.354
20.98000 724.507
20.99000 723.509
21.00000 723.644
21.01000 723.760
21.02000 716.504
21.03000 709.418
21.04000 704.110
21.05000 705.118
21.06000 706.683
21.07000 706.833
21.08000 703.598
21.09000 700.215
21.10000 698.116
21.11000 726.469
21.12000 747.167
21.13000 751.589
21.14000 738.822
21.15000 726.166
21.16000 726.720
21.17000 736.303
21.18000 745.661
21.19000 734.111
21.20000 713.875
21.21000 695.563
21.22000 702.531
21.23000 717.332
21.24000 731.048
21.25000 736.623
21.26000 740.528
21.27000 743.818
21.28000 745.023
21.29000 745.804
21.30000 745.828
21.31000 743.469
21.32000 740.936
21.33000 739.805
21.34000 741.650
21.35000 743.593
21.36000 744.737
21.37000 765.944
21.38000 781.008
21.39000 779.060
21.40000 761.479
21.41000 744.136
21.42000 742.565
21.43000 750.512
21.44000 758.207
21.45000 756.026
21.46000 750.162
21.47000 745.886
21.48000 758.911
21.49000 776.675
21.50000 791.956
21.51000 791.189
21.52000 787.546
21.53000 784.551
21.54000 795.926
21.55000 806.568
21.56000 811.961
21.57000 802.737
21.58000 792.650
21.59000 793.358
21.60000 814.388
21.61000 835.892
21.62000 847.860
21.63000 873.980
21.64000 892.092
21.65000 917.510
21.66000 948.797
21.67000 980.026
21.68000 1008.696
21.69000 1036.000
21.70000 1062.181
21.71000 1110.695
21.72000 1163.528
21.73000 1214.550
21.74000 1248.957
21.75000 1279.350
21.76000 1308.458
21.77000 1330.352
21.78000 1351.123
21.79000 1367.747
21.80000 1380.555
21.81000 1390.626
21.82000 1404.161
21.83000 1426.248
21.84000 1448.733
21.85000 1466.824
21.86000 1477.594
21.87000 1488.251
21.88000 1493.822
21.89000 1482.274
21.90000 1474.318
21.91000 1447.641
21.92000 1407.742
21.93000 1368.069
21.94000 1335.432
21.95000 1306.125
21.96000 1278.338
21.97000 1263.153
21.98000 1252.873
21.99000 1243.241
22.00000 1238.669
22.01000 1235.171
22.02000 1230.441
22.03000 1219.669
22.04000 1208.086
22.05000 1199.081
22.06000 1188.473
22.07000 1179.935
22.08000 1172.046
22.09000 1165.582
22.10000 1159.168
22.11000 1154.110
22.12000 1151.045
22.13000 1147.999
22.14000 1145.485
22.15000 1143.477
22.16000 1141.294
22.17000 1125.864
22.18000 1102.181
22.19000 1078.691
22.20000 1059.716
22.21000 1042.637
22.22000 1026.649
22.23000 1029.719
22.24000 1037.414
22.25000 1045.006
22.26000 1051.907
22.27000 1058.679
22.28000 1064.127
22.29000 1063.873
22.30000 1062.965
22.31000 1062.281
22.32000 1051.393
22.33000 1042.372
22.34000 1042.480
22.35000 1060.326
22.36000 1078.626
22.37000 1088.369
22.38000 1087.033
22.39000 1085.654
22.40000 1083.237
22.41000 1079.966
22.42000 1076.827
22.43000 1080.100
22.44000 1086.905
22.45000 1095.144
22.46000 1129.435
22.47000 1173.428
22.48000 1214.030
22.49000 1236.412
22.50000 1252.397
22.51000 1274.347
22.52000 1331.015
22.53000 1393.293
22.54000 1482.079
22.55000 1671.346
22.56000 1870.343
22.57000 2015.185
22.58000 2893.589
22.59000 3597.737
22.60000 4667.300
22.61000 6365.499
22.62000 8074.587
22.63000 10488.612
22.64000 13702.131
22.65000 16905.400
22.66000 20396.729
22.67000 24067.410
22.68000 27721.061
22.69000 30801.615
22.70000 33602.281
22.71000 36358.332
22.72000 38462.762
22.73000 40352.059
22.74000 42068.363
22.75000 42791.938
22.76000 43238.555
22.77000 43570.539
22.78000 43320.719
22.79000 42989.680
22.80000 42533.477
22.81000 41658.059
22.82000 40748.828
22.83000 40111.262
22.84000 37646.832
22.85000 35729.348
22.86000 33368.770
22.87000 30334.654
22.88000 27293.500
22.89000 24279.008
22.90000 21290.854
22.91000 18323.545
22.92000 15419.115
22.93000 12600.135
22.94000 9815.132
22.95000 7878.653
22.96000 6309.724
22.97000 4785.874
22.98000 3802.657
22.99000 2977.425
23.00000 2240.728
23.01000 1866.550
23.02000 1601.513
23.03000 1366.175
23.04000 1262.978
23.05000 1175.579
23.06000 1102.085
23.07000 1069.821
23.08000 1040.279
23.09000 1020.387
23.10000 998.251
23.11000 981.746
23.12000 968.013
23.13000 957.993
23.14000 947.984
23.15000 931.777
23.16000 910.233
23.17000 888.942
23.18000 877.718
23.19000 872.355
23.20000 866.963
23.21000 860.989
23.22000 854.792
23.23000 847.856
23.24000 833.521
23.25000 817.277
23.26000 803.052
23.27000 804.880
23.28000 808.758
23.29000 809.358
23.30000 797.122
23.31000 783.587
23.32000 773.719
23.33000 773.496
23.34000 773.781
23.35000 773.965
23.36000 765.173
23.37000 758.626
23.38000 753.915
23.39000 751.359
23.40000 748.780
23.41000 740.675
23.42000 728.398
23.43000 716.339
23.44000 718.870
23.45000 728.411
23.46000 737.471
23.47000 739.097
23.48000 738.191
23.49000 735.800
23.50000 720.815
23.51000 702.968
23.52000 687.664
23.53000 693.130
23.54000 700.295
23.55000 705.378
23.56000 703.263
23.57000 700.538
23.58000 699.891
23.59000 704.087
23.60000 708.481
23.61000 711.179
23.62000 715.930
23.63000 719.353
23.64000 720.053
23.65000 717.962
23.66000 715.912
23.67000 717.873
23.68000 722.500
23.69000 727.012
23.70000 716.833
23.71000 700.849
23.72000 686.085
23.73000 686.709
23.74000 691.976
23.75000 696.721
23.76000 697.679
23.77000 697.883
23.78000 698.053
23.79000 702.918
23.80000 707.450
23.81000 711.498
23.82000 714.063
23.83000 716.524
23.84000 720.539
23.85000 727.767
23.86000 735.093
23.87000 739.358
23.88000 720.786
23.89000 707.645
23.90000 708.522
23.91000 721.904
23.92000 735.016
23.93000 732.026
23.94000 719.576
23.95000 707.545
23.96000 704.950
23.97000 706.031
23.98000 707.335
23.99000 710.974
24.00000 715.235
24.01000 718.934
24.02000 719.116
24.03000 718.687
24.04000 718.336
24.05000 706.490
24.06000 695.793
24.07000 689.303
24.08000 694.223
24.09000 699.783
24.10000 701.493
24.11000 696.143
24.12000 690.642
24.13000 687.620
24.14000 698.034
24.15000 705.194
24.16000 704.344
24.17000 697.237
24.18000 690.138
24.19000 683.369
24.20000 676.771
24.21000 670.460
24.22000 665.474
24.23000 661.266
24.24000 657.607
24.25000 658.816
24.26000 661.167
24.27000 662.754
24.28000 660.172
24.29000 656.961
24.30000 654.407
24.31000 647.791
24.32000 642.169
24.33000 637.388
24.34000 634.633
24.35000 631.966
24.36000 628.737
24.37000 624.597
24.38000 620.444
24.39000 618.305
24.40000 629.349
24.41000 636.732
24.42000 637.365
24.43000 633.362
24.44000 629.622
24.45000 633.533
24.46000 640.971
24.47000 648.005
24.48000 638.712
24.49000 625.500
24.50000 614.321
24.51000 618.493
24.52000 625.832
24.53000 631.242
24.54000 627.467
24.55000 622.500
24.56000 618.665
24.57000 618.032
24.58000 617.716
24.59000 618.199
24.60000 620.387
24.61000 622.631
24.62000 626.299
24.63000 632.005
24.64000 637.726
24.65000 635.283
24.66000 625.300
24.67000 615.450
24.68000 614.603
24.69000 619.216
24.70000 623.590
24.71000 622.680
24.72000 619.610
24.73000 616.744
24.74000 622.383
24.75000 629.617
24.76000 634.303
24.77000 622.425
24.78000 607.560
24.79000 596.559
24.80000 601.727
24.81000 608.684
24.82000 613.887
24.83000 626.772
24.84000 637.177
24.85000 642.412
24.86000 637.863
24.87000 633.081
24.88000 626.346
24.89000 617.153
24.90000 607.966
24.91000 606.282
24.92000 610.645
24.93000 615.012
24.94000 619.561
24.95000 624.207
24.96000 628.489
24.97000 626.490
24.98000 622.211
24.99000 618.275
25.00000 611.479
25.01000 604.785
25.02000 600.577
25.03000 610.397
25.04000 622.414
25.05000 629.397
25.06000 617.807
25.07000 604.486
25.08000 594.866
25.09000 587.840
25.10000 582.545
25.11000 584.198
25.12000 597.488
25.13000 610.961
25.14000 612.804
25.15000 601.841
25.16000 590.916
25.17000 589.680
25.18000 595.268
25.19000 600.576
25.20000 597.068
25.21000 589.365
25.22000 582.192
25.23000 582.424
25.24000 585.038
25.25000 587.404
25.26000 590.189
25.27000 592.721
25.28000 594.796
25.29000 594.620
25.30000 594.140
25.31000 594.284
25.32000 596.461
25.33000 598.796
25.34000 600.420
25.35000 598.434
25.36000 596.839
25.37000 595.305
25.38000 593.861
25.39000 592.417
25.40000 587.417
25.41000 579.008
25.42000 570.665
25.43000 569.736
25.44000 573.386
25.45000 576.939
25.46000 578.225
25.47000 578.553
25.48000 579.241
25.49000 584.065
25.50000 590.066
25.51000 595.402
25.52000 593.466
25.53000 590.606
25.54000 588.375
25.55000 588.863
25.56000 589.665
25.57000 587.707
25.58000 577.781
25.59000 567.353
25.60000 560.396
25.61000 561.474
25.62000 562.428
25.63000 562.643
25.64000 561.895
25.65000 561.139
25.66000 558.221
25.67000 553.494
25.68000 548.828
25.69000 551.625
25.70000 558.372
25.71000 565.105
25.72000 571.604
25.73000 578.015
25.74000 584.224
25.75000 588.492
25.76000 592.271
25.77000 595.566
25.78000 586.663
25.79000 577.355
25.80000 568.771
25.81000 562.940
25.82000 557.378
25.83000 557.614
25.84000 572.702
25.85000 588.534
25.86000 598.630
25.87000 601.029
25.88000 602.675
25.89000 599.740
25.90000 591.579
25.91000 583.396
25.92000 572.396
25.93000 559.326
25.94000 546.508
25.95000 554.715
25.96000 572.560
25.97000 589.424
25.98000 591.824
25.99000 589.424
26.00000 586.867
26.01000 583.019
26.02000 578.887
26.03000 575.360
26.04000 570.702
26.05000 566.646
26.06000 564.422
26.07000 568.362
26.08000 572.804
26.09000 575.952
26.10000 576.159
26.11000 576.253
26.12000 576.309
26.13000 572.016
26.14000 568.919
26.15000 568.493
26.16000 570.722
26.17000 572.940
26.18000 574.180
26.19000 574.787
26.20000 575.378
26.21000 574.398
26.22000 572.814
26.23000 571.550
26.24000 574.156
26.25000 577.899
26.26000 580.722
26.27000 577.089
26.28000 572.206
26.29000 568.135
26.30000 564.531
26.31000 561.589
26.32000 561.526
26.33000 570.040
26.34000 579.126
26.35000 583.664
26.36000 579.039
26.37000 574.153
26.38000 571.343
26.39000 556.365
26.40000 545.850
26.41000 541.755
26.42000 543.220
26.43000 544.703
26.44000 547.175
26.45000 550.212
26.46000 553.140
26.47000 555.404
26.48000 557.293
26.49000 558.269
26.50000 550.050
26.51000 539.444
26.52000 531.413
26.53000 539.021
26.54000 549.267
26.55000 557.594
26.56000 557.069
26.57000 555.904
26.58000 554.815
26.59000 553.928
26.60000 553.052
26.61000 551.004
26.62000 546.862
26.63000 542.679
26.64000 540.412
26.65000 552.099
26.66000 560.089
26.67000 560.903
26.68000 556.266
26.69000 551.654
26.70000 547.917
26.71000 544.625
26.72000 541.483
26.73000 544.923
26.74000 550.210
26.75000 555.083
26.76000 556.409
26.77000 556.924
26.78000 558.386
26.79000 564.848
26.80000 572.040
26.81000 577.726
26.82000 563.746
26.83000 551.171
26.84000 543.240
26.85000 546.195
26.86000 549.603
26.87000 551.669
26.88000 551.617
26.89000 551.540
26.90000 551.500
26.91000 553.000
26.92000 554.056
26.93000 560.350
26.94000 570.146
26.95000 579.482
26.96000 576.321
26.97000 567.545
26.98000 559.269
26.99000 547.422
27.00000 535.576
27.01000 526.987
27.02000 542.188
27.03000 562.157
27.04000 575.688
27.05000 559.422
27.06000 539.418
27.07000 524.074
27.08000 541.096
27.09000 556.343
27.10000 561.643
27.11000 546.261
27.12000 530.238
27.13000 524.398
27.14000 532.736
27.15000 541.163
27.16000 544.914
27.17000 544.468
27.18000 544.085
27.19000 547.530
27.20000 553.236
27.21000 558.804
27.22000 561.489
27.23000 563.024
27.24000 564.453
27.25000 563.596
27.26000 562.268
27.27000 559.887
27.28000 550.863
27.29000 540.677
27.30000 533.325
27.31000 537.508
27.32000 542.921
27.33000 546.939
27.34000 549.575
27.35000 551.563
27.36000 553.221
27.37000 554.272
27.38000 555.310
27.39000 557.125
27.40000 559.892
27.41000 562.656
27.42000 563.074
27.43000 561.658
27.44000 560.212
27.45000 557.590
27.46000 554.353
27.47000 551.389
27.48000 552.944
27.49000 556.095
27.50000 558.984
27.51000 558.263
27.52000 556.862
27.53000 555.277
27.54000 552.687
27.55000 549.943
27.56000 548.647
27.57000 552.543
27.58000 556.905
27.59000 560.030
27.60000 565.690
27.61000 570.101
27.62000 568.830
27.63000 558.293
27.64000 547.624
27.65000 542.941
27.66000 544.654
27.67000 546.361
27.68000 546.510
27.69000 545.593
27.70000 544.752
27.71000 546.109
27.72000 548.486
27.73000 550.898
27.74000 553.774
27.75000 556.795
27.76000 559.520
27.77000 559.482
27.78000 558.946
27.79000 558.127
27.80000 555.952
27.81000 553.599
27.82000 551.336
27.83000 549.358
27.84000 547.402
27.85000 546.054
27.86000 547.081
27.87000 547.913
27.88000 548.187
27.89000 547.661
27.90000 547.129
27.91000 548.010
27.92000 550.206
27.93000 552.383
27.94000 552.361
27.95000 551.025
27.96000 549.387
27.97000 541.023
27.98000 529.895
27.99000 519.593
28.00000 518.443
28.01000 519.827
28.02000 521.053
28.03000 534.459
28.04000 547.966
28.05000 557.877
28.06000 552.661
28.07000 545.761
28.08000 542.484
28.09000 549.403
28.10000 556.934
28.11000 561.911
28.12000 545.749
28.13000 533.451
28.14000 530.130
28.15000 538.167
28.16000 546.230
28.17000 549.926
28.18000 550.073
28.19000 550.217
28.20000 547.345
28.21000 542.976
28.22000 538.449
28.23000 531.181
28.24000 522.913
28.25000 515.531
28.26000 516.398
28.27000 519.279
28.28000 521.779
28.29000 530.392
28.30000 538.551
28.31000 544.428
28.32000 541.837
28.33000 538.452
28.34000 536.086
28.35000 536.263
28.36000 536.561
28.37000 536.749
28.38000 540.071
28.39000 542.513
28.40000 542.389
28.41000 539.423
28.42000 536.492
28.43000 538.989
28.44000 545.364
28.45000 551.605
28.46000 554.681
28.47000 556.182
28.48000 557.217
28.49000 551.683
28.50000 544.026
28.51000 536.851
28.52000 533.497
28.53000 530.964
28.54000 528.812
28.55000 538.076
28.56000 547.151
28.57000 555.707
28.58000 562.561
28.59000 569.282
28.60000 570.599
28.61000 559.950
28.62000 548.868
28.63000 542.216
28.64000 542.897
28.65000 543.430
28.66000 546.250
28.67000 551.273
28.68000 556.288
28.69000 560.660
28.70000 564.626
28.71000 568.478
28.72000 569.396
28.73000 569.086
28.74000 568.759
28.75000 568.224
28.76000 567.630
28.77000 566.832
28.78000 564.640
28.79000 562.186
28.80000 560.151
28.81000 559.843
28.82000 559.755
28.83000 560.935
28.84000 565.799
28.85000 570.897
28.86000 569.203
28.87000 554.177
28.88000 538.798
28.89000 530.063
28.90000 554.106
28.91000 570.922
28.92000 571.539
28.93000 558.530
28.94000 545.616
28.95000 537.452
28.96000 531.933
28.97000 526.622
28.98000 529.167
28.99000 534.327
29.00000 538.951
29.01000 538.357
29.02000 536.445
29.03000 534.914
29.04000 535.620
29.05000 536.691
29.06000 537.557
29.07000 544.036
29.08000 549.753
29.09000 551.662
29.10000 543.768
29.11000 535.378
29.12000 529.489
29.13000 527.949
29.14000 526.486
29.15000 525.704
29.16000 536.656
29.17000 544.064
29.18000 539.177
29.19000 525.214
29.20000 511.551
29.21000 508.324
29.22000 510.246
29.23000 512.075
29.24000 511.971
29.25000 511.278
29.26000 511.036
29.27000 514.512
29.28000 518.813
29.29000 522.096
29.30000 520.153
29.31000 517.471
29.32000 515.365
29.33000 517.448
29.34000 519.389
29.35000 519.465
29.36000 515.280
29.37000 510.929
29.38000 511.310
29.39000 518.965
29.40000 526.699
29.41000 527.917
29.42000 522.623
29.43000 517.373
29.44000 516.248
29.45000 517.806
29.46000 519.433
29.47000 522.844
29.48000 527.035
29.49000 530.976
29.50000 527.852
29.51000 523.092
29.52000 519.420
29.53000 523.438
29.54000 528.952
29.55000 533.864
29.56000 536.072
29.57000 537.953
29.58000 539.385
29.59000 532.555
29.60000 526.742
29.61000 524.681
29.62000 530.223
29.63000 535.984
29.64000 535.108
29.65000 525.245
29.66000 515.338
29.67000 515.006
29.68000 523.000
29.69000 530.848
29.70000 530.573
29.71000 525.629
29.72000 520.804
29.73000 518.336
29.74000 516.782
29.75000 515.341
29.76000 514.123
29.77000 513.077
29.78000 512.410
29.79000 514.056
29.80000 516.094
29.81000 517.460
29.82000 516.166
29.83000 514.598
29.84000 513.443
29.85000 521.385
29.86000 527.914
29.87000 529.458
29.88000 522.053
29.89000 514.469
29.90000 511.962
29.91000 515.489
29.92000 519.018
29.93000 521.250
29.94000 522.484
29.95000 523.593
29.96000 519.968
29.97000 513.933
29.98000 508.272
29.99000 508.479
30.00000 510.706
30.01000 512.741
30.02000 511.700
30.03000 510.149
30.04000 508.712
30.05000 507.882
30.06000 507.141
30.07000 505.862
30.08000 502.704
30.09000 499.384
30.10000 497.025
30.11000 512.031
30.12000 524.009
30.13000 528.352
30.14000 520.579
30.15000 512.653
30.16000 509.406
30.17000 511.011
30.18000 512.608
30.19000 515.381
30.20000 518.900
30.21000 522.343
30.22000 523.706
30.23000 524.131
30.24000 524.081
30.25000 517.948
30.26000 509.962
30.27000 502.788
30.28000 504.893
30.29000 508.372
30.30000 511.188
30.31000 510.916
30.32000 510.254
30.33000 509.971
30.34000 510.863
30.35000 511.839
30.36000 512.505
30.37000 505.817
30.38000 500.642
30.39000 498.826
30.40000 501.713
30.41000 504.631
30.42000 506.845
30.43000 508.424
30.44000 509.986
30.45000 512.813
30.46000 516.315
30.47000 519.587
30.48000 518.052
30.49000 514.591
30.50000 511.893
30.51000 517.311
30.52000 524.917
30.53000 531.623
30.54000 524.699
30.55000 516.662
30.56000 512.019
30.57000 521.272
30.58000 532.017
30.59000 538.784
30.60000 534.650
30.61000 529.891
30.62000 526.777
30.63000 537.170
30.64000 545.027
30.65000 545.753
30.66000 537.710
30.67000 529.666
30.68000 527.978
30.69000 531.310
30.70000 534.590
30.71000 535.712
30.72000 535.700
30.73000 536.227
30.74000 545.717
30.75000 558.391
30.76000 570.307
30.77000 575.433
30.78000 578.946
30.79000 581.981
30.80000 585.247
30.81000 588.051
30.82000 590.062
30.83000 589.209
30.84000 588.097
30.85000 588.590
30.86000 592.983
30.87000 597.551
30.88000 600.403
30.89000 615.093
30.90000 625.812
30.91000 635.773
30.92000 644.919
30.93000 654.027
30.94000 658.419
30.95000 659.535
30.96000 660.626
30.97000 668.480
30.98000 679.027
30.99000 690.441
31.00000 713.550
31.01000 740.340
31.02000 765.519
31.03000 778.370
31.04000 788.649
31.05000 797.335
31.06000 820.364
31.07000 841.199
31.08000 860.910
31.09000 877.034
31.10000 892.890
31.11000 910.151
31.12000 930.446
31.13000 950.843
31.14000 962.944
31.15000 1001.883
31.16000 1029.586
31.17000 1051.981
31.18000 1069.412
31.19000 1086.873
31.20000 1106.486
31.21000 1127.420
31.22000 1147.714
31.23000 1170.036
31.24000 1191.972
31.25000 1213.530
31.26000 1230.859
31.27000 1247.011
31.28000 1263.496
31.29000 1282.167
31.30000 1301.237
31.31000 1316.964
31.32000 1316.581
31.33000 1314.778
31.34000 1311.183
31.35000 1302.518
31.36000 1293.546
31.37000 1283.814
31.38000 1272.628
31.39000 1261.406
31.40000 1255.113
31.41000 1227.325
31.42000 1207.991
31.43000 1182.967
31.44000 1153.292
31.45000 1123.772
31.46000 1101.317
31.47000 1082.693
31.48000 1064.812
31.49000 1036.166
31.50000 1005.679
31.51000 976.325
31.52000 957.577
31.53000 941.435
31.54000 924.634
31.55000 904.069
31.56000 882.906
31.57000 865.909
31.58000 834.557
31.59000 808.050
31.60000 782.550
31.61000 759.573
31.62000 736.716
31.63000 721.846
31.64000 720.493
31.65000 719.361
31.66000 718.764
31.67000 681.082
31.68000 655.596
31.69000 645.884
31.70000 647.499
31.71000 648.662
31.72000 635.296
31.73000 614.945
31.74000 595.621
31.75000 591.415
31.76000 592.066
31.77000 591.717
31.78000 583.403
31.79000 573.368
31.80000 564.941
31.81000 564.527
31.82000 565.210
31.83000 565.743
31.84000 551.997
31.85000 540.141
31.86000 530.455
31.87000 525.596
31.88000 520.915
31.89000 523.256
31.90000 536.097
31.91000 549.039
31.92000 550.410
31.93000 540.562
31.94000 530.779
31.95000 526.249
31.96000 525.045
31.97000 523.739
31.98000 519.976
31.99000 515.164
32.00000 510.653
32.01000 504.072
32.02000 497.538
32.03000 492.564
32.04000 498.268
32.05000 505.991
32.06000 512.408
32.07000 513.111
32.08000 513.145
32.09000 513.172
32.10000 510.961
32.11000 509.114
32.12000 505.201
32.13000 497.211
32.14000 489.112
32.15000 486.575
32.16000 491.359
32.17000 496.172
32.18000 492.664
32.19000 482.142
32.20000 471.821
32.21000 471.619
32.22000 477.083
32.23000 482.144
32.24000 479.669
32.25000 474.342
32.26000 469.417
32.27000 472.182
32.28000 476.418
32.29000 479.833
32.30000 478.379
32.31000 476.125
32.32000 474.473
32.33000 475.142
32.34000 476.040
32.35000 476.698
32.36000 472.731
32.37000 469.488
32.38000 465.723
32.39000 461.044
32.40000 456.349
32.41000 449.591
32.42000 440.454
32.43000 431.341
32.44000 432.064
32.45000 440.029
32.46000 447.929
32.47000 453.590
32.48000 458.140
32.49000 462.211
32.50000 459.107
32.51000 453.597
32.52000 448.580
32.53000 446.573
32.54000 445.391
32.55000 443.838
32.56000 440.366
32.57000 436.620
32.58000 434.671
32.59000 438.829
32.60000 443.492
32.61000 446.778
32.62000 442.948
32.63000 439.830
32.64000 439.160
32.65000 442.271
32.66000 445.425
32.67000 445.147
32.68000 441.417
32.69000 437.711
32.70000 440.300
32.71000 446.908
32.72000 453.333
32.73000 455.003
32.74000 454.582
32.75000 453.889
32.76000 449.858
32.77000 444.836
32.78000 440.343
32.79000 432.092
32.80000 424.252
32.81000 417.139
32.82000 413.312
32.83000 409.887
32.84000 410.661
32.85000 424.083
32.86000 438.363
32.87000 448.030
32.88000 435.204
32.89000 425.157
32.90000 424.051
32.91000 435.117
32.92000 446.241
32.93000 446.529
32.94000 437.323
32.95000 428.219
32.96000 431.023
32.97000 440.483
32.98000 449.331
32.99000 445.984
33.00000 437.877
33.01000 430.642
33.02000 432.324
33.03000 436.345
33.04000 439.875
33.05000 437.874
33.06000 435.343
33.07000 431.482
33.08000 422.328
33.09000 412.626
33.10000 407.393
33.11000 414.090
33.12000 421.436
33.13000 426.196
33.14000 427.753
33.15000 428.846
33.16000 429.173
33.17000 428.586
33.18000 428.005
33.19000 429.163
33.20000 431.655
33.21000 434.105
33.22000 428.864
33.23000 419.990
33.24000 411.588
33.25000 410.663
33.26000 412.326
33.27000 413.494
33.28000 410.386
33.29000 406.290
33.30000 402.768
33.31000 415.386
33.32000 428.086
33.33000 439.343
33.34000 445.529
33.35000 451.275
33.36000 450.898
33.37000 436.020
33.38000 420.528
33.39000 410.957
33.40000 424.214
33.41000 433.948
33.42000 436.970
33.43000 432.988
33.44000 429.053
33.45000 430.160
33.46000 434.674
33.47000 439.080
33.48000 432.399
33.49000 421.201
33.50000 410.775
33.51000 410.313
33.52000 412.905
33.53000 414.937
33.54000 412.825
33.55000 409.872
33.56000 407.390
33.57000 411.214
33.58000 415.069
33.59000 418.936
33.60000 422.840
33.61000 426.747
33.62000 430.743
33.63000 434.927
33.64000 439.117
33.65000 441.574
33.66000 425.653
33.67000 414.353
33.68000 414.728
33.69000 425.700
33.70000 436.499
33.71000 436.265
33.72000 429.449
33.73000 422.853
33.74000 421.628
33.75000 422.513
33.76000 423.236
33.77000 422.219
33.78000 420.730
33.79000 419.651
33.80000 421.187
33.81000 423.185
33.82000 424.823
33.83000 431.609
33.84000 437.633
33.85000 441.258
33.86000 438.275
33.87000 434.910
33.88000 431.468
33.89000 427.882
33.90000 424.294
33.91000 422.307
33.92000 421.118
33.93000 420.312
33.94000 423.780
33.95000 430.642
33.96000 437.434
33.97000 441.318
33.98000 443.664
33.99000 445.912
34.00000 444.468
34.01000 441.890
34.02000 438.993
34.03000 433.209
34.04000 426.737
34.05000 421.632
34.06000 424.105
34.07000 427.742
34.08000 430.647
34.09000 434.831
34.10000 438.303
34.11000 440.700
34.12000 440.468
34.13000 440.117
34.14000 438.730
34.15000 435.639
34.16000 432.522
34.17000 430.903
34.18000 436.903
34.19000 440.893
34.20000 436.558
34.21000 426.411
34.22000 416.687
34.23000 419.695
34.24000 428.666
34.25000 437.162
34.26000 430.838
34.27000 420.700
34.28000 412.463
34.29000 418.862
34.30000 428.331
34.31000 435.815
34.32000 433.684
34.33000 430.280
34.34000 427.641
34.35000 423.157
34.36000 419.483
34.37000 419.360
34.38000 426.930
34.39000 434.766
34.40000 434.700
34.41000 423.141
34.42000 411.487
34.43000 403.217
34.44000 398.133
34.45000 393.156
34.46000 395.867
34.47000 403.317
34.48000 410.542
34.49000 412.661
34.50000 412.658
34.51000 412.656
34.52000 415.622
34.53000 419.069
34.54000 422.643
34.55000 427.060
34.56000 431.632
34.57000 434.637
34.58000 430.977
34.59000 426.565
34.60000 423.251
34.61000 429.163
34.62000 434.226
34.63000 433.770
34.64000 422.707
34.65000 411.381
34.66000 402.887
34.67000 398.017
34.68000 393.166
34.69000 395.667
34.70000 404.181
34.71000 412.508
34.72000 412.114
34.73000 406.965
34.74000 401.915
34.75000 398.608
34.76000 395.943
34.77000 393.486
34.78000 396.024
34.79000 399.401
34.80000 402.396
34.81000 403.201
34.82000 403.657
34.83000 403.617
34.84000 401.721
34.85000 399.648
34.86000 398.144
34.87000 392.427
34.88000 387.876
34.89000 387.911
34.90000 395.751
34.91000 403.720
34.92000 410.823
34.93000 416.955
34.94000 423.063
34.95000 420.147
34.96000 410.800
34.97000 401.537
34.98000 395.000
34.99000 389.781
35.00000 384.990
35.01000 386.343
35.02000 389.702
35.03000 392.749
35.04000 390.857
35.05000 388.242
35.06000 386.442
35.07000 388.734
35.08000 391.589
35.09000 393.260
35.10000 391.005
35.11000 388.439
35.12000 386.647
35.13000 378.923
35.14000 372.921
35.15000 372.592
35.16000 380.790
35.17000 389.073
35.18000 395.014
35.19000 398.670
35.20000 402.300
35.21000 396.405
35.22000 384.645
35.23000 373.430
35.24000 375.510
35.25000 383.286
35.26000 390.452
35.27000 390.410
35.28000 388.284
35.29000 386.390
35.30000 389.426
35.31000 392.881
35.32000 394.320
35.33000 386.893
35.34000 378.420
35.35000 374.233
35.36000 382.621
35.37000 391.823
35.38000 397.995
35.39000 392.637
35.40000 388.427
35.41000 381.699
35.42000 371.639
35.43000 361.594
35.44000 370.330
35.45000 395.049
35.46000 419.465
35.47000 417.944
35.48000 402.236
35.49000 387.193
35.50000 384.738
35.51000 387.068
35.52000 388.819
35.53000 384.860
35.54000 379.444
35.55000 374.710
35.56000 377.735
35.57000 381.426
35.58000 384.243
35.59000 383.677
35.60000 382.773
35.61000 382.484
35.62000 383.793
35.63000 385.185
35.64000 386.078
35.65000 383.626
35.66000 381.792
35.67000 383.496
35.68000 389.303
35.69000 395.081
35.70000 393.925
35.71000 387.594
35.72000 381.379
35.73000 378.172
35.74000 376.525
35.75000 375.289
35.76000 380.258
35.77000 387.320
35.78000 393.012
35.79000 387.260
35.80000 378.937
35.81000 371.813
35.82000 377.304
35.83000 383.460
35.84000 386.840
35.85000 380.731
35.86000 373.831
35.87000 370.540
35.88000 375.577
35.89000 380.947
35.90000 384.228
35.91000 392.904
35.92000 399.155
35.93000 396.178
35.94000 383.866
35.95000 371.730
35.96000 376.401
35.97000 392.123
35.98000 407.439
35.99000 406.458
36.00000 398.650
36.01000 391.485
36.02000 392.272
36.03000 395.433
36.04000 398.011
36.05000 396.414
36.06000 393.996
36.07000 391.973
36.08000 391.616
36.09000 391.489
36.10000 391.270
36.11000 390.770
36.12000 390.251
36.13000 390.892
36.14000 393.907
36.15000 396.993
36.16000 398.780
36.17000 393.891
36.18000 390.437
36.19000 389.549
36.20000 390.922
36.21000 392.193
36.22000 387.553
36.23000 379.480
36.24000 371.684
36.25000 374.565
36.26000 381.225
36.27000 387.361
36.28000 388.108
36.29000 387.434
36.30000 385.947
36.31000 379.432
36.32000 372.053
36.33000 366.036
36.34000 372.595
36.35000 379.030
36.36000 382.833
36.37000 379.571
36.38000 375.921
36.39000 377.056
36.40000 386.868
36.41000 396.860
36.42000 402.319
36.43000 391.088
36.44000 383.382
36.45000 383.941
36.46000 390.881
36.47000 397.557
36.48000 393.981
36.49000 385.131
36.50000 376.672
36.51000 380.149
36.52000 387.245
36.53000 393.300
36.54000 390.293
36.55000 385.180
36.56000 380.216
36.57000 376.050
36.58000 372.004
36.59000 368.793
36.60000 363.895
36.61000 359.834
36.62000 359.159
36.63000 366.545
36.64000 374.277
36.65000 377.121
36.66000 372.125
36.67000 367.025
36.68000 364.413
36.69000 366.656
36.70000 368.146
36.71000 367.555
36.72000 365.551
36.73000 363.673
36.74000 365.330
36.75000 368.601
36.76000 371.690
36.77000 372.979
36.78000 373.652
36.79000 374.982
36.80000 381.200
36.81000 388.414
36.82000 393.361
36.83000 387.631
36.84000 380.534
36.85000 375.069
36.86000 376.586
36.87000 378.185
36.88000 376.443
36.89000 367.643
36.90000 358.616
36.91000 356.249
36.92000 363.306
36.93000 370.429
36.94000 371.236
36.95000 366.282
36.96000 361.363
36.97000 358.748
36.98000 357.514
36.99000 356.366
37.00000 357.055
37.01000 358.488
37.02000 359.824
37.03000 365.432
37.04000 371.561
37.05000 376.580
37.06000 374.473
37.07000 371.097
37.08000 368.379
37.09000 368.386
37.10000 368.689
37.11000 368.915
37.12000 370.807
37.13000 372.357
37.14000 372.794
37.15000 371.151
37.16000 369.461
37.17000 367.062
37.18000 363.784
37.19000 360.509
37.20000 359.570
37.21000 360.493
37.22000 361.449
37.23000 363.818
37.24000 366.937
37.25000 369.813
37.26000 368.562
37.27000 365.831
37.28000 363.322
37.29000 362.032
37.30000 361.141
37.31000 360.790
37.32000 363.443
37.33000 366.560
37.34000 368.514
37.35000 366.221
37.36000 363.538
37.37000 361.608
37.38000 362.527
37.39000 363.331
37.40000 363.888
37.41000 364.035
37.42000 364.176
37.43000 361.792
37.44000 356.663
37.45000 351.555
37.46000 355.685
37.47000 366.190
37.48000 376.375
37.49000 376.778
37.50000 372.579
37.51000 368.455
37.52000 365.381
37.53000 362.640
37.54000 360.162
37.55000 359.111
37.56000 358.450
37.57000 357.939
37.58000 358.156
37.59000 358.469
37.60000 358.120
37.61000 355.635
37.62000 352.988
37.63000 351.154
37.64000 352.974
37.65000 354.439
37.66000 354.928
37.67000 353.990
37.68000 353.039
37.69000 352.019
37.70000 350.934
37.71000 349.858
37.72000 353.976
37.73000 361.178
37.74000 368.140
37.75000 369.598
37.76000 368.757
37.77000 368.594
37.78000 376.107
37.79000 385.779
37.80000 394.364
37.81000 383.402
37.82000 370.775
37.83000 362.813
37.84000 374.796
37.85000 389.049
37.86000 396.742
37.87000 385.689
37.88000 373.477
37.89000 365.363
37.90000 367.411
37.91000 369.115
37.92000 369.185
37.93000 367.153
37.94000 365.119
37.95000 365.367
37.96000 367.501
37.97000 369.606
37.98000 370.846
37.99000 371.591
38.00000 372.003
38.01000 366.443
38.02000 358.672
38.03000 351.798
38.04000 353.463
38.05000 357.247
38.06000 360.541
38.07000 367.153
38.08000 373.252
38.09000 378.147
38.10000 378.508
38.11000 378.433
38.12000 380.771
38.13000 389.223
38.14000 397.975
38.15000 403.532
38.16000 394.415
38.17000 387.615
38.18000 385.702
38.19000 389.296
38.20000 392.896
38.21000 396.694
38.22000 400.637
38.23000 404.501
38.24000 402.900
38.25000 398.807
38.26000 395.112
38.27000 397.179
38.28000 401.138
38.29000 404.854
38.30000 406.611
38.31000 407.940
38.32000 409.072
38.33000 422.942
38.34000 436.087
38.35000 443.971
38.36000 434.332
38.37000 423.292
38.38000 419.051
38.39000 430.097
38.40000 441.719
38.41000 448.740
38.42000 453.013
38.43000 456.037
38.44000 462.767
38.45000 473.133
38.46000 483.443
38.47000 489.068
38.48000 491.695
38.49000 494.250
38.50000 498.634
38.51000 503.552
38.52000 508.298
38.53000 510.982
38.54000 513.068
38.55000 516.763
38.56000 531.609
38.57000 548.587
38.58000 562.710
38.59000 574.832
38.60000 584.670
38.61000 593.552
38.62000 599.617
38.63000 605.497
38.64000 608.243
38.65000 604.738
38.66000 601.061
38.67000 598.957
38.68000 603.832
38.69000 607.250
38.70000 603.897
38.71000 594.750
38.72000 585.654
38.73000 579.219
38.74000 574.291
38.75000 569.543
38.76000 567.266
38.77000 566.013
38.78000 564.052
38.79000 555.044
38.80000 544.228
38.81000 533.257
38.82000 521.351
38.83000 509.291
38.84000 499.512
38.85000 497.503
38.86000 496.501
38.87000 491.749
38.88000 477.188
38.89000 462.114
38.90000 451.367
38.91000 448.257
38.92000 445.292
38.93000 443.694
38.94000 429.916
38.95000 420.516
38.96000 418.013
38.97000 420.685
38.98000 423.046
38.99000 414.175
39.00000 399.674
39.01000 385.850
39.02000 387.093
39.03000 392.981
39.04000 398.157
39.05000 397.342
39.06000 395.174
39.07000 391.429
39.08000 379.445
39.09000 366.275
39.10000 355.891
39.11000 361.192
39.12000 366.500
39.13000 372.931
39.14000 381.968
39.15000 391.110
39.16000 392.540
39.17000 381.928
39.18000 371.174
39.19000 365.749
39.20000 363.980
39.21000 362.860
39.22000 367.811
39.23000 376.776
39.24000 385.374
39.25000 384.249
39.26000 378.804
39.27000 373.676
39.28000 367.221
39.29000 360.951
39.30000 354.881
39.31000 350.253
39.32000 345.910
39.33000 342.806
39.34000 345.365
39.35000 348.625
39.36000 351.118
39.37000 349.859
39.38000 348.661
39.39000 347.674
39.40000 347.119
39.41000 346.578
39.42000 346.181
39.43000 345.983
39.44000 345.786
39.45000 346.843
39.46000 349.008
39.47000 351.158
39.48000 352.384
39.49000 353.070
39.50000 353.653
39.51000 352.107
39.52000 349.724
39.53000 347.508
39.54000 351.894
39.55000 357.430
39.56000 361.663
39.57000 357.779
39.58000 352.493
39.59000 348.647
39.60000 350.595
39.61000 353.151
39.62000 355.043
39.63000 355.628
39.64000 356.025
39.65000 354.601
39.66000 349.855
39.67000 345.038
39.68000 344.155
39.69000 348.023
39.70000 351.894
39.71000 350.193
39.72000 344.201
39.73000 338.342
39.74000 337.753
39.75000 339.888
39.76000 341.910
39.77000 342.090
39.78000 341.626
39.79000 341.201
39.80000 340.790
39.81000 340.428
39.82000 341.090
39.83000 347.299
39.84000 354.337
39.85000 357.903
39.86000 349.140
39.87000 339.289
39.88000 332.255
39.89000 340.693
39.90000 347.641
39.91000 351.097
39.92000 348.919
39.93000 346.665
39.94000 347.782
39.95000 352.458
39.96000 357.110
39.97000 357.540
39.98000 355.114
39.99000 352.615
40.00000 347.979
40.01000 342.364
40.02000 337.577
40.03000 343.670
40.04000 353.131
40.05000 361.650
40.06000 347.158
40.07000 330.315
40.08000 318.194
40.09000 328.425
40.10000 341.536
40.11000 349.969
40.12000 343.712
40.13000 336.387
40.14000 331.356
40.15000 338.394
40.16000 343.967
40.17000 343.827
40.18000 335.560
40.19000 327.234
40.20000 323.149
40.21000 322.960
40.22000 322.772
40.23000 325.733
40.24000 330.494
40.25000 335.204
40.26000 338.786
40.27000 341.911
40.28000 344.714
40.29000 344.012
40.30000 342.350
40.31000 340.881
40.32000 341.770
40.33000 342.902
40.34000 343.337
40.35000 340.869
40.36000 338.082
40.37000 337.063
40.38000 340.964
40.39000 345.153
40.40000 347.911
40.41000 340.181
40.42000 334.307
40.43000 330.801
40.44000 330.255
40.45000 329.725
40.46000 331.460
40.47000 335.014
40.48000 338.516
40.49000 340.822
40.50000 342.442
40.51000 344.048
40.52000 345.404
40.53000 346.670
40.54000 347.666
40.55000 346.181
40.56000 344.098
40.57000 342.293
40.58000 339.418
40.59000 336.831
40.60000 334.486
40.61000 333.030
40.62000 331.656
40.63000 331.389
40.64000 333.858
40.65000 336.454
40.66000 338.085
40.67000 340.896
40.68000 342.941
40.69000 342.686
40.70000 339.915
40.71000 337.156
40.72000 336.105
40.73000 336.262
40.74000 336.414
40.75000 337.215
40.76000 338.278
40.77000 339.498
40.78000 342.894
40.79000 346.986
40.80000 350.230
40.81000 346.852
40.82000 342.069
40.83000 338.016
40.84000 339.308
40.85000 340.991
40.86000 341.645
40.87000 338.963
40.88000 336.026
40.89000 335.234
40.90000 339.143
40.91000 343.217
40.92000 345.651
40.93000 350.404
40.94000 353.790
40.95000 354.639
40.96000 353.076
40.97000 351.531
40.98000 351.451
40.99000 352.282
41.00000 353.090
41.01000 351.519
41.02000 349.082
41.03000 346.635
41.04000 344.070
41.05000 341.470
41.06000 339.484
41.07000 341.612
41.08000 344.503
41.09000 346.896
41.10000 349.165
41.11000 351.025
41.12000 351.413
41.13000 347.571
41.14000 343.464
41.15000 339.384
41.16000 335.353
41.17000 331.324
41.18000 329.047
41.19000 336.785
41.20000 342.189
41.21000 345.670
41.22000 347.553
41.23000 349.325
41.24000 345.774
41.25000 339.291
41.26000 333.057
41.27000 329.272
41.28000 326.578
41.29000 325.383
41.30000 338.528
41.31000 355.252
41.32000 369.766
41.33000 371.423
41.34000 371.004
41.35000 370.667
41.36000 366.556
41.37000 362.921
41.38000 360.510
41.39000 361.214
41.40000 362.073
41.41000 364.409
41.42000 369.287
41.43000 374.209
41.44000 376.825
41.45000 373.737
41.46000 371.660
41.47000 374.311
41.48000 380.414
41.49000 386.155
41.50000 379.774
41.51000 367.475
41.52000 355.778
41.53000 353.465
41.54000 354.189
41.55000 355.859
41.56000 365.212
41.57000 376.253
41.58000 387.061
41.59000 396.692
41.60000 406.158
41.61000 413.574
41.62000 441.588
41.63000 465.299
41.64000 495.252
41.65000 539.310
41.66000 583.906
41.67000 630.799
41.68000 681.183
41.69000 731.604
41.70000 769.152
41.71000 793.994
41.72000 818.720
41.73000 833.456
41.74000 841.766
41.75000 850.017
41.76000 856.799
41.77000 862.946
41.78000 868.720
41.79000 874.637
41.80000 880.074
41.81000 885.370
41.82000 889.683
41.83000 893.808
41.84000 893.533
41.85000 873.695
41.86000 851.521
41.87000 834.677
41.88000 771.770
41.89000 719.931
41.90000 673.954
41.91000 639.722
41.92000 605.820
41.93000 568.432
41.94000 526.379
41.95000 484.335
41.96000 454.693
41.97000 435.766
41.98000 416.962
41.99000 404.689
42.00000 396.131
42.01000 387.944
42.02000 386.931
42.03000 388.673
42.04000 390.288
42.05000 390.863
42.06000 391.140
42.07000 391.686
42.08000 393.853
42.09000 396.293
42.10000 397.943
42.11000 396.508
42.12000 394.760
42.13000 393.476
42.14000 402.713
42.15000 410.284
42.16000 411.367
42.17000 400.934
42.18000 390.279
42.19000 384.970
42.20000 385.936
42.21000 386.910
42.22000 393.013
42.23000 402.920
42.24000 412.648
42.25000 415.872
42.26000 415.820
42.27000 415.289
42.28000 407.385
42.29000 396.970
42.30000 387.470
42.31000 389.739
42.32000 394.122
42.33000 397.684
42.34000 396.932
42.35000 395.556
42.36000 393.950
42.37000 391.551
42.38000 389.086
42.39000 387.340
42.40000 387.016
42.41000 386.815
42.42000 387.142
42.43000 388.298
42.44000 389.464
42.45000 391.532
42.46000 394.525
42.47000 397.499
42.48000 400.476
42.49000 403.414
42.50000 406.134
42.51000 403.026
42.52000 397.315
42.53000 391.772
42.54000 388.358
42.55000 385.585
42.56000 383.098
42.57000 384.551
42.58000 386.507
42.59000 389.059
42.60000 394.359
42.61000 400.000
42.62000 406.110
42.63000 413.656
42.64000 421.303
42.65000 426.507
42.66000 428.978
42.67000 430.761
42.68000 427.599
42.69000 417.592
42.70000 407.546
42.71000 402.676
42.72000 402.421
42.73000 402.168
42.74000 400.492
42.75000 398.037
42.76000 395.678
42.77000 395.300
42.78000 395.706
42.79000 396.920
42.80000 406.592
42.81000 418.518
42.82000 429.016
42.83000 428.110
42.84000 425.624
42.85000 423.785
42.86000 424.566
42.87000 425.624
42.88000 426.398
42.89000 426.401
42.90000 426.361
42.91000 426.336
42.92000 414.566
42.93000 405.747
42.94000 400.910
42.95000 400.910
42.96000 400.943
42.97000 406.662
42.98000 416.821
42.99000 426.816
43.00000 428.398
43.01000 425.695
43.02000 423.267
43.03000 425.327
43.04000 428.965
43.05000 431.986
43.06000 429.566
43.07000 425.866
43.08000 422.677
43.09000 425.277
43.10000 428.223
43.11000 430.471
43.12000 430.225
43.13000 429.757
43.14000 430.023
43.15000 432.055
43.16000 434.164
43.17000 435.475
43.18000 418.981
43.19000 406.927
43.20000 399.492
43.21000 396.961
43.22000 394.507
43.23000 401.027
43.24000 413.711
43.25000 426.103
43.26000 429.535
43.27000 428.869
43.28000 428.278
43.29000 428.684
43.30000 429.401
43.31000 430.687
43.32000 436.260
43.33000 442.717
43.34000 448.162
43.35000 443.882
43.36000 439.255
43.37000 436.934
43.38000 441.895
43.39000 447.390
43.40000 451.537
43.41000 452.810
43.42000 453.987
43.43000 454.682
43.44000 458.864
43.45000 461.834
43.46000 457.733
43.47000 447.101
43.48000 436.659
43.49000 439.055
43.50000 449.233
43.51000 459.093
43.52000 464.437
43.53000 467.746
43.54000 470.740
43.55000 470.269
43.56000 468.845
43.57000 467.313
43.58000 465.082
43.59000 462.725
43.60000 460.787
43.61000 453.387
43.62000 446.807
43.63000 445.065
43.64000 456.862
43.65000 469.463
43.66000 478.743
43.67000 481.744
43.68000 484.595
43.69000 486.186
43.70000 483.781
43.71000 482.116
43.72000 482.973
43.73000 485.867
43.74000 488.723
43.75000 489.842
43.76000 490.031
43.77000 490.211
43.78000 497.487
43.79000 506.688
43.80000 514.878
43.81000 513.732
43.82000 510.320
43.83000 508.183
43.84000 513.241
43.85000 519.425
43.86000 524.379
43.87000 522.498
43.88000 520.461
43.89000 519.436
43.90000 520.925
43.91000 522.531
43.92000 526.213
43.93000 533.369
43.94000 540.580
43.95000 544.359
43.96000 558.287
43.97000 567.689
43.98000 572.225
43.99000 573.306
44.00000 574.343
44.01000 574.027
44.02000 573.068
44.03000 572.158
44.04000 579.237
44.05000 588.133
44.06000 597.010
44.07000 605.747
44.08000 614.453
44.09000 620.974
44.10000 616.728
44.11000 611.027
44.12000 606.591
44.13000 634.244
44.14000 658.236
44.15000 675.542
44.16000 678.130
44.17000 680.192
44.18000 693.955
44.19000 725.014
44.20000 756.229
44.21000 788.158
44.22000 820.765
44.23000 853.734
44.24000 914.526
44.25000 992.739
44.26000 1073.685
44.27000 1218.917
44.28000 1391.263
44.29000 1552.686
44.30000 1807.253
44.31000 2062.890
44.32000 2317.025
44.33000 2561.023
44.34000 2803.129
44.35000 3036.309
44.36000 3230.900
44.37000 3421.040
44.38000 3564.447
44.39000 3697.311
44.40000 3800.859
44.41000 3886.900
44.42000 3938.771
44.43000 3989.755
44.44000 4031.878
44.45000 4062.472
44.46000 4092.985
44.47000 4102.409
44.48000 4094.224
44.49000 4084.231
44.50000 3985.867
44.51000 3838.568
44.52000 3687.529
44.53000 3467.866
44.54000 3222.527
44.55000 2995.971
44.56000 2721.269
44.57000 2464.059
44.58000 2215.874
44.59000 2020.484
44.60000 1833.673
44.61000 1673.515
44.62000 1614.868
44.63000 1566.118
44.64000 1530.586
44.65000 1538.758
44.66000 1546.738
44.67000 1568.037
44.68000 1612.359
44.69000 1657.086
44.70000 1686.832
44.71000 1699.497
44.72000 1712.102
44.73000 1735.410
44.74000 1766.319
44.75000 1796.801
44.76000 1812.738
44.77000 1821.539
44.78000 1830.518
44.79000 1842.120
44.80000 1854.593
44.81000 1865.930
44.82000 1858.093
44.83000 1847.422
44.84000 1837.528
44.85000 1831.597
44.86000 1826.221
44.87000 1808.176
44.88000 1747.495
44.89000 1683.349
44.90000 1638.302
44.91000 1589.523
44.92000 1552.479
44.93000 1515.424
44.94000 1478.351
44.95000 1441.278
44.96000 1413.265
44.97000 1394.248
44.98000 1375.361
44.99000 1356.782
45.00000 1338.684
45.01000 1320.917
45.02000 1311.508
45.03000 1305.736
45.04000 1300.559
45.05000 1302.567
45.06000 1306.684
45.07000 1310.362
45.08000 1310.751
45.09000 1310.537
45.10000 1310.870
45.11000 1313.658
45.12000 1316.740
45.13000 1319.921
45.14000 1323.395
45.15000 1326.889
45.16000 1329.245
45.17000 1312.929
45.18000 1300.395
45.19000 1298.478
45.20000 1310.846
45.21000 1323.287
45.22000 1332.878
45.23000 1340.001
45.24000 1347.042
45.25000 1350.040
45.26000 1350.709
45.27000 1350.996
45.28000 1343.809
45.29000 1333.738
45.30000 1326.134
45.31000 1343.415
45.32000 1367.149
45.33000 1387.950
45.34000 1391.658
45.35000 1392.367
45.36000 1393.755
45.37000 1397.820
45.38000 1402.157
45.39000 1407.404
45.40000 1415.055
45.41000 1422.833
45.42000 1427.853
45.43000 1420.883
45.44000 1415.618
45.45000 1425.016
45.46000 1451.724
45.47000 1478.351
45.48000 1480.892
45.49000 1465.155
45.50000 1449.694
45.51000 1462.630
45.52000 1489.013
45.53000 1514.003
45.54000 1517.338
45.55000 1513.261
45.56000 1512.498
45.57000 1540.016
45.58000 1573.994
45.59000 1603.155
45.60000 1606.023
45.61000 1605.203
45.62000 1606.748
45.63000 1616.512
45.64000 1626.977
45.65000 1642.318
45.66000 1669.084
45.67000 1696.323
45.68000 1713.075
45.69000 1743.514
45.70000 1765.462
45.71000 1783.039
45.72000 1796.111
45.73000 1809.218
45.74000 1825.934
45.75000 1845.062
45.76000 1863.716
45.77000 1880.138
45.78000 1894.866
45.79000 1909.735
45.80000 1926.405
45.81000 1943.621
45.82000 1961.659
45.83000 1985.698
45.84000 2010.939
45.85000 2032.112
45.86000 2068.470
45.87000 2100.314
45.88000 2129.826
45.89000 2152.166
45.90000 2174.001
45.91000 2198.092
45.92000 2226.867
45.93000 2255.788
45.94000 2272.660
45.95000 2356.633
45.96000 2415.982
45.97000 2461.074
45.98000 2493.381
45.99000 2525.817
46.00000 2566.074
46.01000 2610.948
46.02000 2654.330
46.03000 2736.253
46.04000 2828.044
46.05000 2921.654
46.06000 3034.463
46.07000 3152.417
46.08000 3282.025
46.09000 3485.046
46.10000 3700.903
46.11000 3877.519
46.12000 4172.826
46.13000 4425.139
46.14000 4700.956
46.15000 5040.830
46.16000 5384.329
46.17000 5729.304
46.18000 6076.999
46.19000 6424.752
46.20000 6616.222
46.21000 7322.683
46.22000 7810.820
46.23000 8465.923
46.24000 9252.092
46.25000 10061.700
46.26000 11826.379
46.27000 14090.075
46.28000 16256.500
46.29000 22588.906
46.30000 29859.734
46.31000 37951.105
46.32000 53346.555
46.33000 70466.852
46.34000 88638.055
46.35000 112563.359
46.36000 137361.313
46.37000 157108.391
46.38000 182787.859
46.39000 203922.875
46.40000 222749.500
46.41000 235995.875
46.42000 248994.625
46.43000 260613.969
46.44000 269985.344
46.45000 279325.000
46.46000 284149.125
46.47000 296929.750
46.48000 305539.688
46.49000 313503.313
46.50000 321020.656
46.51000 328357.188
46.52000 330389.938
46.53000 329965.844
46.54000 329564.594
46.55000 317667.438
46.56000 303421.875
46.57000 288518.375
46.58000 268618.188
46.59000 247681.859
46.60000 226889.094
46.61000 206783.578
46.62000 186767.766
46.63000 171291.953
46.64000 153783.469
46.65000 139772.891
46.66000 126717.586
46.67000 115710.828
46.68000 104772.750
46.69000 93830.211
46.70000 82881.242
46.71000 71934.125
46.72000 61506.617
46.73000 51566.840
46.74000 41651.945
46.75000 33452.805
46.76000 26299.289
46.77000 19276.357
46.78000 15153.999
46.79000 12223.558
46.80000 9486.946
46.81000 8060.877
46.82000 7096.601
46.83000 6194.376
46.84000 5698.005
46.85000 5275.195
46.86000 4886.492
46.87000 4641.195
46.88000 4411.862
46.89000 4240.139
46.90000 4041.326
46.91000 3884.900
46.92000 3730.552
46.93000 3580.155
46.94000 3429.853
46.95000 3313.484
46.96000 3240.030
46.97000 3166.827
46.98000 3084.908
46.99000 2996.247
47.00000 2907.828
47.01000 2830.296
47.02000 2758.633
47.03000 2687.262
47.04000 2620.970
47.05000 2556.531
47.06000 2497.220
47.07000 2462.130
47.08000 2436.042
47.09000 2408.760
47.10000 2374.696
47.11000 2339.563
47.12000 2300.704
47.13000 2248.028
47.14000 2194.055
47.15000 2155.024
47.16000 2121.567
47.17000 2096.095
47.18000 2065.529
47.19000 2026.391
47.20000 1987.117
47.21000 1953.792
47.22000 1927.052
47.23000 1900.423
47.24000 1868.668
47.25000 1833.594
47.26000 1798.601
47.27000 1766.154
47.28000 1734.924
47.29000 1703.315
47.30000 1666.379
47.31000 1627.723
47.32000 1592.711
47.33000 1574.389
47.34000 1561.400
47.35000 1549.663
47.36000 1544.126
47.37000 1539.433
47.38000 1527.957
47.39000 1494.260
47.40000 1458.832
47.41000 1434.164
47.42000 1398.829
47.43000 1371.884
47.44000 1351.646
47.45000 1341.374
47.46000 1331.195
47.47000 1314.198
47.48000 1290.634
47.49000 1267.252
47.50000 1249.628
47.51000 1235.868
47.52000 1222.204
47.53000 1210.794
47.54000 1200.340
47.55000 1189.634
47.56000 1176.010
47.57000 1161.552
47.58000 1148.687
47.59000 1131.214
47.60000 1115.289
47.61000 1099.857
47.62000 1086.566
47.63000 1073.524
47.64000 1058.846
47.65000 1039.426
47.66000 1019.704
47.67000 1006.526
47.68000 997.647
47.69000 991.151
47.70000 979.320
47.71000 960.509
47.72000 941.669
47.73000 923.837
47.74000 906.853
47.75000 890.086
47.76000 886.808
47.77000 890.928
47.78000 894.206
47.79000 881.906
47.80000 863.747
47.81000 846.850
47.82000 842.207
47.83000 840.657
47.84000 839.304
47.85000 837.695
47.86000 836.283
47.87000 831.428
47.88000 813.384
47.89000 794.045
47.90000 779.858
47.91000 778.929
47.92000 778.670
47.93000 778.505
47.94000 753.370
47.95000 734.752
47.96000 723.571
47.97000 720.915
47.98000 718.245
47.99000 711.130
48.00000 700.735
48.01000 690.539
48.02000 680.350
48.03000 670.535
48.04000 660.611
48.05000 649.047
48.06000 636.937
48.07000 625.042
48.08000 614.909
48.09000 605.169
48.10000 596.849
48.11000 604.545
48.12000 612.935
48.13000 617.047
48.14000 606.682
48.15000 595.132
48.16000 585.954
48.17000 582.191
48.18000 578.639
48.19000 576.478
48.20000 567.606
48.21000 561.218
48.22000 561.141
48.23000 567.368
48.24000 573.497
48.25000 570.813
48.26000 562.397
48.27000 554.205
48.28000 548.738
48.29000 544.666
48.30000 540.110
48.31000 529.652
48.32000 517.451
48.33000 506.633
48.34000 505.575
48.35000 506.415
48.36000 507.116
48.37000 504.177
48.38000 501.374
48.39000 499.151
48.40000 498.668
48.41000 498.301
48.42000 496.795
48.43000 492.981
48.44000 489.101
48.45000 486.864
48.46000 481.414
48.47000 477.587
48.48000 475.508
48.49000 474.949
48.50000 474.384
48.51000 473.517
48.52000 472.477
48.53000 471.472
48.54000 464.801
48.55000 456.453
48.56000 448.594
48.57000 445.690
48.58000 444.078
48.59000 441.860
48.60000 435.936
48.61000 429.384
48.62000 424.053
48.63000 427.162
48.64000 430.408
48.65000 432.397
48.66000 431.049
48.67000 429.521
48.68000 428.803
48.69000 429.537
48.70000 430.300
48.71000 430.715
48.72000 428.040
48.73000 426.215
48.74000 427.375
48.75000 430.812
48.76000 434.007
48.77000 428.054
48.78000 417.446
48.79000 407.318
48.80000 404.395
48.81000 403.983
48.82000 403.410
48.83000 401.457
48.84000 399.186
48.85000 396.134
48.86000 388.932
48.87000 381.120
48.88000 374.938
48.89000 382.783
48.90000 390.056
48.91000 393.601
48.92000 388.367
48.93000 382.765
48.94000 379.385
48.95000 379.531
48.96000 379.721
48.97000 379.818
48.98000 379.795
48.99000 379.766
49.00000 378.300
49.01000 375.869
49.02000 373.352
49.03000 368.486
49.04000 362.559
49.05000 356.967
49.06000 358.326
49.07000 361.514
49.08000 364.424
49.09000 365.291
49.10000 365.747
49.11000 364.397
49.12000 354.642
49.13000 343.827
49.14000 335.521
49.15000 343.704
49.16000 351.096
49.17000 356.936
49.18000 359.536
49.19000 362.034
49.20000 362.909
49.21000 361.512
49.22000 360.102
49.23000 357.563
49.24000 354.012
49.25000 350.484
49.26000 348.368
49.27000 347.090
49.28000 345.866
49.29000 345.776
49.30000 346.140
49.31000 346.479
49.32000 336.237
49.33000 324.401
49.34000 314.554
49.35000 317.315
49.36000 322.294
49.37000 327.588
49.38000 334.170
49.39000 340.891
49.40000 345.886
49.41000 345.478
49.42000 344.921
49.43000 343.205
49.44000 339.345
49.45000 335.438
49.46000 332.092
49.47000 329.437
49.48000 326.788
49.49000 327.060
49.50000 329.624
49.51000 332.097
49.52000 330.796
49.53000 327.512
49.54000 324.508
49.55000 326.151
49.56000 329.443
49.57000 332.464
49.58000 332.527
49.59000 331.958
49.60000 330.902
49.61000 327.162
49.62000 323.013
49.63000 319.031
49.64000 315.656
49.65000 312.335
49.66000 309.952
49.67000 311.235
49.68000 312.342
49.69000 314.681
49.70000 319.040
49.71000 323.428
49.72000 322.993
49.73000 317.376
49.74000 311.785
49.75000 310.530
49.76000 312.266
49.77000 313.980
49.78000 315.049
49.79000 315.817
49.80000 316.650
49.81000 318.346
49.82000 320.314
49.83000 322.089
49.84000 309.903
49.85000 296.642
49.86000 286.893
49.87000 294.057
49.88000 303.442
49.89000 309.049
49.90000 302.596
49.91000 295.243
49.92000 290.168
49.93000 292.569
49.94000 294.565
49.95000 294.873
49.96000 292.741
49.97000 290.590
49.98000 291.747
49.99000 295.996
50.00000 300.208
50.01000 302.745
50.02000 304.227
50.03000 305.725
50.04000 307.583
50.05000 309.590
50.06000 311.175
50.07000 308.056
50.08000 303.628
50.09000 299.705
50.10000 298.952
50.11000 298.801
50.12000 299.684
50.13000 304.934
50.14000 310.674
50.15000 313.099
50.16000 306.152
50.17000 298.638
50.18000 293.664
50.19000 298.044
50.20000 301.445
50.21000 301.324
50.22000 296.723
50.23000 292.117
50.24000 291.964
50.25000 295.447
50.26000 298.882
50.27000 303.917
50.28000 309.651
50.29000 314.917
50.30000 311.944
50.31000 305.952
50.32000 300.426
50.33000 299.270
50.34000 299.187
50.35000 299.115
50.36000 302.248
50.37000 305.352
50.38000 306.862
50.39000 302.432
50.40000 297.441
50.41000 295.869
50.42000 302.867
50.43000 310.277
50.44000 314.961
50.45000 316.212
50.46000 317.077
50.47000 315.451
50.48000 311.049
50.49000 306.676
50.50000 306.847
50.51000 310.278
50.52000 313.639
50.53000 317.009
50.54000 320.254
50.55000 323.080
50.56000 319.953
50.57000 314.892
50.58000 310.280
50.59000 309.235
50.60000 308.961
50.61000 308.727
50.62000 310.142
50.63000 311.519
50.64000 311.818
50.65000 308.570
50.66000 305.043
50.67000 302.273
50.68000 301.184
50.69000 300.156
50.70000 299.538
50.71000 303.386
50.72000 306.152
50.73000 304.963
50.74000 299.943
50.75000 294.997
50.76000 295.997
50.77000 300.760
50.78000 305.389
50.79000 309.970
50.80000 314.305
50.81000 318.100
50.82000 315.595
50.83000 311.280
50.84000 308.006
50.85000 311.854
50.86000 317.048
50.87000 321.359
50.88000 318.928
50.89000 316.267
50.90000 314.226
50.91000 313.994
50.92000 313.878
50.93000 314.357
50.94000 316.009
50.95000 317.693
50.96000 318.651
50.97000 304.978
50.98000 295.407
50.99000 289.281
51.00000 286.067
51.01000 282.868
51.02000 280.458
51.03000 278.489
51.04000 276.594
51.05000 277.766
51.06000 279.954
51.07000 282.045
51.08000 283.186
51.09000 284.086
51.10000 284.553
51.11000 282.459
51.12000 279.945
51.13000 277.912
51.14000 271.406
51.15000 265.752
51.16000 261.865
51.17000 262.548
51.18000 263.465
51.19000 262.366
51.20000 257.746
51.21000 253.062
51.22000 250.552
51.23000 258.170
51.24000 263.356
51.25000 264.514
51.26000 262.685
51.27000 261.002
51.28000 264.432
51.29000 270.396
51.30000 276.077
51.31000 273.429
51.32000 268.391
51.33000 263.595
51.34000 260.815
51.35000 258.485
51.36000 256.100
51.37000 253.436
51.38000 250.732
51.39000 248.606
51.40000 245.238
51.41000 242.459
51.42000 240.608
51.43000 240.887
51.44000 241.250
51.45000 242.628
51.46000 245.573
51.47000 248.536
51.48000 250.021
51.49000 250.826
51.50000 251.346
51.51000 250.309
51.52000 248.254
51.53000 246.413
51.54000 250.074
51.55000 256.154
51.56000 261.874
51.57000 260.693
51.58000 257.742
51.59000 254.807
51.60000 251.978
51.61000 249.171
51.62000 246.730
51.63000 245.947
51.64000 245.367
51.65000 244.924
51.66000 240.967
51.67000 237.662
51.68000 234.501
51.69000 231.631
51.70000 228.770
51.71000 229.803
51.72000 236.134
51.73000 242.491
51.74000 243.341
51.75000 239.375
51.76000 235.465
51.77000 234.767
51.78000 235.924
51.79000 237.206
51.80000 240.980
51.81000 245.727
51.82000 250.133
51.83000 245.933
51.84000 240.115
51.85000 234.569
51.86000 230.691
51.87000 227.098
51.88000 226.225
51.89000 236.174
51.90000 247.243
51.91000 255.409
51.92000 244.617
51.93000 235.457
51.94000 227.685
51.95000 222.417
51.96000 217.199
51.97000 220.282
51.98000 233.277
51.99000 246.260
52.00000 246.849
52.01000 237.984
52.02000 229.389
52.03000 231.160
52.04000 238.234
52.05000 245.059
52.06000 247.944
52.07000 249.465
52.08000 250.857
52.09000 240.908
52.10000 229.742
52.11000 220.887
52.12000 224.382
52.13000 229.704
52.14000 234.229
52.15000 235.958
52.16000 237.444
52.17000 238.502
52.18000 234.333
52.19000 230.989
52.20000 229.861
52.21000 232.266
52.22000 234.717
52.23000 235.419
52.24000 234.296
52.25000 233.180
52.26000 230.649
52.27000 227.207
52.28000 223.850
52.29000 222.851
52.30000 222.921
52.31000 223.171
52.32000 225.739
52.33000 229.016
52.34000 231.961
52.35000 226.508
52.36000 220.242
52.37000 215.480
52.38000 217.753
52.39000 220.919
52.40000 221.974
52.41000 216.470
52.42000 210.498
52.43000 206.411
52.44000 210.118
52.45000 213.078
52.46000 217.030
52.47000 222.377
52.48000 227.732
52.49000 229.844
52.50000 229.014
52.51000 228.192
52.52000 224.284
52.53000 218.656
52.54000 213.465
52.55000 217.571
52.56000 225.416
52.57000 232.450
52.58000 230.787
52.59000 226.768
52.60000 223.221
52.61000 215.012
52.62000 207.218
52.63000 201.360
52.64000 203.465
52.65000 206.430
52.66000 209.673
52.67000 213.677
52.68000 217.725
52.69000 220.378
52.70000 209.637
52.71000 201.516
52.72000 201.838
52.73000 212.593
52.74000 223.350
52.75000 225.587
52.76000 221.060
52.77000 216.602
52.78000 215.324
52.79000 215.712
52.80000 216.024
52.81000 215.052
52.82000 213.623
52.83000 212.442
52.84000 213.501
52.85000 215.096
52.86000 216.475
52.87000 211.977
52.88000 207.388
52.89000 203.480
52.90000 202.045
52.91000 200.834
52.92000 201.874
52.93000 208.408
52.94000 215.191
52.95000 219.435
52.96000 221.810
52.97000 223.504
52.98000 222.394
52.99000 218.253
53.00000 214.109
53.01000 209.607
53.02000 204.857
53.03000 200.212
53.04000 200.001
53.05000 201.790
53.06000 203.704
53.07000 207.331
53.08000 211.499
53.09000 215.506
53.10000 218.272
53.11000 220.778
53.12000 222.898
53.13000 219.039
53.14000 215.149
53.15000 212.754
53.16000 215.155
53.17000 217.918
53.18000 218.797
53.19000 215.596
53.20000 212.255
53.21000 210.268
53.22000 218.542
53.23000 224.460
53.24000 221.934
53.25000 211.469
53.26000 201.140
53.27000 200.559
53.28000 205.981
53.29000 211.239
53.30000 216.127
53.31000 220.613
53.32000 224.675
53.33000 223.972
53.34000 221.935
53.35000 220.245
53.36000 220.844
53.37000 221.864
53.38000 222.706
53.39000 222.520
53.40000 222.272
53.41000 222.980
53.42000 226.402
53.43000 229.991
53.44000 229.809
53.45000 222.386
53.46000 214.782
53.47000 210.508
53.48000 220.952
53.49000 228.213
53.50000 225.352
53.51000 214.176
53.52000 203.165
53.53000 199.823
53.54000 200.660
53.55000 201.464
53.56000 200.048
53.57000 197.958
53.58000 196.408
53.59000 199.949
53.60000 204.747
53.61000 208.696
53.62000 207.774
53.63000 206.075
53.64000 204.709
53.65000 208.581
53.66000 212.126
53.67000 214.028
53.68000 211.787
53.69000 209.346
53.70000 208.102
53.71000 208.893
53.72000 209.717
53.73000 210.152
53.74000 206.174
53.75000 203.494
53.76000 204.660
53.77000 208.602
53.78000 212.450
53.79000 213.281
53.80000 212.653
53.81000 212.057
53.82000 210.691
53.83000 209.196
53.84000 207.758
53.85000 206.768
53.86000 205.875
53.87000 205.321
53.88000 206.469
53.89000 207.850
53.90000 208.929
53.91000 208.227
53.92000 207.555
53.93000 207.804
53.94000 210.112
53.95000 212.498
53.96000 212.060
53.97000 207.383
53.98000 202.664
53.99000 199.670
54.00000 198.358
54.01000 197.090
54.02000 199.447
54.03000 204.112
54.04000 208.681
54.05000 210.928
54.06000 212.180
54.07000 213.355
54.08000 212.201
54.09000 210.536
54.10000 208.864
54.11000 207.139
54.12000 205.405
54.13000 204.061
54.14000 204.438
54.15000 205.018
54.16000 205.456
54.17000 198.882
54.18000 193.366
54.19000 191.037
54.20000 195.028
54.21000 199.191
54.22000 203.297
54.23000 207.328
54.24000 211.355
54.25000 211.443
54.26000 208.190
54.27000 205.016
54.28000 205.912
54.29000 209.098
54.30000 211.873
54.31000 206.874
54.32000 198.921
54.33000 191.563
54.34000 193.729
54.35000 197.859
54.36000 201.487
54.37000 202.126
54.38000 202.269
54.39000 202.833
54.40000 205.023
54.41000 207.374
54.42000 209.096
54.43000 206.702
54.44000 204.689
54.45000 203.171
54.46000 202.518
54.47000 201.882
54.48000 201.175
54.49000 200.384
54.50000 199.595
54.51000 200.602
54.52000 202.931
54.53000 205.224
54.54000 206.191
54.55000 206.499
54.56000 207.057
54.57000 211.403
54.58000 217.025
54.59000 222.146
54.60000 215.359
54.61000 206.980
54.62000 200.355
54.63000 202.833
54.64000 206.614
54.65000 208.975
54.66000 206.485
54.67000 203.590
54.68000 201.548
54.69000 200.499
54.70000 199.733
54.71000 199.854
54.72000 201.352
54.73000 202.866
54.74000 204.378
54.75000 205.888
54.76000 207.389
54.77000 208.864
54.78000 210.301
54.79000 211.724
54.80000 212.782
54.81000 213.678
54.82000 214.056
54.83000 208.026
54.84000 200.086
54.85000 192.976
54.86000 199.588
54.87000 207.716
54.88000 214.328
54.89000 214.048
54.90000 212.922
54.91000 212.160
54.92000 212.497
54.93000 212.909
54.94000 213.189
54.95000 207.616
54.96000 203.331
54.97000 202.658
54.98000 206.923
54.99000 211.216
55.00000 213.754
55.01000 214.746
55.02000 215.727
55.03000 213.718
55.04000 210.057
55.05000 206.596
55.06000 207.135
55.07000 209.243
55.08000 211.354
55.09000 213.501
55.10000 215.657
55.11000 217.552
55.12000 220.142
55.13000 222.472
55.14000 223.344
55.15000 218.388
55.16000 212.824
55.17000 210.769
55.18000 218.125
55.19000 225.997
55.20000 231.107
55.21000 224.967
55.22000 220.299
55.23000 217.350
55.24000 216.464
55.25000 215.605
55.26000 220.304
55.27000 229.293
55.28000 238.132
55.29000 235.812
55.30000 228.018
55.31000 220.562
55.32000 218.510
55.33000 218.336
55.34000 218.678
55.35000 223.516
55.36000 229.397
55.37000 234.458
55.38000 240.664
55.39000 246.064
55.40000 249.668
55.41000 246.934
55.42000 243.646
55.43000 241.664
55.44000 242.790
55.45000 244.049
55.46000 244.828
55.47000 250.246
55.48000 254.184
55.49000 254.861
55.50000 252.119
55.51000 249.423
55.52000 251.984
55.53000 258.113
55.54000 264.096
55.55000 270.635
55.56000 277.131
55.57000 283.379
55.58000 286.402
55.59000 288.432
55.60000 290.765
55.61000 295.357
55.62000 300.409
55.63000 304.659
55.64000 308.445
55.65000 311.553
55.66000 314.272
55.67000 315.777
55.68000 317.196
55.69000 316.494
55.70000 311.316
55.71000 305.995
55.72000 302.868
55.73000 313.465
55.74000 321.005
55.75000 327.898
55.76000 334.201
55.77000 340.441
55.78000 342.615
55.79000 342.352
55.80000 342.097
55.81000 341.312
55.82000 340.369
55.83000 339.605
55.84000 340.782
55.85000 342.486
55.86000 344.771
55.87000 350.788
55.88000 357.470
55.89000 362.954
55.90000 353.954
55.91000 345.271
55.92000 339.035
55.93000 339.574
55.94000 340.508
55.95000 338.535
55.96000 331.125
55.97000 323.590
55.98000 319.409
55.99000 329.312
56.00000 336.151
56.01000 333.333
56.02000 322.808
56.03000 312.356
56.04000 305.046
56.05000 299.402
56.06000 293.994
56.07000 288.931
56.08000 284.321
56.09000 280.230
56.10000 280.856
56.11000 282.614
56.12000 283.752
56.13000 281.435
56.14000 278.585
56.15000 276.306
56.16000 272.168
56.17000 268.686
56.18000 265.917
56.19000 264.897
56.20000 263.957
56.21000 261.704
56.22000 257.278
56.23000 252.819
56.24000 250.497
56.25000 255.886
56.26000 259.464
56.27000 254.091
56.28000 242.438
56.29000 231.213
56.30000 233.082
56.31000 241.108
56.32000 248.714
56.33000 242.741
56.34000 233.266
56.35000 224.619
56.36000 222.393
56.37000 221.521
56.38000 220.983
56.39000 222.072
56.40000 223.377
56.41000 224.390
56.42000 217.901
56.43000 212.288
56.44000 208.325
56.45000 207.952
56.46000 207.705
56.47000 207.281
56.48000 206.596
56.49000 205.910
56.50000 206.143
56.51000 207.246
56.52000 208.327
56.53000 207.757
56.54000 206.165
56.55000 204.463
56.56000 200.235
56.57000 194.953
56.58000 190.012
56.59000 186.591
56.60000 183.871
56.61000 182.206
56.62000 187.567
56.63000 194.223
56.64000 198.942
56.65000 195.375
56.66000 190.866
56.67000 187.475
56.68000 185.774
56.69000 184.526
56.70000 184.917
56.71000 188.474
56.72000 192.110
56.73000 192.080
56.74000 187.333
56.75000 182.574
56.76000 180.213
56.77000 179.833
56.78000 179.569
56.79000 184.760
56.80000 192.938
56.81000 200.830
56.82000 203.553
56.83000 204.363
56.84000 205.111
56.85000 195.462
56.86000 184.509
56.87000 175.705
56.88000 179.316
56.89000 184.918
56.90000 188.528
56.91000 184.636
56.92000 180.024
56.93000 176.672
56.94000 184.621
56.95000 191.159
56.96000 194.003
56.97000 190.529
56.98000 186.948
56.99000 186.068
57.00000 188.231
57.01000 190.389
57.02000 190.541
57.03000 189.249
57.04000 187.888
57.05000 184.244
57.06000 179.493
57.07000 174.910
57.08000 172.752
57.09000 171.391
57.10000 170.155
57.11000 174.217
57.12000 178.824
57.13000 181.880
57.14000 177.120
57.15000 171.277
57.16000 167.791
57.17000 172.154
57.18000 177.144
57.19000 180.635
57.20000 180.402
57.21000 180.120
57.22000 180.609
57.23000 182.264
57.24000 183.930
57.25000 180.039
57.26000 170.697
57.27000 161.422
57.28000 159.529
57.29000 162.312
57.30000 165.216
57.31000 171.113
57.32000 178.298
57.33000 184.856
57.34000 183.957
57.35000 180.892
57.36000 178.159
57.37000 178.506
57.38000 179.321
57.39000 180.636
57.40000 184.160
57.41000 187.946
57.42000 190.030
57.43000 187.098
57.44000 183.839
57.45000 181.649
57.46000 178.655
57.47000 176.414
57.48000 173.712
57.49000 170.394
57.50000 167.080
57.51000 167.910
57.52000 172.285
57.53000 176.607
57.54000 178.224
57.55000 178.310
57.56000 178.355
57.57000 177.620
57.58000 176.586
57.59000 175.692
57.60000 176.194
57.61000 177.053
57.62000 177.805
57.63000 175.255
57.64000 172.599
57.65000 170.580
57.66000 171.038
57.67000 171.745
57.68000 172.505
57.69000 173.403
57.70000 174.307
57.71000 174.889
57.72000 175.666
57.73000 176.236
57.74000 175.564
57.75000 173.443
57.76000 171.318
57.77000 168.550
57.78000 165.302
57.79000 162.113
57.80000 161.464
57.81000 162.064
57.82000 162.918
57.83000 167.633
57.84000 173.656
57.85000 179.039
57.86000 179.047
57.87000 177.841
57.88000 176.808
57.89000 177.441
57.90000 178.177
57.91000 178.066
57.92000 175.046
57.93000 171.781
57.94000 168.864
57.95000 166.750
57.96000 164.669
57.97000 163.395
57.98000 172.919
57.99000 179.828
58.00000 182.507
58.01000 180.883
58.02000 179.207
58.03000 172.378
58.04000 162.146
58.05000 152.174
58.06000 153.458
58.07000 159.454
58.08000 165.063
58.09000 165.849
58.10000 165.188
58.11000 164.709
58.12000 165.533
58.13000 166.615
58.14000 167.520
58.15000 169.715
58.16000 171.672
58.17000 172.693
58.18000 170.870
58.19000 168.850
58.20000 167.081
58.21000 165.825
58.22000 164.585
58.23000 163.865
58.24000 162.703
58.25000 161.889
58.26000 164.206
58.27000 169.298
58.28000 174.330
58.29000 175.815
58.30000 175.231
58.31000 174.666
58.32000 172.800
58.33000 170.558
58.34000 168.702
58.35000 170.864
58.36000 174.090
58.37000 176.467
58.38000 173.558
58.39000 169.736
58.40000 166.616
58.41000 166.673
58.42000 166.993
58.43000 166.539
58.44000 164.003
58.45000 161.352
58.46000 159.932
58.47000 160.756
58.48000 161.627
58.49000 162.104
58.50000 163.408
58.51000 164.303
58.52000 164.610
58.53000 164.462
58.54000 164.353
58.55000 165.769
58.56000 167.975
58.57000 170.083
58.58000 166.626
58.59000 161.598
58.60000 157.427
58.61000 160.765
58.62000 165.855
58.63000 170.071
58.64000 169.555
58.65000 168.330
58.66000 167.357
58.67000 169.328
58.68000 171.124
58.69000 171.334
58.70000 167.753
58.71000 164.007
58.72000 160.457
58.73000 157.222
58.74000 153.991
58.75000 152.333
58.76000 165.189
58.77000 173.764
58.78000 173.826
58.79000 168.077
58.80000 162.518
58.81000 162.375
58.82000 164.713
58.83000 166.923
58.84000 168.840
58.85000 170.517
58.86000 171.827
58.87000 170.392
58.88000 168.394
58.89000 166.667
58.90000 166.227
58.91000 165.953
58.92000 165.742
58.93000 162.920
58.94000 160.534
58.95000 159.332
58.96000 160.641
58.97000 162.033
58.98000 160.923
58.99000 156.256
59.00000 151.564
59.01000 150.357
59.02000 152.349
59.03000 154.326
59.04000 155.329
59.05000 155.744
59.06000 156.147
59.07000 156.307
59.08000 156.368
59.09000 156.425
59.10000 158.227
59.11000 160.291
59.12000 161.963
59.13000 161.101
59.14000 159.785
59.15000 158.652
59.16000 158.278
59.17000 157.987
59.18000 157.770
59.19000 154.056
59.20000 151.001
59.21000 149.607
59.22000 151.335
59.23000 153.136
59.24000 154.042
59.25000 153.831
59.26000 153.617
59.27000 155.262
59.28000 158.385
59.29000 161.463
59.30000 162.521
59.31000 162.501
59.32000 162.373
59.33000 160.367
59.34000 157.684
59.35000 155.218
59.36000 159.129
59.37000 163.995
59.38000 168.210
59.39000 168.773
59.40000 168.768
59.41000 168.059
59.42000 164.766
59.43000 161.234
59.44000 158.688
59.45000 158.209
59.46000 157.916
59.47000 158.183
59.48000 159.384
59.49000 160.598
59.50000 163.853
59.51000 169.337
59.52000 174.799
59.53000 174.604
59.54000 170.458
59.55000 166.343
59.56000 163.143
59.57000 160.376
59.58000 157.578
59.59000 154.366
59.60000 151.021
59.61000 147.995
59.62000 148.315
59.63000 149.220
59.64000 150.667
59.65000 154.769
59.66000 159.226
59.67000 162.767
59.68000 163.337
59.69000 163.679
59.70000 163.917
59.71000 165.178
59.72000 166.155
59.73000 165.760
59.74000 163.351
59.75000 160.924
59.76000 157.926
59.77000 154.387
59.78000 150.876
59.79000 150.108
59.80000 151.030
59.81000 152.120
59.82000 157.115
59.83000 163.748
59.84000 169.760
59.85000 168.703
59.86000 165.648
59.87000 162.934
59.88000 160.660
59.89000 158.758
59.90000 156.816
59.91000 154.699
59.92000 152.561
59.93000 150.391
59.94000 148.128
59.95000 145.860
59.96000 144.350
59.97000 148.279
59.98000 151.289
59.99000 152.131
60.00000 150.169
60.01000 148.201
60.02000 149.128
60.03000 152.458
60.04000 155.744
60.05000 157.002
60.06000 157.140
60.07000 157.339
60.08000 158.645
60.09000 160.364
60.10000 161.971
60.11000 162.501
60.12000 162.763
60.13000 162.991
60.14000 162.236
60.15000 161.456
60.16000 160.594
60.17000 159.425
60.18000 158.227
60.19000 156.546
60.20000 153.636
60.21000 150.666
60.22000 148.776
60.23000 152.864
60.24000 155.909
60.25000 156.141
60.26000 153.185
60.27000 150.249
60.28000 151.108
60.29000 154.735
60.30000 158.290
60.31000 157.842
60.32000 155.530
60.33000 153.495
60.34000 155.506
60.35000 158.851
60.36000 161.295
60.37000 156.418
60.38000 149.935
60.39000 144.409
60.40000 148.965
60.41000 153.981
60.42000 157.416
60.43000 155.564
60.44000 153.285
60.45000 151.032
60.46000 148.836
60.47000 146.642
60.48000 145.313
60.49000 150.460
60.50000 154.177
60.51000 157.763
60.52000 161.220
60.53000 164.657
60.54000 166.357
60.55000 166.941
60.56000 167.509
60.57000 163.155
60.58000 156.985
60.59000 151.185
60.60000 149.824
60.61000 149.759
60.62000 148.896
60.63000 142.470
60.64000 134.976
60.65000 128.735
60.66000 135.491
60.67000 142.372
60.68000 147.233
60.69000 146.111
60.70000 144.594
60.71000 145.057
60.72000 149.486
60.73000 154.026
60.74000 156.629
60.75000 156.315
60.76000 156.085
60.77000 156.266
60.78000 156.800
60.79000 157.354
60.80000 158.983
60.81000 161.222
60.82000 163.380
60.83000 155.607
60.84000 144.718
60.85000 135.213
60.86000 139.565
60.87000 147.489
60.88000 154.896
60.89000 159.190
60.90000 162.962
60.91000 166.024
60.92000 164.412
60.93000 162.712
60.94000 160.843
60.95000 158.528
60.96000 156.190
60.97000 154.765
60.98000 154.961
60.99000 155.188
61.00000 155.310
61.01000 157.590
61.02000 159.144
61.03000 159.013
61.04000 157.612
61.05000 156.145
61.06000 152.307
61.07000 147.275
61.08000 142.476
61.09000 144.197
61.10000 147.854
61.11000 151.224
61.12000 152.172
61.13000 152.571
61.14000 152.693
61.15000 151.363
61.16000 149.822
61.17000 148.606
61.18000 147.014
61.19000 145.711
61.20000 145.635
61.21000 148.421
61.22000 151.325
61.23000 151.612
61.24000 147.797
61.25000 143.932
61.26000 141.977
61.27000 145.418
61.28000 147.706
61.29000 148.571
61.30000 148.489
61.31000 148.462
61.32000 149.876
61.33000 151.934
61.34000 153.873
61.35000 156.353
61.36000 158.774
61.37000 161.003
61.38000 161.847
61.39000 162.414
61.40000 162.203
61.41000 158.415
61.42000 154.182
61.43000 150.940
61.44000 153.151
61.45000 155.197
61.46000 155.540
61.47000 152.368
61.48000 149.088
61.49000 146.923
61.50000 146.300
61.51000 145.687
61.52000 148.019
61.53000 152.968
61.54000 157.851
61.55000 158.695
61.56000 157.171
61.57000 155.667
61.58000 154.590
61.59000 153.681
61.60000 152.837
61.61000 152.442
61.62000 152.194
61.63000 152.512
61.64000 156.373
61.65000 160.850
61.66000 163.289
61.67000 157.490
61.68000 150.820
61.69000 145.877
61.70000 145.095
61.71000 144.670
61.72000 143.875
61.73000 142.403
61.74000 140.918
61.75000 142.875
61.76000 149.014
61.77000 155.150
61.78000 156.153
61.79000 153.169
61.80000 150.255
61.81000 150.153
61.82000 151.514
61.83000 152.665
61.84000 150.421
61.85000 146.984
61.86000 143.836
61.87000 143.930
61.88000 144.691
61.89000 146.010
61.90000 150.367
61.91000 155.181
61.92000 158.035
61.93000 153.892
61.94000 149.127
61.95000 145.721
61.96000 145.825
61.97000 146.022
61.98000 146.660
61.99000 148.011
62.00000 149.373
62.01000 149.060
62.02000 146.971
62.03000 144.892
62.04000 142.791
62.05000 140.702
62.06000 138.894
62.07000 145.245
62.08000 155.354
62.09000 164.609
62.10000 162.557
62.11000 156.987
62.12000 151.969
62.13000 146.327
62.14000 141.264
62.15000 137.595
62.16000 140.554
62.17000 144.372
62.18000 146.261
62.19000 142.062
62.20000 137.417
62.21000 134.222
62.22000 140.225
62.23000 144.958
62.24000 146.881
62.25000 144.786
62.26000 142.662
62.27000 142.003
62.28000 142.697
62.29000 143.385
62.30000 143.543
62.31000 143.384
62.32000 143.346
62.33000 145.965
62.34000 149.670
62.35000 152.979
62.36000 151.946
62.37000 149.719
62.38000 147.749
62.39000 146.346
62.40000 145.221
62.41000 144.809
62.42000 147.376
62.43000 150.272
62.44000 151.040
62.45000 145.857
62.46000 140.320
62.47000 136.670
62.48000 141.814
62.49000 145.759
62.50000 146.266
62.51000 142.453
62.52000 138.634
62.53000 137.890
62.54000 139.626
62.55000 141.337
62.56000 141.509
62.57000 140.875
62.58000 140.343
62.59000 141.551
62.60000 143.390
62.61000 145.514
62.62000 150.268
62.63000 155.661
62.64000 160.337
62.65000 156.583
62.66000 152.263
62.67000 148.974
62.68000 149.479
62.69000 150.338
62.70000 150.186
62.71000 147.528
62.72000 144.752
62.73000 143.005
62.74000 148.566
62.75000 152.672
62.76000 153.609
62.77000 151.060
62.78000 148.525
62.79000 148.227
62.80000 149.515
62.81000 150.776
62.82000 147.632
62.83000 142.603
62.84000 137.644
62.85000 133.672
62.86000 130.018
62.87000 127.272
62.88000 131.661
62.89000 137.572
62.90000 142.585
62.91000 143.031
62.92000 142.889
62.93000 143.141
62.94000 144.682
62.95000 146.323
62.96000 147.467
62.97000 147.519
62.98000 147.531
62.99000 147.539
63.00000 149.746
63.01000 151.326
63.02000 149.018
63.03000 142.988
63.04000 137.015
63.05000 135.403
63.06000 136.521
63.07000 137.607
63.08000 140.914
63.09000 144.943
63.10000 148.399
63.11000 145.269
63.12000 140.268
63.13000 136.163
63.14000 138.101
63.15000 141.168
63.16000 143.707
63.17000 143.821
63.18000 143.684
63.19000 144.963
63.20000 150.330
63.21000 155.954
63.22000 158.834
63.23000 156.362
63.24000 153.751
63.25000 152.272
63.26000 148.664
63.27000 146.156
63.28000 147.631
63.29000 152.436
63.30000 157.084
63.31000 154.121
63.32000 146.945
63.33000 140.044
63.34000 137.235
63.35000 136.038
63.36000 135.409
63.37000 140.268
63.38000 146.504
63.39000 151.351
63.40000 148.080
63.41000 143.492
63.42000 139.789
63.43000 143.327
63.44000 146.775
63.45000 148.709
63.46000 146.771
63.47000 144.640
63.48000 142.960
63.49000 142.061
63.50000 141.176
63.51000 140.704
63.52000 142.516
63.53000 143.754
63.54000 145.367
63.55000 147.255
63.56000 149.131
63.57000 150.579
63.58000 151.816
63.59000 152.994
63.60000 150.147
63.61000 146.278
63.62000 142.825
63.63000 142.778
63.64000 143.482
63.65000 143.661
63.66000 141.164
63.67000 138.292
63.68000 136.039
63.69000 139.852
63.70000 143.294
63.71000 145.924
63.72000 146.708
63.73000 147.422
63.74000 147.397
63.75000 146.243
63.76000 145.078
63.77000 144.138
63.78000 143.421
63.79000 142.737
63.80000 144.903
63.81000 148.911
63.82000 152.793
63.83000 153.501
63.84000 152.829
63.85000 152.197
63.86000 152.819
63.87000 153.723
63.88000 154.428
63.89000 153.737
63.90000 152.776
63.91000 151.964
63.92000 151.814
63.93000 151.743
63.94000 151.690
63.95000 143.036
63.96000 135.779
63.97000 132.398
63.98000 136.820
63.99000 141.464
64.00000 144.241
64.01000 144.510
64.02000 144.765
64.03000 144.755
64.04000 144.516
64.05000 144.259
64.06000 143.025
64.07000 141.232
64.08000 139.498
64.09000 138.899
64.10000 138.738
64.11000 138.588
64.12000 141.263
64.13000 144.329
64.14000 146.421
64.15000 142.598
64.16000 137.780
64.17000 134.921
64.18000 139.768
64.19000 145.400
64.20000 149.543
64.21000 148.003
64.22000 146.579
64.23000 145.548
64.24000 145.217
64.25000 144.901
64.26000 142.691
64.27000 138.246
64.28000 133.810
64.29000 135.106
64.30000 140.712
64.31000 146.142
64.32000 145.002
64.33000 140.538
64.34000 136.442
64.35000 138.072
64.36000 141.661
64.37000 144.938
64.38000 146.576
64.39000 147.698
64.40000 148.964
64.41000 150.986
64.42000 153.119
64.43000 154.915
64.44000 155.542
64.45000 156.069
64.46000 156.443
64.47000 154.054
64.48000 152.150
64.49000 151.634
64.50000 153.308
64.51000 155.009
64.52000 155.364
64.53000 154.332
64.54000 153.305
64.55000 152.880
64.56000 152.856
64.57000 152.940
64.58000 155.955
64.59000 160.285
64.60000 164.376
64.61000 165.430
64.62000 165.564
64.63000 165.684
64.64000 167.484
64.65000 169.353
64.66000 170.757
64.67000 170.011
64.68000 168.996
64.69000 168.212
64.70000 168.133
64.71000 168.105
64.72000 168.086
64.73000 163.208
64.74000 159.450
64.75000 156.561
64.76000 154.880
64.77000 153.208
64.78000 153.098
64.79000 154.388
64.80000 155.665
64.81000 154.308
64.82000 151.461
64.83000 148.687
64.84000 147.443
64.85000 146.809
64.86000 146.683
64.87000 151.922
64.88000 158.596
64.89000 164.476
64.90000 162.078
64.91000 158.766
64.92000 155.941
64.93000 155.098
64.94000 154.466
64.95000 154.161
64.96000 154.747
64.97000 155.384
64.98000 155.799
64.99000 156.600
65.00000 157.194
65.01000 158.657
65.02000 161.180
65.03000 163.703
65.04000 165.350
65.05000 166.311
65.06000 167.256
65.07000 165.722
65.08000 162.983
65.09000 160.490
65.10000 162.051
65.11000 165.043
65.12000 167.897
65.13000 169.530
65.14000 170.875
65.15000 172.036
65.16000 171.288
65.17000 170.408
65.18000 169.435
65.19000 168.125
65.20000 166.785
65.21000 165.627
65.22000 164.910
65.23000 164.212
65.24000 163.777
65.25000 164.536
65.26000 165.094
65.27000 167.644
65.28000 172.318
65.29000 176.976
65.30000 179.508
65.31000 180.572
65.32000 181.612
65.33000 180.512
65.34000 178.509
65.35000 176.743
65.36000 178.152
65.37000 180.553
65.38000 182.741
65.39000 183.311
65.40000 183.545
65.41000 183.743
65.42000 178.872
65.43000 174.250
65.44000 170.958
65.45000 171.889
65.46000 173.132
65.47000 174.229
65.48000 175.010
65.49000 175.780
65.50000 176.236
65.51000 174.981
65.52000 174.086
65.53000 176.389
65.54000 181.662
65.55000 186.850
65.56000 186.144
65.57000 181.848
65.58000 177.686
65.59000 176.825
65.60000 177.295
65.61000 177.566
65.62000 175.649
65.63000 173.128
65.64000 171.246
65.65000 173.554
65.66000 176.620
65.67000 179.146
65.68000 177.328
65.69000 175.436
65.70000 173.539
65.71000 171.628
65.72000 169.717
65.73000 169.826
65.74000 173.775
65.75000 177.816
65.76000 180.075
65.77000 173.504
65.78000 168.938
65.79000 166.570
65.80000 165.985
65.81000 165.368
65.82000 163.297
65.83000 160.442
65.84000 157.703
65.85000 154.171
65.86000 150.600
65.87000 147.658
65.88000 150.562
65.89000 154.891
65.90000 158.413
65.91000 157.355
65.92000 155.576
65.93000 154.149
65.94000 151.130
65.95000 148.566
65.96000 146.408
65.97000 145.261
65.98000 144.163
65.99000 143.864
66.00000 144.908
66.01000 145.973
66.02000 146.533
66.03000 142.357
66.04000 139.547
66.05000 140.071
66.06000 142.974
66.07000 145.937
66.08000 150.776
66.09000 156.513
66.10000 161.956
66.11000 160.023
66.12000 156.042
66.13000 152.335
66.14000 150.802
66.15000 149.734
66.16000 148.552
66.17000 146.803
66.18000 144.978
66.19000 143.556
66.20000 144.466
66.21000 145.335
66.22000 145.223
66.23000 142.942
66.24000 140.582
66.25000 139.393
66.26000 139.944
66.27000 140.512
66.28000 140.199
66.29000 139.039
66.30000 137.886
66.31000 137.242
66.32000 136.918
66.33000 136.736
66.34000 139.927
66.35000 144.547
66.36000 148.876
66.37000 146.190
66.38000 141.923
66.39000 137.845
66.40000 135.057
66.41000 132.511
66.42000 131.483
66.43000 137.051
66.44000 143.385
66.45000 148.168
66.46000 146.134
66.47000 144.201
66.48000 141.901
66.49000 138.881
66.50000 135.841
66.51000 134.378
66.52000 134.975
66.53000 135.580
66.54000 136.645
66.55000 138.093
66.56000 139.534
66.57000 140.654
66.58000 141.596
66.59000 142.622
66.60000 145.214
66.61000 148.394
66.62000 151.333
66.63000 147.500
66.64000 142.529
66.65000 137.825
66.66000 134.701
66.67000 131.835
66.68000 129.959
66.69000 131.872
66.70000 134.157
66.71000 135.825
66.72000 135.039
66.73000 134.338
66.74000 134.747
66.75000 137.085
66.76000 139.458
66.77000 139.236
66.78000 136.040
66.79000 132.851
66.80000 133.676
66.81000 137.430
66.82000 141.104
66.83000 141.980
66.84000 141.477
66.85000 140.747
66.86000 136.640
66.87000 131.408
66.88000 126.649
66.89000 133.281
66.90000 141.383
66.91000 147.358
66.92000 142.427
66.93000 135.956
66.94000 130.729
66.95000 129.710
66.96000 129.035
66.97000 128.560
66.98000 134.785
66.99000 139.699
67.00000 142.026
67.01000 140.382
67.02000 138.696
67.03000 138.529
67.04000 139.880
67.05000 141.221
67.06000 141.199
67.07000 140.305
67.08000 139.385
67.09000 137.818
67.10000 135.969
67.11000 134.355
67.12000 135.618
67.13000 137.729
67.14000 139.616
67.15000 140.141
67.16000 140.367
67.17000 140.433
67.18000 139.777
67.19000 139.033
67.20000 137.429
67.21000 133.255
67.22000 128.908
67.23000 125.971
67.24000 130.218
67.25000 133.534
67.26000 135.565
67.27000 135.860
67.28000 136.145
67.29000 136.178
67.30000 135.992
67.31000 135.808
67.32000 135.603
67.33000 135.389
67.34000 135.018
67.35000 131.546
67.36000 126.871
67.37000 122.597
67.38000 122.400
67.39000 123.265
67.40000 124.024
67.41000 128.320
67.42000 132.523
67.43000 135.805
67.44000 135.440
67.45000 134.701
67.46000 134.673
67.47000 136.533
67.48000 138.494
67.49000 139.762
67.50000 134.956
67.51000 131.354
67.52000 130.116
67.53000 131.683
67.54000 133.251
67.55000 133.839
67.56000 133.679
67.57000 133.521
67.58000 129.936
67.59000 124.787
67.60000 120.150
67.61000 123.548
67.62000 129.710
67.63000 135.338
67.64000 136.381
67.65000 136.371
67.66000 136.364
67.67000 133.069
67.68000 129.874
67.69000 127.348
67.70000 127.153
67.71000 127.159
67.72000 127.467
67.73000 128.487
67.74000 129.536
67.75000 130.183
67.76000 128.400
67.77000 127.098
67.78000 128.791
67.79000 133.584
67.80000 138.345
67.81000 139.687
67.82000 138.734
67.83000 137.805
67.84000 136.581
67.85000 135.285
67.86000 134.046
67.87000 133.549
67.88000 133.277
67.89000 133.001
67.90000 132.692
67.91000 132.376
67.92000 132.111
67.93000 132.654
67.94000 133.192
67.95000 133.593
67.96000 133.570
67.97000 133.518
67.98000 131.878
67.99000 126.924
68.00000 121.866
68.01000 118.909
68.02000 126.169
68.03000 131.325
68.04000 134.267
68.05000 135.212
68.06000 136.133
68.07000 135.530
68.08000 134.022
68.09000 132.563
68.10000 130.140
68.11000 127.488
68.12000 125.351
68.13000 128.697
68.14000 133.519
68.15000 137.600
68.16000 136.989
68.17000 135.553
68.18000 134.377
68.19000 136.952
68.20000 139.393
68.21000 141.396
68.22000 142.196
68.23000 142.929
68.24000 143.334
68.25000 143.133
68.26000 142.919
68.27000 142.801
68.28000 137.173
68.29000 133.292
68.30000 131.913
68.31000 132.508
68.32000 133.139
68.33000 135.222
68.34000 138.069
68.35000 140.794
68.36000 140.115
68.37000 138.355
68.38000 136.650
68.39000 135.425
68.40000 134.314
68.41000 133.352
68.42000 133.209
68.43000 133.192
68.44000 133.178
68.45000 138.017
68.46000 142.275
68.47000 143.589
68.48000 137.755
68.49000 131.601
68.50000 128.488
68.51000 130.358
68.52000 132.300
68.53000 133.305
68.54000 136.686
68.55000 138.956
68.56000 139.909
68.57000 139.948
68.58000 139.994
68.59000 140.247
68.60000 140.597
68.61000 140.928
68.62000 143.615
68.63000 146.768
68.64000 148.950
68.65000 143.711
68.66000 136.927
68.67000 132.142
68.68000 136.978
68.69000 143.079
68.70000 147.801
68.71000 150.458
68.72000 152.445
68.73000 151.126
68.74000 142.682
68.75000 133.997
68.76000 131.421
68.77000 137.674
68.78000 143.998
68.79000 146.054
68.80000 144.124
68.81000 142.242
68.82000 143.713
68.83000 147.238
68.84000 150.580
68.85000 149.848
68.86000 147.433
68.87000 145.176
68.88000 146.933
68.89000 149.540
68.90000 152.188
68.91000 155.104
68.92000 158.068
68.93000 162.392
68.94000 172.459
68.95000 183.169
68.96000 191.199
68.97000 190.470
68.98000 189.486
68.99000 194.755
69.00000 211.966
69.01000 229.468
69.02000 240.324
69.03000 242.734
69.04000 245.110
69.05000 246.007
69.06000 245.697
69.07000 245.360
69.08000 243.762
69.09000 241.481
69.10000 239.638
69.11000 245.497
69.12000 254.178
69.13000 262.172
69.14000 255.160
69.15000 245.594
69.16000 236.631
69.17000 231.114
69.18000 226.143
69.19000 220.468
69.20000 212.177
69.21000 203.639
69.22000 197.455
69.23000 188.664
69.24000 181.818
69.25000 177.614
69.26000 177.879
69.27000 178.217
69.28000 175.339
69.29000 168.883
69.30000 162.450
69.31000 160.099
69.32000 160.669
69.33000 161.112
69.34000 157.423
69.35000 151.751
69.36000 146.543
69.37000 147.923
69.38000 151.442
69.39000 154.630
69.40000 157.593
69.41000 160.162
69.42000 161.352
69.43000 155.668
69.44000 149.045
69.45000 145.314
69.46000 151.102
69.47000 157.636
69.48000 162.193
69.49000 160.008
69.50000 158.172
69.51000 158.319
69.52000 161.428
69.53000 164.564
69.54000 166.290
69.55000 166.648
69.56000 167.004
69.57000 166.967
69.58000 166.686
69.59000 166.487
69.60000 168.275
69.61000 170.909
69.62000 173.510
69.63000 175.727
69.64000 177.834
69.65000 179.711
69.66000 178.553
69.67000 177.050
69.68000 176.310
69.69000 178.905
69.70000 181.891
69.71000 185.192
69.72000 189.414
69.73000 193.694
69.74000 196.559
69.75000 190.016
69.76000 184.977
69.77000 182.780
69.78000 184.319
69.79000 185.873
69.80000 185.357
69.81000 183.092
69.82000 180.855
69.83000 179.371
69.84000 178.335
69.85000 177.196
69.86000 174.131
69.87000 170.337
69.88000 167.007
69.89000 168.202
69.90000 170.546
69.91000 172.592
69.92000 171.618
69.93000 170.360
69.94000 169.146
69.95000 168.100
69.96000 167.070
69.97000 167.032
69.98000 169.558
69.99000 172.215
70.00000 173.916
