20.00000 725.932
20.01000 721.845
20.02000 717.174
20.03000 712.553
20.04000 708.122
20.05000 703.711
20.06000 700.475
20.07000 707.128
20.08000 712.668
20.09000 714.817
20.10000 710.977
20.11000 707.023
20.12000 704.144
20.13000 702.520
20.14000 700.903
20.15000 707.107
20.16000 719.101
20.17000 730.755
20.18000 730.095
20.19000 723.262
20.20000 716.413
20.21000 709.327
20.22000 702.160
20.23000 695.626
20.24000 697.757
20.25000 701.381
20.26000 705.378
20.27000 711.323
20.28000 717.549
20.29000 721.413
20.30000 717.151
20.31000 712.206
20.32000 708.709
20.33000 715.285
20.34000 720.589
20.35000 723.387
20.36000 722.270
20.37000 721.107
20.38000 721.054
20.39000 722.129
20.40000 723.198
20.41000 728.717
20.42000 737.061
20.43000 745.070
20.44000 744.193
20.45000 739.366
20.46000 734.982
20.47000 736.141
20.48000 738.964
20.49000 741.493
20.50000 756.374
20.51000 771.510
20.52000 784.458
20.53000 787.390
20.54000 789.082
20.55000 788.786
20.56000 782.433
20.57000 775.663
20.58000 771.063
20.59000 763.437
20.60000 757.677
20.61000 759.383
20.62000 771.368
20.63000 783.404
20.64000 781.776
20.65000 768.029
20.66000 754.429
20.67000 748.212
20.68000 746.353
20.69000 744.387
20.70000 740.262
20.71000 735.285
20.72000 730.914
20.73000 732.848
20.74000 736.455
20.75000 739.627
20.76000 740.213
20.77000 740.333
20.78000 740.558
20.79000 741.202
20.80000 741.890
20.81000 741.085
20.82000 736.251
20.83000 731.194
20.84000 727.903
20.85000 731.948
20.86000 735.027
20.87000 740.951
20.88000 750.314
20.89000 759.682
20.90000 768.309
20.91000 776.361
20.92000 784.282
20.93000 794.693
20.94000 806.016
20.95000 816.594
20.96000 815.135
20.97000 809.466
20.98000 804.984
20.99000 810.934
21.00000 819.323
21.01000 826.550
21.02000 825.206
21.03000 822.979
21.04000 824.374
21.05000 838.638
21.06000 854.037
21.07000 863.382
21.08000 858.233
21.09000 852.454
21.10000 848.868
21.11000 854.694
21.12000 858.978
21.13000 860.089
21.14000 857.848
21.15000 855.700
21.16000 864.417
21.17000 880.557
21.18000 896.320
21.19000 896.375
21.20000 889.529
21.21000 882.965
21.22000 880.093
21.23000 878.365
21.24000 876.593
21.25000 874.485
21.26000 872.307
21.27000 870.473
21.28000 861.909
21.29000 854.038
21.30000 852.898
21.31000 872.914
21.32000 894.471
21.33000 904.967
21.34000 891.975
21.35000 878.215
21.36000 870.107
21.37000 884.047
21.38000 894.002
21.39000 905.998
21.40000 919.871
21.41000 933.728
21.42000 946.612
21.43000 958.907
21.44000 970.814
21.45000 971.454
21.46000 967.724
21.47000 966.250
21.48000 989.364
21.49000 1019.216
21.50000 1047.783
21.51000 1068.040
21.52000 1086.808
21.53000 1102.236
21.54000 1135.116
21.55000 1163.706
21.56000 1190.367
21.57000 1211.655
21.58000 1232.627
21.59000 1261.611
21.60000 1305.680
21.61000 1350.101
21.62000 1374.824
21.63000 1448.726
21.64000 1499.983
21.65000 1568.079
21.66000 1649.710
21.67000 1732.028
21.68000 1844.278
21.69000 1972.511
21.70000 2095.470
21.71000 2249.571
21.72000 2403.976
21.73000 2560.665
21.74000 2738.292
21.75000 2920.979
21.76000 3116.432
21.77000 3383.535
21.78000 3661.791
21.79000 3884.490
21.80000 4282.863
21.81000 4618.155
21.82000 4975.213
21.83000 5386.031
21.84000 5799.347
21.85000 6244.958
21.86000 6744.374
21.87000 7244.618
21.88000 7506.109
21.89000 8119.030
21.90000 8533.647
21.91000 8911.423
21.92000 9263.177
21.93000 9612.732
21.94000 9894.182
21.95000 10143.397
21.96000 10379.685
21.97000 10520.202
21.98000 10621.473
21.99000 10701.502
22.00000 10615.665
22.01000 10494.609
22.02000 10363.612
22.03000 10183.888
22.04000 9997.623
22.05000 9852.816
22.06000 9489.030
22.07000 9186.191
22.08000 8828.237
22.09000 8349.516
22.10000 7866.522
22.11000 7412.170
22.12000 6999.953
22.13000 6588.144
22.14000 6174.416
22.15000 5758.952
22.16000 5344.140
22.17000 4978.465
22.18000 4643.410
22.19000 4310.286
22.20000 4022.153
22.21000 3752.910
22.22000 3500.860
22.23000 3271.267
22.24000 3068.324
22.25000 2869.361
22.26000 2697.125
22.27000 2529.855
22.28000 2372.748
22.29000 2259.367
22.30000 2150.999
22.31000 2069.369
22.32000 1980.310
22.33000 1910.235
22.34000 1842.558
22.35000 1779.539
22.36000 1716.640
22.37000 1666.160
22.38000 1631.760
22.39000 1597.464
22.40000 1568.539
22.41000 1544.155
22.42000 1519.776
22.43000 1495.634
22.44000 1471.622
22.45000 1448.204
22.46000 1435.568
22.47000 1426.949
22.48000 1418.994
22.49000 1419.232
22.50000 1421.281
22.51000 1432.358
22.52000 1495.978
22.53000 1568.089
22.54000 1675.628
22.55000 1917.454
22.56000 2172.284
22.57000 2357.765
22.58000 3335.367
22.59000 4118.108
22.60000 5283.322
22.61000 7106.517
22.62000 8941.111
22.63000 11242.813
22.64000 14074.277
22.65000 16896.541
22.66000 19695.283
22.67000 22453.561
22.68000 25195.521
22.69000 27388.523
22.70000 29313.428
22.71000 31188.775
22.72000 32340.332
22.73000 33252.938
22.74000 34081.977
22.75000 34269.629
22.76000 34310.926
22.77000 34288.738
22.78000 33944.336
22.79000 33554.957
22.80000 32980.363
22.81000 31785.471
22.82000 30540.543
22.83000 29667.584
22.84000 27520.537
22.85000 25859.158
22.86000 23933.920
22.87000 21607.588
22.88000 19277.063
22.89000 16843.014
22.90000 14306.714
22.91000 11788.107
22.92000 9751.879
22.93000 8053.223
22.94000 6370.772
22.95000 5093.007
22.96000 3990.538
22.97000 2928.932
22.98000 2357.394
22.99000 1929.066
23.00000 1546.690
23.01000 1362.693
23.02000 1235.734
23.03000 1126.297
23.04000 1094.824
23.05000 1072.672
23.06000 1049.898
23.07000 1025.277
23.08000 1000.535
23.09000 983.875
23.10000 959.447
23.11000 941.123
23.12000 923.943
23.13000 908.295
23.14000 892.665
23.15000 884.535
23.16000 882.863
23.17000 881.212
23.18000 870.846
23.19000 855.898
23.20000 841.478
23.21000 837.278
23.22000 837.005
23.23000 835.325
23.24000 819.540
23.25000 800.116
23.26000 783.105
23.27000 778.408
23.28000 776.151
23.29000 774.425
23.30000 774.779
23.31000 775.345
23.32000 776.712
23.33000 780.184
23.34000 783.768
23.35000 786.077
23.36000 763.309
23.37000 746.331
23.38000 736.073
23.39000 733.708
23.40000 731.346
23.41000 727.216
23.42000 721.751
23.43000 716.383
23.44000 718.007
23.45000 722.978
23.46000 727.334
23.47000 722.199
23.48000 713.831
23.49000 705.444
23.50000 696.889
23.51000 688.296
23.52000 680.928
23.53000 693.339
23.54000 706.247
23.55000 713.022
23.56000 698.582
23.57000 682.344
23.58000 673.072
23.59000 680.047
23.60000 687.688
23.61000 692.378
23.62000 687.047
23.63000 683.141
23.64000 680.629
23.65000 679.548
23.66000 678.501
23.67000 680.903
23.68000 685.598
23.69000 690.175
23.70000 690.395
23.71000 688.746
23.72000 687.130
23.73000 685.940
23.74000 684.877
23.75000 685.570
23.76000 699.001
23.77000 714.970
23.78000 728.353
23.79000 725.644
23.80000 721.723
23.81000 718.698
23.82000 718.416
23.83000 718.326
23.84000 718.305
23.85000 718.427
23.86000 718.553
23.87000 718.627
23.88000 709.083
23.89000 702.338
23.90000 699.881
23.91000 701.250
23.92000 702.758
23.93000 712.577
23.94000 727.279
23.95000 741.486
23.96000 745.135
23.97000 744.628
23.98000 743.570
23.99000 736.737
24.00000 728.365
24.01000 719.788
24.02000 709.930
24.03000 699.849
24.04000 691.609
24.05000 691.290
24.06000 691.716
24.07000 691.257
24.08000 688.396
24.09000 685.401
24.10000 682.253
24.11000 678.824
24.12000 675.390
24.13000 673.504
24.14000 686.421
24.15000 695.300
24.16000 694.325
24.17000 685.654
24.18000 676.989
24.19000 668.584
24.20000 660.315
24.21000 652.405
24.22000 648.129
24.23000 645.336
24.24000 643.029
24.25000 645.010
24.26000 647.999
24.27000 649.461
24.28000 642.609
24.29000 634.504
24.30000 628.056
24.31000 632.240
24.32000 636.374
24.33000 636.902
24.34000 628.754
24.35000 620.224
24.36000 614.744
24.37000 614.208
24.38000 613.741
24.39000 613.501
24.40000 608.437
24.41000 605.042
24.42000 603.454
24.43000 603.108
24.44000 602.884
24.45000 606.181
24.46000 611.102
24.47000 615.755
24.48000 620.061
24.49000 623.918
24.50000 626.304
24.51000 617.582
24.52000 606.568
24.53000 598.552
24.54000 604.818
24.55000 612.937
24.56000 619.207
24.57000 612.980
24.58000 607.315
24.59000 601.748
24.60000 596.389
24.61000 591.036
24.62000 591.405
24.63000 599.963
24.64000 608.582
24.65000 611.138
24.66000 608.092
24.67000 605.029
24.68000 600.894
24.69000 596.107
24.70000 591.540
24.71000 591.793
24.72000 594.017
24.73000 596.094
24.74000 598.394
24.75000 600.535
24.76000 602.340
24.77000 601.964
24.78000 601.195
24.79000 601.255
24.80000 604.788
24.81000 608.705
24.82000 611.634
24.83000 589.253
24.84000 570.622
24.85000 559.826
24.86000 563.852
24.87000 568.231
24.88000 575.468
24.89000 586.302
24.90000 597.131
24.91000 605.715
24.92000 612.458
24.93000 618.886
24.94000 611.411
24.95000 596.474
24.96000 582.544
24.97000 586.045
24.98000 595.870
24.99000 604.907
25.00000 603.516
25.01000 600.009
25.02000 596.404
25.03000 592.247
25.04000 588.003
25.05000 584.817
25.06000 585.532
25.07000 586.611
25.08000 587.390
25.09000 589.641
25.10000 591.420
25.11000 587.530
25.12000 574.143
25.13000 560.608
25.14000 554.965
25.15000 558.013
25.16000 561.053
25.17000 571.213
25.18000 586.280
25.19000 600.982
25.20000 604.225
25.21000 602.016
25.22000 599.408
25.23000 591.228
25.24000 581.256
25.25000 572.229
25.26000 575.270
25.27000 580.218
25.28000 584.805
25.29000 587.611
25.30000 590.177
25.31000 590.276
25.32000 582.325
25.33000 573.752
25.34000 567.791
25.35000 580.535
25.36000 590.647
25.37000 591.372
25.38000 578.214
25.39000 564.930
25.40000 563.494
25.41000 573.409
25.42000 583.245
25.43000 582.878
25.44000 576.238
25.45000 569.878
25.46000 570.090
25.47000 573.077
25.48000 575.848
25.49000 576.136
25.50000 575.717
25.51000 575.344
25.52000 572.687
25.53000 570.010
25.54000 568.440
25.55000 571.657
25.56000 575.427
25.57000 577.780
25.58000 576.044
25.59000 574.050
25.60000 572.720
25.61000 572.378
25.62000 572.144
25.63000 573.320
25.64000 576.331
25.65000 579.344
25.66000 579.713
25.67000 577.869
25.68000 576.050
25.69000 573.854
25.70000 571.515
25.71000 569.430
25.72000 572.008
25.73000 576.331
25.74000 580.446
25.75000 582.563
25.76000 584.177
25.77000 585.584
25.78000 578.608
25.79000 571.479
25.80000 565.801
25.81000 565.650
25.82000 566.038
25.83000 566.335
25.84000 566.402
25.85000 566.457
25.86000 566.493
25.87000 582.615
25.88000 594.545
25.89000 590.830
25.90000 569.268
25.91000 547.780
25.92000 542.528
25.93000 549.198
25.94000 555.740
25.95000 558.763
25.96000 560.010
25.97000 561.603
25.98000 568.286
25.99000 576.659
26.00000 584.028
26.01000 583.182
26.02000 580.521
26.03000 578.250
26.04000 569.851
26.05000 562.054
26.06000 556.175
26.07000 556.750
26.08000 557.850
26.09000 561.200
26.10000 569.663
26.11000 578.323
26.12000 583.580
26.13000 574.699
26.14000 568.254
26.15000 565.205
26.16000 565.530
26.17000 565.843
26.18000 565.088
26.19000 563.642
26.20000 562.235
26.21000 564.554
26.22000 568.306
26.23000 571.098
26.24000 562.279
26.25000 550.048
26.26000 539.907
26.27000 544.443
26.28000 551.819
26.29000 557.969
26.30000 553.674
26.31000 549.072
26.32000 545.384
26.33000 544.422
26.34000 543.641
26.35000 545.971
26.36000 554.571
26.37000 563.349
26.38000 568.397
26.39000 557.372
26.40000 549.608
26.41000 549.723
26.42000 556.659
26.43000 563.547
26.44000 567.752
26.45000 570.422
26.46000 572.998
26.47000 567.483
26.48000 559.355
26.49000 551.755
26.50000 549.469
26.51000 548.563
26.52000 547.170
26.53000 542.823
26.54000 537.978
26.55000 534.040
26.56000 550.410
26.57000 565.458
26.58000 573.362
26.59000 562.386
26.60000 550.403
26.61000 542.093
26.62000 540.342
26.63000 538.720
26.64000 537.841
26.65000 540.523
26.66000 542.346
26.67000 540.027
26.68000 534.563
26.69000 529.213
26.70000 528.111
26.71000 529.161
26.72000 530.163
26.73000 528.718
26.74000 526.597
26.75000 525.693
26.76000 535.179
26.77000 547.038
26.78000 555.587
26.79000 546.637
26.80000 535.132
26.81000 526.036
26.82000 526.422
26.83000 527.381
26.84000 530.095
26.85000 536.922
26.86000 543.919
26.87000 546.467
26.88000 541.992
26.89000 537.429
26.90000 535.113
26.91000 532.925
26.92000 531.507
26.93000 535.045
26.94000 541.896
26.95000 548.614
26.96000 551.701
26.97000 553.157
26.98000 554.531
26.99000 548.616
27.00000 541.171
27.01000 534.331
27.02000 531.908
27.03000 530.370
27.04000 530.344
27.05000 537.321
27.06000 545.177
27.07000 551.203
27.08000 541.107
27.09000 532.235
27.10000 525.185
27.11000 521.925
27.12000 518.781
27.13000 520.288
27.14000 528.268
27.15000 536.287
27.16000 542.062
27.17000 545.819
27.18000 549.450
27.19000 545.409
27.20000 536.838
27.21000 528.873
27.22000 533.537
27.23000 543.234
27.24000 552.257
27.25000 542.778
27.26000 529.733
27.27000 519.534
27.28000 527.273
27.29000 538.150
27.30000 545.778
27.31000 540.181
27.32000 533.174
27.33000 527.973
27.34000 528.224
27.35000 528.659
27.36000 528.392
27.37000 526.833
27.38000 525.245
27.39000 529.211
27.40000 539.969
27.41000 550.722
27.42000 553.278
27.43000 549.414
27.44000 545.521
27.45000 540.437
27.46000 534.731
27.47000 529.449
27.48000 531.151
27.49000 535.321
27.50000 539.144
27.51000 544.271
27.52000 549.112
27.53000 551.540
27.54000 540.745
27.55000 527.943
27.56000 517.840
27.57000 517.427
27.58000 517.881
27.59000 518.207
27.60000 524.519
27.61000 529.546
27.62000 532.040
27.63000 530.407
27.64000 528.715
27.65000 531.142
27.66000 537.969
27.67000 544.765
27.68000 546.111
27.69000 543.720
27.70000 541.291
27.71000 537.738
27.72000 533.663
27.73000 529.729
27.74000 527.684
27.75000 526.230
27.76000 524.919
27.77000 521.603
27.78000 518.327
27.79000 515.201
27.80000 512.797
27.81000 510.487
27.82000 508.873
27.83000 509.471
27.84000 510.234
27.85000 510.759
27.86000 506.476
27.87000 503.138
27.88000 505.193
27.89000 515.007
27.90000 524.880
27.91000 525.983
27.92000 518.931
27.93000 511.942
27.94000 513.044
27.95000 518.962
27.96000 524.751
27.97000 527.670
27.98000 529.410
27.99000 531.066
28.00000 531.803
28.01000 532.285
28.02000 532.712
28.03000 530.073
28.04000 527.309
28.05000 524.359
28.06000 520.625
28.07000 516.803
28.08000 513.796
28.09000 513.078
28.10000 512.498
28.11000 512.115
28.12000 504.867
28.13000 499.399
28.14000 497.714
28.15000 500.819
28.16000 503.932
28.17000 504.182
28.18000 502.104
28.19000 500.056
28.20000 498.382
28.21000 496.951
28.22000 495.952
28.23000 502.504
28.24000 511.809
28.25000 520.643
28.26000 525.092
28.27000 528.469
28.28000 531.400
28.29000 531.354
28.30000 530.916
28.31000 528.332
28.32000 517.795
28.33000 506.511
28.34000 499.979
28.35000 505.303
28.36000 511.191
28.37000 514.906
28.38000 501.516
28.39000 491.620
28.40000 492.344
28.41000 504.830
28.42000 517.239
28.43000 517.131
28.44000 508.085
28.45000 499.227
28.46000 494.072
28.47000 490.820
28.48000 488.177
28.49000 494.113
28.50000 502.822
28.51000 510.268
28.52000 507.716
28.53000 503.017
28.54000 499.026
28.55000 503.784
28.56000 508.775
28.57000 511.525
28.58000 506.930
28.59000 501.763
28.60000 497.148
28.61000 493.756
28.62000 490.408
28.63000 488.398
28.64000 490.366
28.65000 491.790
28.66000 490.514
28.67000 486.636
28.68000 482.859
28.69000 487.051
28.70000 496.263
28.71000 505.210
28.72000 502.347
28.73000 494.869
28.74000 488.361
28.75000 493.097
28.76000 501.049
28.77000 507.745
28.78000 505.906
28.79000 502.463
28.80000 499.608
28.81000 503.883
28.82000 508.099
28.83000 509.789
28.84000 504.141
28.85000 498.026
28.86000 491.561
28.87000 484.406
28.88000 477.234
28.89000 473.160
28.90000 491.130
28.91000 503.707
28.92000 513.631
28.93000 521.321
28.94000 528.718
28.95000 521.518
28.96000 506.188
28.97000 491.436
28.98000 489.042
28.99000 491.158
29.00000 492.948
29.01000 491.565
29.02000 489.381
29.03000 487.152
29.04000 484.662
29.05000 482.130
29.06000 480.083
29.07000 481.175
29.08000 482.313
29.09000 484.031
29.10000 487.241
29.11000 490.526
29.12000 492.072
29.13000 490.592
29.14000 489.058
29.15000 488.238
29.16000 475.348
29.17000 466.597
29.18000 466.495
29.19000 472.778
29.20000 478.907
29.21000 479.694
29.22000 477.847
29.23000 476.088
29.24000 475.774
29.25000 475.930
29.26000 477.004
29.27000 485.657
29.28000 495.992
29.29000 505.765
29.30000 512.644
29.31000 519.115
29.32000 524.198
29.33000 508.625
29.34000 494.809
29.35000 486.422
29.36000 490.438
29.37000 494.938
29.38000 497.954
29.39000 498.690
29.40000 499.401
29.41000 494.906
29.42000 485.206
29.43000 475.532
29.44000 468.190
29.45000 462.365
29.46000 457.202
29.47000 468.972
29.48000 488.153
29.49000 506.190
29.50000 499.343
29.51000 486.375
29.52000 475.257
29.53000 477.210
29.54000 481.708
29.55000 485.759
29.56000 487.801
29.57000 489.600
29.58000 490.971
29.59000 490.416
29.60000 489.877
29.61000 488.960
29.62000 487.278
29.63000 485.574
29.64000 484.684
29.65000 484.895
29.66000 485.111
29.67000 487.236
29.68000 491.017
29.69000 494.706
29.70000 493.259
29.71000 488.859
29.72000 484.752
29.73000 486.418
29.74000 490.324
29.75000 493.948
29.76000 497.121
29.77000 499.873
29.78000 501.222
29.79000 494.000
29.80000 485.323
29.81000 478.360
29.82000 478.183
29.83000 478.704
29.84000 479.088
29.85000 487.259
29.86000 493.910
29.87000 494.170
29.88000 482.959
29.89000 471.518
29.90000 467.177
29.91000 471.271
29.92000 475.370
29.93000 471.540
29.94000 461.719
29.95000 452.233
29.96000 455.395
29.97000 464.997
29.98000 474.534
29.99000 483.036
30.00000 491.182
30.01000 498.625
30.02000 490.671
30.03000 480.467
30.04000 472.812
30.05000 478.717
30.06000 486.615
30.07000 494.343
30.08000 501.480
30.09000 508.566
30.10000 513.602
30.11000 504.771
30.12000 497.607
30.13000 492.945
30.14000 492.256
30.15000 491.616
30.16000 487.238
30.17000 478.983
30.18000 470.773
30.19000 470.530
30.20000 475.574
30.21000 480.576
30.22000 484.395
30.23000 487.681
30.24000 490.247
30.25000 483.602
30.26000 474.149
30.27000 465.657
30.28000 468.214
30.29000 472.400
30.30000 475.329
30.31000 472.401
30.32000 468.733
30.33000 467.641
30.34000 474.510
30.35000 481.943
30.36000 487.021
30.37000 487.528
30.38000 487.800
30.39000 483.757
30.40000 473.676
30.41000 463.559
30.42000 461.957
30.43000 468.039
30.44000 474.061
30.45000 475.413
30.46000 474.024
30.47000 472.614
30.48000 470.768
30.49000 468.747
30.50000 467.027
30.51000 468.504
30.52000 470.843
30.53000 472.905
30.54000 472.423
30.55000 471.621
30.56000 470.923
30.57000 470.651
30.58000 470.425
30.59000 469.220
30.60000 465.334
30.61000 461.294
30.62000 458.651
30.63000 463.137
30.64000 466.550
30.65000 467.307
30.66000 464.798
30.67000 462.293
30.68000 463.361
30.69000 467.251
30.70000 471.081
30.71000 473.042
30.72000 473.990
30.73000 474.973
30.74000 476.516
30.75000 478.260
30.76000 479.730
30.77000 478.755
30.78000 477.199
30.79000 475.855
30.80000 469.134
30.81000 462.730
30.82000 458.037
30.83000 459.524
30.84000 461.568
30.85000 464.777
30.86000 470.818
30.87000 476.986
30.88000 480.838
30.89000 479.553
30.90000 478.573
30.91000 476.841
30.92000 474.300
30.93000 471.781
30.94000 471.978
30.95000 474.062
30.96000 476.100
30.97000 483.941
30.98000 494.048
30.99000 503.213
31.00000 499.680
31.01000 492.151
31.02000 485.663
31.03000 487.144
31.04000 490.288
31.05000 492.944
31.06000 503.307
31.07000 512.821
31.08000 521.208
31.09000 525.997
31.10000 530.517
31.11000 535.241
31.12000 540.402
31.13000 545.579
31.14000 548.650
31.15000 547.729
31.16000 547.055
31.17000 550.084
31.18000 556.576
31.19000 563.141
31.20000 574.796
31.21000 589.572
31.22000 603.897
31.23000 615.131
31.24000 624.563
31.25000 634.014
31.26000 643.683
31.27000 653.413
31.28000 661.889
31.29000 662.105
31.30000 660.815
31.31000 659.751
31.32000 672.176
31.33000 683.651
31.34000 691.246
31.35000 687.868
31.36000 683.825
31.37000 680.727
31.38000 679.433
31.39000 678.184
31.40000 677.483
31.41000 675.360
31.42000 673.878
31.43000 670.070
31.44000 664.359
31.45000 658.590
31.46000 650.120
31.47000 640.187
31.48000 630.649
31.49000 613.159
31.50000 594.072
31.51000 575.993
31.52000 567.359
31.53000 561.046
31.54000 556.052
31.55000 558.600
31.56000 562.343
31.57000 565.350
31.58000 541.334
31.59000 519.802
31.60000 502.797
31.61000 497.146
31.62000 492.039
31.63000 490.682
31.64000 495.669
31.65000 500.761
31.66000 503.445
31.67000 495.718
31.68000 490.480
31.69000 486.858
31.70000 484.398
31.71000 481.799
31.72000 474.757
31.73000 465.578
31.74000 456.862
31.75000 458.904
31.76000 464.016
31.77000 468.493
31.78000 467.919
31.79000 466.254
31.80000 464.752
31.81000 464.058
31.82000 463.474
31.83000 463.019
31.84000 448.586
31.85000 436.202
31.86000 431.126
31.87000 442.311
31.88000 454.093
31.89000 458.293
31.90000 451.156
31.91000 443.910
31.92000 442.142
31.93000 445.686
31.94000 449.183
31.95000 448.954
31.96000 446.366
31.97000 443.867
31.98000 443.530
31.99000 444.114
32.00000 444.662
32.01000 444.794
32.02000 444.805
32.03000 444.038
32.04000 437.947
32.05000 430.851
32.06000 426.191
32.07000 432.187
32.08000 439.431
32.09000 444.911
32.10000 437.344
32.11000 430.751
32.12000 428.727
32.13000 435.720
32.14000 442.955
32.15000 449.186
32.16000 454.096
32.17000 458.995
32.18000 460.535
32.19000 459.236
32.20000 458.089
32.21000 464.678
32.22000 475.596
32.23000 486.268
32.24000 492.321
32.25000 496.627
32.26000 500.608
32.27000 516.229
32.28000 532.911
32.29000 548.170
32.30000 555.001
32.31000 560.445
32.32000 566.051
32.33000 572.284
32.34000 578.578
32.35000 583.180
32.36000 576.473
32.37000 570.853
32.38000 567.977
32.39000 569.896
32.40000 571.904
32.41000 569.332
32.42000 561.477
32.43000 553.640
32.44000 545.042
32.45000 535.950
32.46000 526.738
32.47000 513.338
32.48000 497.861
32.49000 482.965
32.50000 476.770
32.51000 473.493
32.52000 470.510
32.53000 461.000
32.54000 451.292
32.55000 441.349
32.56000 430.194
32.57000 418.866
32.58000 411.279
32.59000 416.418
32.60000 422.608
32.61000 426.971
32.62000 425.662
32.63000 424.499
32.64000 421.554
32.65000 415.854
32.66000 410.124
32.67000 409.746
32.68000 414.750
32.69000 419.722
32.70000 426.165
32.71000 433.460
32.72000 440.382
32.73000 437.638
32.74000 430.642
32.75000 423.954
32.76000 421.037
32.77000 419.241
32.78000 417.634
32.79000 420.932
32.80000 424.647
32.81000 427.655
32.82000 427.465
32.83000 426.885
32.84000 426.107
32.85000 424.733
32.86000 423.318
32.87000 422.361
32.88000 424.690
32.89000 426.497
32.90000 426.353
32.91000 423.553
32.92000 420.743
32.93000 424.006
32.94000 432.590
32.95000 441.078
32.96000 438.847
32.97000 430.617
32.98000 422.777
32.99000 422.696
33.00000 425.644
33.01000 427.988
33.02000 424.148
33.03000 418.686
33.04000 413.891
33.05000 413.454
33.06000 413.717
33.07000 414.771
33.08000 418.967
33.09000 423.488
33.10000 426.946
33.11000 427.566
33.12000 428.031
33.13000 428.332
33.14000 421.406
33.15000 416.229
33.16000 412.617
33.17000 410.874
33.18000 409.139
33.19000 408.294
33.20000 408.132
33.21000 407.972
33.22000 412.817
33.23000 419.977
33.24000 426.944
33.25000 430.840
33.26000 433.674
33.27000 435.101
33.28000 424.348
33.29000 410.780
33.30000 399.112
33.31000 406.200
33.32000 414.548
33.33000 419.809
33.34000 414.229
33.35000 407.709
33.36000 401.379
33.37000 395.498
33.38000 389.637
33.39000 386.016
33.40000 415.860
33.41000 437.609
33.42000 440.469
33.43000 423.626
33.44000 406.923
33.45000 405.699
33.46000 414.935
33.47000 423.949
33.48000 419.659
33.49000 409.786
33.50000 400.570
33.51000 399.848
33.52000 401.729
33.53000 403.960
33.54000 408.779
33.55000 414.123
33.56000 418.616
33.57000 414.704
33.58000 410.554
33.59000 408.402
33.60000 412.466
33.61000 416.975
33.62000 418.959
33.63000 415.639
33.64000 412.151
33.65000 410.106
33.66000 417.302
33.67000 422.414
33.68000 423.623
33.69000 421.287
33.70000 419.006
33.71000 420.262
33.72000 423.629
33.73000 426.886
33.74000 425.131
33.75000 421.567
33.76000 418.362
33.77000 419.003
33.78000 420.686
33.79000 422.075
33.80000 421.583
33.81000 420.759
33.82000 420.082
33.83000 415.566
33.84000 411.520
33.85000 408.901
33.86000 410.215
33.87000 411.757
33.88000 413.664
33.89000 416.253
33.90000 418.858
33.91000 420.300
33.92000 413.152
33.93000 408.214
33.94000 406.888
33.95000 408.431
33.96000 410.056
33.97000 415.134
33.98000 422.036
33.99000 428.647
34.00000 427.954
34.01000 424.873
34.02000 421.986
34.03000 420.846
34.04000 420.123
34.05000 418.723
34.06000 413.569
34.07000 407.839
34.08000 403.264
34.09000 412.344
34.10000 420.680
34.11000 426.533
34.12000 426.323
34.13000 425.836
34.14000 425.467
34.15000 425.291
34.16000 425.118
34.17000 425.027
34.18000 430.070
34.19000 433.449
34.20000 433.151
34.21000 430.285
34.22000 427.407
34.23000 424.119
34.24000 420.640
34.25000 417.345
34.26000 418.878
34.27000 421.695
34.28000 424.291
34.29000 425.188
34.30000 425.727
34.31000 427.338
34.32000 434.139
34.33000 441.627
34.34000 447.433
34.35000 432.625
34.36000 419.625
34.37000 412.300
34.38000 417.277
34.39000 422.678
34.40000 430.160
34.41000 440.667
34.42000 451.199
34.43000 448.371
34.44000 432.981
34.45000 417.685
34.46000 409.178
34.47000 404.855
34.48000 400.557
34.49000 396.828
34.50000 393.335
34.51000 390.069
34.52000 396.360
34.53000 404.501
34.54000 411.765
34.55000 413.212
34.56000 413.592
34.57000 412.839
34.58000 407.269
34.59000 401.155
34.60000 396.563
34.61000 403.525
34.62000 409.518
34.63000 412.630
34.64000 410.201
34.65000 407.635
34.66000 405.487
34.67000 403.873
34.68000 402.263
34.69000 402.046
34.70000 402.969
34.71000 403.831
34.72000 401.816
34.73000 398.233
34.74000 394.766
34.75000 393.386
34.76000 392.773
34.77000 392.209
34.78000 392.804
34.79000 393.593
34.80000 394.026
34.81000 392.414
34.82000 390.476
34.83000 388.906
34.84000 388.713
34.85000 388.652
34.86000 388.608
34.87000 386.228
34.88000 384.313
34.89000 380.943
34.90000 375.101
34.91000 369.218
34.92000 368.359
34.93000 373.129
34.94000 377.887
34.95000 386.153
34.96000 396.854
34.97000 407.136
34.98000 403.724
34.99000 393.696
35.00000 384.229
35.01000 382.798
35.02000 383.992
35.03000 385.074
35.04000 392.964
35.05000 401.231
35.06000 406.575
35.07000 397.268
35.08000 385.943
35.09000 377.631
35.10000 379.299
35.11000 381.757
35.12000 383.475
35.13000 378.127
35.14000 373.889
35.15000 372.352
35.16000 374.874
35.17000 377.437
35.18000 377.049
35.19000 373.782
35.20000 370.539
35.21000 371.114
35.22000 374.070
35.23000 377.092
35.24000 381.758
35.25000 387.127
35.26000 392.026
35.27000 391.375
35.28000 389.121
35.29000 387.111
35.30000 384.778
35.31000 382.696
35.32000 381.099
35.33000 381.634
35.34000 382.421
35.35000 383.521
35.36000 385.541
35.37000 387.620
35.38000 389.014
35.39000 383.210
35.40000 378.756
35.41000 375.023
35.42000 372.243
35.43000 369.476
35.44000 372.174
35.45000 379.523
35.46000 386.782
35.47000 383.627
35.48000 374.841
35.49000 366.543
35.50000 367.482
35.51000 371.931
35.52000 375.894
35.53000 375.065
35.54000 373.012
35.55000 371.218
35.56000 375.498
35.57000 380.026
35.58000 383.269
35.59000 381.540
35.60000 379.314
35.61000 377.619
35.62000 377.303
35.63000 377.059
35.64000 376.902
35.65000 367.026
35.66000 359.695
35.67000 357.289
35.68000 360.598
35.69000 363.913
35.70000 366.806
35.71000 369.385
35.72000 371.917
35.73000 376.888
35.74000 382.855
35.75000 388.576
35.76000 390.565
35.77000 391.297
35.78000 390.959
35.79000 381.685
35.80000 370.403
35.81000 360.748
35.82000 364.595
35.83000 369.471
35.84000 372.681
35.85000 370.190
35.86000 367.223
35.87000 366.267
35.88000 369.948
35.89000 373.815
35.90000 376.178
35.91000 375.738
35.92000 375.400
35.93000 375.868
35.94000 377.149
35.95000 378.427
35.96000 379.333
35.97000 379.996
35.98000 380.642
35.99000 375.199
36.00000 367.442
36.01000 360.247
36.02000 360.017
36.03000 361.865
36.04000 363.662
36.05000 365.095
36.06000 366.457
36.07000 367.596
36.08000 368.422
36.09000 369.075
36.10000 369.536
36.11000 369.413
36.12000 369.250
36.13000 369.016
36.14000 368.639
36.15000 368.257
36.16000 368.036
36.17000 368.632
36.18000 369.052
36.19000 368.002
36.20000 365.658
36.21000 363.366
36.22000 364.159
36.23000 366.743
36.24000 369.238
36.25000 368.776
36.26000 367.248
36.27000 365.784
36.28000 364.979
36.29000 364.348
36.30000 363.534
36.31000 361.585
36.32000 359.441
36.33000 357.692
36.34000 359.198
36.35000 360.707
36.36000 360.494
36.37000 355.656
36.38000 350.565
36.39000 349.585
36.40000 356.061
36.41000 362.692
36.42000 366.314
36.43000 363.305
36.44000 361.240
36.45000 362.162
36.46000 365.390
36.47000 368.534
36.48000 368.389
36.49000 366.552
36.50000 364.797
36.51000 362.706
36.52000 360.652
36.53000 358.603
36.54000 356.587
36.55000 354.579
36.56000 353.422
36.57000 356.841
36.58000 360.940
36.59000 364.193
36.60000 366.757
36.61000 368.773
36.62000 368.761
36.63000 363.924
36.64000 358.880
36.65000 354.763
36.66000 352.131
36.67000 349.518
36.68000 348.181
36.69000 357.865
36.70000 364.324
36.71000 365.092
36.72000 361.995
36.73000 359.064
36.74000 360.805
36.75000 364.676
36.76000 368.333
36.77000 369.079
36.78000 368.939
36.79000 367.910
36.80000 360.256
36.81000 351.251
36.82000 343.726
36.83000 343.172
36.84000 343.509
36.85000 343.769
36.86000 353.226
36.87000 361.239
36.88000 366.903
36.89000 367.604
36.90000 368.145
36.91000 365.642
36.92000 358.833
36.93000 351.993
36.94000 349.359
36.95000 350.563
36.96000 351.762
36.97000 352.713
36.98000 353.514
36.99000 354.345
37.00000 355.834
37.01000 357.589
37.02000 359.225
37.03000 358.185
37.04000 356.583
37.05000 354.597
37.06000 350.139
37.07000 345.241
37.08000 342.935
37.09000 351.350
37.10000 360.933
37.11000 368.078
37.12000 368.585
37.13000 368.678
37.14000 368.220
37.15000 366.730
37.16000 365.216
37.17000 361.269
37.18000 354.295
37.19000 347.324
37.20000 348.302
37.21000 355.595
37.22000 362.689
37.23000 361.223
37.24000 355.213
37.25000 349.791
37.26000 354.336
37.27000 362.458
37.28000 369.919
37.29000 364.403
37.30000 356.698
37.31000 350.311
37.32000 351.270
37.33000 353.364
37.34000 355.527
37.35000 357.939
37.36000 360.373
37.37000 362.126
37.38000 358.780
37.39000 356.039
37.40000 353.704
37.41000 352.042
37.42000 350.390
37.43000 349.484
37.44000 349.390
37.45000 349.296
37.46000 348.222
37.47000 346.477
37.48000 344.603
37.49000 338.748
37.50000 331.018
37.51000 324.156
37.52000 329.179
37.53000 337.983
37.54000 345.939
37.55000 347.536
37.56000 347.761
37.57000 348.081
37.58000 348.867
37.59000 349.715
37.60000 349.523
37.61000 345.975
37.62000 342.172
37.63000 339.537
37.64000 349.924
37.65000 358.084
37.66000 359.623
37.67000 351.480
37.68000 343.256
37.69000 343.747
37.70000 352.487
37.71000 361.155
37.72000 357.654
37.73000 346.817
37.74000 336.467
37.75000 337.324
37.76000 342.859
37.77000 348.251
37.78000 352.022
37.79000 355.338
37.80000 358.281
37.81000 353.734
37.82000 348.596
37.83000 343.864
37.84000 340.867
37.85000 338.068
37.86000 337.487
37.87000 343.245
37.88000 349.394
37.89000 353.480
37.90000 357.253
37.91000 360.036
37.92000 361.558
37.93000 361.456
37.94000 361.346
37.95000 360.961
37.96000 360.347
37.97000 359.741
37.98000 360.556
37.99000 362.107
38.00000 363.256
38.01000 357.198
38.02000 348.471
38.03000 341.160
38.04000 347.313
38.05000 356.807
38.06000 365.070
38.07000 366.981
38.08000 367.742
38.09000 365.704
38.10000 353.124
38.11000 339.530
38.12000 333.078
38.13000 344.722
38.14000 357.253
38.15000 365.209
38.16000 352.180
38.17000 342.461
38.18000 339.983
38.19000 345.663
38.20000 351.344
38.21000 355.991
38.22000 359.886
38.23000 363.704
38.24000 366.459
38.25000 368.614
38.26000 370.456
38.27000 367.775
38.28000 363.610
38.29000 360.073
38.30000 361.614
38.31000 364.262
38.32000 366.518
38.33000 377.731
38.34000 388.201
38.35000 394.134
38.36000 384.957
38.37000 374.572
38.38000 365.864
38.39000 360.929
38.40000 356.136
38.41000 353.240
38.42000 360.003
38.43000 364.891
38.44000 366.203
38.45000 364.006
38.46000 361.798
38.47000 358.628
38.48000 354.843
38.49000 351.163
38.50000 359.677
38.51000 372.772
38.52000 385.072
38.53000 387.916
38.54000 388.013
38.55000 388.347
38.56000 390.326
38.57000 392.620
38.58000 394.529
38.59000 391.087
38.60000 387.713
38.61000 387.155
38.62000 394.898
38.63000 403.184
38.64000 409.317
38.65000 411.161
38.66000 412.886
38.67000 413.874
38.68000 418.601
38.69000 421.913
38.70000 423.615
38.71000 423.939
38.72000 424.247
38.73000 423.683
38.74000 422.626
38.75000 421.608
38.76000 419.920
38.77000 418.093
38.78000 416.096
38.79000 412.412
38.80000 408.295
38.81000 404.757
38.82000 404.685
38.83000 405.190
38.84000 405.599
38.85000 397.839
38.86000 390.847
38.87000 384.008
38.88000 377.567
38.89000 371.148
38.90000 367.920
38.91000 370.329
38.92000 372.845
38.93000 374.200
38.94000 362.626
38.95000 354.727
38.96000 352.706
38.97000 355.096
38.98000 357.522
38.99000 361.248
39.00000 365.625
39.01000 369.798
39.02000 362.195
39.03000 351.442
39.04000 342.301
39.05000 346.720
39.06000 354.202
39.07000 358.969
39.08000 349.556
39.09000 338.100
39.10000 329.067
39.11000 331.883
39.12000 334.938
39.13000 338.346
39.14000 342.568
39.15000 346.823
39.16000 346.849
39.17000 340.274
39.18000 333.622
39.19000 330.266
39.20000 332.642
39.21000 334.196
39.22000 332.392
39.23000 328.367
39.24000 324.491
39.25000 324.566
39.26000 326.397
39.27000 328.122
39.28000 331.375
39.29000 334.771
39.30000 337.368
39.31000 334.209
39.32000 329.909
39.33000 326.233
39.34000 325.407
39.35000 324.934
39.36000 324.572
39.37000 327.830
39.38000 330.597
39.39000 331.428
39.40000 328.276
39.41000 325.004
39.42000 326.644
39.43000 335.044
39.44000 343.482
39.45000 343.596
39.46000 336.341
39.47000 329.256
39.48000 332.094
39.49000 340.728
39.50000 348.684
39.51000 342.833
39.52000 331.540
39.53000 321.045
39.54000 325.833
39.55000 333.809
39.56000 341.004
39.57000 343.336
39.58000 344.828
39.59000 345.845
39.60000 344.955
39.61000 343.864
39.62000 343.056
39.63000 340.888
39.64000 339.147
39.65000 338.431
39.66000 339.582
39.67000 340.773
39.68000 342.718
39.69000 345.575
39.70000 348.427
39.71000 344.398
39.72000 335.078
39.73000 325.959
39.74000 324.782
39.75000 327.712
39.76000 330.591
39.77000 332.638
39.78000 334.395
39.79000 336.003
39.80000 334.807
39.81000 333.160
39.82000 332.373
39.83000 336.245
39.84000 340.814
39.85000 343.860
39.86000 341.501
39.87000 338.666
39.88000 336.641
39.89000 342.416
39.90000 347.080
39.91000 348.145
39.92000 343.410
39.93000 338.596
39.94000 334.462
39.95000 331.046
39.96000 327.648
39.97000 329.868
39.98000 335.854
39.99000 341.629
40.00000 341.396
40.01000 338.409
40.02000 335.715
40.03000 336.864
40.04000 339.203
40.05000 341.310
40.06000 339.131
40.07000 336.451
40.08000 336.599
40.09000 350.138
40.10000 365.402
40.11000 374.387
40.12000 363.645
40.13000 351.469
40.14000 343.107
40.15000 341.329
40.16000 340.158
40.17000 340.911
40.18000 344.401
40.19000 347.909
40.20000 347.734
40.21000 344.175
40.22000 340.649
40.23000 342.496
40.24000 347.481
40.25000 352.472
40.26000 357.580
40.27000 362.735
40.28000 367.159
40.29000 363.604
40.30000 357.866
40.31000 352.793
40.32000 353.069
40.33000 354.134
40.34000 355.039
40.35000 355.275
40.36000 355.438
40.37000 354.412
40.38000 350.074
40.39000 345.542
40.40000 342.559
40.41000 328.801
40.42000 318.484
40.43000 317.665
40.44000 328.728
40.45000 339.804
40.46000 343.486
40.47000 341.228
40.48000 339.003
40.49000 338.596
40.50000 339.143
40.51000 339.789
40.52000 342.134
40.53000 345.092
40.54000 348.017
40.55000 350.637
40.56000 353.184
40.57000 355.391
40.58000 348.474
40.59000 341.382
40.60000 336.363
40.61000 338.950
40.62000 342.240
40.63000 343.424
40.64000 339.409
40.65000 335.153
40.66000 332.479
40.67000 329.328
40.68000 327.044
40.69000 327.542
40.70000 331.082
40.71000 334.583
40.72000 332.632
40.73000 326.832
40.74000 321.156
40.75000 318.370
40.76000 317.008
40.77000 315.608
40.78000 313.679
40.79000 311.580
40.80000 309.931
40.81000 311.798
40.82000 314.410
40.83000 316.624
40.84000 328.615
40.85000 339.762
40.86000 348.160
40.87000 347.648
40.88000 346.453
40.89000 344.094
40.90000 339.186
40.91000 334.187
40.92000 331.201
40.93000 328.473
40.94000 326.541
40.95000 333.553
40.96000 349.079
40.97000 364.403
40.98000 364.505
40.99000 355.128
41.00000 346.027
41.01000 340.159
41.02000 335.880
41.03000 331.837
41.04000 330.498
41.05000 329.923
41.06000 328.778
41.07000 323.807
41.08000 318.126
41.09000 313.425
41.10000 329.127
41.11000 344.009
41.12000 353.457
41.13000 347.297
41.14000 340.164
41.15000 334.913
41.16000 333.313
41.17000 331.806
41.18000 330.955
41.19000 335.039
41.20000 337.890
41.21000 339.705
41.22000 340.659
41.23000 341.546
41.24000 339.227
41.25000 335.142
41.26000 331.215
41.27000 337.810
41.28000 347.658
41.29000 356.324
41.30000 353.670
41.31000 348.189
41.32000 343.858
41.33000 346.210
41.34000 349.642
41.35000 352.408
41.36000 354.463
41.37000 356.076
41.38000 356.833
41.39000 355.409
41.40000 353.877
41.41000 351.736
41.42000 348.548
41.43000 345.343
41.44000 343.639
41.45000 347.802
41.46000 350.651
41.47000 355.398
41.48000 361.530
41.49000 367.519
41.50000 368.715
41.51000 367.572
41.52000 366.484
41.53000 366.801
41.54000 367.522
41.55000 368.699
41.56000 373.574
41.57000 379.262
41.58000 386.024
41.59000 398.234
41.60000 411.204
41.61000 421.365
41.62000 456.438
41.63000 486.067
41.64000 521.452
41.65000 569.843
41.66000 618.729
41.67000 660.447
41.68000 691.273
41.69000 721.986
41.70000 749.408
41.71000 773.582
41.72000 797.656
41.73000 813.033
41.74000 822.816
41.75000 832.710
41.76000 845.363
41.77000 859.210
41.78000 872.217
41.79000 864.418
41.80000 851.759
41.81000 841.061
41.82000 844.035
41.83000 849.637
41.84000 848.234
41.85000 815.673
41.86000 779.390
41.87000 751.830
41.88000 705.088
41.89000 667.350
41.90000 627.559
41.91000 583.655
41.92000 539.635
41.93000 504.414
41.94000 480.967
41.95000 457.598
41.96000 441.062
41.97000 430.429
41.98000 419.868
41.99000 413.205
42.00000 408.758
42.01000 404.588
42.02000 405.750
42.03000 408.961
42.04000 411.935
42.05000 402.822
42.06000 391.817
42.07000 382.545
42.08000 383.725
42.09000 386.655
42.10000 388.830
42.11000 388.047
42.12000 386.964
42.13000 386.168
42.14000 401.046
42.15000 413.187
42.16000 419.192
42.17000 414.305
42.18000 409.207
42.19000 409.607
42.20000 416.462
42.21000 423.308
42.22000 423.629
42.23000 419.059
42.24000 414.452
42.25000 408.534
42.26000 401.955
42.27000 395.785
42.28000 395.917
42.29000 398.193
42.30000 400.271
42.31000 405.074
42.32000 409.884
42.33000 415.363
42.34000 424.362
42.35000 433.871
42.36000 440.369
42.37000 436.456
42.38000 431.663
42.39000 428.268
42.40000 423.652
42.41000 420.107
42.42000 420.223
42.43000 426.088
42.44000 432.021
42.45000 438.087
42.46000 444.287
42.47000 450.451
42.48000 449.148
42.49000 442.968
42.50000 437.096
42.51000 439.513
42.52000 445.632
42.53000 451.758
42.54000 457.972
42.55000 464.213
42.56000 469.810
42.57000 477.887
42.58000 485.378
42.59000 492.274
42.60000 496.430
42.61000 500.246
42.62000 503.081
42.63000 502.914
42.64000 502.539
42.65000 502.283
42.66000 514.488
42.67000 523.887
42.68000 529.678
42.69000 530.475
42.70000 531.246
42.71000 537.655
42.72000 549.091
42.73000 560.408
42.74000 564.855
42.75000 565.260
42.76000 565.717
42.77000 567.263
42.78000 569.240
42.79000 571.432
42.80000 575.885
42.81000 580.941
42.82000 585.391
42.83000 591.748
42.84000 597.507
42.85000 601.387
42.86000 597.670
42.87000 593.149
42.88000 590.731
42.89000 594.015
42.90000 597.619
42.91000 599.967
42.92000 586.588
42.93000 576.526
42.94000 578.918
42.95000 596.446
42.96000 613.968
42.97000 620.621
42.98000 618.791
42.99000 616.990
43.00000 610.674
43.01000 602.287
43.02000 594.051
43.03000 588.285
43.04000 583.387
43.05000 579.188
43.06000 581.169
43.07000 584.602
43.08000 587.562
43.09000 590.280
43.10000 592.554
43.11000 593.878
43.12000 591.810
43.13000 589.440
43.14000 589.155
43.15000 593.883
43.16000 598.831
43.17000 601.907
43.18000 599.454
43.19000 597.633
43.20000 592.731
43.21000 584.557
43.22000 576.424
43.23000 573.011
43.24000 572.840
43.25000 572.674
43.26000 571.139
43.27000 569.067
43.28000 567.917
43.29000 578.998
43.30000 593.886
43.31000 607.010
43.32000 606.827
43.33000 603.900
43.34000 601.432
43.35000 601.294
43.36000 601.431
43.37000 600.554
43.38000 596.479
43.39000 592.169
43.40000 590.716
43.41000 595.360
43.42000 600.205
43.43000 603.066
43.44000 611.381
43.45000 617.284
43.46000 625.098
43.47000 634.678
43.48000 644.132
43.49000 645.066
43.50000 640.834
43.51000 636.734
43.52000 634.334
43.53000 632.721
43.54000 632.069
43.55000 641.972
43.56000 654.781
43.57000 666.824
43.58000 673.887
43.59000 680.052
43.60000 685.125
43.61000 692.497
43.62000 698.767
43.63000 702.716
43.64000 700.170
43.65000 697.239
43.66000 699.239
43.67000 710.567
43.68000 722.116
43.69000 728.559
43.70000 746.281
43.71000 758.568
43.72000 770.032
43.73000 780.830
43.74000 791.478
43.75000 795.517
43.76000 796.010
43.77000 796.483
43.78000 802.995
43.79000 811.127
43.80000 819.875
43.81000 834.317
43.82000 850.141
43.83000 863.402
43.84000 862.204
43.85000 858.742
43.86000 855.969
43.87000 873.204
43.88000 888.657
43.89000 902.230
43.90000 911.137
43.91000 919.824
43.92000 931.193
43.93000 947.051
43.94000 962.979
43.95000 971.326
43.96000 997.411
43.97000 1015.087
43.98000 1033.077
43.99000 1051.292
44.00000 1069.607
44.01000 1091.108
44.02000 1114.123
44.03000 1135.954
44.04000 1163.967
44.05000 1191.629
44.06000 1218.299
44.07000 1237.171
44.08000 1254.379
44.09000 1272.880
44.10000 1297.755
44.11000 1323.489
44.12000 1343.519
44.13000 1377.819
44.14000 1406.007
44.15000 1442.569
44.16000 1497.560
44.17000 1553.210
44.18000 1608.470
44.19000 1663.152
44.20000 1717.825
44.21000 1782.795
44.22000 1857.612
44.23000 1933.038
44.24000 2055.288
44.25000 2206.853
44.26000 2360.108
44.27000 2553.101
44.28000 2762.855
44.29000 2959.315
44.30000 3259.281
44.31000 3558.891
44.32000 3859.065
44.33000 4163.054
44.34000 4467.755
44.35000 4757.364
44.36000 4981.715
44.37000 5198.539
44.38000 5362.071
44.39000 5577.375
44.40000 5748.567
44.41000 5928.078
44.42000 6123.829
44.43000 6320.001
44.44000 6462.039
44.45000 6533.640
44.46000 6604.869
44.47000 6737.616
44.48000 6921.269
44.49000 7103.301
44.50000 7206.082
44.51000 7264.978
44.52000 7323.599
44.53000 7377.162
44.54000 7428.833
44.55000 7476.547
44.56000 7548.583
44.57000 7618.665
44.58000 7706.353
44.59000 7897.047
44.60000 8104.477
44.61000 8338.948
44.62000 8676.412
44.63000 9023.917
44.64000 9277.200
44.65000 9755.434
44.66000 10132.466
44.67000 10516.595
44.68000 10912.989
44.69000 11309.601
44.70000 11694.287
44.71000 12065.381
44.72000 12435.229
44.73000 12749.178
44.74000 13019.890
44.75000 13289.813
44.76000 13532.876
44.77000 13762.760
44.78000 13990.056
44.79000 14179.259
44.80000 14355.828
44.81000 14516.332
44.82000 14678.707
44.83000 14822.619
44.84000 14927.698
44.85000 14834.658
44.86000 14713.803
44.87000 14611.440
44.88000 14571.313
44.89000 14536.243
44.90000 14511.614
44.91000 14249.030
44.92000 14043.262
44.93000 13818.101
44.94000 13563.319
44.95000 13308.222
44.96000 13017.166
44.97000 12690.400
44.98000 12365.862
44.99000 12042.801
45.00000 11725.652
45.01000 11409.884
45.02000 11128.944
45.03000 10863.160
45.04000 10591.899
45.05000 10254.482
45.06000 9897.641
45.07000 9578.858
45.08000 9207.618
45.09000 8875.374
45.10000 8547.319
45.11000 8237.992
45.12000 7930.918
45.13000 7615.098
45.14000 7273.223
45.15000 6929.613
45.16000 6697.877
45.17000 6364.558
45.18000 6114.420
45.19000 5881.675
45.20000 5672.333
45.21000 5463.118
45.22000 5256.380
45.23000 5051.788
45.24000 4849.560
45.25000 4657.804
45.26000 4476.526
45.27000 4297.119
45.28000 4154.214
45.29000 4025.400
45.30000 3895.757
45.31000 3757.741
45.32000 3617.554
45.33000 3494.691
45.34000 3370.342
45.35000 3263.413
45.36000 3162.698
45.37000 3086.446
45.38000 3012.688
45.39000 2938.799
45.40000 2864.565
45.41000 2790.312
45.42000 2742.395
45.43000 2700.520
45.44000 2670.011
45.45000 2631.552
45.46000 2583.708
45.47000 2535.902
45.48000 2499.781
45.49000 2472.529
45.50000 2445.755
45.51000 2425.333
45.52000 2408.713
45.53000 2391.993
45.54000 2373.707
45.55000 2354.885
45.56000 2334.817
45.57000 2304.112
45.58000 2270.977
45.59000 2242.539
45.60000 2268.826
45.61000 2297.796
45.62000 2312.628
45.63000 2278.337
45.64000 2239.855
45.65000 2211.954
45.66000 2208.846
45.67000 2206.765
45.68000 2205.486
45.69000 2207.984
45.70000 2209.810
45.71000 2217.828
45.72000 2232.227
45.73000 2246.396
45.74000 2236.861
45.75000 2211.488
45.76000 2186.744
45.77000 2190.401
45.78000 2206.073
45.79000 2220.827
45.80000 2223.936
45.81000 2223.515
45.82000 2224.341
45.83000 2234.267
45.84000 2246.017
45.85000 2255.873
45.86000 2267.772
45.87000 2277.888
45.88000 2287.899
45.89000 2297.590
45.90000 2307.257
45.91000 2332.240
45.92000 2389.051
45.93000 2446.846
45.94000 2480.565
45.95000 2489.530
45.96000 2495.729
45.97000 2514.452
45.98000 2544.406
45.99000 2574.710
46.00000 2626.411
46.01000 2690.738
46.02000 2752.927
46.03000 2823.552
46.04000 2893.367
46.05000 2966.805
46.06000 3078.473
46.07000 3200.384
46.08000 3329.615
46.09000 3504.957
46.10000 3688.361
46.11000 3838.424
46.12000 4182.996
46.13000 4482.293
46.14000 4776.802
46.15000 5058.259
46.16000 5338.976
46.17000 5655.256
46.18000 6037.037
46.19000 6420.246
46.20000 6631.236
46.21000 7311.984
46.22000 7782.819
46.23000 8557.607
46.24000 9570.995
46.25000 10619.305
46.26000 13090.477
46.27000 16305.086
46.28000 19381.564
46.29000 27360.711
46.30000 36408.227
46.31000 46259.781
46.32000 63268.523
46.33000 81967.430
46.34000 101237.938
46.35000 123638.211
46.36000 146513.125
46.37000 164728.859
46.38000 184091.109
46.39000 199786.719
46.40000 213778.484
46.41000 223651.406
46.42000 233341.563
46.43000 242294.500
46.44000 250046.031
46.45000 257780.594
46.46000 261775.656
46.47000 273662.813
46.48000 281657.375
46.49000 287404.063
46.50000 291598.688
46.51000 295589.313
46.52000 293595.375
46.53000 288829.250
46.54000 284320.188
46.55000 272633.438
46.56000 259823.719
46.57000 246238.344
46.58000 226761.969
46.59000 206063.984
46.60000 185851.547
46.61000 167963.453
46.62000 150378.797
46.63000 136782.688
46.64000 123264.234
46.65000 112543.281
46.66000 102524.320
46.67000 94010.719
46.68000 85547.602
46.69000 76523.492
46.70000 66692.602
46.71000 56857.027
46.72000 47337.730
46.73000 38116.871
46.74000 28936.725
46.75000 22563.729
46.76000 17901.496
46.77000 13327.902
46.78000 10723.213
46.79000 8927.596
46.80000 7250.747
46.81000 6374.578
46.82000 5781.000
46.83000 5221.782
46.84000 4887.295
46.85000 4593.540
46.86000 4317.359
46.87000 4115.074
46.88000 3921.014
46.89000 3775.702
46.90000 3600.384
46.91000 3462.156
46.92000 3327.328
46.93000 3198.967
46.94000 3070.761
46.95000 2986.242
46.96000 2956.974
46.97000 2927.934
46.98000 2850.040
46.99000 2732.911
47.00000 2617.091
47.01000 2559.983
47.02000 2534.536
47.03000 2506.932
47.04000 2441.680
47.05000 2362.706
47.06000 2290.017
47.07000 2246.077
47.08000 2213.065
47.09000 2179.608
47.10000 2143.622
47.11000 2107.239
47.12000 2068.868
47.13000 2023.130
47.14000 1976.702
47.15000 1943.127
47.16000 1914.143
47.17000 1892.068
47.18000 1869.133
47.19000 1844.749
47.20000 1820.342
47.21000 1788.831
47.22000 1749.455
47.23000 1710.231
47.24000 1683.311
47.25000 1665.346
47.26000 1647.263
47.27000 1625.428
47.28000 1601.800
47.29000 1578.434
47.30000 1558.756
47.31000 1540.268
47.32000 1523.524
47.33000 1508.155
47.34000 1494.870
47.35000 1476.498
47.36000 1432.911
47.37000 1385.898
47.38000 1347.148
47.39000 1335.467
47.40000 1325.895
47.41000 1319.230
47.42000 1289.345
47.43000 1266.168
47.44000 1249.108
47.45000 1241.140
47.46000 1233.257
47.47000 1219.523
47.48000 1200.152
47.49000 1180.931
47.50000 1161.654
47.51000 1142.675
47.52000 1124.246
47.53000 1118.910
47.54000 1119.126
47.55000 1118.599
47.56000 1109.469
47.57000 1097.880
47.58000 1087.568
47.59000 1069.966
47.60000 1053.493
47.61000 1037.263
47.62000 1022.086
47.63000 1007.031
47.64000 991.245
47.65000 973.334
47.66000 955.288
47.67000 943.231
47.68000 951.588
47.69000 958.180
47.70000 949.792
47.71000 921.805
47.72000 893.744
47.73000 872.693
47.74000 857.535
47.75000 842.570
47.76000 833.390
47.77000 827.586
47.78000 821.737
47.79000 815.049
47.80000 808.047
47.81000 800.306
47.82000 785.403
47.83000 768.691
47.84000 754.110
47.85000 741.064
47.86000 730.121
47.87000 722.200
47.88000 725.853
47.89000 730.643
47.90000 730.950
47.91000 719.722
47.92000 707.911
47.93000 700.366
47.94000 690.840
47.95000 683.882
47.96000 679.615
47.97000 678.435
47.98000 677.254
47.99000 675.424
48.00000 673.115
48.01000 670.849
48.02000 658.578
48.03000 641.998
48.04000 626.529
48.05000 627.548
48.06000 634.066
48.07000 639.013
48.08000 631.026
48.09000 620.168
48.10000 610.893
48.11000 604.518
48.12000 599.493
48.13000 590.802
48.14000 569.706
48.15000 547.595
48.16000 534.012
48.17000 539.898
48.18000 546.542
48.19000 550.584
48.20000 547.572
48.21000 545.366
48.22000 543.037
48.23000 540.583
48.24000 538.084
48.25000 531.480
48.26000 522.206
48.27000 513.179
48.28000 511.929
48.29000 513.979
48.30000 515.947
48.31000 516.920
48.32000 517.600
48.33000 517.456
48.34000 511.504
48.35000 504.422
48.36000 498.512
48.37000 492.766
48.38000 488.016
48.39000 484.826
48.40000 486.309
48.41000 488.107
48.42000 486.984
48.43000 479.951
48.44000 472.747
48.45000 468.595
48.46000 462.130
48.47000 457.600
48.48000 458.122
48.49000 463.040
48.50000 467.845
48.51000 466.319
48.52000 461.155
48.53000 456.173
48.54000 456.083
48.55000 457.786
48.56000 458.802
48.57000 452.856
48.58000 445.094
48.59000 437.911
48.60000 434.266
48.61000 431.221
48.62000 428.743
48.63000 418.989
48.64000 410.414
48.65000 404.456
48.66000 405.450
48.67000 406.817
48.68000 406.455
48.69000 402.992
48.70000 399.467
48.71000 397.552
48.72000 403.677
48.73000 407.867
48.74000 407.804
48.75000 404.495
48.76000 401.122
48.77000 395.329
48.78000 388.304
48.79000 381.597
48.80000 379.160
48.81000 378.261
48.82000 378.092
48.83000 384.198
48.84000 391.745
48.85000 397.870
48.86000 396.436
48.87000 393.892
48.88000 391.879
48.89000 388.759
48.90000 386.177
48.91000 382.475
48.92000 376.140
48.93000 369.694
48.94000 367.047
48.95000 370.424
48.96000 373.877
48.97000 375.634
48.98000 363.233
48.99000 354.966
49.00000 352.065
49.01000 352.769
49.02000 353.548
49.03000 356.401
49.04000 360.191
49.05000 363.766
49.06000 364.362
49.07000 364.075
49.08000 363.195
49.09000 357.953
49.10000 351.832
49.11000 346.338
49.12000 343.761
49.13000 341.552
49.14000 339.855
49.15000 343.859
49.16000 347.343
49.17000 349.341
49.18000 348.232
49.19000 347.025
49.20000 343.625
49.21000 337.157
49.22000 330.670
49.23000 324.468
49.24000 318.529
49.25000 312.777
49.26000 318.695
49.27000 331.537
49.28000 343.710
49.29000 341.838
49.30000 334.343
49.31000 327.364
49.32000 335.421
49.33000 346.366
49.34000 354.791
49.35000 347.241
49.36000 336.882
49.37000 328.589
49.38000 328.748
49.39000 329.814
49.40000 330.607
49.41000 329.004
49.42000 327.652
49.43000 327.170
49.44000 328.301
49.45000 329.468
49.46000 325.759
49.47000 316.057
49.48000 306.358
49.49000 308.130
49.50000 318.903
49.51000 329.285
49.52000 323.473
49.53000 309.156
49.54000 295.915
49.55000 300.532
49.56000 311.491
49.57000 321.543
49.58000 321.717
49.59000 319.781
49.60000 317.572
49.61000 313.858
49.62000 309.914
49.63000 306.683
49.64000 306.024
49.65000 305.596
49.66000 305.289
49.67000 312.356
49.68000 318.012
49.69000 318.917
49.70000 312.039
49.71000 305.048
49.72000 297.977
49.73000 290.820
49.74000 283.696
49.75000 282.527
49.76000 285.457
49.77000 288.423
49.78000 292.424
49.79000 296.907
49.80000 300.860
49.81000 297.667
49.82000 292.226
49.83000 287.316
49.84000 288.169
49.85000 289.975
49.86000 291.800
49.87000 293.719
49.88000 295.651
49.89000 296.989
49.90000 296.430
49.91000 295.730
49.92000 295.246
49.93000 298.968
49.94000 301.872
49.95000 299.768
49.96000 290.422
49.97000 281.020
49.98000 280.877
49.99000 289.390
50.00000 297.829
50.01000 299.511
50.02000 297.100
50.03000 294.592
50.04000 289.898
50.05000 284.302
50.06000 278.960
50.07000 276.455
50.08000 274.740
50.09000 273.221
50.10000 277.808
50.11000 282.741
50.12000 286.101
50.13000 282.807
50.14000 278.766
50.15000 276.296
50.16000 278.263
50.17000 280.500
50.18000 281.980
50.19000 289.002
50.20000 294.286
50.21000 295.674
50.22000 292.108
50.23000 288.526
50.24000 285.517
50.25000 282.977
50.26000 280.471
50.27000 278.972
50.28000 278.044
50.29000 277.280
50.30000 279.399
50.31000 282.574
50.32000 285.003
50.33000 280.456
50.34000 274.197
50.35000 268.760
50.36000 274.774
50.37000 281.448
50.38000 287.190
50.39000 289.458
50.40000 291.398
50.41000 290.378
50.42000 281.940
50.43000 273.145
50.44000 267.585
50.45000 282.430
50.46000 293.430
50.47000 299.567
50.48000 300.290
50.49000 300.957
50.50000 293.819
50.51000 281.080
50.52000 268.602
50.53000 269.600
50.54000 276.783
50.55000 283.584
50.56000 284.949
50.57000 284.549
50.58000 283.663
50.59000 278.910
50.60000 273.323
50.61000 268.574
50.62000 277.425
50.63000 286.417
50.64000 293.369
50.65000 293.599
50.66000 293.300
50.67000 293.255
50.68000 293.773
50.69000 294.311
50.70000 294.635
50.71000 301.320
50.72000 306.117
50.73000 306.564
50.74000 302.798
50.75000 299.049
50.76000 296.739
50.77000 295.340
50.78000 293.980
50.79000 290.194
50.80000 285.613
50.81000 281.897
50.82000 288.276
50.83000 297.557
50.84000 305.817
50.85000 307.102
50.86000 307.068
50.87000 307.041
50.88000 302.881
50.89000 299.043
50.90000 296.211
50.91000 296.311
50.92000 296.599
50.93000 294.669
50.94000 288.366
50.95000 281.945
50.96000 278.290
50.97000 283.991
50.98000 287.981
50.99000 284.635
51.00000 275.086
51.01000 265.645
51.02000 261.677
51.03000 260.772
51.04000 259.900
51.05000 259.836
51.06000 260.061
51.07000 259.697
51.08000 253.566
51.09000 245.972
51.10000 239.877
51.11000 242.660
51.12000 246.904
51.13000 250.336
51.14000 251.420
51.15000 252.113
51.16000 252.482
51.17000 252.014
51.18000 251.502
51.19000 251.781
51.20000 253.440
51.21000 255.125
51.22000 256.027
51.23000 247.076
51.24000 240.988
51.25000 240.298
51.26000 243.615
51.27000 246.926
51.28000 250.060
51.29000 253.107
51.30000 256.008
51.31000 249.164
51.32000 239.798
51.33000 231.388
51.34000 230.901
51.35000 232.184
51.36000 234.395
51.37000 241.396
51.38000 249.080
51.39000 255.122
51.40000 252.583
51.41000 249.982
51.42000 246.751
51.43000 242.071
51.44000 237.334
51.45000 234.755
51.46000 235.507
51.47000 236.296
51.48000 236.692
51.49000 232.718
51.50000 230.121
51.51000 232.573
51.52000 238.327
51.53000 243.772
51.54000 241.250
51.55000 235.226
51.56000 229.558
51.57000 232.634
51.58000 237.816
51.59000 242.076
51.60000 239.781
51.61000 236.203
51.62000 233.250
51.63000 233.125
51.64000 233.345
51.65000 233.513
51.66000 226.469
51.67000 220.536
51.68000 217.722
51.69000 221.256
51.70000 224.976
51.71000 228.018
51.72000 230.137
51.73000 232.250
51.74000 232.225
51.75000 230.331
51.76000 228.517
51.77000 231.254
51.78000 236.620
51.79000 241.526
51.80000 237.270
51.81000 229.440
51.82000 222.173
51.83000 223.904
51.84000 227.590
51.85000 230.853
51.86000 231.510
51.87000 231.724
51.88000 231.647
51.89000 230.421
51.90000 229.075
51.91000 228.082
51.92000 233.292
51.93000 237.589
51.94000 238.339
51.95000 232.691
51.96000 226.912
51.97000 224.337
51.98000 225.588
51.99000 226.843
52.00000 224.822
52.01000 220.314
52.02000 216.037
52.03000 220.576
52.04000 229.624
52.05000 238.034
52.06000 236.327
52.07000 231.122
52.08000 226.363
52.09000 222.636
52.10000 219.535
52.11000 217.354
52.12000 220.090
52.13000 223.552
52.14000 225.547
52.15000 222.389
52.16000 218.783
52.17000 216.218
52.18000 215.509
52.19000 215.029
52.20000 217.118
52.21000 223.304
52.22000 229.543
52.23000 229.275
52.24000 222.223
52.25000 215.208
52.26000 211.473
52.27000 209.972
52.28000 208.493
52.29000 207.604
52.30000 206.984
52.31000 206.498
52.32000 207.733
52.33000 209.496
52.34000 211.081
52.35000 211.076
52.36000 210.789
52.37000 210.739
52.38000 211.801
52.39000 213.004
52.40000 213.845
52.41000 213.563
52.42000 213.200
52.43000 212.952
52.44000 215.749
52.45000 217.916
52.46000 217.341
52.47000 212.909
52.48000 208.452
52.49000 206.967
52.50000 208.176
52.51000 209.374
52.52000 211.346
52.53000 213.730
52.54000 216.120
52.55000 218.645
52.56000 221.225
52.57000 223.692
52.58000 224.960
52.59000 225.904
52.60000 226.736
52.61000 221.100
52.62000 215.250
52.63000 210.534
52.64000 210.481
52.65000 210.933
52.66000 211.069
52.67000 210.339
52.68000 209.559
52.69000 209.047
52.70000 208.345
52.71000 207.825
52.72000 210.402
52.73000 216.804
52.74000 223.195
52.75000 222.559
52.76000 216.346
52.77000 210.229
52.78000 207.303
52.79000 206.101
52.80000 205.079
52.81000 207.096
52.82000 210.198
52.83000 213.064
52.84000 213.802
52.85000 214.033
52.86000 214.233
52.87000 215.713
52.88000 217.138
52.89000 218.624
52.90000 220.331
52.91000 222.058
52.92000 222.726
52.93000 220.808
52.94000 218.773
52.95000 217.500
52.96000 225.926
52.97000 232.112
52.98000 234.327
52.99000 232.250
53.00000 230.147
53.01000 224.878
53.02000 217.400
53.03000 210.087
53.04000 207.693
53.05000 207.604
53.06000 207.844
53.07000 212.558
53.08000 218.686
53.09000 223.663
53.10000 219.774
53.11000 214.025
53.12000 209.164
53.13000 217.549
53.14000 226.031
53.15000 232.934
53.16000 234.770
53.17000 236.225
53.18000 235.305
53.19000 229.240
53.20000 222.998
53.21000 219.287
53.22000 223.140
53.23000 225.912
53.24000 226.736
53.25000 225.728
53.26000 224.732
53.27000 224.545
53.28000 224.857
53.29000 225.159
53.30000 227.789
53.31000 231.197
53.32000 234.088
53.33000 231.175
53.34000 226.640
53.35000 222.282
53.36000 219.103
53.37000 216.140
53.38000 213.694
53.39000 216.569
53.40000 219.432
53.41000 222.324
53.42000 225.300
53.43000 228.282
53.44000 230.585
53.45000 231.586
53.46000 232.554
53.47000 233.099
53.48000 232.170
53.49000 231.521
53.50000 230.495
53.51000 229.160
53.52000 227.824
53.53000 226.443
53.54000 225.037
53.55000 223.687
53.56000 218.265
53.57000 211.787
53.58000 206.015
53.59000 206.892
53.60000 209.410
53.61000 211.296
53.62000 209.552
53.63000 207.229
53.64000 205.361
53.65000 205.837
53.66000 206.403
53.67000 207.925
53.68000 211.856
53.69000 215.904
53.70000 217.055
53.71000 213.277
53.72000 209.418
53.73000 207.378
53.74000 212.061
53.75000 215.220
53.76000 214.618
53.77000 211.300
53.78000 208.203
53.79000 212.310
53.80000 219.896
53.81000 227.102
53.82000 229.612
53.83000 230.515
53.84000 230.531
53.85000 223.444
53.86000 214.814
53.87000 207.610
53.88000 207.551
53.89000 208.474
53.90000 209.196
53.91000 209.000
53.92000 208.786
53.93000 208.522
53.94000 208.147
53.95000 207.768
53.96000 208.854
53.97000 212.142
53.98000 215.451
53.99000 216.666
54.00000 215.840
54.01000 215.020
54.02000 214.681
54.03000 214.648
54.04000 214.562
54.05000 213.196
54.06000 211.281
54.07000 209.485
54.08000 209.880
54.09000 210.816
54.10000 211.345
54.11000 209.077
54.12000 206.277
54.13000 205.457
54.14000 213.340
54.15000 222.249
54.16000 228.996
54.17000 222.696
54.18000 217.088
54.19000 211.045
54.20000 204.139
54.21000 197.209
54.22000 196.677
54.23000 204.607
54.24000 212.571
54.25000 215.129
54.26000 213.094
54.27000 211.012
54.28000 206.481
54.29000 200.572
54.30000 195.060
54.31000 197.054
54.32000 201.901
54.33000 206.384
54.34000 212.395
54.35000 218.146
54.36000 222.444
54.37000 218.083
54.38000 212.289
54.39000 207.673
54.40000 207.612
54.41000 208.005
54.42000 208.293
54.43000 208.576
54.44000 208.794
54.45000 209.924
54.46000 212.656
54.47000 215.418
54.48000 214.245
54.49000 208.508
54.50000 202.782
54.51000 202.893
54.52000 207.325
54.53000 211.589
54.54000 209.891
54.55000 205.222
54.56000 201.236
54.57000 207.564
54.58000 217.367
54.59000 226.296
54.60000 225.395
54.61000 222.641
54.62000 220.244
54.63000 219.689
54.64000 219.399
54.65000 217.587
54.66000 210.572
54.67000 203.125
54.68000 197.869
54.69000 206.534
54.70000 213.531
54.71000 214.508
54.72000 206.142
54.73000 197.668
54.74000 198.392
54.75000 208.416
54.76000 218.378
54.77000 222.245
54.78000 222.109
54.79000 221.908
54.80000 220.001
54.81000 217.339
54.82000 214.567
54.83000 210.425
54.84000 205.874
54.85000 201.799
54.86000 206.152
54.87000 211.398
54.88000 215.981
54.89000 217.542
54.90000 218.733
54.91000 219.704
54.92000 220.010
54.93000 220.271
54.94000 220.448
54.95000 228.326
54.96000 234.371
54.97000 237.421
54.98000 236.373
54.99000 235.298
55.00000 231.254
55.01000 224.597
55.02000 218.012
55.03000 223.433
55.04000 235.541
55.05000 247.093
55.06000 247.484
55.07000 243.498
55.08000 239.473
55.09000 235.049
55.10000 230.520
55.11000 226.540
55.12000 230.796
55.13000 235.671
55.14000 240.337
55.15000 244.171
55.16000 247.917
55.17000 250.915
55.18000 251.903
55.19000 252.781
55.20000 253.350
55.21000 250.651
55.22000 248.625
55.23000 245.834
55.24000 242.125
55.25000 238.450
55.26000 243.612
55.27000 255.592
55.28000 267.372
55.29000 268.712
55.30000 264.816
55.31000 261.201
55.32000 262.084
55.33000 264.530
55.34000 266.908
55.35000 268.682
55.36000 270.316
55.37000 271.722
55.38000 281.405
55.39000 290.648
55.40000 300.357
55.41000 311.709
55.42000 323.205
55.43000 334.519
55.44000 345.402
55.45000 356.267
55.46000 362.992
55.47000 377.438
55.48000 387.895
55.49000 395.711
55.50000 400.757
55.51000 405.922
55.52000 424.478
55.53000 452.126
55.54000 479.117
55.55000 496.252
55.56000 508.344
55.57000 521.496
55.58000 548.450
55.59000 579.653
55.60000 611.716
55.61000 650.173
55.62000 689.933
55.63000 723.388
55.64000 769.975
55.65000 810.226
55.66000 847.403
55.67000 874.978
55.68000 901.861
55.69000 941.338
55.70000 1007.398
55.71000 1074.313
55.72000 1113.628
55.73000 1197.523
55.74000 1256.890
55.75000 1302.776
55.76000 1336.361
55.77000 1370.117
55.78000 1414.959
55.79000 1466.448
55.80000 1516.284
55.81000 1549.599
55.82000 1574.770
55.83000 1600.792
55.84000 1635.997
55.85000 1673.703
55.86000 1710.734
55.87000 1743.436
55.88000 1775.368
55.89000 1801.582
55.90000 1804.898
55.91000 1805.573
55.92000 1806.681
55.93000 1808.988
55.94000 1811.365
55.95000 1799.681
55.96000 1761.693
55.97000 1723.101
55.98000 1701.688
55.99000 1670.463
56.00000 1648.826
56.01000 1611.403
56.02000 1561.378
56.03000 1511.688
56.04000 1476.269
56.05000 1448.423
56.06000 1421.738
56.07000 1389.453
56.08000 1357.449
56.09000 1322.763
56.10000 1263.689
56.11000 1198.761
56.12000 1137.760
56.13000 1098.644
56.14000 1062.909
56.15000 1034.349
56.16000 974.447
56.17000 923.724
56.18000 878.327
56.19000 846.002
56.20000 814.277
56.21000 778.461
56.22000 735.875
56.23000 693.187
56.24000 670.948
56.25000 625.378
56.26000 594.603
56.27000 568.209
56.28000 544.891
56.29000 521.428
56.30000 493.561
56.31000 463.623
56.32000 435.255
56.33000 422.226
56.34000 414.718
56.35000 406.817
56.36000 395.873
56.37000 384.287
56.38000 372.645
56.39000 360.733
56.40000 348.784
56.41000 339.509
56.42000 322.108
56.43000 307.782
56.44000 294.368
56.45000 282.937
56.46000 271.576
56.47000 264.685
56.48000 264.329
56.49000 264.029
56.50000 262.502
56.51000 259.816
56.52000 257.120
56.53000 253.728
56.54000 249.905
56.55000 246.296
56.56000 247.596
56.57000 250.944
56.58000 254.077
56.59000 252.636
56.60000 250.159
56.61000 246.879
56.62000 238.252
56.63000 228.639
56.64000 220.920
56.65000 221.302
56.66000 222.604
56.67000 223.583
56.68000 227.218
56.69000 230.189
56.70000 232.537
56.71000 233.682
56.72000 234.796
56.73000 229.642
56.74000 216.427
56.75000 203.196
56.76000 197.483
56.77000 197.977
56.78000 198.489
56.79000 199.815
56.80000 201.587
56.81000 203.481
56.82000 207.565
56.83000 212.459
56.84000 216.972
56.85000 211.491
56.86000 204.359
56.87000 199.091
56.88000 204.585
56.89000 211.806
56.90000 216.606
56.91000 212.288
56.92000 207.095
56.93000 203.322
56.94000 202.623
56.95000 202.201
56.96000 202.394
56.97000 203.639
56.98000 204.901
56.99000 203.246
57.00000 198.306
57.01000 193.380
57.02000 194.732
57.03000 200.587
57.04000 206.283
57.05000 206.760
57.06000 204.703
57.07000 202.623
57.08000 200.196
57.09000 197.656
57.10000 195.350
57.11000 193.297
57.12000 191.532
57.13000 189.637
57.14000 187.084
57.15000 184.440
57.16000 184.317
57.17000 192.588
57.18000 201.529
57.19000 207.786
57.20000 193.442
57.21000 182.013
57.22000 176.120
57.23000 178.589
57.24000 181.143
57.25000 184.371
57.26000 188.259
57.27000 192.119
57.28000 190.632
57.29000 185.806
57.30000 181.249
57.31000 183.307
57.32000 188.212
57.33000 192.554
57.34000 190.204
57.35000 185.911
57.36000 182.082
57.37000 180.381
57.38000 179.256
57.39000 178.013
57.40000 176.255
57.41000 174.435
57.42000 174.555
57.43000 180.390
57.44000 186.599
57.45000 190.770
57.46000 188.464
57.47000 186.619
57.48000 184.501
57.49000 182.022
57.50000 179.542
57.51000 177.770
57.52000 176.604
57.53000 175.452
57.54000 175.850
57.55000 177.093
57.56000 178.354
57.57000 179.957
57.58000 181.690
57.59000 183.149
57.60000 181.874
57.61000 179.899
57.62000 178.170
57.63000 183.107
57.64000 188.288
57.65000 191.872
57.66000 189.240
57.67000 185.983
57.68000 182.710
57.69000 179.394
57.70000 176.076
57.71000 173.943
57.72000 174.334
57.73000 174.655
57.74000 174.495
57.75000 173.776
57.76000 173.064
57.77000 174.081
57.78000 176.395
57.79000 178.666
57.80000 176.075
57.81000 171.225
57.82000 166.850
57.83000 169.734
57.84000 175.076
57.85000 179.957
57.86000 180.966
57.87000 181.101
57.88000 181.217
57.89000 174.720
57.90000 168.432
57.91000 165.049
57.92000 171.647
57.93000 179.083
57.94000 184.575
57.95000 185.561
57.96000 186.365
57.97000 186.857
57.98000 175.916
57.99000 167.988
58.00000 164.852
58.01000 166.593
58.02000 168.318
58.03000 168.532
58.04000 167.747
58.05000 166.981
58.06000 164.997
58.07000 162.586
58.08000 160.030
58.09000 155.652
58.10000 150.728
58.11000 147.039
58.12000 152.234
58.13000 159.187
58.14000 165.008
58.15000 164.452
58.16000 163.334
58.17000 162.741
58.18000 163.743
58.19000 164.854
58.20000 166.550
58.21000 169.449
58.22000 172.384
58.23000 174.088
58.24000 172.385
58.25000 171.177
58.26000 172.708
58.27000 176.664
58.28000 180.529
58.29000 179.096
58.30000 174.570
58.31000 170.198
58.32000 167.704
58.33000 166.052
58.34000 164.209
58.35000 160.383
58.36000 156.033
58.37000 152.999
58.38000 158.153
58.39000 164.720
58.40000 170.081
58.41000 173.609
58.42000 176.337
58.43000 177.357
58.44000 173.768
58.45000 169.925
58.46000 167.967
58.47000 169.446
58.48000 170.997
58.49000 171.846
58.50000 168.756
58.51000 166.630
58.52000 165.906
58.53000 166.270
58.54000 166.696
58.55000 169.615
58.56000 173.821
58.57000 177.842
58.58000 174.896
58.59000 169.889
58.60000 165.539
58.61000 166.954
58.62000 169.716
58.63000 171.232
58.64000 166.011
58.65000 159.782
58.66000 154.834
58.67000 151.442
58.68000 148.822
58.69000 149.557
58.70000 158.317
58.71000 167.424
58.72000 173.210
58.73000 173.643
58.74000 174.003
58.75000 174.188
58.76000 164.855
58.77000 158.641
58.78000 159.764
58.79000 165.894
58.80000 171.777
58.81000 170.587
58.82000 166.156
58.83000 161.969
58.84000 162.662
58.85000 164.686
58.86000 166.369
58.87000 165.506
58.88000 164.121
58.89000 162.790
58.90000 161.719
58.91000 160.681
58.92000 159.880
58.93000 160.821
58.94000 161.666
58.95000 161.025
58.96000 157.233
58.97000 153.337
58.98000 152.222
58.99000 155.058
59.00000 157.924
59.01000 160.446
59.02000 162.652
59.03000 164.838
59.04000 165.698
59.05000 165.758
59.06000 165.856
59.07000 166.760
59.08000 167.991
59.09000 169.140
59.10000 169.267
59.11000 169.129
59.12000 168.594
59.13000 165.499
59.14000 161.946
59.15000 158.876
59.16000 157.812
59.17000 156.968
59.18000 156.338
59.19000 155.512
59.20000 154.859
59.21000 155.364
59.22000 158.046
59.23000 160.779
59.24000 161.915
59.25000 161.054
59.26000 160.188
59.27000 159.182
59.28000 158.070
59.29000 156.954
59.30000 155.695
59.31000 154.359
59.32000 153.260
59.33000 156.218
59.34000 160.640
59.35000 164.703
59.36000 163.049
59.37000 160.339
59.38000 158.013
59.39000 157.837
59.40000 157.996
59.41000 158.460
59.42000 160.046
59.43000 161.736
59.44000 162.953
59.45000 166.778
59.46000 169.801
59.47000 170.040
59.48000 165.647
59.49000 161.182
59.50000 158.006
59.51000 156.238
59.52000 154.479
59.53000 154.365
59.54000 155.402
59.55000 156.521
59.56000 160.156
59.57000 164.982
59.58000 169.410
59.59000 168.335
59.60000 165.503
59.61000 162.941
59.62000 164.977
59.63000 167.626
59.64000 168.722
59.65000 162.212
59.66000 154.683
59.67000 150.296
59.68000 156.092
59.69000 162.668
59.70000 167.230
59.71000 159.344
59.72000 153.075
59.73000 151.430
59.74000 156.581
59.75000 161.792
59.76000 163.219
59.77000 161.045
59.78000 158.888
59.79000 158.233
59.80000 158.507
59.81000 158.760
59.82000 158.521
59.83000 158.077
59.84000 157.326
59.85000 153.079
59.86000 147.843
59.87000 143.193
59.88000 145.669
59.89000 148.963
59.90000 151.410
59.91000 150.217
59.92000 148.608
59.93000 148.118
59.94000 150.841
59.95000 153.764
59.96000 155.709
59.97000 155.312
59.98000 154.974
59.99000 152.667
60.00000 147.814
60.01000 142.964
60.02000 144.803
60.03000 152.197
60.04000 159.494
60.05000 161.249
60.06000 159.987
60.07000 158.734
60.08000 157.618
60.09000 156.553
60.10000 155.723
60.11000 157.144
60.12000 159.127
60.13000 160.854
60.14000 161.924
60.15000 162.748
60.16000 164.159
60.17000 167.799
60.18000 171.654
60.19000 173.023
60.20000 168.064
60.21000 162.792
60.22000 159.439
60.23000 158.785
60.24000 158.344
60.25000 157.241
60.26000 155.389
60.27000 153.544
60.28000 152.945
60.29000 153.255
60.30000 153.558
60.31000 152.542
60.32000 150.945
60.33000 149.642
60.34000 152.639
60.35000 157.054
60.36000 160.749
60.37000 158.584
60.38000 155.133
60.39000 152.192
60.40000 158.914
60.41000 165.703
60.42000 170.077
60.43000 166.370
60.44000 162.013
60.45000 157.818
60.46000 153.988
60.47000 150.172
60.48000 147.861
60.49000 151.844
60.50000 154.730
60.51000 154.663
60.52000 151.685
60.53000 148.766
60.54000 151.018
60.55000 156.594
60.56000 162.018
60.57000 161.369
60.58000 158.250
60.59000 155.440
60.60000 156.324
60.61000 158.287
60.62000 159.483
60.63000 155.338
60.64000 150.167
60.65000 145.862
60.66000 150.057
60.67000 154.373
60.68000 157.206
60.69000 155.646
60.70000 153.796
60.71000 152.319
60.72000 151.591
60.73000 150.884
60.74000 150.478
60.75000 149.456
60.76000 148.745
60.77000 151.517
60.78000 157.285
60.79000 162.961
60.80000 163.701
60.81000 161.636
60.82000 159.646
60.83000 157.459
60.84000 155.331
60.85000 153.500
60.86000 154.634
60.87000 156.533
60.88000 157.968
60.89000 156.613
60.90000 154.790
60.91000 153.310
60.92000 150.614
60.93000 148.315
60.94000 146.696
60.95000 146.865
60.96000 147.127
60.97000 147.582
60.98000 148.377
60.99000 149.178
61.00000 149.611
61.01000 149.920
61.02000 150.124
61.03000 148.738
61.04000 146.153
61.05000 143.683
61.06000 145.424
61.07000 149.284
61.08000 152.966
61.09000 152.505
61.10000 150.769
61.11000 149.791
61.12000 155.243
61.13000 162.154
61.14000 166.679
61.15000 158.673
61.16000 148.852
61.17000 141.099
61.18000 147.000
61.19000 152.661
61.20000 155.694
61.21000 152.601
61.22000 149.258
61.23000 147.329
61.24000 147.617
61.25000 147.932
61.26000 148.091
61.27000 148.166
61.28000 148.223
61.29000 148.936
61.30000 150.085
61.31000 151.182
61.32000 150.889
61.33000 149.977
61.34000 149.117
61.35000 148.427
61.36000 147.843
61.37000 147.529
61.38000 149.178
61.39000 151.218
61.40000 152.771
61.41000 152.082
61.42000 151.113
61.43000 150.371
61.44000 149.968
61.45000 149.668
61.46000 149.262
61.47000 148.638
61.48000 148.007
61.49000 147.391
61.50000 146.796
61.51000 146.201
61.52000 145.851
61.53000 145.718
61.54000 145.626
61.55000 147.987
61.56000 151.788
61.57000 155.293
61.58000 152.738
61.59000 147.783
61.60000 143.175
61.61000 142.008
61.62000 141.783
61.63000 142.221
61.64000 146.812
61.65000 152.124
61.66000 155.705
61.67000 152.285
61.68000 148.124
61.69000 145.040
61.70000 148.366
61.71000 151.226
61.72000 154.967
61.73000 160.320
61.74000 165.706
61.75000 163.513
61.76000 152.112
61.77000 140.713
61.78000 138.370
61.79000 143.066
61.80000 147.642
61.81000 147.356
61.82000 144.545
61.83000 141.815
61.84000 140.412
61.85000 139.474
61.86000 138.616
61.87000 144.089
61.88000 150.284
61.89000 155.426
61.90000 154.836
61.91000 153.382
61.92000 151.812
61.93000 149.824
61.94000 147.800
61.95000 146.352
61.96000 148.623
61.97000 150.480
61.98000 150.269
61.99000 146.706
62.00000 143.096
62.01000 142.468
62.02000 145.002
62.03000 147.525
62.04000 148.577
62.05000 148.619
62.06000 148.689
62.07000 149.572
62.08000 150.829
62.09000 152.122
62.10000 153.899
62.11000 155.825
62.12000 157.561
62.13000 156.260
62.14000 154.569
62.15000 152.874
62.16000 151.159
62.17000 149.441
62.18000 149.119
62.19000 153.203
62.20000 157.611
62.21000 160.642
62.22000 153.141
62.23000 147.252
62.24000 145.182
62.25000 148.571
62.26000 152.001
62.27000 153.044
62.28000 151.884
62.29000 150.734
62.30000 148.674
62.31000 146.115
62.32000 143.615
62.33000 142.419
62.34000 141.755
62.35000 141.175
62.36000 141.510
62.37000 142.096
62.38000 142.614
62.39000 144.182
62.40000 145.700
62.41000 146.794
62.42000 146.112
62.43000 145.234
62.44000 144.292
62.45000 143.171
62.46000 142.038
62.47000 141.292
62.48000 141.034
62.49000 140.853
62.50000 142.623
62.51000 146.847
62.52000 151.071
62.53000 152.863
62.54000 152.691
62.55000 152.521
62.56000 148.606
62.57000 142.855
62.58000 137.431
62.59000 137.662
62.60000 139.941
62.61000 142.045
62.62000 142.536
62.63000 142.636
62.64000 142.722
62.65000 144.185
62.66000 145.613
62.67000 146.898
62.68000 147.657
62.69000 148.367
62.70000 148.084
62.71000 145.340
62.72000 142.481
62.73000 140.681
62.74000 146.571
62.75000 150.921
62.76000 150.042
62.77000 143.414
62.78000 136.839
62.79000 138.153
62.80000 145.064
62.81000 151.828
62.82000 150.402
62.83000 145.293
62.84000 140.659
62.85000 142.636
62.86000 146.736
62.87000 150.104
62.88000 147.728
62.89000 144.127
62.90000 141.073
62.91000 142.334
62.92000 143.880
62.93000 144.476
62.94000 141.978
62.95000 139.240
62.96000 137.851
62.97000 139.428
62.98000 141.112
62.99000 142.119
63.00000 139.679
63.01000 137.924
63.02000 138.349
63.03000 140.858
63.04000 143.360
63.05000 145.246
63.06000 146.747
63.07000 148.204
63.08000 146.554
63.09000 143.744
63.10000 140.974
63.11000 138.651
63.12000 136.456
63.13000 134.408
63.14000 133.350
63.15000 132.477
63.16000 131.754
63.17000 134.832
63.18000 137.734
63.19000 140.271
63.20000 141.757
63.21000 143.177
63.22000 143.443
63.23000 141.462
63.24000 139.422
63.25000 138.266
63.26000 143.711
63.27000 147.511
63.28000 147.942
63.29000 145.558
63.30000 143.213
63.31000 142.765
63.32000 143.367
63.33000 143.946
63.34000 142.182
63.35000 139.707
63.36000 137.488
63.37000 137.725
63.38000 138.579
63.39000 139.317
63.40000 139.371
63.41000 139.315
63.42000 139.269
63.43000 135.637
63.44000 132.402
63.45000 131.071
63.46000 134.612
63.47000 138.395
63.48000 140.447
63.49000 139.508
63.50000 138.515
63.51000 137.987
63.52000 141.845
63.53000 144.462
63.54000 144.586
63.55000 142.882
63.56000 141.246
63.57000 141.930
63.58000 143.752
63.59000 145.486
63.60000 140.620
63.61000 134.092
63.62000 128.573
63.63000 131.297
63.64000 135.840
63.65000 139.493
63.66000 138.604
63.67000 137.078
63.68000 135.880
63.69000 134.710
63.70000 133.775
63.71000 134.142
63.72000 137.462
63.73000 140.896
63.74000 143.414
63.75000 144.535
63.76000 145.640
63.77000 144.156
63.78000 140.101
63.79000 136.084
63.80000 135.388
63.81000 136.838
63.82000 138.320
63.83000 140.583
63.84000 143.188
63.85000 145.635
63.86000 147.427
63.87000 148.887
63.88000 149.652
63.89000 145.540
63.90000 140.487
63.91000 136.185
63.92000 135.243
63.93000 134.705
63.94000 134.296
63.95000 132.857
63.96000 131.671
63.97000 131.341
63.98000 132.733
63.99000 134.174
64.00000 135.760
64.01000 137.540
64.02000 139.319
64.03000 140.103
64.04000 140.024
64.05000 139.947
64.06000 139.983
64.07000 140.083
64.08000 140.130
64.09000 139.139
64.10000 137.747
64.11000 136.457
64.12000 137.024
64.13000 137.967
64.14000 138.355
64.15000 135.368
64.16000 131.812
64.17000 128.713
64.18000 127.413
64.19000 126.295
64.20000 125.473
64.21000 127.108
64.22000 128.474
64.23000 130.111
64.24000 132.233
64.25000 134.364
64.26000 134.530
64.27000 132.378
64.28000 130.227
64.29000 129.792
64.30000 130.653
64.31000 131.541
64.32000 133.417
64.33000 135.793
64.34000 138.248
64.35000 141.932
64.36000 146.037
64.37000 149.784
64.38000 147.831
64.39000 144.943
64.40000 141.881
64.41000 137.899
64.42000 133.783
64.43000 131.503
64.44000 135.600
64.45000 140.241
64.46000 143.532
64.47000 143.234
64.48000 142.894
64.49000 143.041
64.50000 143.954
64.51000 144.877
64.52000 146.687
64.53000 149.412
64.54000 152.121
64.55000 150.835
64.56000 146.934
64.57000 143.207
64.58000 144.179
64.59000 147.261
64.60000 150.109
64.61000 150.008
64.62000 149.012
64.63000 148.119
64.64000 149.464
64.65000 151.032
64.66000 152.330
64.67000 152.386
64.68000 152.285
64.69000 153.015
64.70000 156.298
64.71000 159.760
64.72000 162.120
64.73000 157.125
64.74000 153.223
64.75000 151.610
64.76000 153.181
64.77000 154.770
64.78000 152.904
64.79000 147.943
64.80000 143.031
64.81000 140.272
64.82000 138.814
64.83000 137.381
64.84000 136.483
64.85000 135.797
64.86000 135.067
64.87000 133.877
64.88000 132.563
64.89000 131.406
64.90000 130.671
64.91000 130.101
64.92000 130.718
64.93000 136.162
64.94000 142.121
64.95000 145.449
64.96000 141.614
64.97000 137.374
64.98000 134.606
64.99000 140.383
65.00000 144.761
65.01000 145.636
65.02000 142.233
65.03000 138.825
65.04000 137.077
65.05000 136.630
65.06000 136.191
65.07000 139.681
65.08000 145.050
65.09000 149.990
65.10000 147.890
65.11000 143.305
65.12000 139.452
65.13000 142.116
65.14000 146.317
65.15000 149.943
65.16000 150.117
65.17000 149.821
65.18000 148.608
65.19000 144.103
65.20000 139.303
65.21000 137.644
65.22000 143.571
65.23000 149.835
65.24000 153.737
65.25000 140.553
65.26000 130.879
65.27000 127.487
65.28000 130.801
65.29000 134.112
65.30000 136.863
65.31000 139.228
65.32000 141.539
65.33000 141.181
65.34000 139.653
65.35000 138.496
65.36000 142.290
65.37000 147.633
65.38000 152.000
65.39000 148.958
65.40000 144.380
65.41000 140.517
65.42000 141.217
65.43000 142.298
65.44000 142.714
65.45000 141.017
65.46000 139.163
65.47000 137.913
65.48000 137.957
65.49000 138.044
65.50000 138.096
65.51000 144.942
65.52000 149.818
65.53000 152.154
65.54000 152.131
65.55000 152.104
65.56000 151.729
65.57000 151.144
65.58000 150.576
65.59000 150.067
65.60000 149.608
65.61000 149.631
65.62000 154.987
65.63000 161.818
65.64000 166.713
65.65000 158.949
65.66000 148.891
65.67000 140.608
65.68000 144.204
65.69000 148.249
65.70000 150.683
65.71000 148.590
65.72000 146.225
65.73000 145.883
65.74000 149.385
65.75000 152.979
65.76000 154.989
65.77000 150.553
65.78000 147.463
65.79000 143.724
65.80000 139.458
65.81000 135.302
65.82000 136.053
65.83000 139.450
65.84000 142.710
65.85000 143.045
65.86000 142.361
65.87000 141.416
65.88000 138.044
65.89000 134.079
65.90000 130.954
65.91000 132.592
65.92000 134.980
65.93000 136.895
65.94000 138.445
65.95000 139.673
65.96000 139.841
65.97000 137.367
65.98000 134.769
65.99000 134.141
66.00000 136.827
66.01000 139.566
66.02000 141.005
66.03000 138.501
66.04000 136.814
66.05000 137.006
66.06000 138.537
66.07000 140.016
66.08000 139.857
66.09000 138.914
66.10000 138.019
66.11000 140.649
66.12000 144.125
66.13000 146.902
66.14000 144.154
66.15000 140.221
66.16000 136.824
66.17000 136.084
66.18000 135.705
66.19000 135.410
66.20000 133.685
66.21000 132.222
66.22000 131.653
66.23000 133.059
66.24000 134.536
66.25000 134.327
66.26000 131.613
66.27000 128.876
66.28000 129.689
66.29000 133.921
66.30000 138.120
66.31000 139.706
66.32000 139.650
66.33000 139.576
66.34000 139.107
66.35000 138.470
66.36000 137.873
66.37000 138.311
66.38000 138.979
66.39000 139.670
66.40000 140.516
66.41000 141.391
66.42000 143.330
66.43000 149.894
66.44000 156.996
66.45000 162.358
66.46000 155.037
66.47000 148.668
66.48000 144.667
66.49000 145.309
66.50000 146.074
66.51000 145.204
66.52000 142.196
66.53000 139.181
66.54000 138.103
66.55000 138.650
66.56000 139.141
66.57000 136.874
66.58000 133.072
66.59000 129.504
66.60000 130.258
66.61000 132.637
66.62000 134.835
66.63000 135.064
66.64000 134.824
66.65000 134.813
66.66000 136.145
66.67000 137.696
66.68000 139.054
66.69000 139.678
66.70000 140.229
66.71000 140.632
66.72000 137.106
66.73000 134.235
66.74000 132.620
66.75000 133.186
66.76000 133.791
66.77000 132.736
66.78000 129.779
66.79000 126.830
66.80000 128.041
66.81000 132.287
66.82000 136.457
66.83000 137.977
66.84000 138.190
66.85000 138.341
66.86000 137.559
66.87000 136.466
66.88000 135.472
66.89000 136.037
66.90000 136.843
66.91000 137.757
66.92000 139.232
66.93000 140.785
66.94000 142.033
66.95000 142.244
66.96000 142.372
66.97000 142.461
66.98000 140.215
66.99000 138.445
67.00000 136.699
67.01000 134.992
67.02000 133.285
67.03000 130.773
67.04000 127.456
67.05000 124.162
67.06000 125.149
67.07000 128.859
67.08000 132.413
67.09000 131.967
67.10000 129.771
67.11000 128.120
67.12000 133.095
67.13000 140.025
67.14000 146.220
67.15000 145.385
67.16000 143.466
67.17000 141.460
67.18000 139.064
67.19000 136.622
67.20000 133.836
67.21000 130.024
67.22000 126.143
67.23000 123.522
67.24000 127.358
67.25000 130.353
67.26000 132.816
67.27000 134.561
67.28000 136.298
67.29000 135.400
67.30000 132.208
67.31000 129.052
67.32000 131.227
67.33000 136.339
67.34000 141.027
67.35000 137.371
67.36000 130.478
67.37000 124.396
67.38000 126.541
67.39000 130.831
67.40000 134.593
67.41000 133.599
67.42000 132.054
67.43000 132.177
67.44000 138.899
67.45000 146.298
67.46000 149.817
67.47000 143.038
67.48000 135.706
67.49000 130.966
67.50000 134.204
67.51000 136.688
67.52000 136.549
67.53000 133.297
67.54000 130.051
67.55000 129.260
67.56000 130.343
67.57000 131.407
67.58000 134.577
67.59000 138.676
67.60000 142.473
67.61000 141.530
67.62000 138.957
67.63000 136.752
67.64000 137.696
67.65000 139.364
67.66000 140.796
67.67000 140.655
67.68000 140.340
67.69000 140.717
67.70000 143.510
67.71000 146.510
67.72000 147.747
67.73000 144.835
67.74000 141.750
67.75000 139.848
67.76000 135.845
67.77000 132.953
67.78000 135.337
67.79000 143.184
67.80000 150.970
67.81000 152.201
67.82000 149.031
67.83000 145.939
67.84000 144.913
67.85000 144.823
67.86000 144.729
67.87000 144.585
67.88000 144.426
67.89000 144.160
67.90000 143.109
67.91000 141.900
67.92000 140.886
67.93000 139.074
67.94000 137.482
67.95000 136.425
67.96000 137.018
67.97000 137.728
67.98000 139.469
67.99000 143.363
68.00000 147.325
68.01000 149.641
68.02000 149.443
68.03000 149.290
68.04000 146.946
68.05000 142.626
68.06000 138.367
68.07000 137.822
68.08000 139.480
68.09000 141.083
68.10000 140.771
68.11000 139.753
68.12000 138.783
68.13000 138.329
68.14000 138.015
68.15000 137.912
68.16000 139.152
68.17000 140.627
68.18000 141.836
68.19000 141.350
68.20000 140.802
68.21000 141.223
68.22000 144.296
68.23000 147.521
68.24000 146.772
68.25000 138.673
68.26000 130.411
68.27000 125.851
68.28000 135.709
68.29000 142.512
68.30000 144.027
68.31000 141.368
68.32000 138.773
68.33000 138.816
68.34000 140.244
68.35000 141.612
68.36000 146.146
68.37000 151.420
68.38000 155.798
68.39000 152.152
68.40000 146.602
68.41000 141.504
68.42000 138.891
68.43000 136.658
68.44000 134.878
68.45000 141.659
68.46000 147.753
68.47000 150.987
68.48000 147.272
68.49000 143.246
68.50000 141.693
68.51000 144.189
68.52000 146.743
68.53000 148.065
68.54000 147.363
68.55000 146.885
68.56000 146.036
68.57000 144.929
68.58000 143.973
68.59000 147.506
68.60000 153.127
68.61000 158.448
68.62000 159.628
68.63000 159.517
68.64000 159.133
68.65000 156.665
68.66000 153.764
68.67000 151.973
68.68000 155.529
68.69000 159.787
68.70000 163.083
68.71000 156.568
68.72000 150.816
68.73000 149.108
68.74000 156.115
68.75000 163.418
68.76000 168.002
68.77000 168.657
68.78000 169.280
68.79000 169.702
68.80000 169.935
68.81000 170.165
68.82000 170.173
68.83000 170.046
68.84000 169.820
68.85000 167.379
68.86000 164.025
68.87000 160.891
68.88000 164.968
68.89000 170.485
68.90000 175.708
68.91000 178.996
68.92000 181.931
68.93000 186.928
68.94000 200.637
68.95000 215.322
68.96000 226.332
68.97000 232.892
68.98000 237.804
68.99000 245.167
69.00000 257.213
69.01000 269.374
69.02000 278.292
69.03000 283.090
69.04000 287.866
69.05000 287.565
69.06000 283.135
69.07000 278.772
69.08000 277.450
69.09000 277.776
69.10000 278.206
69.11000 280.480
69.12000 283.429
69.13000 286.145
69.14000 291.457
69.15000 296.780
69.16000 300.999
69.17000 298.925
69.18000 295.855
69.19000 292.028
69.20000 285.382
69.21000 278.471
69.22000 273.465
69.23000 267.702
69.24000 263.249
69.25000 258.357
69.26000 252.726
69.27000 247.083
69.28000 244.768
69.29000 246.155
69.30000 247.539
69.31000 249.719
69.32000 252.443
69.33000 255.173
69.34000 258.061
69.35000 261.024
69.36000 264.321
69.37000 272.357
69.38000 281.931
69.39000 290.607
69.40000 295.288
69.41000 298.656
69.42000 302.504
69.43000 308.752
69.44000 315.328
69.45000 321.336
69.46000 325.478
69.47000 329.474
69.48000 332.260
69.49000 330.389
69.50000 328.848
69.51000 332.130
69.52000 342.616
69.53000 353.172
69.54000 363.925
69.55000 374.871
69.56000 385.734
69.57000 393.152
69.58000 398.303
69.59000 403.568
69.60000 411.556
69.61000 420.704
69.62000 429.462
69.63000 433.662
69.64000 436.553
69.65000 439.127
69.66000 447.395
69.67000 455.511
69.68000 464.119
69.69000 474.871
69.70000 485.873
69.71000 495.063
69.72000 498.970
69.73000 502.539
69.74000 504.927
69.75000 526.035
69.76000 542.059
69.77000 551.769
69.78000 553.176
69.79000 554.544
69.80000 554.838
69.81000 554.224
69.82000 553.618
69.83000 558.648
69.84000 566.619
69.85000 574.043
69.86000 571.264
69.87000 564.629
69.88000 559.482
69.89000 568.883
69.90000 581.973
69.91000 593.405
69.92000 603.663
69.93000 612.278
69.94000 619.166
69.95000 619.416
69.96000 619.008
69.97000 619.490
69.98000 622.271
69.99000 625.170
70.00000 627.025
