20.00000 674.534
20.01000 677.901
20.02000 681.749
20.03000 684.224
20.04000 681.353
20.05000 677.943
20.06000 675.443
20.07000 684.303
20.08000 691.607
20.09000 697.389
20.10000 700.482
20.11000 703.524
20.12000 698.532
20.13000 684.160
20.14000 669.814
20.15000 667.100
20.16000 673.079
20.17000 678.786
20.18000 674.631
20.19000 665.532
20.20000 656.897
20.21000 655.362
20.22000 656.232
20.23000 657.026
20.24000 666.064
20.25000 675.725
20.26000 682.639
20.27000 675.193
20.28000 665.676
20.29000 659.260
20.30000 663.509
20.31000 668.656
20.32000 672.294
20.33000 669.825
20.34000 667.761
20.35000 667.126
20.36000 668.721
20.37000 670.342
20.38000 668.472
20.39000 663.047
20.40000 657.656
20.41000 667.414
20.42000 686.916
20.43000 706.000
20.44000 713.967
20.45000 716.992
20.46000 719.905
20.47000 721.426
20.48000 722.529
20.49000 723.518
20.50000 736.102
20.51000 749.101
20.52000 759.701
20.53000 759.320
20.54000 757.579
20.55000 757.308
20.56000 761.513
20.57000 766.028
20.58000 769.095
20.59000 765.459
20.60000 762.595
20.61000 754.319
20.62000 738.590
20.63000 722.820
20.64000 711.839
20.65000 705.104
20.66000 698.440
20.67000 691.645
20.68000 684.927
20.69000 678.369
20.70000 675.072
20.71000 673.062
20.72000 671.606
20.73000 675.931
20.74000 681.790
20.75000 686.942
20.76000 684.407
20.77000 681.082
20.78000 677.424
20.79000 672.424
20.80000 667.282
20.81000 665.733
20.82000 673.878
20.83000 682.562
20.84000 688.212
20.85000 675.421
20.86000 665.758
20.87000 660.889
20.88000 661.816
20.89000 662.771
20.90000 667.810
20.91000 676.023
20.92000 684.101
20.93000 689.657
20.94000 693.771
20.95000 696.996
20.96000 685.860
20.97000 669.701
20.98000 655.457
20.99000 658.037
21.00000 664.549
21.01000 670.160
21.02000 666.777
21.03000 662.768
21.04000 661.328
21.05000 669.015
21.06000 677.507
21.07000 683.229
21.08000 682.321
21.09000 681.125
21.10000 680.383
21.11000 669.834
21.12000 662.148
21.13000 658.168
21.14000 658.103
21.15000 658.108
21.16000 666.045
21.17000 679.403
21.18000 692.448
21.19000 687.490
21.20000 674.841
21.21000 662.995
21.22000 661.710
21.23000 663.698
21.24000 666.090
21.25000 671.505
21.26000 677.540
21.27000 682.625
21.28000 676.423
21.29000 670.033
21.30000 664.309
21.31000 660.677
21.32000 657.197
21.33000 657.151
21.34000 664.395
21.35000 671.878
21.36000 676.286
21.37000 677.971
21.38000 679.145
21.39000 677.727
21.40000 673.927
21.41000 670.087
21.42000 663.580
21.43000 655.463
21.44000 647.603
21.45000 656.066
21.46000 670.351
21.47000 683.489
21.48000 684.120
21.49000 681.326
21.50000 678.337
21.51000 674.091
21.52000 669.620
21.53000 665.944
21.54000 668.788
21.55000 671.713
21.56000 676.329
21.57000 685.653
21.58000 695.255
21.59000 702.269
21.60000 704.412
21.61000 706.441
21.62000 707.570
21.63000 722.393
21.64000 732.713
21.65000 756.986
21.66000 792.473
21.67000 828.202
21.68000 874.480
21.69000 926.389
21.70000 976.164
21.71000 1013.280
21.72000 1043.674
21.73000 1074.863
21.74000 1113.342
21.75000 1153.581
21.76000 1188.285
21.77000 1191.919
21.78000 1190.716
21.79000 1189.754
21.80000 1212.205
21.81000 1232.112
21.82000 1249.093
21.83000 1258.848
21.84000 1268.268
21.85000 1274.933
21.86000 1277.009
21.87000 1279.014
21.88000 1280.063
21.89000 1232.217
21.90000 1199.771
21.91000 1160.140
21.92000 1115.435
21.93000 1070.725
21.94000 1025.912
21.95000 981.048
21.96000 938.512
21.97000 917.364
21.98000 904.178
21.99000 892.319
22.00000 890.820
22.01000 891.520
22.02000 891.678
22.03000 889.171
22.04000 886.307
22.05000 884.081
22.06000 883.910
22.07000 883.900
22.08000 876.755
22.09000 853.978
22.10000 830.648
22.11000 814.983
22.12000 810.594
22.13000 806.305
22.14000 805.823
22.15000 808.965
22.16000 812.209
22.17000 823.147
22.18000 838.880
22.19000 854.322
22.20000 863.002
22.21000 868.843
22.22000 874.311
22.23000 874.997
22.24000 874.390
22.25000 874.685
22.26000 881.031
22.27000 888.502
22.28000 895.017
22.29000 897.421
22.30000 899.355
22.31000 900.811
22.32000 914.408
22.33000 925.644
22.34000 933.427
22.35000 934.500
22.36000 935.401
22.37000 944.307
22.38000 963.575
22.39000 982.864
22.40000 999.860
22.41000 1014.905
22.42000 1030.141
22.43000 1054.650
22.44000 1084.268
22.45000 1113.933
22.46000 1144.450
22.47000 1175.283
22.48000 1203.739
22.49000 1245.462
22.50000 1285.833
22.51000 1334.473
22.52000 1431.236
22.53000 1535.776
22.54000 1687.359
22.55000 2017.256
22.56000 2364.422
22.57000 2617.111
22.58000 4098.851
22.59000 5286.329
22.60000 7115.403
22.61000 10048.235
22.62000 13000.188
22.63000 16630.063
22.64000 21028.795
22.65000 25413.178
22.66000 29937.713
22.67000 34525.852
22.68000 39101.004
22.69000 43239.277
22.70000 47164.188
22.71000 50994.785
22.72000 53447.984
22.73000 55446.445
22.74000 57261.914
22.75000 58159.523
22.76000 58774.438
22.77000 59181.176
22.78000 58531.348
22.79000 57734.023
22.80000 56850.594
22.81000 55678.781
22.82000 54483.707
22.83000 53645.707
22.84000 50245.758
22.85000 47599.180
22.86000 44202.652
22.87000 39666.129
22.88000 35117.691
22.89000 30765.939
22.90000 26608.461
22.91000 22479.986
22.92000 18709.943
22.93000 15226.182
22.94000 11780.562
22.95000 9287.498
22.96000 7207.047
22.97000 5200.118
22.98000 4074.915
22.99000 3207.374
23.00000 2432.906
23.01000 2040.911
23.02000 1763.705
23.03000 1516.744
23.04000 1404.356
23.05000 1308.057
23.06000 1228.253
23.07000 1197.364
23.08000 1169.704
23.09000 1151.080
23.10000 1105.952
23.11000 1071.847
23.12000 1047.952
23.13000 1037.727
23.14000 1027.580
23.15000 1022.660
23.16000 1022.241
23.17000 1021.828
23.18000 1002.194
23.19000 972.376
23.20000 943.118
23.21000 924.697
23.22000 910.440
23.23000 895.979
23.24000 879.472
23.25000 862.437
23.26000 847.519
23.27000 849.063
23.28000 852.754
23.29000 853.757
23.30000 844.230
23.31000 833.637
23.32000 823.173
23.33000 813.050
23.34000 802.945
23.35000 796.436
23.36000 775.718
23.37000 760.391
23.38000 749.890
23.39000 745.059
23.40000 740.234
23.41000 734.633
23.42000 728.447
23.43000 722.370
23.44000 717.597
23.45000 713.622
23.46000 709.607
23.47000 704.980
23.48000 700.144
23.49000 695.677
23.50000 694.339
23.51000 693.712
23.52000 693.174
23.53000 690.921
23.54000 688.808
23.55000 686.876
23.56000 685.570
23.57000 684.318
23.58000 683.918
23.59000 685.508
23.60000 687.179
23.61000 688.205
23.62000 675.386
23.63000 666.079
23.64000 656.634
23.65000 647.044
23.66000 637.569
23.67000 639.537
23.68000 649.113
23.69000 658.449
23.70000 659.542
23.71000 657.069
23.72000 654.559
23.73000 651.597
23.74000 648.498
23.75000 644.759
23.76000 636.380
23.77000 627.076
23.78000 619.278
23.79000 626.979
23.80000 634.991
23.81000 640.553
23.82000 638.617
23.83000 636.159
23.84000 634.067
23.85000 632.729
23.86000 631.414
23.87000 630.649
23.88000 633.039
23.89000 634.730
23.90000 632.993
23.91000 628.197
23.92000 623.387
23.93000 617.756
23.94000 611.641
23.95000 605.732
23.96000 612.868
23.97000 624.476
23.98000 634.922
23.99000 633.180
24.00000 628.188
24.01000 622.939
24.02000 616.082
24.03000 608.945
24.04000 603.112
24.05000 609.522
24.06000 615.833
24.07000 618.842
24.08000 612.890
24.09000 606.436
24.10000 602.637
24.11000 603.708
24.12000 604.883
24.13000 605.528
24.14000 619.417
24.15000 628.956
24.16000 626.704
24.17000 615.245
24.18000 603.897
24.19000 597.013
24.20000 592.451
24.21000 588.087
24.22000 583.933
24.23000 580.133
24.24000 576.466
24.25000 573.965
24.26000 571.738
24.27000 571.024
24.28000 578.554
24.29000 587.328
24.30000 594.306
24.31000 588.477
24.32000 582.862
24.33000 578.801
24.34000 578.479
24.35000 578.320
24.36000 581.445
24.37000 589.892
24.38000 598.414
24.39000 602.804
24.40000 610.322
24.41000 615.340
24.42000 615.072
24.43000 611.172
24.44000 607.132
24.45000 599.038
24.46000 589.073
24.47000 579.651
24.48000 570.670
24.49000 562.544
24.50000 557.039
24.51000 571.323
24.52000 589.689
24.53000 604.057
24.54000 599.383
24.55000 592.237
24.56000 586.718
24.57000 584.471
24.58000 582.880
24.59000 582.576
24.60000 585.018
24.61000 587.552
24.62000 586.337
24.63000 579.756
24.64000 573.135
24.65000 570.632
24.66000 571.933
24.67000 573.308
24.68000 579.677
24.69000 589.075
24.70000 597.942
24.71000 595.115
24.72000 587.505
24.73000 580.402
24.74000 584.471
24.75000 590.949
24.76000 596.105
24.77000 592.665
24.78000 587.675
24.79000 584.344
24.80000 587.953
24.81000 592.330
24.82000 595.602
24.83000 596.657
24.84000 597.376
24.85000 596.363
24.86000 592.071
24.87000 587.702
24.88000 587.604
24.89000 592.879
24.90000 598.163
24.91000 596.581
24.92000 589.478
24.93000 582.449
24.94000 578.675
24.95000 576.647
24.96000 574.991
24.97000 579.743
24.98000 586.821
24.99000 593.332
25.00000 583.349
25.01000 570.848
25.02000 560.652
25.03000 563.470
25.04000 568.327
25.05000 573.171
25.06000 577.965
25.07000 582.754
25.08000 586.213
25.09000 570.717
25.10000 558.151
25.11000 552.750
25.12000 559.349
25.13000 566.136
25.14000 569.585
25.15000 569.359
25.16000 569.131
25.17000 572.450
25.18000 578.230
25.19000 583.613
25.20000 576.490
25.21000 563.418
25.22000 551.371
25.23000 553.641
25.24000 560.515
25.25000 566.736
25.26000 556.729
25.27000 544.864
25.28000 535.544
25.29000 538.777
25.30000 543.706
25.31000 550.823
25.32000 565.080
25.33000 579.888
25.34000 590.184
25.35000 572.048
25.36000 557.609
25.37000 551.328
25.38000 557.115
25.39000 563.012
25.40000 568.688
25.41000 574.154
25.42000 579.577
25.43000 573.573
25.44000 560.640
25.45000 548.251
25.46000 548.649
25.47000 554.445
25.48000 559.758
25.49000 559.519
25.50000 557.699
25.51000 556.082
25.52000 554.310
25.53000 552.747
25.54000 552.264
25.55000 556.451
25.56000 561.177
25.57000 565.975
25.58000 570.979
25.59000 575.996
25.60000 579.343
25.61000 554.165
25.62000 534.969
25.63000 524.823
25.64000 526.459
25.65000 528.149
25.66000 532.158
25.67000 538.106
25.68000 543.976
25.69000 546.034
25.70000 545.982
25.71000 545.922
25.72000 545.745
25.73000 545.522
25.74000 545.116
25.75000 542.928
25.76000 540.292
25.77000 537.995
25.78000 552.596
25.79000 567.428
25.80000 575.851
25.81000 559.854
25.82000 541.475
25.83000 530.576
25.84000 538.833
25.85000 548.051
25.86000 553.929
25.87000 541.359
25.88000 531.982
25.89000 530.432
25.90000 537.810
25.91000 545.178
25.92000 549.167
25.93000 550.677
25.94000 552.157
25.95000 551.651
25.96000 550.225
25.97000 548.908
25.98000 549.179
25.99000 549.978
26.00000 550.330
26.01000 547.017
26.02000 542.894
26.03000 539.376
26.04000 543.805
26.05000 548.474
26.06000 550.739
26.07000 544.911
26.08000 538.425
26.09000 533.374
26.10000 531.585
26.11000 529.922
26.12000 528.912
26.13000 543.080
26.14000 553.305
26.15000 556.379
26.16000 552.347
26.17000 548.363
26.18000 548.563
26.19000 551.472
26.20000 554.303
26.21000 542.528
26.22000 525.260
26.23000 509.421
26.24000 510.855
26.25000 517.363
26.26000 524.728
26.27000 538.112
26.28000 552.661
26.29000 564.790
26.30000 560.314
26.31000 554.948
26.32000 551.739
26.33000 554.963
26.34000 558.615
26.35000 559.101
26.36000 553.205
26.37000 547.128
26.38000 543.632
26.39000 541.715
26.40000 540.381
26.41000 540.810
26.42000 542.764
26.43000 544.652
26.44000 542.948
26.45000 539.190
26.46000 535.565
26.47000 534.366
26.48000 534.120
26.49000 534.523
26.50000 541.486
26.51000 550.152
26.52000 557.419
26.53000 556.199
26.54000 553.547
26.55000 551.392
26.56000 543.226
26.57000 536.062
26.58000 529.336
26.59000 523.766
26.60000 518.257
26.61000 516.412
26.62000 521.108
26.63000 525.933
26.64000 528.547
26.65000 543.271
26.66000 553.320
26.67000 551.833
26.68000 541.588
26.69000 531.611
26.70000 531.628
26.71000 536.707
26.72000 541.555
26.73000 536.842
26.74000 529.427
26.75000 522.018
26.76000 514.669
26.77000 507.333
26.78000 502.097
26.79000 507.963
26.80000 515.450
26.81000 521.369
26.82000 526.857
26.83000 531.234
26.84000 532.544
26.85000 526.663
26.86000 520.484
26.87000 516.858
26.88000 517.262
26.89000 517.715
26.90000 517.946
26.91000 524.739
26.92000 529.244
26.93000 528.937
26.94000 525.413
26.95000 522.114
26.96000 524.921
26.97000 530.472
26.98000 535.706
26.99000 536.619
27.00000 536.254
27.01000 535.329
27.02000 530.312
27.03000 524.475
27.04000 520.243
27.05000 523.440
27.06000 527.570
27.07000 530.737
27.08000 523.611
27.09000 517.409
27.10000 513.292
27.11000 513.513
27.12000 513.868
27.13000 512.484
27.14000 508.679
27.15000 504.860
27.16000 506.155
27.17000 512.033
27.18000 517.865
27.19000 520.909
27.20000 522.305
27.21000 523.527
27.22000 521.110
27.23000 517.244
27.24000 513.647
27.25000 513.560
27.26000 514.333
27.27000 515.795
27.28000 521.609
27.29000 528.185
27.30000 532.806
27.31000 529.473
27.32000 525.292
27.33000 522.188
27.34000 520.353
27.35000 518.983
27.36000 520.393
27.37000 526.929
27.38000 533.577
27.39000 535.187
27.40000 530.635
27.41000 526.078
27.42000 522.722
27.43000 520.321
27.44000 517.904
27.45000 514.839
27.46000 511.437
27.47000 508.428
27.48000 511.911
27.49000 517.687
27.50000 522.983
27.51000 522.437
27.52000 520.721
27.53000 518.570
27.54000 514.032
27.55000 509.132
27.56000 505.992
27.57000 509.170
27.58000 512.915
27.59000 515.598
27.60000 519.786
27.61000 523.038
27.62000 522.618
27.63000 516.214
27.64000 509.724
27.65000 504.220
27.66000 499.770
27.67000 495.341
27.68000 492.137
27.69000 489.807
27.70000 487.731
27.71000 493.121
27.72000 501.972
27.73000 510.427
27.74000 513.597
27.75000 515.112
27.76000 516.478
27.77000 515.435
27.78000 514.080
27.79000 512.792
27.80000 511.820
27.81000 510.889
27.82000 509.771
27.83000 508.060
27.84000 506.306
27.85000 505.096
27.86000 500.026
27.87000 496.122
27.88000 496.564
27.89000 503.260
27.90000 510.005
27.91000 512.462
27.92000 510.932
27.93000 509.416
27.94000 506.075
27.95000 501.709
27.96000 497.821
27.97000 504.554
27.98000 515.653
27.99000 525.185
28.00000 517.377
28.01000 504.767
28.02000 493.601
28.03000 503.931
28.04000 516.238
28.05000 524.496
28.06000 515.720
28.07000 505.047
28.08000 500.372
28.09000 512.574
28.10000 525.789
28.11000 534.521
28.12000 517.615
28.13000 504.687
28.14000 495.689
28.15000 491.664
28.16000 487.655
28.17000 483.463
28.18000 479.122
28.19000 474.843
28.20000 479.490
28.21000 488.680
28.22000 497.587
28.23000 501.563
28.24000 503.741
28.25000 505.180
28.26000 499.752
28.27000 492.647
28.28000 486.480
28.29000 487.489
28.30000 489.311
28.31000 491.423
28.32000 494.607
28.33000 497.892
28.34000 501.132
28.35000 504.262
28.36000 507.387
28.37000 509.359
28.38000 506.242
28.39000 503.925
28.40000 496.779
28.41000 484.285
28.42000 471.889
28.43000 474.438
28.44000 487.657
28.45000 500.600
28.46000 502.640
28.47000 499.590
28.48000 496.667
28.49000 495.521
28.50000 494.950
28.51000 494.343
28.52000 493.442
28.53000 492.479
28.54000 491.662
28.55000 488.391
28.56000 485.367
28.57000 482.811
28.58000 481.789
28.59000 480.886
28.60000 480.129
28.61000 479.695
28.62000 479.272
28.63000 479.019
28.64000 490.558
28.65000 498.836
28.66000 500.790
28.67000 496.650
28.68000 492.502
28.69000 487.785
28.70000 482.710
28.71000 477.781
28.72000 475.363
28.73000 474.079
28.74000 473.559
28.75000 481.898
28.76000 492.771
28.77000 502.697
28.78000 506.193
28.79000 508.479
28.80000 510.375
28.81000 502.227
28.82000 494.531
28.83000 487.282
28.84000 481.333
28.85000 475.466
28.86000 473.380
28.87000 478.716
28.88000 484.248
28.89000 487.391
28.90000 486.454
28.91000 485.789
28.92000 485.508
28.93000 485.550
28.94000 485.497
28.95000 480.751
28.96000 473.391
28.97000 466.308
28.98000 466.671
28.99000 469.640
29.00000 472.557
29.01000 474.977
29.02000 477.271
29.03000 480.593
29.04000 489.975
29.05000 500.347
29.06000 508.728
29.07000 499.325
29.08000 490.258
29.09000 481.181
29.10000 472.081
29.11000 462.979
29.12000 457.946
29.13000 459.985
29.14000 462.152
29.15000 463.310
29.16000 479.767
29.17000 490.956
29.18000 494.060
29.19000 491.194
29.20000 488.253
29.21000 482.698
29.22000 475.852
29.23000 469.334
29.24000 469.347
29.25000 471.377
29.26000 473.459
29.27000 475.982
29.28000 478.604
29.29000 479.952
29.30000 474.762
29.31000 468.649
29.32000 463.846
29.33000 468.201
29.34000 472.286
29.35000 475.306
29.36000 475.891
29.37000 476.381
29.38000 476.038
29.39000 474.416
29.40000 472.780
29.41000 469.937
29.42000 465.887
29.43000 461.946
29.44000 467.966
29.45000 480.465
29.46000 492.425
29.47000 490.593
29.48000 482.726
29.49000 475.327
29.50000 469.885
29.51000 465.441
29.52000 461.440
29.53000 460.565
29.54000 460.299
29.55000 459.351
29.56000 455.330
29.57000 450.936
29.58000 447.590
29.59000 457.316
29.60000 465.664
29.61000 469.559
29.62000 464.432
29.63000 459.045
29.64000 459.127
29.65000 466.611
29.66000 474.132
29.67000 472.482
29.68000 462.860
29.69000 453.276
29.70000 445.783
29.71000 439.491
29.72000 433.788
29.73000 439.695
29.74000 450.109
29.75000 459.769
29.76000 454.839
29.77000 446.969
29.78000 440.885
29.79000 445.715
29.80000 452.396
29.81000 458.963
29.82000 465.078
29.83000 471.146
29.84000 475.617
29.85000 471.889
29.86000 468.661
29.87000 463.601
29.88000 455.255
29.89000 446.843
29.90000 446.279
29.91000 455.038
29.92000 463.792
29.93000 463.129
29.94000 455.326
29.95000 447.657
29.96000 445.081
29.97000 445.097
29.98000 445.089
29.99000 444.682
30.00000 444.140
30.01000 443.644
30.02000 448.693
30.03000 454.307
30.04000 458.655
30.05000 456.267
30.06000 452.889
30.07000 448.992
30.08000 443.282
30.09000 437.417
30.10000 433.249
30.11000 446.591
30.12000 457.306
30.13000 466.247
30.14000 472.372
30.15000 478.462
30.16000 476.324
30.17000 465.654
30.18000 455.043
30.19000 450.733
30.20000 450.660
30.21000 450.639
30.22000 452.039
30.23000 454.081
30.24000 456.092
30.25000 457.703
30.26000 459.191
30.27000 460.528
30.28000 459.048
30.29000 457.255
30.30000 456.153
30.31000 458.258
30.32000 460.768
30.33000 461.067
30.34000 454.531
30.35000 447.511
30.36000 442.715
30.37000 445.861
30.38000 448.401
30.39000 452.188
30.40000 457.722
30.41000 463.263
30.42000 462.813
30.43000 456.954
30.44000 451.155
30.45000 446.248
30.46000 441.965
30.47000 437.926
30.48000 439.006
30.49000 442.136
30.50000 445.355
30.51000 449.525
30.52000 453.950
30.53000 457.852
30.54000 456.429
30.55000 454.394
30.56000 452.383
30.57000 450.472
30.58000 448.571
30.59000 448.801
30.60000 454.871
30.61000 461.276
30.62000 465.467
30.63000 464.093
30.64000 462.993
30.65000 457.364
30.66000 446.166
30.67000 434.987
30.68000 433.461
30.69000 439.560
30.70000 445.564
30.71000 453.141
30.72000 461.283
30.73000 468.347
30.74000 457.478
30.75000 440.239
30.76000 425.110
30.77000 428.918
30.78000 437.224
30.79000 444.400
30.80000 451.695
30.81000 457.905
30.82000 461.313
30.83000 454.607
30.84000 446.987
30.85000 441.764
30.86000 442.369
30.87000 443.236
30.88000 443.777
30.89000 450.682
30.90000 455.729
30.91000 460.247
30.92000 464.196
30.93000 468.089
30.94000 464.974
30.95000 456.989
30.96000 449.184
30.97000 441.023
30.98000 433.041
30.99000 425.924
31.00000 430.467
31.01000 438.681
31.02000 445.976
31.03000 446.236
31.04000 445.029
31.05000 444.009
31.06000 437.998
31.07000 432.423
31.08000 428.528
31.09000 429.996
31.10000 431.865
31.11000 434.329
31.12000 438.078
31.13000 441.871
31.14000 444.122
31.15000 444.429
31.16000 444.635
31.17000 445.546
31.18000 447.115
31.19000 448.641
31.20000 447.098
31.21000 443.674
31.22000 440.354
31.23000 432.919
31.24000 424.265
31.25000 416.809
31.26000 422.726
31.27000 432.364
31.28000 440.451
31.29000 438.321
31.30000 434.326
31.31000 431.032
31.32000 430.974
31.33000 431.224
31.34000 432.319
31.35000 435.801
31.36000 439.428
31.37000 439.436
31.38000 432.526
31.39000 425.446
31.40000 421.476
31.41000 429.234
31.42000 434.628
31.43000 434.813
31.44000 430.740
31.45000 426.806
31.46000 429.205
31.47000 435.040
31.48000 440.642
31.49000 443.145
31.50000 444.423
31.51000 445.476
31.52000 444.420
31.53000 442.845
31.54000 440.969
31.55000 437.363
31.56000 433.483
31.57000 430.367
31.58000 433.039
31.59000 435.648
31.60000 437.048
31.61000 435.415
31.62000 433.638
31.63000 433.445
31.64000 435.933
31.65000 438.466
31.66000 439.801
31.67000 421.744
31.68000 409.592
31.69000 414.342
31.70000 431.228
31.71000 447.568
31.72000 446.278
31.73000 436.515
31.74000 427.245
31.75000 425.462
31.76000 426.062
31.77000 426.934
31.78000 429.978
31.79000 433.490
31.80000 437.128
31.81000 441.395
31.82000 445.748
31.83000 449.145
31.84000 445.344
31.85000 441.863
31.86000 440.189
31.87000 442.537
31.88000 445.034
31.89000 444.336
31.90000 438.861
31.91000 433.341
31.92000 430.203
31.93000 429.375
31.94000 428.534
31.95000 426.685
31.96000 424.196
31.97000 421.539
31.98000 414.853
31.99000 406.448
32.00000 398.566
32.01000 399.955
32.02000 403.648
32.03000 407.187
32.04000 409.679
32.05000 411.973
32.06000 413.962
32.07000 414.622
32.08000 415.126
32.09000 415.507
32.10000 420.234
32.11000 424.160
32.12000 425.188
32.13000 420.497
32.14000 415.652
32.15000 413.119
32.16000 413.628
32.17000 414.151
32.18000 413.434
32.19000 411.672
32.20000 409.997
32.21000 412.739
32.22000 417.954
32.23000 422.568
32.24000 415.943
32.25000 405.067
32.26000 395.011
32.27000 398.102
32.28000 403.875
32.29000 410.054
32.30000 418.634
32.31000 427.610
32.32000 434.645
32.33000 434.205
32.34000 433.026
32.35000 432.163
32.36000 425.455
32.37000 420.049
32.38000 416.103
32.39000 414.707
32.40000 413.359
32.41000 413.927
32.42000 416.707
32.43000 419.480
32.44000 424.359
32.45000 430.751
32.46000 436.832
32.47000 432.014
32.48000 421.789
32.49000 412.441
32.50000 416.238
32.51000 424.443
32.52000 431.913
32.53000 426.782
32.54000 419.749
32.55000 412.838
32.56000 406.552
32.57000 400.355
32.58000 395.262
32.59000 393.925
32.60000 392.898
32.61000 392.174
32.62000 402.668
32.63000 410.962
32.64000 416.745
32.65000 418.652
32.66000 420.515
32.67000 421.072
32.68000 420.317
32.69000 419.566
32.70000 416.409
32.71000 411.748
32.72000 407.266
32.73000 407.396
32.74000 409.556
32.75000 411.537
32.76000 411.325
32.77000 410.462
32.78000 409.689
32.79000 407.309
32.80000 404.958
32.81000 403.032
32.82000 403.026
32.83000 403.254
32.84000 404.477
32.85000 408.696
32.86000 413.119
32.87000 416.113
32.88000 407.586
32.89000 400.981
32.90000 396.413
32.91000 394.620
32.92000 392.847
32.93000 395.358
32.94000 401.623
32.95000 407.819
32.96000 413.207
32.97000 418.012
32.98000 422.545
32.99000 421.669
33.00000 418.681
33.01000 416.246
33.02000 419.475
33.03000 424.190
33.04000 428.329
33.05000 426.196
33.06000 423.442
33.07000 418.867
33.08000 407.044
33.09000 394.471
33.10000 386.619
33.11000 391.375
33.12000 396.816
33.13000 400.341
33.14000 401.206
33.15000 401.799
33.16000 400.487
33.17000 396.901
33.18000 393.328
33.19000 393.859
33.20000 397.541
33.21000 401.161
33.22000 402.996
33.23000 403.887
33.24000 404.537
33.25000 401.355
33.26000 396.849
33.27000 393.055
33.28000 395.430
33.29000 399.231
33.30000 402.500
33.31000 399.216
33.32000 395.616
33.33000 394.735
33.34000 403.406
33.35000 412.906
33.36000 418.268
33.37000 413.834
33.38000 408.984
33.39000 405.988
33.40000 401.236
33.41000 397.806
33.42000 400.923
33.43000 410.872
33.44000 420.753
33.45000 423.233
33.46000 420.714
33.47000 418.255
33.48000 408.594
33.49000 396.233
33.50000 384.832
33.51000 385.830
33.52000 390.627
33.53000 394.454
33.54000 391.098
33.55000 386.285
33.56000 382.239
33.57000 383.078
33.58000 384.296
33.59000 384.926
33.60000 383.730
33.61000 382.404
33.62000 384.008
33.63000 391.769
33.64000 399.725
33.65000 404.390
33.66000 399.972
33.67000 396.817
33.68000 396.947
33.69000 400.060
33.70000 403.067
33.71000 399.428
33.72000 391.821
33.73000 384.461
33.74000 384.846
33.75000 388.156
33.76000 391.320
33.77000 392.917
33.78000 394.090
33.79000 394.596
33.80000 390.846
33.81000 386.344
33.82000 382.651
33.83000 389.203
33.84000 395.489
33.85000 398.998
33.86000 394.858
33.87000 390.276
33.88000 387.719
33.89000 388.932
33.90000 390.231
33.91000 390.950
33.92000 386.137
33.93000 382.814
33.94000 382.615
33.95000 384.896
33.96000 387.168
33.97000 389.042
33.98000 390.706
33.99000 392.300
34.00000 387.753
34.01000 381.465
34.02000 376.252
34.03000 380.739
34.04000 387.543
34.05000 392.703
34.06000 388.743
34.07000 383.382
34.08000 379.102
34.09000 377.265
34.10000 375.961
34.11000 374.918
34.12000 374.514
34.13000 374.140
34.14000 372.279
34.15000 367.970
34.16000 363.626
34.17000 361.368
34.18000 375.183
34.19000 384.490
34.20000 390.446
34.21000 394.060
34.22000 397.651
34.23000 400.525
34.24000 403.064
34.25000 405.468
34.26000 402.033
34.27000 397.169
34.28000 392.057
34.29000 385.028
34.30000 377.598
34.31000 373.240
34.32000 383.768
34.33000 396.267
34.34000 405.957
34.35000 397.888
34.36000 390.413
34.37000 384.645
34.38000 382.579
34.39000 380.639
34.40000 383.085
34.41000 391.908
34.42000 400.784
34.43000 398.892
34.44000 386.874
34.45000 375.002
34.46000 373.582
34.47000 378.604
34.48000 383.548
34.49000 386.717
34.50000 389.148
34.51000 391.421
34.52000 385.663
34.53000 378.395
34.54000 372.808
34.55000 378.364
34.56000 385.965
34.57000 393.598
34.58000 401.371
34.59000 409.159
34.60000 415.009
34.61000 395.988
34.62000 379.932
34.63000 369.348
34.64000 369.279
34.65000 369.472
34.66000 374.051
34.67000 384.244
34.68000 394.444
34.69000 396.338
34.70000 391.421
34.71000 386.445
34.72000 378.704
34.73000 369.457
34.74000 361.030
34.75000 367.225
34.76000 378.806
34.77000 389.480
34.78000 386.687
34.79000 381.209
34.80000 375.907
34.81000 371.613
34.82000 367.480
34.83000 362.888
34.84000 356.581
34.85000 350.110
34.86000 345.416
34.87000 364.418
34.88000 379.905
34.89000 386.053
34.90000 376.310
34.91000 366.302
34.92000 368.713
34.93000 385.039
34.94000 401.315
34.95000 401.920
34.96000 391.309
34.97000 380.965
34.98000 379.386
34.99000 382.041
35.00000 384.365
35.01000 381.960
35.02000 378.010
35.03000 374.426
35.04000 371.249
35.05000 368.524
35.06000 366.485
35.07000 367.893
35.08000 369.776
35.09000 369.827
35.10000 363.815
35.11000 357.322
35.12000 352.785
35.13000 363.942
35.14000 372.811
35.15000 377.250
35.16000 375.029
35.17000 372.743
35.18000 370.481
35.19000 368.245
35.20000 366.025
35.21000 367.967
35.22000 372.484
35.23000 376.745
35.24000 374.790
35.25000 370.171
35.26000 366.271
35.27000 370.848
35.28000 377.876
35.29000 384.140
35.30000 387.287
35.31000 389.509
35.32000 389.738
35.33000 381.202
35.34000 371.632
35.35000 364.681
35.36000 365.412
35.37000 366.639
35.38000 367.463
35.39000 368.300
35.40000 368.921
35.41000 369.585
35.42000 370.304
35.43000 371.021
35.44000 370.902
35.45000 370.071
35.46000 369.250
35.47000 362.329
35.48000 352.238
35.49000 342.907
35.50000 347.943
35.51000 358.441
35.52000 368.655
35.53000 376.072
35.54000 382.775
35.55000 388.635
35.56000 382.025
35.57000 374.595
35.58000 367.372
35.59000 360.952
35.60000 354.612
35.61000 351.361
35.62000 356.145
35.63000 361.344
35.64000 364.679
35.65000 373.107
35.66000 379.319
35.67000 380.676
35.68000 376.397
35.69000 372.108
35.70000 367.200
35.71000 361.831
35.72000 356.560
35.73000 352.612
35.74000 349.440
35.75000 346.826
35.76000 352.663
35.77000 361.349
35.78000 368.725
35.79000 365.143
35.80000 359.101
35.81000 353.930
35.82000 355.856
35.83000 358.338
35.84000 360.798
35.85000 363.182
35.86000 365.560
35.87000 364.817
35.88000 356.871
35.89000 348.637
35.90000 343.607
35.91000 346.424
35.92000 348.505
35.93000 352.081
35.94000 357.171
35.95000 362.248
35.96000 366.109
35.97000 369.169
35.98000 372.151
35.99000 368.626
36.00000 362.521
36.01000 356.935
36.02000 357.769
36.03000 360.520
36.04000 363.105
36.05000 364.497
36.06000 365.654
36.07000 366.622
36.08000 364.560
36.09000 362.539
36.10000 360.004
36.11000 355.915
36.12000 351.721
36.13000 350.625
36.14000 355.869
36.15000 361.301
36.16000 364.448
36.17000 366.838
36.18000 368.508
36.19000 367.118
36.20000 363.031
36.21000 358.919
36.22000 353.291
36.23000 346.784
36.24000 340.500
36.25000 349.841
36.26000 364.415
36.27000 377.552
36.28000 375.853
36.29000 370.244
36.30000 365.589
36.31000 366.843
36.32000 369.111
36.33000 370.961
36.34000 357.736
36.35000 345.637
36.36000 337.391
36.37000 339.484
36.38000 342.145
36.39000 347.218
36.40000 356.665
36.41000 366.203
36.42000 371.413
36.43000 372.680
36.44000 373.511
36.45000 366.097
36.46000 352.318
36.47000 338.790
36.48000 335.051
36.49000 336.347
36.50000 337.586
36.51000 343.792
36.52000 351.170
36.53000 357.996
36.54000 360.002
36.55000 360.889
36.56000 361.899
36.57000 363.575
36.58000 365.350
36.59000 366.759
36.60000 363.921
36.61000 361.339
36.62000 359.049
36.63000 357.455
36.64000 355.890
36.65000 354.532
36.66000 353.503
36.67000 352.479
36.68000 351.954
36.69000 360.956
36.70000 366.915
36.71000 362.725
36.72000 351.639
36.73000 340.874
36.74000 339.133
36.75000 341.509
36.76000 343.753
36.77000 343.812
36.78000 343.248
36.79000 342.632
36.80000 341.628
36.81000 340.545
36.82000 341.096
36.83000 349.339
36.84000 358.566
36.85000 365.672
36.86000 359.253
36.87000 353.398
36.88000 350.489
36.89000 353.799
36.90000 357.310
36.91000 358.282
36.92000 355.662
36.93000 353.017
36.94000 350.895
36.95000 349.251
36.96000 347.634
36.97000 347.819
36.98000 349.084
36.99000 350.483
37.00000 354.752
37.01000 360.183
37.02000 365.246
37.03000 359.921
37.04000 352.540
37.05000 345.702
37.06000 342.345
37.07000 339.608
37.08000 338.687
37.09000 345.279
37.10000 352.689
37.11000 358.214
37.12000 350.681
37.13000 344.222
37.14000 342.245
37.15000 348.658
37.16000 355.263
37.17000 359.479
37.18000 360.723
37.19000 361.956
37.20000 360.601
37.21000 357.195
37.22000 353.830
37.23000 352.234
37.24000 351.576
37.25000 350.888
37.26000 349.677
37.27000 348.277
37.28000 346.992
37.29000 341.536
37.30000 335.774
37.31000 331.281
37.32000 333.875
37.33000 337.565
37.34000 340.006
37.35000 337.895
37.36000 335.367
37.37000 333.548
37.38000 325.154
37.39000 318.496
37.40000 318.726
37.41000 330.367
37.42000 342.179
37.43000 350.372
37.44000 354.627
37.45000 358.863
37.46000 358.046
37.47000 353.726
37.48000 349.332
37.49000 342.658
37.50000 334.911
37.51000 328.161
37.52000 335.093
37.53000 346.377
37.54000 356.574
37.55000 349.615
37.56000 340.309
37.57000 333.576
37.58000 339.377
37.59000 346.848
37.60000 352.066
37.61000 350.020
37.62000 347.421
37.63000 345.620
37.64000 348.947
37.65000 351.586
37.66000 350.665
37.67000 344.541
37.68000 338.372
37.69000 335.222
37.70000 334.930
37.71000 334.641
37.72000 334.263
37.73000 333.839
37.74000 333.270
37.75000 329.370
37.76000 324.081
37.77000 320.239
37.78000 332.803
37.79000 349.982
37.80000 365.231
37.81000 358.175
37.82000 348.492
37.83000 339.955
37.84000 336.318
37.85000 333.239
37.86000 331.823
37.87000 335.158
37.88000 338.786
37.89000 341.197
37.90000 335.639
37.91000 331.381
37.92000 331.978
37.93000 338.824
37.94000 345.676
37.95000 344.523
37.96000 336.754
37.97000 329.090
37.98000 326.802
37.99000 327.443
38.00000 328.106
38.01000 329.170
38.02000 330.383
38.03000 331.483
38.04000 331.517
38.05000 331.286
38.06000 331.084
38.07000 328.513
38.08000 325.993
38.09000 323.810
38.10000 322.897
38.11000 322.105
38.12000 321.853
38.13000 322.965
38.14000 324.144
38.15000 324.893
38.16000 324.734
38.17000 324.608
38.18000 323.411
38.19000 321.006
38.20000 318.644
38.21000 323.346
38.22000 333.175
38.23000 342.809
38.24000 339.392
38.25000 330.007
38.26000 321.455
38.27000 324.959
38.28000 332.421
38.29000 339.596
38.30000 344.453
38.31000 348.804
38.32000 352.510
38.33000 356.796
38.34000 360.466
38.35000 362.274
38.36000 357.878
38.37000 352.986
38.38000 348.587
38.39000 345.294
38.40000 342.042
38.41000 340.077
38.42000 346.216
38.43000 350.647
38.44000 349.807
38.45000 343.796
38.46000 337.847
38.47000 337.180
38.48000 339.892
38.49000 342.529
38.50000 337.336
38.51000 329.190
38.52000 321.762
38.53000 322.878
38.54000 326.478
38.55000 329.987
38.56000 332.872
38.57000 335.637
38.58000 337.937
38.59000 342.026
38.60000 345.586
38.61000 346.647
38.62000 340.334
38.63000 333.540
38.64000 330.692
38.65000 335.714
38.66000 340.952
38.67000 343.950
38.68000 339.767
38.69000 336.823
38.70000 335.351
38.71000 335.137
38.72000 334.964
38.73000 336.932
38.74000 340.112
38.75000 343.177
38.76000 339.250
38.77000 333.051
38.78000 327.255
38.79000 325.457
38.80000 324.685
38.81000 324.373
38.82000 326.821
38.83000 329.728
38.84000 332.085
38.85000 325.580
38.86000 319.554
38.87000 316.309
38.88000 320.337
38.89000 324.745
38.90000 325.672
38.91000 320.453
38.92000 315.117
38.93000 312.241
38.94000 317.337
38.95000 320.802
38.96000 318.720
38.97000 312.475
38.98000 306.560
38.99000 312.561
39.00000 324.534
39.01000 335.949
39.02000 335.699
39.03000 331.802
39.04000 328.510
39.05000 330.307
39.06000 333.253
39.07000 335.348
39.08000 332.996
39.09000 330.003
39.10000 327.643
39.11000 326.797
39.12000 326.220
39.13000 325.872
39.14000 326.055
39.15000 326.259
39.16000 323.835
39.17000 317.308
39.18000 310.732
39.19000 307.415
39.20000 323.231
39.21000 333.726
39.22000 336.297
39.23000 333.630
39.24000 330.988
39.25000 329.034
39.26000 327.385
39.27000 325.831
39.28000 328.869
39.29000 332.909
39.30000 336.070
39.31000 332.887
39.32000 328.449
39.33000 324.216
39.34000 320.928
39.35000 317.757
39.36000 315.332
39.37000 310.666
39.38000 306.864
39.39000 305.155
39.40000 307.752
39.41000 310.478
39.42000 312.614
39.43000 313.937
39.44000 315.255
39.45000 316.888
39.46000 318.800
39.47000 320.688
39.48000 321.183
39.49000 320.864
39.50000 320.638
39.51000 322.294
39.52000 324.692
39.53000 326.921
39.54000 316.637
39.55000 304.363
39.56000 294.683
39.57000 301.148
39.58000 310.403
39.59000 317.237
39.60000 314.332
39.61000 310.403
39.62000 307.496
39.63000 310.235
39.64000 312.605
39.65000 314.539
39.66000 315.679
39.67000 316.804
39.68000 317.652
39.69000 318.169
39.70000 318.683
39.71000 317.151
39.72000 314.048
39.73000 311.001
39.74000 310.135
39.75000 310.399
39.76000 310.852
39.77000 314.381
39.78000 318.986
39.79000 323.201
39.80000 319.150
39.81000 313.828
39.82000 310.247
39.83000 316.090
39.84000 323.344
39.85000 328.574
39.86000 326.614
39.87000 324.020
39.88000 322.168
39.89000 315.290
39.90000 309.877
39.91000 308.064
39.92000 312.058
39.93000 316.131
39.94000 314.779
39.95000 307.703
39.96000 300.662
39.97000 301.962
39.98000 308.876
39.99000 315.647
40.00000 318.355
40.01000 319.199
40.02000 319.880
40.03000 318.419
40.04000 316.294
40.05000 314.381
40.06000 314.752
40.07000 315.487
40.08000 315.489
40.09000 312.015
40.10000 308.093
40.11000 307.375
40.12000 316.716
40.13000 326.789
40.14000 333.706
40.15000 327.659
40.16000 322.809
40.17000 317.337
40.18000 310.983
40.19000 304.625
40.20000 304.143
40.21000 309.059
40.22000 313.928
40.23000 319.997
40.24000 326.653
40.25000 332.985
40.26000 332.281
40.27000 328.716
40.28000 325.272
40.29000 323.147
40.30000 321.383
40.31000 319.824
40.32000 328.100
40.33000 336.770
40.34000 341.663
40.35000 330.845
40.36000 318.303
40.37000 309.609
40.38000 311.625
40.39000 314.272
40.40000 316.014
40.41000 314.180
40.42000 312.767
40.43000 314.264
40.44000 319.399
40.45000 324.526
40.46000 323.236
40.47000 316.793
40.48000 310.445
40.49000 308.039
40.50000 307.746
40.51000 307.439
40.52000 306.913
40.53000 306.307
40.54000 305.940
40.55000 307.755
40.56000 310.097
40.57000 312.126
40.58000 308.330
40.59000 304.329
40.60000 302.584
40.61000 309.112
40.62000 316.404
40.63000 320.820
40.64000 318.137
40.65000 315.124
40.66000 313.231
40.67000 311.639
40.68000 310.492
40.69000 307.941
40.70000 303.854
40.71000 299.810
40.72000 301.632
40.73000 307.596
40.74000 313.432
40.75000 312.390
40.76000 308.267
40.77000 304.597
40.78000 307.187
40.79000 311.777
40.80000 315.749
40.81000 314.894
40.82000 313.015
40.83000 311.422
40.84000 314.015
40.85000 316.659
40.86000 319.332
40.87000 322.100
40.88000 324.875
40.89000 325.478
40.90000 321.323
40.91000 317.001
40.92000 314.419
40.93000 303.671
40.94000 295.997
40.95000 291.598
40.96000 290.317
40.97000 289.083
40.98000 291.389
40.99000 295.900
41.00000 300.279
41.01000 307.670
41.02000 315.882
41.03000 323.808
41.04000 328.472
41.05000 332.214
41.06000 335.158
41.07000 332.753
41.08000 329.354
41.09000 326.542
41.10000 320.090
41.11000 314.422
41.12000 310.613
41.13000 312.137
41.14000 313.995
41.15000 313.170
41.16000 307.135
41.17000 300.967
41.18000 297.482
41.19000 307.358
41.20000 314.250
41.21000 315.681
41.22000 312.571
41.23000 309.477
41.24000 307.133
41.25000 305.202
41.26000 303.345
41.27000 301.032
41.28000 298.706
41.29000 297.371
41.30000 305.519
41.31000 316.035
41.32000 324.855
41.33000 323.813
41.34000 321.178
41.35000 319.055
41.36000 316.307
41.37000 314.027
41.38000 314.374
41.39000 321.412
41.40000 328.782
41.41000 335.436
41.42000 340.859
41.43000 346.262
41.44000 349.133
41.45000 327.095
41.46000 312.178
41.47000 313.580
41.48000 326.893
41.49000 339.946
41.50000 344.259
41.51000 344.306
41.52000 344.350
41.53000 342.342
41.54000 339.858
41.55000 338.396
41.56000 345.248
41.57000 353.925
41.58000 362.937
41.59000 373.650
41.60000 384.600
41.61000 393.179
41.62000 438.078
41.63000 476.294
41.64000 513.063
41.65000 546.566
41.66000 579.945
41.67000 621.608
41.68000 675.858
41.69000 730.239
41.70000 766.020
41.71000 783.441
41.72000 800.909
41.73000 822.532
41.74000 846.828
41.75000 871.024
41.76000 892.718
41.77000 913.330
41.78000 932.691
41.79000 925.593
41.80000 912.066
41.81000 900.857
41.82000 905.806
41.83000 913.863
41.84000 914.297
41.85000 880.828
41.86000 843.308
41.87000 814.809
41.88000 761.021
41.89000 717.429
41.90000 669.474
41.91000 612.779
41.92000 555.839
41.93000 509.451
41.94000 477.186
41.95000 445.017
41.96000 422.277
41.97000 407.682
41.98000 393.189
41.99000 384.150
42.00000 378.213
42.01000 372.133
42.02000 363.275
42.03000 353.351
42.04000 344.157
42.05000 344.423
42.06000 346.857
42.07000 348.025
42.08000 341.553
42.09000 333.801
42.10000 328.906
42.11000 335.195
42.12000 342.616
42.13000 348.067
42.14000 349.220
42.15000 349.936
42.16000 350.699
42.17000 351.547
42.18000 352.396
42.19000 353.282
42.20000 354.212
42.21000 355.140
42.22000 354.012
42.23000 351.351
42.24000 348.612
42.25000 342.982
42.26000 335.897
42.27000 329.324
42.28000 330.660
42.29000 334.690
42.30000 338.366
42.31000 340.848
42.32000 342.808
42.33000 344.256
42.34000 343.009
42.35000 341.371
42.36000 340.829
42.37000 344.079
42.38000 347.649
42.39000 350.178
42.40000 350.224
42.41000 350.181
42.42000 348.821
42.43000 345.393
42.44000 341.940
42.45000 338.908
42.46000 336.307
42.47000 333.721
42.48000 333.207
42.49000 334.058
42.50000 335.172
42.51000 343.346
42.52000 354.675
42.53000 365.154
42.54000 364.924
42.55000 361.466
42.56000 358.364
42.57000 363.496
42.58000 369.415
42.59000 372.535
42.60000 362.783
42.61000 351.429
42.62000 342.918
42.63000 343.106
42.64000 343.900
42.65000 344.441
42.66000 343.740
42.67000 343.188
42.68000 346.269
42.69000 354.376
42.70000 362.511
42.71000 364.440
42.72000 360.838
42.73000 357.273
42.74000 354.432
42.75000 352.069
42.76000 350.018
42.77000 354.403
42.78000 361.339
42.79000 367.905
42.80000 370.601
42.81000 372.266
42.82000 373.732
42.83000 363.500
42.84000 352.939
42.85000 345.623
42.86000 351.431
42.87000 358.629
42.88000 364.946
42.89000 368.875
42.90000 372.669
42.91000 375.142
42.92000 367.929
42.93000 362.485
42.94000 357.026
42.95000 351.549
42.96000 346.098
42.97000 347.514
42.98000 354.292
42.99000 360.960
43.00000 361.225
43.01000 358.259
43.02000 355.542
43.03000 356.877
43.04000 359.636
43.05000 362.619
43.06000 367.585
43.07000 373.017
43.08000 377.701
43.09000 370.934
43.10000 363.733
43.11000 357.346
43.12000 353.869
43.13000 350.650
43.14000 352.039
43.15000 364.510
43.16000 377.467
43.17000 385.522
43.18000 384.095
43.19000 382.973
43.20000 381.445
43.21000 379.486
43.22000 377.543
43.23000 377.443
43.24000 378.609
43.25000 379.748
43.26000 379.888
43.27000 379.582
43.28000 379.363
43.29000 380.299
43.30000 381.593
43.31000 382.832
43.32000 383.647
43.33000 384.375
43.34000 384.988
43.35000 387.355
43.36000 389.521
43.37000 390.346
43.38000 386.935
43.39000 383.213
43.40000 381.264
43.41000 383.097
43.42000 385.055
43.43000 386.211
43.44000 382.759
43.45000 380.297
43.46000 382.013
43.47000 387.587
43.48000 393.080
43.49000 393.068
43.50000 389.718
43.51000 386.472
43.52000 385.574
43.53000 385.633
43.54000 386.356
43.55000 394.383
43.56000 404.420
43.57000 412.050
43.58000 404.031
43.59000 393.192
43.60000 384.274
43.61000 394.729
43.62000 405.085
43.63000 413.714
43.64000 417.508
43.65000 421.014
43.66000 419.296
43.67000 407.696
43.68000 395.861
43.69000 389.260
43.70000 396.827
43.71000 402.102
43.72000 409.849
43.73000 419.591
43.74000 429.159
43.75000 431.013
43.76000 428.728
43.77000 426.537
43.78000 429.931
43.79000 434.995
43.80000 439.289
43.81000 436.472
43.82000 431.929
43.83000 428.307
43.84000 429.885
43.85000 432.276
43.86000 434.191
43.87000 436.164
43.88000 437.764
43.89000 439.525
43.90000 441.684
43.91000 443.862
43.92000 450.019
43.93000 462.834
43.94000 475.754
43.95000 482.524
43.96000 467.863
43.97000 458.016
43.98000 460.987
43.99000 473.057
44.00000 484.663
44.01000 481.702
44.02000 471.815
44.03000 462.437
44.04000 473.176
44.05000 489.040
44.06000 503.714
44.07000 509.042
44.08000 512.376
44.09000 516.011
44.10000 521.138
44.11000 526.465
44.12000 530.612
44.13000 543.314
44.14000 553.954
44.15000 563.887
44.16000 572.260
44.17000 580.577
44.18000 590.254
44.19000 601.942
44.20000 613.648
44.21000 646.574
44.22000 699.811
44.23000 753.384
44.24000 832.809
44.25000 928.418
44.26000 1026.548
44.27000 1183.972
44.28000 1366.404
44.29000 1537.275
44.30000 1794.128
44.31000 2049.991
44.32000 2308.980
44.33000 2589.078
44.34000 2873.116
44.35000 3139.065
44.36000 3326.796
44.37000 3505.503
44.38000 3640.288
44.39000 3799.026
44.40000 3924.539
44.41000 4017.625
44.42000 4047.419
44.43000 4075.568
44.44000 4108.102
44.45000 4146.342
44.46000 4184.564
44.47000 4163.512
44.48000 4093.105
44.49000 4021.624
44.50000 3897.619
44.51000 3744.529
44.52000 3586.440
44.53000 3336.646
44.54000 3052.540
44.55000 2790.184
44.56000 2463.429
44.57000 2155.877
44.58000 1863.801
44.59000 1662.269
44.60000 1475.448
44.61000 1315.106
44.62000 1255.614
44.63000 1205.954
44.64000 1169.759
44.65000 1193.180
44.66000 1213.518
44.67000 1239.622
44.68000 1275.689
44.69000 1311.933
44.70000 1343.832
44.71000 1370.777
44.72000 1397.628
44.73000 1415.888
44.74000 1427.749
44.75000 1439.945
44.76000 1463.589
44.77000 1492.849
44.78000 1520.157
44.79000 1518.723
44.80000 1507.756
44.81000 1497.787
44.82000 1501.237
44.83000 1506.905
44.84000 1508.806
44.85000 1491.486
44.86000 1471.468
44.87000 1444.965
44.88000 1396.644
44.89000 1346.550
44.90000 1311.371
44.91000 1222.495
44.92000 1153.632
44.93000 1096.961
44.94000 1058.913
44.95000 1021.064
44.96000 995.348
44.97000 981.680
44.98000 968.105
44.99000 965.452
45.00000 969.794
45.01000 974.188
45.02000 979.887
45.03000 986.153
45.04000 991.668
45.05000 988.111
45.06000 981.890
45.07000 976.332
45.08000 987.599
45.09000 1000.248
45.10000 1013.485
45.11000 1029.350
45.12000 1045.531
45.13000 1058.887
45.14000 1063.830
45.15000 1068.213
45.16000 1071.168
45.17000 1090.401
45.18000 1105.054
45.19000 1114.954
45.20000 1118.457
45.21000 1121.931
45.22000 1128.271
45.23000 1137.093
45.24000 1145.814
45.25000 1153.595
45.26000 1160.664
45.27000 1167.577
45.28000 1171.443
45.29000 1174.131
45.30000 1177.520
45.31000 1187.967
45.32000 1200.243
45.33000 1211.003
45.34000 1248.935
45.35000 1285.420
45.36000 1313.914
45.37000 1310.962
45.38000 1304.803
45.39000 1304.877
45.40000 1321.417
45.41000 1338.834
45.42000 1350.074
45.43000 1364.833
45.44000 1375.667
45.45000 1388.259
45.46000 1402.927
45.47000 1417.570
45.48000 1426.152
45.49000 1430.134
45.50000 1434.046
45.51000 1464.893
45.52000 1507.861
45.53000 1548.667
45.54000 1555.845
45.55000 1551.512
45.56000 1549.412
45.57000 1566.371
45.58000 1587.682
45.59000 1605.972
45.60000 1630.637
45.61000 1652.271
45.62000 1672.871
45.63000 1689.879
45.64000 1706.579
45.65000 1721.335
45.66000 1731.533
45.67000 1741.542
45.68000 1747.698
45.69000 1778.593
45.70000 1800.966
45.71000 1822.359
45.72000 1842.744
45.73000 1863.010
45.74000 1871.170
45.75000 1871.240
45.76000 1871.308
45.77000 1894.646
45.78000 1926.913
45.79000 1959.217
45.80000 1991.981
45.81000 2024.885
45.82000 2057.860
45.83000 2091.352
45.84000 2124.948
45.85000 2153.130
45.86000 2195.561
45.87000 2232.362
45.88000 2265.922
45.89000 2289.516
45.90000 2312.409
45.91000 2345.553
45.92000 2400.001
45.93000 2455.107
45.94000 2487.257
45.95000 2538.493
45.96000 2574.620
45.97000 2622.849
45.98000 2681.929
45.99000 2740.988
46.00000 2798.778
46.01000 2855.818
46.02000 2910.961
46.03000 2985.750
46.04000 3063.705
46.05000 3146.645
46.06000 3282.186
46.07000 3431.820
46.08000 3591.170
46.09000 3811.723
46.10000 4042.977
46.11000 4232.192
46.12000 4571.891
46.13000 4863.351
46.14000 5181.004
46.15000 5570.042
46.16000 5963.119
46.17000 6379.475
46.18000 6838.707
46.19000 7298.875
46.20000 7552.237
46.21000 8314.729
46.22000 8841.822
46.23000 9638.858
46.24000 10647.795
46.25000 11689.884
46.26000 14082.741
46.27000 17181.369
46.28000 20146.848
46.29000 28536.723
46.30000 38138.605
46.31000 48776.414
46.32000 68635.492
46.33000 90672.164
46.34000 113095.742
46.35000 137637.766
46.36000 162501.063
46.37000 182300.172
46.38000 209763.984
46.39000 232462.828
46.40000 253065.781
46.41000 268602.094
46.42000 283913.531
46.43000 297783.875
46.44000 309305.656
46.45000 320794.313
46.46000 326728.406
46.47000 340457.156
46.48000 349695.906
46.49000 357054.000
46.50000 363113.563
46.51000 369036.844
46.52000 370963.313
46.53000 371038.375
46.54000 371109.406
46.55000 358649.219
46.56000 343588.156
46.57000 327348.406
46.58000 302156.781
46.59000 275108.750
46.60000 248677.563
46.61000 225199.047
46.62000 202105.969
46.63000 184250.875
46.64000 166810.141
46.65000 152997.047
46.66000 140073.406
46.67000 129057.148
46.68000 118104.844
46.69000 106138.648
46.70000 92714.313
46.71000 79280.766
46.72000 66564.656
46.73000 54521.133
46.74000 42522.805
46.75000 33640.629
46.76000 26657.537
46.77000 19799.188
46.78000 15711.707
46.79000 12762.846
46.80000 10009.032
46.81000 8610.678
46.82000 7682.806
46.83000 6810.101
46.84000 6298.219
46.85000 5851.737
46.86000 5442.386
46.87000 5189.163
46.88000 4953.318
46.89000 4776.719
46.90000 4508.617
46.91000 4295.098
46.92000 4108.819
46.93000 3974.325
46.94000 3841.078
46.95000 3724.456
46.96000 3628.860
46.97000 3533.474
46.98000 3442.420
46.99000 3355.218
47.00000 3268.514
47.01000 3204.145
47.02000 3151.821
47.03000 3098.862
47.04000 3034.847
47.05000 2966.803
47.06000 2904.174
47.07000 2814.967
47.08000 2729.407
47.09000 2650.802
47.10000 2611.669
47.11000 2578.754
47.12000 2544.690
47.13000 2506.372
47.14000 2467.654
47.15000 2439.655
47.16000 2387.316
47.17000 2346.266
47.18000 2311.230
47.19000 2286.316
47.20000 2261.564
47.21000 2224.439
47.22000 2173.619
47.23000 2122.992
47.24000 2082.762
47.25000 2050.266
47.26000 2017.901
47.27000 1989.745
47.28000 1963.599
47.29000 1936.599
47.30000 1897.577
47.31000 1854.672
47.32000 1815.812
47.33000 1792.862
47.34000 1775.646
47.35000 1757.711
47.36000 1736.217
47.37000 1714.240
47.38000 1692.419
47.39000 1671.108
47.40000 1649.838
47.41000 1635.027
47.42000 1586.294
47.43000 1548.607
47.44000 1519.314
47.45000 1502.497
47.46000 1485.796
47.47000 1467.971
47.48000 1449.062
47.49000 1430.300
47.50000 1415.557
47.51000 1403.553
47.52000 1391.085
47.53000 1367.567
47.54000 1339.365
47.55000 1312.033
47.56000 1294.795
47.57000 1280.442
47.58000 1267.671
47.59000 1248.909
47.60000 1231.640
47.61000 1214.579
47.62000 1198.426
47.63000 1182.377
47.64000 1168.757
47.65000 1162.184
47.66000 1156.058
47.67000 1151.965
47.68000 1125.590
47.69000 1105.607
47.70000 1088.075
47.71000 1073.749
47.72000 1059.430
47.73000 1040.757
47.74000 1018.424
47.75000 996.376
47.76000 987.345
47.77000 985.605
47.78000 983.634
47.79000 977.358
47.80000 969.464
47.81000 960.818
47.82000 944.870
47.83000 927.079
47.84000 911.556
47.85000 900.811
47.86000 892.288
47.87000 884.008
47.88000 876.658
47.89000 869.400
47.90000 856.904
47.91000 830.932
47.92000 804.279
47.93000 787.252
47.94000 790.586
47.95000 793.278
47.96000 787.341
47.97000 771.511
47.98000 755.712
47.99000 747.631
48.00000 745.245
48.01000 742.905
48.02000 741.733
48.03000 741.161
48.04000 740.087
48.05000 731.576
48.06000 720.586
48.07000 710.704
48.08000 709.955
48.09000 711.234
48.10000 712.326
48.11000 690.091
48.12000 668.582
48.13000 651.849
48.14000 651.266
48.15000 652.006
48.16000 653.831
48.17000 658.129
48.18000 662.524
48.19000 665.197
48.20000 642.089
48.21000 625.385
48.22000 612.063
48.23000 602.119
48.24000 592.214
48.25000 585.889
48.26000 581.892
48.27000 578.000
48.28000 578.052
48.29000 579.744
48.30000 581.033
48.31000 577.402
48.32000 572.319
48.33000 567.649
48.34000 565.896
48.35000 564.710
48.36000 563.721
48.37000 548.627
48.38000 534.691
48.39000 523.049
48.40000 518.275
48.41000 513.962
48.42000 508.781
48.43000 501.842
48.44000 494.852
48.45000 490.824
48.46000 490.547
48.47000 490.367
48.48000 489.579
48.49000 488.263
48.50000 486.997
48.51000 488.491
48.52000 491.570
48.53000 494.540
48.54000 485.795
48.55000 473.286
48.56000 462.344
48.57000 467.313
48.58000 476.431
48.59000 483.361
48.60000 476.930
48.61000 468.233
48.62000 461.157
48.63000 464.479
48.64000 468.064
48.65000 469.736
48.66000 466.334
48.67000 462.658
48.68000 459.479
48.69000 457.192
48.70000 454.923
48.71000 453.691
48.72000 443.468
48.73000 436.464
48.74000 433.311
48.75000 433.097
48.76000 432.804
48.77000 429.575
48.78000 424.850
48.79000 420.340
48.80000 419.270
48.81000 419.376
48.82000 419.345
48.83000 418.144
48.84000 416.673
48.85000 414.718
48.86000 410.188
48.87000 405.280
48.88000 401.396
48.89000 405.660
48.90000 409.650
48.91000 411.707
48.92000 409.213
48.93000 406.529
48.94000 404.136
48.95000 402.206
48.96000 400.281
48.97000 399.302
48.98000 397.567
48.99000 396.383
49.00000 393.073
49.01000 388.333
49.02000 383.584
49.03000 378.580
49.04000 373.461
49.05000 368.632
49.06000 370.905
49.07000 374.973
49.08000 378.458
49.09000 377.669
49.10000 376.017
49.11000 374.162
49.12000 371.359
49.13000 368.435
49.14000 366.190
49.15000 365.092
49.16000 364.288
49.17000 362.376
49.18000 358.151
49.19000 353.853
49.20000 352.265
49.21000 354.468
49.22000 356.696
49.23000 352.478
49.24000 342.457
49.25000 332.634
49.26000 335.217
49.27000 345.159
49.28000 354.698
49.29000 355.743
49.30000 353.389
49.31000 351.197
49.32000 351.049
49.33000 351.412
49.34000 352.028
49.35000 354.248
49.36000 356.750
49.37000 357.594
49.38000 351.659
49.39000 344.997
49.40000 340.044
49.41000 340.846
49.42000 341.726
49.43000 339.944
49.44000 333.237
49.45000 326.420
49.46000 323.377
49.47000 324.973
49.48000 326.579
49.49000 331.229
49.50000 338.250
49.51000 345.104
49.52000 345.084
49.53000 341.454
49.54000 337.688
49.55000 331.658
49.56000 324.825
49.57000 318.557
49.58000 321.443
49.59000 325.952
49.60000 329.211
49.61000 325.581
49.62000 320.899
49.63000 317.826
49.64000 320.557
49.65000 323.811
49.66000 326.146
49.67000 319.927
49.68000 314.880
49.69000 312.098
49.70000 313.029
49.71000 314.014
49.72000 312.708
49.73000 308.941
49.74000 305.191
49.75000 303.326
49.76000 302.776
49.77000 302.289
49.78000 303.681
49.79000 305.948
49.80000 308.239
49.81000 310.862
49.82000 313.590
49.83000 316.052
49.84000 317.604
49.85000 318.801
49.86000 319.039
49.87000 314.658
49.88000 309.669
49.89000 306.652
49.90000 309.923
49.91000 313.663
49.92000 316.244
49.93000 312.401
49.94000 309.349
49.95000 305.654
49.96000 301.030
49.97000 296.399
49.98000 293.048
49.99000 290.893
50.00000 288.757
50.01000 288.774
50.02000 290.084
50.03000 291.275
50.04000 289.770
50.05000 287.153
50.06000 284.681
50.07000 283.832
50.08000 283.435
50.09000 283.084
50.10000 285.202
50.11000 287.425
50.12000 289.429
50.13000 290.501
50.14000 291.470
50.15000 291.150
50.16000 287.189
50.17000 283.006
50.18000 280.238
50.19000 281.455
50.20000 282.425
50.21000 283.546
50.22000 284.858
50.23000 286.161
50.24000 283.271
50.25000 276.955
50.26000 270.728
50.27000 271.215
50.28000 275.223
50.29000 278.956
50.30000 277.845
50.31000 274.959
50.32000 272.498
50.33000 274.016
50.34000 276.510
50.35000 278.677
50.36000 285.395
50.37000 291.738
50.38000 295.967
50.39000 292.313
50.40000 287.915
50.41000 285.632
50.42000 288.651
50.43000 291.924
50.44000 293.993
50.45000 293.309
50.46000 292.780
50.47000 289.055
50.48000 281.771
50.49000 274.529
50.50000 274.096
50.51000 278.548
50.52000 282.908
50.53000 280.022
50.54000 273.901
50.55000 268.119
50.56000 267.149
50.57000 267.741
50.58000 268.184
50.59000 267.438
50.60000 266.434
50.61000 265.581
50.62000 270.063
50.63000 274.438
50.64000 277.155
50.65000 274.415
50.66000 271.246
50.67000 268.683
50.68000 267.467
50.69000 266.300
50.70000 265.599
50.71000 274.948
50.72000 281.665
50.73000 282.483
50.74000 277.583
50.75000 272.711
50.76000 269.954
50.77000 268.536
50.78000 267.158
50.79000 275.466
50.80000 287.281
50.81000 297.608
50.82000 290.542
50.83000 278.478
50.84000 268.276
50.85000 270.814
50.86000 275.759
50.87000 279.863
50.88000 277.675
50.89000 275.258
50.90000 274.540
50.91000 278.776
50.92000 283.330
50.93000 286.794
50.94000 288.106
50.95000 289.361
50.96000 290.075
50.97000 279.778
50.98000 272.572
50.99000 269.587
51.00000 270.171
51.01000 270.702
51.02000 268.581
51.03000 264.975
51.04000 261.504
51.05000 261.881
51.06000 263.601
51.07000 265.272
51.08000 266.468
51.09000 267.543
51.10000 267.416
51.11000 260.174
51.12000 251.762
51.13000 244.958
51.14000 247.991
51.15000 251.251
51.16000 253.417
51.17000 252.750
51.18000 251.939
51.19000 253.090
51.20000 257.668
51.21000 262.308
51.22000 264.795
51.23000 253.859
51.24000 246.412
51.25000 244.217
51.26000 245.920
51.27000 247.636
51.28000 249.831
51.29000 252.262
51.30000 254.577
51.31000 256.922
51.32000 259.103
51.33000 260.662
51.34000 257.059
51.35000 252.303
51.36000 247.768
51.37000 244.378
51.38000 241.150
51.39000 238.611
51.40000 235.853
51.41000 233.630
51.42000 232.485
51.43000 233.813
51.44000 235.239
51.45000 236.687
51.46000 238.168
51.47000 239.650
51.48000 240.393
51.49000 237.712
51.50000 235.948
51.51000 236.478
51.52000 238.507
51.53000 240.553
51.54000 243.015
51.55000 245.661
51.56000 248.151
51.57000 249.580
51.58000 250.598
51.59000 250.517
51.60000 242.622
51.61000 233.199
51.62000 225.288
51.63000 224.222
51.64000 223.991
51.65000 223.815
51.66000 232.029
51.67000 238.947
51.68000 241.296
51.69000 234.348
51.70000 227.129
51.71000 225.443
51.72000 231.288
51.73000 237.172
51.74000 235.603
51.75000 227.520
51.76000 219.678
51.77000 225.339
51.78000 238.802
51.79000 251.456
51.80000 247.997
51.81000 238.253
51.82000 229.210
51.83000 233.466
51.84000 240.444
51.85000 245.903
51.86000 242.034
51.87000 236.573
51.88000 231.424
51.89000 227.519
51.90000 223.742
51.91000 220.955
51.92000 225.051
51.93000 228.514
51.94000 230.920
51.95000 231.422
51.96000 231.885
51.97000 232.871
51.98000 234.482
51.99000 236.090
52.00000 233.868
52.01000 228.739
52.02000 223.754
52.03000 224.291
52.04000 227.653
52.05000 230.797
52.06000 230.480
52.07000 228.964
52.08000 227.579
52.09000 228.446
52.10000 229.679
52.11000 230.274
52.12000 227.464
52.13000 224.151
52.14000 222.169
52.15000 224.859
52.16000 227.955
52.17000 230.158
52.18000 218.664
52.19000 209.467
52.20000 206.199
52.21000 212.387
52.22000 218.698
52.23000 218.569
52.24000 211.727
52.25000 204.921
52.26000 205.408
52.27000 210.749
52.28000 216.022
52.29000 219.354
52.30000 221.806
52.31000 224.113
52.32000 224.544
52.33000 224.400
52.34000 224.271
52.35000 219.079
52.36000 213.634
52.37000 209.649
52.38000 212.490
52.39000 216.199
52.40000 218.932
52.41000 218.637
52.42000 218.124
52.43000 217.774
52.44000 219.633
52.45000 221.077
52.46000 217.882
52.47000 208.164
52.48000 198.406
52.49000 198.433
52.50000 207.336
52.51000 216.152
52.52000 220.157
52.53000 221.268
52.54000 222.179
52.55000 218.852
52.56000 213.818
52.57000 208.934
52.58000 205.648
52.59000 202.795
52.60000 200.277
52.61000 200.195
52.62000 200.497
52.63000 201.367
52.64000 204.576
52.65000 208.037
52.66000 209.598
52.67000 205.923
52.68000 201.946
52.69000 199.339
52.70000 207.477
52.71000 213.639
52.72000 217.665
52.73000 219.051
52.74000 220.411
52.75000 215.894
52.76000 206.713
52.77000 197.672
52.78000 201.987
52.79000 213.006
52.80000 223.650
52.81000 228.014
52.82000 230.137
52.83000 231.770
52.84000 228.976
52.85000 225.125
52.86000 221.796
52.87000 211.908
52.88000 202.651
52.89000 196.053
52.90000 199.101
52.91000 203.026
52.92000 206.760
52.93000 210.028
52.94000 213.276
52.95000 215.307
52.96000 204.701
52.97000 196.912
52.98000 196.649
52.99000 204.520
53.00000 212.349
53.01000 214.514
53.02000 212.725
53.03000 210.976
53.04000 208.571
53.05000 205.970
53.06000 203.442
53.07000 201.913
53.08000 200.700
53.09000 200.053
53.10000 203.755
53.11000 208.369
53.12000 212.272
53.13000 211.195
53.14000 209.742
53.15000 208.402
53.16000 207.423
53.17000 206.472
53.18000 204.067
53.19000 198.515
53.20000 192.854
53.21000 189.489
53.22000 195.526
53.23000 199.856
53.24000 204.207
53.25000 208.578
53.26000 212.892
53.27000 213.138
53.28000 210.880
53.29000 208.689
53.30000 206.272
53.31000 203.892
53.32000 201.477
53.33000 198.667
53.34000 195.747
53.35000 193.236
53.36000 193.430
53.37000 194.120
53.38000 194.690
53.39000 193.131
53.40000 191.648
53.41000 191.131
53.42000 193.360
53.43000 195.756
53.44000 198.246
53.45000 200.916
53.46000 203.590
53.47000 205.093
53.48000 200.446
53.49000 197.214
53.50000 197.801
53.51000 201.525
53.52000 205.140
53.53000 203.685
53.54000 199.468
53.55000 195.418
53.56000 196.598
53.57000 199.506
53.58000 202.278
53.59000 203.769
53.60000 204.943
53.61000 205.688
53.62000 203.969
53.63000 201.857
53.64000 200.159
53.65000 196.452
53.66000 193.291
53.67000 191.388
53.68000 192.651
53.69000 194.068
53.70000 192.669
53.71000 186.481
53.72000 180.213
53.73000 176.901
53.74000 186.473
53.75000 192.951
53.76000 194.723
53.77000 193.099
53.78000 191.495
53.79000 190.558
53.80000 189.942
53.81000 189.357
53.82000 191.811
53.83000 194.995
53.84000 197.874
53.85000 198.306
53.86000 198.207
53.87000 197.767
53.88000 195.617
53.89000 193.232
53.90000 191.369
53.91000 192.388
53.92000 193.383
53.93000 193.078
53.94000 189.864
53.95000 186.543
53.96000 185.263
53.97000 187.049
53.98000 188.865
53.99000 189.076
54.00000 187.721
54.01000 186.389
54.02000 186.882
54.03000 188.536
54.04000 190.188
54.05000 191.805
54.06000 193.407
54.07000 194.909
54.08000 189.970
54.09000 183.774
54.10000 178.810
54.11000 182.327
54.12000 187.455
54.13000 191.601
54.14000 191.426
54.15000 190.742
54.16000 190.224
54.17000 194.156
54.18000 197.469
54.19000 197.697
54.20000 191.808
54.21000 185.753
54.22000 184.880
54.23000 190.865
54.24000 196.876
54.25000 197.134
54.26000 192.509
54.27000 188.002
54.28000 189.545
54.29000 194.492
54.30000 198.930
54.31000 193.759
54.32000 184.937
54.33000 176.774
54.34000 178.346
54.35000 181.989
54.36000 185.236
54.37000 186.128
54.38000 186.629
54.39000 186.714
54.40000 185.186
54.41000 183.496
54.42000 182.259
54.43000 187.608
54.44000 191.999
54.45000 193.506
54.46000 189.949
54.47000 186.297
54.48000 185.023
54.49000 186.505
54.50000 187.987
54.51000 188.544
54.52000 188.412
54.53000 188.221
54.54000 185.923
54.55000 182.574
54.56000 179.288
54.57000 176.936
54.58000 174.900
54.59000 173.044
54.60000 181.955
54.61000 191.987
54.62000 199.934
54.63000 197.057
54.64000 192.630
54.65000 189.005
54.66000 188.119
54.67000 187.461
54.68000 186.997
54.69000 186.643
54.70000 186.377
54.71000 187.738
54.72000 191.622
54.73000 195.536
54.74000 196.788
54.75000 195.349
54.76000 193.919
54.77000 193.511
54.78000 193.770
54.79000 193.939
54.80000 191.739
54.81000 188.492
54.82000 185.717
54.83000 188.796
54.84000 193.621
54.85000 197.941
54.86000 189.519
54.87000 179.980
54.88000 172.661
54.89000 175.435
54.90000 179.448
54.91000 182.501
54.92000 182.652
54.93000 182.605
54.94000 182.573
54.95000 185.271
54.96000 187.343
54.97000 188.631
54.98000 188.847
54.99000 189.055
55.00000 187.120
55.01000 183.297
55.02000 179.517
55.03000 179.965
55.04000 182.803
55.05000 185.383
55.06000 182.775
55.07000 178.133
55.08000 174.052
55.09000 175.763
55.10000 179.000
55.11000 181.844
55.12000 183.582
55.13000 184.914
55.14000 184.322
55.15000 176.036
55.16000 166.948
55.17000 161.523
55.18000 165.924
55.19000 170.864
55.20000 174.071
55.21000 173.163
55.22000 172.435
55.23000 174.542
55.24000 180.054
55.25000 185.550
55.26000 185.425
55.27000 180.963
55.28000 176.576
55.29000 179.237
55.30000 185.315
55.31000 190.887
55.32000 188.367
55.33000 183.034
55.34000 178.382
55.35000 179.668
55.36000 182.332
55.37000 184.626
55.38000 180.895
55.39000 176.977
55.40000 174.898
55.41000 179.311
55.42000 184.291
55.43000 187.854
55.44000 188.042
55.45000 188.086
55.46000 188.113
55.47000 178.814
55.48000 172.041
55.49000 167.974
55.50000 166.743
55.51000 165.542
55.52000 167.581
55.53000 171.821
55.54000 175.959
55.55000 176.412
55.56000 175.237
55.57000 173.996
55.58000 171.888
55.59000 169.512
55.60000 168.351
55.61000 176.232
55.62000 185.955
55.63000 194.136
55.64000 183.820
55.65000 173.244
55.66000 166.486
55.67000 171.652
55.68000 177.678
55.69000 180.498
55.70000 176.551
55.71000 172.387
55.72000 169.941
55.73000 173.219
55.74000 175.559
55.75000 175.163
55.76000 172.270
55.77000 169.410
55.78000 168.627
55.79000 169.090
55.80000 169.537
55.81000 171.992
55.82000 175.080
55.83000 178.215
55.84000 181.856
55.85000 185.636
55.86000 189.010
55.87000 189.786
55.88000 190.100
55.89000 190.357
55.90000 184.072
55.91000 178.327
55.92000 174.168
55.93000 174.400
55.94000 174.888
55.95000 174.516
55.96000 172.534
55.97000 170.515
55.98000 169.395
55.99000 167.152
56.00000 165.602
56.01000 164.675
56.02000 164.245
56.03000 163.860
56.04000 165.365
56.05000 167.874
56.06000 170.279
56.07000 174.602
56.08000 179.279
56.09000 183.169
56.10000 179.900
56.11000 174.914
56.12000 171.601
56.13000 177.617
56.14000 185.075
56.15000 191.035
56.16000 180.704
56.17000 171.151
56.18000 165.586
56.19000 169.813
56.20000 174.489
56.21000 176.209
56.22000 173.034
56.23000 169.786
56.24000 168.093
56.25000 170.163
56.26000 171.555
56.27000 171.803
56.28000 171.249
56.29000 170.750
56.30000 171.954
56.31000 173.958
56.32000 175.856
56.33000 172.792
56.34000 168.517
56.35000 164.888
56.36000 166.263
56.37000 168.694
56.38000 171.012
56.39000 172.787
56.40000 174.489
56.41000 175.810
56.42000 175.112
56.43000 174.435
56.44000 175.240
56.45000 179.274
56.46000 183.420
56.47000 182.416
56.48000 173.884
56.49000 165.287
56.50000 162.288
56.51000 164.580
56.52000 166.836
56.53000 166.395
56.54000 164.285
56.55000 162.206
56.56000 160.867
56.57000 159.837
56.58000 158.873
56.59000 162.979
56.60000 168.004
56.61000 171.845
56.62000 167.797
56.63000 162.294
56.64000 158.382
56.65000 161.268
56.66000 164.927
56.67000 167.678
56.68000 171.349
56.69000 174.265
56.70000 174.617
56.71000 170.017
56.72000 165.293
56.73000 163.947
56.74000 166.943
56.75000 169.952
56.76000 173.091
56.77000 176.327
56.78000 179.492
56.79000 179.371
56.80000 177.450
56.81000 175.392
56.82000 170.877
56.83000 165.453
56.84000 160.451
56.85000 162.262
56.86000 165.399
56.87000 168.410
56.88000 170.696
56.89000 172.865
56.90000 173.788
56.91000 170.013
56.92000 165.787
56.93000 162.717
56.94000 171.149
56.95000 178.067
56.96000 179.887
56.97000 172.990
56.98000 165.945
56.99000 161.297
57.00000 159.347
57.01000 157.406
57.02000 160.316
57.03000 166.687
57.04000 172.926
57.05000 174.769
57.06000 174.479
57.07000 173.922
57.08000 169.519
57.09000 163.855
57.10000 158.713
57.11000 162.759
57.12000 168.100
57.13000 171.908
57.14000 167.983
57.15000 162.988
57.16000 160.075
57.17000 164.097
57.18000 168.672
57.19000 171.874
57.20000 165.797
57.21000 160.939
57.22000 156.752
57.23000 153.577
57.24000 150.413
57.25000 152.493
57.26000 159.717
57.27000 166.889
57.28000 168.510
57.29000 166.612
57.30000 164.794
57.31000 164.959
57.32000 165.976
57.33000 166.731
57.34000 164.361
57.35000 161.085
57.36000 158.163
57.37000 162.021
57.38000 166.505
57.39000 169.348
57.40000 164.942
57.41000 159.676
57.42000 156.734
57.43000 160.640
57.44000 164.994
57.45000 167.919
57.46000 172.688
57.47000 176.269
57.48000 176.612
57.49000 172.649
57.50000 168.672
57.51000 168.530
57.52000 171.669
57.53000 174.771
57.54000 173.310
57.55000 169.370
57.56000 165.623
57.57000 165.560
57.58000 166.903
57.59000 167.956
57.60000 166.119
57.61000 163.542
57.62000 161.287
57.63000 161.319
57.64000 161.673
57.65000 161.946
57.66000 161.903
57.67000 161.827
57.68000 163.289
57.69000 168.768
57.70000 174.456
57.71000 178.111
57.72000 168.131
57.73000 160.663
57.74000 156.635
57.75000 156.621
57.76000 156.627
57.77000 159.496
57.78000 164.513
57.79000 169.439
57.80000 167.785
57.81000 163.010
57.82000 158.631
57.83000 160.303
57.84000 164.024
57.85000 166.971
57.86000 163.410
57.87000 158.380
57.88000 154.071
57.89000 156.490
57.90000 159.351
57.91000 161.076
57.92000 158.899
57.93000 156.395
57.94000 155.292
57.95000 157.436
57.96000 159.711
57.97000 161.104
57.98000 156.986
57.99000 153.991
58.00000 154.280
58.01000 157.910
58.02000 161.497
58.03000 160.904
58.04000 157.551
58.05000 154.283
58.06000 156.637
58.07000 161.265
58.08000 165.572
58.09000 165.870
58.10000 164.967
58.11000 164.286
58.12000 165.204
58.13000 166.439
58.14000 167.472
58.15000 159.329
58.16000 151.618
58.17000 147.118
58.18000 152.386
58.19000 158.327
58.20000 162.436
58.21000 162.779
58.22000 163.009
58.23000 163.142
58.24000 164.398
58.25000 165.284
58.26000 166.472
58.27000 167.926
58.28000 169.321
58.29000 167.325
58.30000 163.348
58.31000 159.507
58.32000 160.263
58.33000 162.683
58.34000 164.599
58.35000 161.292
58.36000 156.601
58.37000 153.271
58.38000 158.405
58.39000 164.999
58.40000 170.383
58.41000 164.043
58.42000 157.850
58.43000 153.049
58.44000 152.004
58.45000 151.168
58.46000 151.036
58.47000 152.187
58.48000 153.365
58.49000 154.010
58.50000 156.496
58.51000 158.201
58.52000 157.902
58.53000 156.050
58.54000 154.301
58.55000 156.610
58.56000 161.015
58.57000 165.226
58.58000 162.281
58.59000 157.213
58.60000 152.270
58.61000 148.429
58.62000 144.844
58.63000 142.243
58.64000 144.962
58.65000 148.477
58.66000 151.269
58.67000 153.971
58.68000 156.140
58.69000 157.368
58.70000 156.344
58.71000 155.222
58.72000 154.803
58.73000 155.517
58.74000 156.246
58.75000 156.620
58.76000 151.749
58.77000 148.499
58.78000 148.351
58.79000 150.319
58.80000 152.241
58.81000 152.836
58.82000 152.822
58.83000 152.809
58.84000 152.190
58.85000 151.450
58.86000 151.110
58.87000 153.776
58.88000 157.057
58.89000 160.462
58.90000 164.452
58.91000 168.517
58.92000 171.652
58.93000 166.227
58.94000 161.436
58.95000 156.937
58.96000 153.056
58.97000 149.196
58.98000 149.253
58.99000 154.880
59.00000 160.546
59.01000 161.347
59.02000 157.683
59.03000 154.097
59.04000 155.621
59.05000 160.225
59.06000 164.490
59.07000 161.407
59.08000 155.337
59.09000 149.676
59.10000 149.375
59.11000 150.431
59.12000 151.616
59.13000 153.629
59.14000 155.790
59.15000 157.296
59.16000 156.082
59.17000 154.568
59.18000 153.439
59.19000 148.701
59.20000 144.844
59.21000 144.306
59.22000 150.013
59.23000 155.865
59.24000 158.568
59.25000 157.336
59.26000 156.095
59.27000 156.295
59.28000 157.648
59.29000 158.942
59.30000 157.697
59.31000 155.097
59.32000 152.826
59.33000 156.171
59.34000 161.541
59.35000 166.477
59.36000 161.526
59.37000 154.975
59.38000 149.549
59.39000 150.429
59.40000 152.290
59.41000 154.409
59.42000 157.474
59.43000 160.628
59.44000 162.900
59.45000 159.026
59.46000 155.839
59.47000 154.224
59.48000 155.226
59.49000 156.268
59.50000 154.961
59.51000 151.086
59.52000 147.226
59.53000 145.855
59.54000 146.235
59.55000 146.646
59.56000 147.986
59.57000 149.767
59.58000 151.361
59.59000 150.386
59.60000 148.590
59.61000 146.966
59.62000 146.877
59.63000 147.085
59.64000 147.058
59.65000 145.882
59.66000 144.552
59.67000 144.180
59.68000 146.917
59.69000 149.892
59.70000 151.956
59.71000 154.402
59.72000 156.255
59.73000 156.744
59.74000 155.229
59.75000 153.696
59.76000 152.360
59.77000 151.211
59.78000 150.071
59.79000 146.931
59.80000 142.624
59.81000 138.660
59.82000 142.628
59.83000 149.924
59.84000 156.826
59.85000 159.231
59.86000 160.365
59.87000 161.372
59.88000 157.864
59.89000 154.095
59.90000 151.100
59.91000 151.428
59.92000 152.136
59.93000 152.418
59.94000 151.475
59.95000 150.456
59.96000 149.777
59.97000 148.565
59.98000 147.658
59.99000 150.182
60.00000 157.142
60.01000 164.105
60.02000 164.196
60.03000 158.579
60.04000 153.035
60.05000 150.212
60.06000 148.922
60.07000 147.683
60.08000 147.350
60.09000 147.354
60.10000 147.526
60.11000 149.305
60.12000 151.486
60.13000 153.385
60.14000 151.862
60.15000 150.090
60.16000 148.083
60.17000 145.187
60.18000 142.206
60.19000 140.788
60.20000 143.352
60.21000 146.112
60.22000 147.867
60.23000 153.838
60.24000 158.229
60.25000 160.304
60.26000 159.756
60.27000 159.186
60.28000 155.519
60.29000 149.592
60.30000 143.782
60.31000 146.075
60.32000 152.089
60.33000 157.493
60.34000 154.005
60.35000 147.586
60.36000 141.641
60.37000 139.547
60.38000 138.298
60.39000 137.234
60.40000 139.337
60.41000 141.478
60.42000 143.550
60.43000 145.392
60.44000 147.214
60.45000 149.272
60.46000 151.862
60.47000 154.472
60.48000 156.052
60.49000 146.811
60.50000 140.142
60.51000 139.449
60.52000 144.649
60.53000 149.779
60.54000 148.803
60.55000 143.901
60.56000 139.133
60.57000 140.803
60.58000 145.043
60.59000 149.209
60.60000 152.493
60.61000 155.519
60.62000 158.155
60.63000 158.068
60.64000 157.457
60.65000 156.949
60.66000 154.535
60.67000 152.347
60.68000 150.720
60.69000 150.755
60.70000 150.898
60.71000 150.773
60.72000 150.109
60.73000 149.429
60.74000 149.040
60.75000 147.737
60.76000 146.823
60.77000 145.918
60.78000 145.020
60.79000 144.145
60.80000 144.447
60.81000 145.419
60.82000 146.355
60.83000 147.304
60.84000 148.200
60.85000 148.973
60.86000 148.517
60.87000 147.743
60.88000 146.620
60.89000 143.391
60.90000 139.810
60.91000 136.904
60.92000 143.951
60.93000 150.518
60.94000 154.245
60.95000 150.510
60.96000 146.381
60.97000 143.938
60.98000 144.482
60.99000 145.085
61.00000 145.410
61.01000 147.593
61.02000 149.079
61.03000 148.418
61.04000 146.138
61.05000 143.919
61.06000 143.944
61.07000 145.097
61.08000 146.198
61.09000 143.118
61.10000 138.940
61.11000 135.388
61.12000 137.136
61.13000 140.087
61.14000 143.036
61.15000 145.977
61.16000 148.916
61.17000 151.236
61.18000 146.083
61.19000 141.441
61.20000 138.449
61.21000 139.302
61.22000 140.311
61.23000 142.611
61.24000 146.933
61.25000 151.279
61.26000 153.477
61.27000 144.399
61.28000 138.410
61.29000 141.223
61.30000 149.880
61.31000 157.972
61.32000 150.927
61.33000 137.124
61.34000 124.115
61.35000 127.469
61.36000 135.055
61.37000 142.088
61.38000 145.104
61.39000 147.322
61.40000 148.669
61.41000 146.016
61.42000 142.865
61.43000 140.452
61.44000 139.763
61.45000 139.314
61.46000 139.383
61.47000 140.520
61.48000 141.690
61.49000 144.037
61.50000 148.011
61.51000 151.995
61.52000 150.848
61.53000 145.136
61.54000 139.517
61.55000 139.429
61.56000 142.586
61.57000 145.505
61.58000 143.538
61.59000 139.637
61.60000 136.010
61.61000 135.637
61.62000 136.082
61.63000 136.509
61.64000 136.822
61.65000 137.115
61.66000 137.426
61.67000 137.812
61.68000 138.206
61.69000 138.498
61.70000 140.817
61.71000 142.707
61.72000 143.303
61.73000 141.531
61.74000 139.709
61.75000 139.121
61.76000 140.031
61.77000 140.942
61.78000 140.129
61.79000 137.983
61.80000 135.948
61.81000 138.354
61.82000 143.067
61.83000 147.602
61.84000 149.237
61.85000 149.854
61.86000 150.419
61.87000 147.010
61.88000 143.146
61.89000 139.952
61.90000 140.408
61.91000 141.413
61.92000 142.564
61.93000 144.231
61.94000 145.944
61.95000 147.169
61.96000 146.668
61.97000 146.228
61.98000 146.383
61.99000 147.504
62.00000 148.638
62.01000 148.878
62.02000 148.169
62.03000 147.463
62.04000 147.013
62.05000 146.742
62.06000 146.306
62.07000 141.089
62.08000 133.670
62.09000 126.810
62.10000 127.338
62.11000 130.167
62.12000 132.714
62.13000 137.054
62.14000 141.186
62.15000 145.065
62.16000 147.742
62.17000 150.264
62.18000 151.238
62.19000 147.324
62.20000 143.053
62.21000 140.115
62.22000 138.223
62.23000 136.829
62.24000 135.647
62.25000 134.767
62.26000 133.890
62.27000 135.731
62.28000 140.081
62.29000 144.391
62.30000 145.861
62.31000 145.617
62.32000 145.263
62.33000 142.529
62.34000 138.823
62.35000 135.712
62.36000 139.133
62.37000 144.352
62.38000 148.968
62.39000 146.275
62.40000 142.810
62.41000 139.116
62.42000 134.472
62.43000 129.723
62.44000 127.084
62.45000 130.350
62.46000 133.966
62.47000 136.350
62.48000 139.080
62.49000 141.098
62.50000 140.985
62.51000 138.194
62.52000 135.399
62.53000 134.146
62.54000 134.137
62.55000 134.128
62.56000 138.502
62.57000 145.030
62.58000 151.023
62.59000 147.800
62.60000 141.237
62.61000 135.186
62.62000 133.865
62.63000 133.691
62.64000 133.541
62.65000 135.173
62.66000 136.800
62.67000 137.720
62.68000 136.036
62.69000 134.109
62.70000 133.244
62.71000 135.010
62.72000 136.899
62.73000 138.089
62.74000 133.062
62.75000 129.355
62.76000 131.289
62.77000 139.428
62.78000 147.502
62.79000 145.908
62.80000 137.456
62.81000 129.184
62.82000 129.212
62.83000 133.028
62.84000 136.569
62.85000 136.264
62.86000 134.725
62.87000 133.680
62.88000 136.515
62.89000 140.177
62.90000 143.283
62.91000 137.928
62.92000 132.481
62.93000 129.078
62.94000 132.336
62.95000 136.108
62.96000 139.341
62.97000 141.389
62.98000 143.394
62.99000 144.594
63.00000 135.220
63.01000 128.498
63.02000 129.162
63.03000 136.895
63.04000 144.558
63.05000 146.908
63.06000 145.932
63.07000 144.985
63.08000 142.011
63.09000 138.377
63.10000 134.969
63.11000 134.163
63.12000 134.096
63.13000 133.906
63.14000 132.880
63.15000 131.698
63.16000 130.719
63.17000 130.269
63.18000 129.948
63.19000 131.176
63.20000 136.875
63.21000 142.854
63.22000 146.106
63.23000 144.037
63.24000 141.829
63.25000 140.580
63.26000 134.822
63.27000 130.810
63.28000 130.127
63.29000 132.224
63.30000 134.306
63.31000 135.676
63.32000 136.653
63.33000 137.591
63.34000 139.704
63.35000 142.096
63.36000 144.145
63.37000 142.887
63.38000 140.799
63.39000 138.849
63.40000 137.704
63.41000 136.689
63.42000 135.870
63.43000 135.027
63.44000 134.340
63.45000 132.388
63.46000 127.202
63.47000 121.855
63.48000 120.660
63.49000 126.640
63.50000 132.745
63.51000 135.999
63.52000 136.108
63.53000 136.192
63.54000 138.444
63.55000 142.285
63.56000 145.966
63.57000 144.180
63.58000 139.714
63.59000 135.465
63.60000 132.341
63.61000 129.795
63.62000 127.712
63.63000 129.412
63.64000 131.945
63.65000 134.091
63.66000 134.260
63.67000 134.150
63.68000 134.064
63.69000 136.346
63.70000 138.323
63.71000 139.277
63.72000 137.904
63.73000 136.442
63.74000 135.351
63.75000 134.825
63.76000 134.306
63.77000 134.163
63.78000 134.392
63.79000 134.633
63.80000 135.881
63.81000 137.780
63.82000 139.593
63.83000 139.220
63.84000 137.897
63.85000 136.654
63.86000 138.369
63.87000 140.727
63.88000 142.480
63.89000 139.990
63.90000 136.680
63.91000 134.158
63.92000 135.159
63.93000 136.584
63.94000 137.668
63.95000 133.934
63.96000 130.745
63.97000 130.288
63.98000 135.333
63.99000 140.534
64.00000 141.733
64.01000 137.548
64.02000 133.338
64.03000 135.043
64.04000 141.852
64.05000 148.515
64.06000 147.298
64.07000 141.578
64.08000 136.052
64.09000 134.324
64.10000 134.060
64.11000 133.816
64.12000 133.242
64.13000 132.649
64.14000 132.132
64.15000 132.070
64.16000 132.085
64.17000 132.647
64.18000 135.364
64.19000 138.300
64.20000 140.459
64.21000 141.207
64.22000 141.728
64.23000 140.081
64.24000 134.569
64.25000 128.980
64.26000 129.310
64.27000 136.624
64.28000 143.930
64.29000 144.050
64.30000 138.755
64.31000 133.502
64.32000 129.820
64.33000 126.934
64.34000 124.391
64.35000 127.177
64.36000 131.786
64.37000 135.993
64.38000 137.907
64.39000 139.141
64.40000 140.024
64.41000 139.062
64.42000 137.830
64.43000 136.755
64.44000 136.225
64.45000 135.741
64.46000 135.398
64.47000 135.684
64.48000 135.921
64.49000 136.776
64.50000 138.605
64.51000 140.446
64.52000 141.081
64.53000 140.475
64.54000 139.872
64.55000 141.144
64.56000 143.634
64.57000 146.120
64.58000 148.478
64.59000 150.779
64.60000 152.985
64.61000 153.979
64.62000 154.607
64.63000 155.170
64.64000 153.651
64.65000 151.959
64.66000 151.131
64.67000 154.303
64.68000 157.977
64.69000 159.910
64.70000 156.498
64.71000 152.710
64.72000 150.128
64.73000 144.698
64.74000 140.574
64.75000 140.121
64.76000 144.772
64.77000 149.452
64.78000 148.927
64.79000 143.737
64.80000 138.600
64.81000 137.108
64.82000 137.753
64.83000 138.229
64.84000 135.214
64.85000 130.809
64.86000 126.873
64.87000 127.878
64.88000 130.207
64.89000 132.258
64.90000 132.345
64.91000 132.125
64.92000 131.686
64.93000 130.359
64.94000 128.937
64.95000 128.055
64.96000 128.639
64.97000 129.307
64.98000 129.742
64.99000 135.457
65.00000 139.737
65.01000 140.016
65.02000 135.410
65.03000 130.801
65.04000 128.655
65.05000 128.443
65.06000 128.233
65.07000 126.505
65.08000 124.061
65.09000 121.852
65.10000 123.483
65.11000 126.470
65.12000 129.512
65.13000 133.045
65.14000 136.694
65.15000 139.844
65.16000 137.707
65.17000 135.213
65.18000 132.270
65.19000 127.715
65.20000 123.015
65.21000 122.324
65.22000 131.320
65.23000 140.745
65.24000 146.615
65.25000 139.761
65.26000 134.692
65.27000 129.802
65.28000 125.103
65.29000 120.449
65.30000 121.401
65.31000 126.221
65.32000 130.931
65.33000 130.196
65.34000 127.077
65.35000 124.096
65.36000 122.968
65.37000 122.419
65.38000 122.187
65.39000 124.363
65.40000 127.037
65.41000 129.294
65.42000 125.030
65.43000 120.756
65.44000 118.115
65.45000 120.658
65.46000 123.585
65.47000 126.137
65.48000 127.885
65.49000 129.607
65.50000 130.626
65.51000 127.646
65.52000 125.517
65.53000 123.527
65.54000 121.665
65.55000 119.851
65.56000 121.297
65.57000 124.727
65.58000 128.052
65.59000 129.366
65.60000 129.828
65.61000 130.051
65.62000 127.632
65.63000 124.483
65.64000 122.131
65.65000 124.998
65.66000 128.810
65.67000 131.949
65.68000 128.711
65.69000 125.464
65.70000 123.518
65.71000 125.228
65.72000 127.158
65.73000 128.851
65.74000 130.094
65.75000 131.327
65.76000 132.016
65.77000 133.068
65.78000 133.794
65.79000 133.320
65.80000 131.874
65.81000 130.442
65.82000 129.692
65.83000 129.309
65.84000 128.942
65.85000 128.477
65.86000 128.008
65.87000 127.457
65.88000 126.133
65.89000 124.621
65.90000 123.627
65.91000 125.569
65.92000 127.974
65.93000 129.902
65.94000 123.986
65.95000 118.601
65.96000 116.617
65.97000 123.110
65.98000 130.004
65.99000 133.282
66.00000 130.477
66.01000 127.575
66.02000 126.050
66.03000 122.368
66.04000 119.906
66.05000 122.463
66.06000 128.600
66.07000 134.579
66.08000 135.520
66.09000 134.055
66.10000 132.665
66.11000 130.052
66.12000 127.278
66.13000 124.855
66.14000 125.204
66.15000 126.148
66.16000 127.261
66.17000 129.214
66.18000 131.281
66.19000 132.891
66.20000 130.455
66.21000 128.263
66.22000 126.807
66.23000 126.980
66.24000 127.212
66.25000 127.373
66.26000 127.429
66.27000 127.483
66.28000 125.388
66.29000 121.223
66.30000 117.149
66.31000 120.199
66.32000 127.732
66.33000 134.958
66.34000 134.920
66.35000 131.804
66.36000 128.884
66.37000 131.781
66.38000 135.930
66.39000 139.098
66.40000 135.600
66.41000 130.850
66.42000 126.398
66.43000 123.242
66.44000 120.237
66.45000 117.967
66.46000 127.582
66.47000 135.708
66.48000 139.896
66.49000 136.363
66.50000 132.625
66.51000 131.977
66.52000 135.370
66.53000 138.776
66.54000 138.348
66.55000 134.707
66.56000 131.089
66.57000 128.575
66.58000 126.676
66.59000 124.668
66.60000 120.630
66.61000 115.829
66.62000 111.393
66.63000 119.412
66.64000 129.426
66.65000 137.375
66.66000 133.179
66.67000 127.000
66.68000 122.356
66.69000 123.593
66.70000 125.408
66.71000 126.732
66.72000 125.808
66.73000 125.008
66.74000 126.103
66.75000 130.486
66.76000 134.929
66.77000 132.715
66.78000 122.871
66.79000 113.051
66.80000 112.832
66.81000 119.641
66.82000 126.226
66.83000 125.142
66.84000 120.278
66.85000 116.107
66.86000 122.240
66.87000 131.805
66.88000 140.505
66.89000 136.029
66.90000 129.484
66.91000 123.737
66.92000 122.087
66.93000 121.015
66.94000 120.672
66.95000 122.791
66.96000 125.112
66.97000 126.744
66.98000 124.724
66.99000 123.086
67.00000 123.430
67.01000 126.818
67.02000 130.238
67.03000 131.803
67.04000 131.515
67.05000 131.229
67.06000 130.551
67.07000 129.632
67.08000 128.719
67.09000 127.934
67.10000 127.205
67.11000 126.688
67.12000 128.743
67.13000 131.558
67.14000 134.075
67.15000 135.510
67.16000 136.578
67.17000 136.884
67.18000 133.764
67.19000 130.229
67.20000 128.055
67.21000 129.955
67.22000 132.128
67.23000 133.596
67.24000 130.303
67.25000 127.749
67.26000 125.908
67.27000 125.032
67.28000 124.163
67.29000 125.052
67.30000 127.472
67.31000 129.864
67.32000 131.107
67.33000 131.678
67.34000 132.230
67.35000 132.420
67.36000 132.470
67.37000 132.409
67.38000 131.223
67.39000 129.744
67.40000 128.448
67.41000 129.054
67.42000 129.852
67.43000 129.856
67.44000 126.722
67.45000 123.266
67.46000 120.355
67.47000 118.887
67.48000 117.496
67.49000 116.597
67.50000 122.620
67.51000 127.124
67.52000 129.978
67.53000 130.872
67.54000 131.747
67.55000 129.203
67.56000 124.051
67.57000 118.987
67.58000 118.749
67.59000 120.890
67.60000 123.046
67.61000 125.427
67.62000 127.886
67.63000 129.565
67.64000 124.551
67.65000 118.000
67.66000 112.373
67.67000 118.691
67.68000 125.518
67.69000 129.897
67.70000 125.731
67.71000 120.831
67.72000 117.362
67.73000 117.263
67.74000 117.304
67.75000 117.330
67.76000 116.683
67.77000 116.213
67.78000 117.008
67.79000 119.113
67.80000 121.208
67.81000 122.359
67.82000 122.875
67.83000 123.378
67.84000 120.114
67.85000 115.371
67.86000 111.301
67.87000 115.828
67.88000 122.974
67.89000 129.052
67.90000 127.287
67.91000 123.943
67.92000 121.135
67.93000 120.509
67.94000 120.216
67.95000 119.923
67.96000 119.629
67.97000 119.334
67.98000 119.477
67.99000 120.534
68.00000 121.620
68.01000 122.255
68.02000 118.553
68.03000 115.930
68.04000 118.150
68.05000 124.733
68.06000 131.232
68.07000 132.479
68.08000 130.612
68.09000 128.806
68.10000 130.099
68.11000 132.490
68.12000 134.330
68.13000 130.326
68.14000 124.749
68.15000 120.053
68.16000 120.942
68.17000 122.813
68.18000 124.345
68.19000 125.972
68.20000 127.315
68.21000 129.446
68.22000 133.733
68.23000 138.144
68.24000 138.916
68.25000 132.954
68.26000 126.844
68.27000 123.471
68.28000 126.152
68.29000 128.011
68.30000 130.127
68.31000 132.445
68.32000 134.713
68.33000 134.891
68.34000 133.973
68.35000 133.093
68.36000 133.461
68.37000 134.215
68.38000 134.686
68.39000 132.607
68.40000 129.924
68.41000 127.804
68.42000 128.784
68.43000 130.236
68.44000 131.394
68.45000 131.711
68.46000 131.905
68.47000 131.103
68.48000 127.879
68.49000 124.547
68.50000 122.910
68.51000 124.048
68.52000 125.227
68.53000 125.837
68.54000 133.349
68.55000 138.367
68.56000 137.119
68.57000 131.523
68.58000 126.138
68.59000 127.030
68.60000 130.844
68.61000 134.453
68.62000 133.791
68.63000 131.946
68.64000 129.788
68.65000 125.236
68.66000 120.184
68.67000 116.521
68.68000 119.541
68.69000 123.439
68.70000 126.456
68.71000 130.072
68.72000 132.978
68.73000 134.491
68.74000 133.001
68.75000 131.410
68.76000 132.358
68.77000 136.978
68.78000 141.626
68.79000 142.815
68.80000 140.773
68.81000 138.733
68.82000 136.825
68.83000 134.999
68.84000 133.160
68.85000 131.045
68.86000 128.816
68.87000 126.733
68.88000 129.982
68.89000 134.275
68.90000 139.357
68.91000 149.623
68.92000 160.833
68.93000 169.983
68.94000 170.427
68.95000 169.897
68.96000 169.499
68.97000 180.674
68.98000 189.948
68.99000 198.871
69.00000 207.123
69.01000 215.359
69.02000 222.345
69.03000 227.742
69.04000 233.127
69.05000 237.084
69.06000 239.867
69.07000 242.645
69.08000 245.194
69.09000 247.620
69.10000 249.778
69.11000 247.220
69.12000 242.935
69.13000 238.989
69.14000 240.712
69.15000 243.499
69.16000 244.715
69.17000 236.976
69.18000 227.818
69.19000 218.072
69.20000 206.135
69.21000 193.991
69.22000 185.197
69.23000 178.549
69.24000 173.522
69.25000 166.999
69.26000 157.945
69.27000 148.850
69.28000 142.792
69.29000 140.113
69.30000 137.448
69.31000 136.019
69.32000 135.483
69.33000 134.912
69.34000 133.241
69.35000 131.042
69.36000 129.042
69.37000 129.862
69.38000 131.598
69.39000 133.171
69.40000 133.627
69.41000 133.816
69.42000 134.243
69.43000 135.854
69.44000 137.625
69.45000 138.272
69.46000 135.215
69.47000 131.867
69.48000 129.533
69.49000 135.359
69.50000 139.983
69.51000 142.850
69.52000 143.096
69.53000 143.317
69.54000 146.589
69.55000 152.814
69.56000 158.992
69.57000 159.315
69.58000 155.992
69.59000 152.769
69.60000 151.966
69.61000 152.193
69.62000 152.498
69.63000 153.722
69.64000 155.210
69.65000 156.535
69.66000 154.599
69.67000 152.383
69.68000 150.296
69.69000 148.774
69.70000 147.317
69.71000 147.460
69.72000 152.264
69.73000 157.366
69.74000 160.781
69.75000 154.983
69.76000 150.500
69.77000 147.150
69.78000 145.291
69.79000 143.440
69.80000 141.902
69.81000 140.630
69.82000 139.374
69.83000 136.758
69.84000 133.469
69.85000 130.404
69.86000 131.511
69.87000 134.196
69.88000 136.399
69.89000 133.892
69.90000 130.191
69.91000 126.959
69.92000 129.154
69.93000 131.796
69.94000 133.522
69.95000 131.723
69.96000 129.574
69.97000 128.647
69.98000 130.877
69.99000 133.268
70.00000 134.798
