20.00000 931.044
20.01000 940.744
20.02000 951.830
20.03000 959.059
20.04000 951.265
20.05000 941.960
20.06000 935.135
20.07000 940.656
20.08000 945.419
20.09000 945.001
20.10000 935.428
20.11000 925.680
20.12000 924.487
20.13000 933.284
20.14000 942.072
20.15000 943.705
20.16000 939.991
20.17000 936.362
20.18000 935.786
20.19000 936.742
20.20000 937.451
20.21000 934.401
20.22000 930.078
20.23000 926.136
20.24000 930.590
20.25000 936.219
20.26000 940.743
20.27000 939.489
20.28000 937.403
20.29000 935.745
20.30000 935.561
20.31000 935.501
20.32000 935.459
20.33000 933.295
20.34000 931.587
20.35000 931.145
20.36000 932.682
20.37000 934.242
20.38000 932.551
20.39000 927.547
20.40000 922.574
20.41000 928.876
20.42000 942.441
20.43000 955.596
20.44000 957.841
20.45000 955.235
20.46000 952.297
20.47000 945.215
20.48000 936.889
20.49000 929.427
20.50000 933.799
20.51000 939.667
20.52000 940.180
20.53000 916.186
20.54000 889.159
20.55000 873.688
20.56000 893.406
20.57000 915.554
20.58000 930.603
20.59000 906.603
20.60000 887.811
20.61000 885.715
20.62000 906.609
20.63000 927.629
20.64000 930.256
20.65000 916.573
20.66000 903.035
20.67000 908.886
20.68000 925.680
20.69000 941.230
20.70000 931.442
20.71000 911.658
20.72000 893.449
20.73000 891.619
20.74000 894.133
20.75000 896.344
20.76000 888.974
20.77000 881.207
20.78000 875.987
20.79000 881.020
20.80000 887.130
20.81000 892.872
20.82000 897.619
20.83000 902.311
20.84000 905.364
20.85000 910.040
20.86000 913.492
20.87000 911.348
20.88000 902.435
20.89000 893.559
20.90000 897.763
20.91000 912.128
20.92000 926.258
20.93000 928.023
20.94000 923.540
20.95000 918.630
20.96000 906.808
20.97000 892.569
20.98000 879.575
20.99000 877.527
21.00000 878.037
21.01000 878.476
21.02000 889.008
21.03000 899.217
21.04000 907.545
21.05000 909.191
21.06000 910.248
21.07000 910.234
21.08000 907.658
21.09000 904.971
21.10000 903.304
21.11000 905.755
21.12000 907.558
21.13000 908.070
21.14000 907.219
21.15000 906.359
21.16000 904.641
21.17000 902.337
21.18000 900.086
21.19000 889.343
21.20000 875.332
21.21000 862.485
21.22000 864.952
21.23000 872.163
21.24000 879.315
21.25000 886.030
21.26000 892.655
21.27000 898.236
21.28000 904.275
21.29000 909.365
21.30000 910.659
21.31000 900.021
21.32000 888.514
21.33000 883.635
21.34000 892.832
21.35000 902.489
21.36000 908.179
21.37000 895.583
21.38000 886.601
21.39000 885.463
21.40000 891.532
21.41000 897.528
21.42000 898.734
21.43000 897.048
21.44000 895.415
21.45000 890.198
21.46000 883.883
21.47000 878.385
21.48000 881.772
21.49000 887.594
21.50000 892.461
21.51000 891.163
21.52000 888.759
21.53000 886.783
21.54000 898.090
21.55000 908.578
21.56000 911.752
21.57000 894.555
21.58000 876.158
21.59000 868.989
21.60000 882.957
21.61000 897.418
21.62000 905.467
21.63000 896.700
21.64000 890.626
21.65000 892.977
21.66000 902.099
21.67000 910.945
21.68000 907.795
21.69000 898.239
21.70000 889.076
21.71000 893.527
21.72000 902.272
21.73000 910.028
21.74000 908.720
21.75000 905.222
21.76000 902.804
21.77000 906.448
21.78000 911.035
21.79000 914.706
21.80000 898.559
21.81000 884.018
21.82000 874.269
21.83000 876.351
21.84000 878.983
21.85000 884.403
21.86000 894.468
21.87000 904.605
21.88000 909.904
21.89000 898.429
21.90000 890.614
21.91000 876.626
21.92000 858.279
21.93000 840.667
21.94000 845.851
21.95000 861.823
21.96000 876.968
21.97000 878.416
21.98000 875.714
21.99000 872.120
22.00000 861.569
22.01000 849.541
22.02000 842.601
22.03000 860.603
22.04000 881.952
22.05000 898.550
22.06000 892.965
22.07000 887.167
22.08000 883.967
22.09000 886.462
22.10000 889.157
22.11000 889.295
22.12000 885.671
22.13000 882.013
22.14000 880.076
22.15000 879.777
22.16000 879.471
22.17000 878.634
22.18000 877.465
22.19000 876.398
22.20000 877.688
22.21000 879.969
22.22000 882.103
22.23000 880.045
22.24000 877.095
22.25000 874.235
22.26000 871.976
22.27000 869.829
22.28000 867.584
22.29000 864.917
22.30000 862.200
22.31000 860.154
22.32000 869.752
22.33000 877.834
22.34000 884.491
22.35000 888.381
22.36000 892.200
22.37000 893.888
22.38000 892.819
22.39000 891.739
22.40000 884.852
22.41000 873.169
22.42000 861.699
22.43000 860.466
22.44000 864.874
22.45000 868.727
22.46000 862.494
22.47000 852.506
22.48000 843.287
22.49000 843.954
22.50000 846.764
22.51000 849.472
22.52000 851.582
22.53000 853.595
22.54000 854.818
22.55000 853.043
22.56000 850.978
22.57000 849.475
22.58000 861.456
22.59000 871.193
22.60000 874.338
22.61000 866.142
22.62000 857.749
22.63000 862.277
22.64000 881.460
22.65000 900.591
22.66000 903.195
22.67000 893.810
22.68000 884.817
22.69000 889.008
22.70000 899.637
22.71000 908.817
22.72000 896.829
22.73000 877.852
22.74000 860.613
22.75000 853.290
22.76000 848.745
22.77000 844.626
22.78000 842.667
22.79000 841.010
22.80000 840.009
22.81000 841.203
22.82000 842.574
22.83000 843.535
22.84000 844.871
22.85000 845.894
22.86000 845.832
22.87000 844.124
22.88000 842.399
22.89000 841.902
22.90000 842.616
22.91000 843.326
22.92000 847.773
22.93000 854.518
22.94000 860.735
22.95000 853.755
22.96000 841.058
22.97000 829.813
22.98000 835.992
22.99000 847.263
23.00000 857.324
23.01000 860.063
23.02000 861.222
23.03000 860.601
23.04000 852.063
23.05000 842.579
23.06000 836.428
23.07000 840.159
23.08000 844.543
23.09000 847.494
23.10000 844.452
23.11000 842.064
23.12000 844.186
23.13000 852.345
23.14000 860.518
23.15000 856.299
23.16000 841.408
23.17000 826.692
23.18000 823.083
23.19000 825.726
23.20000 828.497
23.21000 833.738
23.22000 839.929
23.23000 845.528
23.24000 845.206
23.25000 843.356
23.26000 841.736
23.27000 836.830
23.28000 832.151
23.29000 826.597
23.30000 817.622
23.31000 808.301
23.32000 804.418
23.33000 814.833
23.34000 826.004
23.35000 833.200
23.36000 822.802
23.37000 814.962
23.38000 817.625
23.39000 832.625
23.40000 847.600
23.41000 853.281
23.42000 851.944
23.43000 850.631
23.44000 843.508
23.45000 833.804
23.46000 824.337
23.47000 818.523
23.48000 813.953
23.49000 810.754
23.50000 819.171
23.51000 830.229
23.52000 839.711
23.53000 836.402
23.54000 832.038
23.55000 829.317
23.56000 832.277
23.57000 835.718
23.58000 838.077
23.59000 837.912
23.60000 837.644
23.61000 837.479
23.62000 834.553
23.63000 832.433
23.64000 830.785
23.65000 829.623
23.66000 828.428
23.67000 823.998
23.68000 817.416
23.69000 810.999
23.70000 813.451
23.71000 819.575
23.72000 825.744
23.73000 832.466
23.74000 839.356
23.75000 844.344
23.76000 835.538
23.77000 823.982
23.78000 814.297
23.79000 809.804
23.80000 806.606
23.81000 804.373
23.82000 805.095
23.83000 806.024
23.84000 805.647
23.85000 802.569
23.86000 799.409
23.87000 797.569
23.88000 800.793
23.89000 803.082
23.90000 804.949
23.91000 806.440
23.92000 807.802
23.93000 801.397
23.94000 790.430
23.95000 779.831
23.96000 786.924
23.97000 800.229
23.98000 811.422
23.99000 800.472
24.00000 783.618
24.01000 769.479
24.02000 772.352
24.03000 778.183
24.04000 782.949
24.05000 785.734
24.06000 787.843
24.07000 792.766
24.08000 805.320
24.09000 818.303
24.10000 821.944
24.11000 808.460
24.12000 794.609
24.13000 787.000
24.14000 774.644
24.15000 766.157
24.16000 764.760
24.17000 768.900
24.18000 773.184
24.19000 783.262
24.20000 796.354
24.21000 808.878
24.22000 802.357
24.23000 790.050
24.24000 779.088
24.25000 780.038
24.26000 783.786
24.27000 786.935
24.28000 786.817
24.29000 786.207
24.30000 785.721
24.31000 786.814
24.32000 787.808
24.33000 786.349
24.34000 778.989
24.35000 771.369
24.36000 768.002
24.37000 771.532
24.38000 775.159
24.39000 777.027
24.40000 765.762
24.41000 758.246
24.42000 759.199
24.43000 765.969
24.44000 772.203
24.45000 762.856
24.46000 746.326
24.47000 730.695
24.48000 735.394
24.49000 745.531
24.50000 754.756
24.51000 757.097
24.52000 758.017
24.53000 759.053
24.54000 760.644
24.55000 762.307
24.56000 763.591
24.57000 755.993
24.58000 749.452
24.59000 746.802
24.60000 752.460
24.61000 758.393
24.62000 764.136
24.63000 769.607
24.64000 775.076
24.65000 771.303
24.66000 758.994
24.67000 746.873
24.68000 747.411
24.69000 755.628
24.70000 763.688
24.71000 768.314
24.72000 771.536
24.73000 774.543
24.74000 768.745
24.75000 761.293
24.76000 753.694
24.77000 745.141
24.78000 736.417
24.79000 731.322
24.80000 741.412
24.81000 753.183
24.82000 761.986
24.83000 757.389
24.84000 753.182
24.85000 753.178
24.86000 761.127
24.87000 769.264
24.88000 772.201
24.89000 768.595
24.90000 764.973
24.91000 758.003
24.92000 748.364
24.93000 738.851
24.94000 734.846
24.95000 733.798
24.96000 732.724
24.97000 731.181
24.98000 729.469
24.99000 727.895
25.00000 731.407
25.01000 735.650
25.02000 739.440
25.03000 740.673
25.04000 741.507
25.05000 741.941
25.06000 740.902
25.07000 739.726
25.08000 738.877
25.09000 730.497
25.10000 723.800
25.11000 720.036
25.12000 721.184
25.13000 722.411
25.14000 723.679
25.15000 724.995
25.16000 726.306
25.17000 730.105
25.18000 735.618
25.19000 740.869
25.20000 737.917
25.21000 731.063
25.22000 724.705
25.23000 725.287
25.24000 728.100
25.25000 730.646
25.26000 734.332
25.27000 737.793
25.28000 740.910
25.29000 742.334
25.30000 743.529
25.31000 742.033
25.32000 731.762
25.33000 720.811
25.34000 713.198
25.35000 728.682
25.36000 740.978
25.37000 742.454
25.38000 727.927
25.39000 713.255
25.40000 707.649
25.41000 710.729
25.42000 713.785
25.43000 715.320
25.44000 715.891
25.45000 716.383
25.46000 714.989
25.47000 712.799
25.48000 710.296
25.49000 704.185
25.50000 697.048
25.51000 690.702
25.52000 696.723
25.53000 703.953
25.54000 710.774
25.55000 715.823
25.56000 720.669
25.57000 721.314
25.58000 709.827
25.59000 697.576
25.60000 689.404
25.61000 697.844
25.62000 704.416
25.63000 701.639
25.64000 686.692
25.65000 671.729
25.66000 674.519
25.67000 692.162
25.68000 709.576
25.69000 710.828
25.70000 703.332
25.71000 696.407
25.72000 699.957
25.73000 707.429
25.74000 713.666
25.75000 707.994
25.76000 699.331
25.77000 691.779
25.78000 699.447
25.79000 708.118
25.80000 713.631
25.81000 707.113
25.82000 699.421
25.83000 695.363
25.84000 700.609
25.85000 706.322
25.86000 709.965
25.87000 703.890
25.88000 699.348
25.89000 695.218
25.90000 691.560
25.91000 687.907
25.92000 685.129
25.93000 682.995
25.94000 680.901
25.95000 684.162
25.96000 689.835
25.97000 695.378
25.98000 698.994
25.99000 701.972
26.00000 703.326
26.01000 691.380
26.02000 676.496
26.03000 663.794
26.04000 674.757
26.05000 686.787
26.06000 695.772
26.07000 694.506
26.08000 692.407
26.09000 687.809
26.10000 677.533
26.11000 667.038
26.12000 660.668
26.13000 675.792
26.14000 686.749
26.15000 688.630
26.16000 681.494
26.17000 674.424
26.18000 673.120
26.19000 675.549
26.20000 677.912
26.21000 674.571
26.22000 669.025
26.23000 664.363
26.24000 670.383
26.25000 679.541
26.26000 686.048
26.27000 673.939
26.28000 658.227
26.29000 645.128
26.30000 641.374
26.31000 639.194
26.32000 641.570
26.33000 657.522
26.34000 674.379
26.35000 682.960
26.36000 674.864
26.37000 666.293
26.38000 661.364
26.39000 655.826
26.40000 651.955
26.41000 652.402
26.42000 656.589
26.43000 660.784
26.44000 665.445
26.45000 670.371
26.46000 675.122
26.47000 672.613
26.48000 667.615
26.49000 662.728
26.50000 658.965
26.51000 655.492
26.52000 652.403
26.53000 651.643
26.54000 651.276
26.55000 650.977
26.56000 653.509
26.57000 655.811
26.58000 657.096
26.59000 655.694
26.60000 654.149
26.61000 653.613
26.62000 654.880
26.63000 656.183
26.64000 656.889
26.65000 668.931
26.66000 677.137
26.67000 672.902
26.68000 659.218
26.69000 645.930
26.70000 647.349
26.71000 656.218
26.72000 664.682
26.73000 662.979
26.74000 658.166
26.75000 653.617
26.76000 651.327
26.77000 649.553
26.78000 647.833
26.79000 646.398
26.80000 645.004
26.81000 643.902
26.82000 656.514
26.83000 667.581
26.84000 671.438
26.85000 658.388
26.86000 644.637
26.87000 635.902
26.88000 635.085
26.89000 634.367
26.90000 634.002
26.91000 637.050
26.92000 639.063
26.93000 638.140
26.94000 635.253
26.95000 632.828
26.96000 642.944
26.97000 658.693
26.98000 673.546
26.99000 657.765
27.00000 634.794
27.01000 615.366
27.02000 621.812
27.03000 633.443
27.04000 643.092
27.05000 643.559
27.06000 642.874
27.07000 642.349
27.08000 642.225
27.09000 642.148
27.10000 642.103
27.11000 642.121
27.12000 642.142
27.13000 641.120
27.14000 638.648
27.15000 636.167
27.16000 634.798
27.17000 634.426
27.18000 634.098
27.19000 636.454
27.20000 640.394
27.21000 644.008
27.22000 640.849
27.23000 634.990
27.24000 629.538
27.25000 628.194
27.26000 627.974
27.27000 627.752
27.28000 627.516
27.29000 627.278
27.30000 626.933
27.31000 626.152
27.32000 625.323
27.33000 624.709
27.34000 626.203
27.35000 627.457
27.36000 625.822
27.37000 618.864
27.38000 611.789
27.39000 610.681
27.40000 616.869
27.41000 623.062
27.42000 621.179
27.43000 612.995
27.44000 604.813
27.45000 596.711
27.46000 588.651
27.47000 581.653
27.48000 592.154
27.49000 608.839
27.50000 624.135
27.51000 629.252
27.52000 631.668
27.53000 633.877
27.54000 634.957
27.55000 635.866
27.56000 634.857
27.57000 626.964
27.58000 618.453
27.59000 612.356
27.60000 611.816
27.61000 611.591
27.62000 614.379
27.63000 622.080
27.64000 629.850
27.65000 631.264
27.66000 625.886
27.67000 620.533
27.68000 613.248
27.69000 604.728
27.70000 596.514
27.71000 597.296
27.72000 602.247
27.73000 606.745
27.74000 605.187
27.75000 601.734
27.76000 598.620
27.77000 608.862
27.78000 620.287
27.79000 628.933
27.80000 624.267
27.81000 617.862
27.82000 611.744
27.83000 606.539
27.84000 601.401
27.85000 597.860
27.86000 597.378
27.87000 597.094
27.88000 598.151
27.89000 601.136
27.90000 604.136
27.91000 606.215
27.92000 607.438
27.93000 608.649
27.94000 608.388
27.95000 607.253
27.96000 606.165
27.97000 606.138
27.98000 606.549
27.99000 606.748
28.00000 604.620
28.01000 601.846
28.02000 599.390
28.03000 602.454
28.04000 605.971
28.05000 607.180
28.06000 598.677
28.07000 589.094
28.08000 584.678
28.09000 594.801
28.10000 605.797
28.11000 613.064
28.12000 603.477
28.13000 596.105
28.14000 593.896
28.15000 598.221
28.16000 602.558
28.17000 603.368
28.18000 601.311
28.19000 599.284
28.20000 593.787
28.21000 586.630
28.22000 580.064
28.23000 583.806
28.24000 591.307
28.25000 597.943
28.26000 596.532
28.27000 593.156
28.28000 590.226
28.29000 589.104
28.30000 588.390
28.31000 587.563
28.32000 586.318
28.33000 585.032
28.34000 584.999
28.35000 588.088
28.36000 591.326
28.37000 593.369
28.38000 588.922
28.39000 585.626
28.40000 582.175
28.41000 578.552
28.42000 574.970
28.43000 577.297
28.44000 583.845
28.45000 590.257
28.46000 589.519
28.47000 585.525
28.48000 581.367
28.49000 574.891
28.50000 567.665
28.51000 561.669
28.52000 565.397
28.53000 571.213
28.54000 576.153
28.55000 578.277
28.56000 579.738
28.57000 580.050
28.58000 576.592
28.59000 572.840
28.60000 572.031
28.61000 577.736
28.62000 583.677
28.63000 587.243
28.64000 583.923
28.65000 581.518
28.66000 579.485
28.67000 577.810
28.68000 576.169
28.69000 577.191
28.70000 579.888
28.71000 582.509
28.72000 579.616
28.73000 574.648
28.74000 570.291
28.75000 573.018
28.76000 577.771
28.77000 581.964
28.78000 582.352
28.79000 582.026
28.80000 581.755
28.81000 577.555
28.82000 573.708
28.83000 571.823
28.84000 575.635
28.85000 579.808
28.86000 582.071
28.87000 580.584
28.88000 578.998
28.89000 578.097
28.90000 576.869
28.91000 576.006
28.92000 571.596
28.93000 564.201
28.94000 557.031
28.95000 561.061
28.96000 571.327
28.97000 581.206
28.98000 583.161
28.99000 582.197
29.00000 580.669
29.01000 573.650
29.02000 565.244
29.03000 557.913
29.04000 556.906
29.05000 556.933
29.06000 556.955
29.07000 560.736
29.08000 564.112
29.09000 568.778
29.10000 576.767
29.11000 584.924
29.12000 585.646
29.13000 573.442
29.14000 561.005
29.15000 554.357
29.16000 571.713
29.17000 583.495
29.18000 582.159
29.19000 571.141
29.20000 560.159
29.21000 550.465
29.22000 541.408
29.23000 532.785
29.24000 536.455
29.25000 543.650
29.26000 550.403
29.27000 553.513
29.28000 555.814
29.29000 559.231
29.30000 568.374
29.31000 578.327
29.32000 586.145
29.33000 574.150
29.34000 563.251
29.35000 555.238
29.36000 553.816
29.37000 552.651
29.38000 554.783
29.39000 561.980
29.40000 569.233
29.41000 568.082
29.42000 558.531
29.43000 549.106
29.44000 551.189
29.45000 560.757
29.46000 569.956
29.47000 569.692
29.48000 565.288
29.49000 561.146
29.50000 545.077
29.51000 527.182
29.52000 512.700
29.53000 522.340
29.54000 536.674
29.55000 548.907
29.56000 551.684
29.57000 553.315
29.58000 554.557
29.59000 553.573
29.60000 552.681
29.61000 549.833
29.62000 543.023
29.63000 536.099
29.64000 534.591
29.65000 540.416
29.66000 546.278
29.67000 549.845
29.68000 551.411
29.69000 552.865
29.70000 548.155
29.71000 539.899
29.72000 532.089
29.73000 533.082
29.74000 537.491
29.75000 541.582
29.76000 541.545
29.77000 540.542
29.78000 539.768
29.79000 540.396
29.80000 541.261
29.81000 540.307
29.82000 532.153
29.83000 523.257
29.84000 516.703
29.85000 529.468
29.86000 540.157
29.87000 549.029
29.88000 554.640
29.89000 560.186
29.90000 557.619
29.91000 545.412
29.92000 533.219
29.93000 534.724
29.94000 546.613
29.95000 558.040
29.96000 551.981
29.97000 537.020
29.98000 522.786
29.99000 519.984
30.00000 521.118
30.01000 522.155
30.02000 523.336
30.03000 524.415
30.04000 526.341
30.05000 532.774
30.06000 539.869
30.07000 543.747
30.08000 536.382
30.09000 528.049
30.10000 522.128
30.11000 533.649
30.12000 542.975
30.13000 547.276
30.14000 543.600
30.15000 539.824
30.16000 535.435
30.17000 530.411
30.18000 525.415
30.19000 526.141
30.20000 530.653
30.21000 535.133
30.22000 538.713
30.23000 541.888
30.24000 544.728
30.25000 543.287
30.26000 540.540
30.27000 538.072
30.28000 536.082
30.29000 534.425
30.30000 532.899
30.31000 531.985
30.32000 531.149
30.33000 530.867
30.34000 532.300
30.35000 533.855
30.36000 534.917
30.37000 530.335
30.38000 526.776
30.39000 528.097
30.40000 536.249
30.41000 544.444
30.42000 545.660
30.43000 540.580
30.44000 535.550
30.45000 529.743
30.46000 523.607
30.47000 517.620
30.48000 514.728
30.49000 513.077
30.50000 511.622
30.51000 512.251
30.52000 513.442
30.53000 514.492
30.54000 516.547
30.55000 518.470
30.56000 518.033
30.57000 507.938
30.58000 496.804
30.59000 491.438
30.60000 501.875
30.61000 513.216
30.62000 520.639
30.63000 517.580
30.64000 515.161
30.65000 514.069
30.66000 514.606
30.67000 515.146
30.68000 514.840
30.69000 513.868
30.70000 512.911
30.71000 515.207
30.72000 519.089
30.73000 522.662
30.74000 521.097
30.75000 517.707
30.76000 515.177
30.77000 520.364
30.78000 527.384
30.79000 533.450
30.80000 536.704
30.81000 539.103
30.82000 539.025
30.83000 530.011
30.84000 520.190
30.85000 511.950
30.86000 507.554
30.87000 503.330
30.88000 500.692
30.89000 505.917
30.90000 509.767
30.91000 512.868
30.92000 515.165
30.93000 517.421
30.94000 514.680
30.95000 508.468
30.96000 502.395
30.97000 505.528
30.98000 512.643
30.99000 519.262
31.00000 519.204
31.01000 517.044
31.02000 515.156
31.03000 515.351
31.04000 515.980
31.05000 516.512
31.06000 503.747
31.07000 491.611
31.08000 485.079
31.09000 496.440
31.10000 509.138
31.11000 517.116
31.12000 514.913
31.13000 512.364
31.14000 510.852
31.15000 510.997
31.16000 511.110
31.17000 514.773
31.18000 521.755
31.19000 528.617
31.20000 526.962
31.21000 520.085
31.22000 513.417
31.23000 506.731
31.24000 500.391
31.25000 494.368
31.26000 491.887
31.27000 490.392
31.28000 489.467
31.29000 492.293
31.30000 495.803
31.31000 498.698
31.32000 504.067
31.33000 508.716
31.34000 510.672
31.35000 505.011
31.36000 498.889
31.37000 497.630
31.38000 505.671
31.39000 513.939
31.40000 518.576
31.41000 502.426
31.42000 491.206
31.43000 491.701
31.44000 501.768
31.45000 511.586
31.46000 509.965
31.47000 502.142
31.48000 494.630
31.49000 490.015
31.50000 486.691
31.51000 483.823
31.52000 485.216
31.53000 487.655
31.54000 490.019
31.55000 491.958
31.56000 493.830
31.57000 495.333
31.58000 493.457
31.59000 491.678
31.60000 491.827
31.61000 496.812
31.62000 502.029
31.63000 505.510
31.64000 506.052
31.65000 506.547
31.66000 506.807
31.67000 488.242
31.68000 475.723
31.69000 476.717
31.70000 487.411
31.71000 497.865
31.72000 500.559
31.73000 499.524
31.74000 498.540
31.75000 491.490
31.76000 483.161
31.77000 476.534
31.78000 483.458
31.79000 493.308
31.80000 500.392
31.81000 493.688
31.82000 485.097
31.83000 478.393
31.84000 486.858
31.85000 494.560
31.86000 495.891
31.87000 483.046
31.88000 469.682
31.89000 467.010
31.90000 480.326
31.91000 493.795
31.92000 500.492
31.93000 500.621
31.94000 500.779
31.95000 503.190
31.96000 507.027
31.97000 510.426
31.98000 503.284
31.99000 491.648
32.00000 480.736
32.01000 479.831
32.02000 481.627
32.03000 484.093
32.04000 491.141
32.05000 499.056
32.06000 504.563
32.07000 499.539
32.08000 493.283
32.09000 488.550
32.10000 486.021
32.11000 484.149
32.12000 483.779
32.13000 486.373
32.14000 489.047
32.15000 491.088
32.16000 492.296
32.17000 493.499
32.18000 490.439
32.19000 483.787
32.20000 477.314
32.21000 479.867
32.22000 487.473
32.23000 494.601
32.24000 492.760
32.25000 487.528
32.26000 482.689
32.27000 481.361
32.28000 480.967
32.29000 480.628
32.30000 480.610
32.31000 480.644
32.32000 481.670
32.33000 486.517
32.34000 491.742
32.35000 495.563
32.36000 483.911
32.37000 474.311
32.38000 469.765
32.39000 474.050
32.40000 478.496
32.41000 481.171
32.42000 481.802
32.43000 482.428
32.44000 485.457
32.45000 490.234
32.46000 494.825
32.47000 492.880
32.48000 487.693
32.49000 482.826
32.50000 482.742
32.51000 484.262
32.52000 485.646
32.53000 486.442
32.54000 487.030
32.55000 486.489
32.56000 480.117
32.57000 472.916
32.58000 468.085
32.59000 471.318
32.60000 475.218
32.61000 477.967
32.62000 475.865
32.63000 474.125
32.64000 473.457
32.65000 474.443
32.66000 475.449
32.67000 477.847
32.68000 481.646
32.69000 485.421
32.70000 478.167
32.71000 463.911
32.72000 450.267
32.73000 452.453
32.74000 461.603
32.75000 470.633
32.76000 478.192
32.77000 485.314
32.78000 491.687
32.79000 493.674
32.80000 494.657
32.81000 493.508
32.82000 482.707
32.83000 470.728
32.84000 461.001
32.85000 458.059
32.86000 455.576
32.87000 453.895
32.88000 459.582
32.89000 463.981
32.90000 462.521
32.91000 453.085
32.92000 443.610
32.93000 440.273
32.94000 442.312
32.95000 444.329
32.96000 449.149
32.97000 455.439
32.98000 461.290
32.99000 458.393
33.00000 452.083
33.01000 446.231
33.02000 445.078
33.03000 445.156
33.04000 445.225
33.05000 454.874
33.06000 464.571
33.07000 469.914
33.08000 457.923
33.09000 444.138
33.10000 435.878
33.11000 442.367
33.12000 449.659
33.13000 454.384
33.14000 462.950
33.15000 469.277
33.16000 474.457
33.17000 478.267
33.18000 482.036
33.19000 476.813
33.20000 464.684
33.21000 452.762
33.22000 455.081
33.23000 464.369
33.24000 472.814
33.25000 467.893
33.26000 458.346
33.27000 450.870
33.28000 461.326
33.29000 475.925
33.30000 488.479
33.31000 475.249
33.32000 460.823
33.33000 449.410
33.34000 448.578
33.35000 448.665
33.36000 449.392
33.37000 451.638
33.38000 453.948
33.39000 455.375
33.40000 466.776
33.41000 475.058
33.42000 478.386
33.43000 476.547
33.44000 474.700
33.45000 472.103
33.46000 469.001
33.47000 465.973
33.48000 464.693
33.49000 464.228
33.50000 463.537
33.51000 459.938
33.52000 455.448
33.53000 451.221
33.54000 448.935
33.55000 447.042
33.56000 445.451
33.57000 448.782
33.58000 452.079
33.59000 455.772
33.60000 460.698
33.61000 465.713
33.62000 465.705
33.63000 455.145
33.64000 444.251
33.65000 437.863
33.66000 448.035
33.67000 455.281
33.68000 461.567
33.69000 466.980
33.70000 472.310
33.71000 472.283
33.72000 469.060
33.73000 465.942
33.74000 459.693
33.75000 452.598
33.76000 446.121
33.77000 446.272
33.78000 448.219
33.79000 449.782
33.80000 448.896
33.81000 447.577
33.82000 446.495
33.83000 449.761
33.84000 452.828
33.85000 454.113
33.86000 450.493
33.87000 446.590
33.88000 445.517
33.89000 449.712
33.90000 454.027
33.91000 456.416
33.92000 436.467
33.93000 422.714
33.94000 426.827
33.95000 445.130
33.96000 463.082
33.97000 466.241
33.98000 461.585
33.99000 457.125
34.00000 458.225
34.01000 461.104
34.02000 463.245
34.03000 458.733
34.04000 452.632
34.05000 447.741
34.06000 449.560
34.07000 452.410
34.08000 454.686
34.09000 446.575
34.10000 439.262
34.11000 436.768
34.12000 446.049
34.13000 455.866
34.14000 462.003
34.15000 462.078
34.16000 462.063
34.17000 462.055
34.18000 458.284
34.19000 455.735
34.20000 452.969
34.21000 450.051
34.22000 447.082
34.23000 442.546
34.24000 437.277
34.25000 432.287
34.26000 437.998
34.27000 446.372
34.28000 453.611
34.29000 452.110
34.30000 448.774
34.31000 446.360
34.32000 448.405
34.33000 451.041
34.34000 453.085
34.35000 437.093
34.36000 423.306
34.37000 417.355
34.38000 428.388
34.39000 440.007
34.40000 446.696
34.41000 446.212
34.42000 445.668
34.43000 440.471
34.44000 430.901
34.45000 421.501
34.46000 424.457
34.47000 435.028
34.48000 445.346
34.49000 449.947
34.50000 452.172
34.51000 454.253
34.52000 448.476
34.53000 441.235
34.54000 435.226
34.55000 437.391
34.56000 441.054
34.57000 442.968
34.58000 437.438
34.59000 431.066
34.60000 426.282
34.61000 443.559
34.62000 458.119
34.63000 463.510
34.64000 451.284
34.65000 438.619
34.66000 431.172
34.67000 430.401
34.68000 429.655
34.69000 429.211
34.70000 429.016
34.71000 428.798
34.72000 427.548
34.73000 425.733
34.74000 424.366
34.75000 430.969
34.76000 440.507
34.77000 449.298
34.78000 442.178
34.79000 432.286
34.80000 423.752
34.81000 423.017
34.82000 423.526
34.83000 425.315
34.84000 431.898
34.85000 438.938
34.86000 444.046
34.87000 439.175
34.88000 435.059
34.89000 434.178
34.90000 438.802
34.91000 443.518
34.92000 441.516
34.93000 431.986
34.94000 422.486
34.95000 421.459
34.96000 426.503
34.97000 431.312
34.98000 428.435
34.99000 421.845
35.00000 415.900
35.01000 419.217
35.02000 425.557
35.03000 431.308
35.04000 429.840
35.05000 427.161
35.06000 425.838
35.07000 431.315
35.08000 437.728
35.09000 440.235
35.10000 429.799
35.11000 418.338
35.12000 410.329
35.13000 420.604
35.14000 428.880
35.15000 431.242
35.16000 424.716
35.17000 418.103
35.18000 419.616
35.19000 429.054
35.20000 438.423
35.21000 441.052
35.22000 439.417
35.23000 437.621
35.24000 431.893
35.25000 424.480
35.26000 418.027
35.27000 422.892
35.28000 431.028
35.29000 438.280
35.30000 436.531
35.31000 433.524
35.32000 431.255
35.33000 432.238
35.34000 433.603
35.35000 433.411
35.36000 428.648
35.37000 423.589
35.38000 420.195
35.39000 421.186
35.40000 422.009
35.41000 422.939
35.42000 424.012
35.43000 425.084
35.44000 425.969
35.45000 426.694
35.46000 427.411
35.47000 423.881
35.48000 418.112
35.49000 412.573
35.50000 411.391
35.51000 411.866
35.52000 412.556
35.53000 415.376
35.54000 418.740
35.55000 421.680
35.56000 424.157
35.57000 426.214
35.58000 426.190
35.59000 418.107
35.60000 409.220
35.61000 404.440
35.62000 410.342
35.63000 416.797
35.64000 420.937
35.65000 418.840
35.66000 417.227
35.67000 414.314
35.68000 409.892
35.69000 405.505
35.70000 408.132
35.71000 415.996
35.72000 423.715
35.73000 424.174
35.74000 421.126
35.75000 418.134
35.76000 415.979
35.77000 414.107
35.78000 412.974
35.79000 418.014
35.80000 424.441
35.81000 429.941
35.82000 416.605
35.83000 403.081
35.84000 392.231
35.85000 390.531
35.86000 389.594
35.87000 391.672
35.88000 400.708
35.89000 410.021
35.90000 415.712
35.91000 419.066
35.92000 421.446
35.93000 418.538
35.94000 410.279
35.95000 402.071
35.96000 398.772
35.97000 398.699
35.98000 398.629
35.99000 401.354
36.00000 405.132
36.01000 408.340
36.02000 404.492
36.03000 398.538
36.04000 393.690
36.05000 396.750
36.06000 401.369
36.07000 405.231
36.08000 407.827
36.09000 409.853
36.10000 409.546
36.11000 402.171
36.12000 394.314
36.13000 392.663
36.14000 403.716
36.15000 415.146
36.16000 421.767
36.17000 420.108
36.18000 418.907
36.19000 414.894
36.20000 408.403
36.21000 402.011
36.22000 401.323
36.23000 403.948
36.24000 406.484
36.25000 410.053
36.26000 413.798
36.27000 417.314
36.28000 418.460
36.29000 418.980
36.30000 419.132
36.31000 417.002
36.32000 414.479
36.33000 412.422
36.34000 408.509
36.35000 405.150
36.36000 402.294
36.37000 400.787
36.38000 399.353
36.39000 400.058
36.40000 404.642
36.41000 409.307
36.42000 411.855
36.43000 405.149
36.44000 400.519
36.45000 393.714
36.46000 385.230
36.47000 376.938
36.48000 376.166
36.49000 379.262
36.50000 382.220
36.51000 387.526
36.52000 393.220
36.53000 398.341
36.54000 398.467
36.55000 397.432
36.56000 397.155
36.57000 400.957
36.58000 405.366
36.59000 408.865
36.60000 413.218
36.61000 416.781
36.62000 416.231
36.63000 405.889
36.64000 395.127
36.65000 390.381
36.66000 395.282
36.67000 400.311
36.68000 402.886
36.69000 407.380
36.70000 410.356
36.71000 408.459
36.72000 403.251
36.73000 398.141
36.74000 395.776
36.75000 394.663
36.76000 393.612
36.77000 390.775
36.78000 387.666
36.79000 385.412
36.80000 389.535
36.81000 394.957
36.82000 398.476
36.83000 393.040
36.84000 386.457
36.85000 381.388
36.86000 390.616
36.87000 398.739
36.88000 403.839
36.89000 402.553
36.90000 401.062
36.91000 398.321
36.92000 393.814
36.93000 389.295
36.94000 389.356
36.95000 393.596
36.96000 397.767
36.97000 397.500
36.98000 394.570
36.99000 391.695
37.00000 390.010
37.01000 388.806
37.02000 387.684
37.03000 381.700
37.04000 375.086
37.05000 370.812
37.06000 381.569
37.07000 395.003
37.08000 404.576
37.09000 398.179
37.10000 390.042
37.11000 383.976
37.12000 386.046
37.13000 388.028
37.14000 389.308
37.15000 389.275
37.16000 389.212
37.17000 389.378
37.18000 389.830
37.19000 390.282
37.20000 391.268
37.21000 392.674
37.22000 394.040
37.23000 393.702
37.24000 392.458
37.25000 391.268
37.26000 390.982
37.27000 391.021
37.28000 391.057
37.29000 390.151
37.30000 389.142
37.31000 389.220
37.32000 395.367
37.33000 402.453
37.34000 406.874
37.35000 401.579
37.36000 395.392
37.37000 390.939
37.38000 387.179
37.39000 384.324
37.40000 386.024
37.41000 395.267
37.42000 404.624
37.43000 404.392
37.44000 393.728
37.45000 383.106
37.46000 382.495
37.47000 388.845
37.48000 394.802
37.49000 388.753
37.50000 377.054
37.51000 366.439
37.52000 370.705
37.53000 379.704
37.54000 387.836
37.55000 392.202
37.56000 395.343
37.57000 397.211
37.58000 392.880
37.59000 387.723
37.60000 386.074
37.61000 395.738
37.62000 406.262
37.63000 413.553
37.64000 407.483
37.65000 402.563
37.66000 397.873
37.67000 393.519
37.68000 389.169
37.69000 389.299
37.70000 393.668
37.71000 398.000
37.72000 391.657
37.73000 378.938
37.74000 366.901
37.75000 370.556
37.76000 380.763
37.77000 390.304
37.78000 392.297
37.79000 392.167
37.80000 392.051
37.81000 390.398
37.82000 388.719
37.83000 386.257
37.84000 380.441
37.85000 374.243
37.86000 370.162
37.87000 372.127
37.88000 374.465
37.89000 376.019
37.90000 383.562
37.91000 389.252
37.92000 392.962
37.93000 394.124
37.94000 395.266
37.95000 391.753
37.96000 384.391
37.97000 377.129
37.98000 374.831
37.99000 375.243
38.00000 375.924
38.01000 381.472
38.02000 388.822
38.03000 395.714
38.04000 398.245
38.05000 399.694
38.06000 400.955
38.07000 389.390
38.08000 377.759
38.09000 369.136
38.10000 371.847
38.11000 375.648
38.12000 379.306
38.13000 382.603
38.14000 385.883
38.15000 387.965
38.16000 381.136
38.17000 376.068
38.18000 373.829
38.19000 374.779
38.20000 375.762
38.21000 381.622
38.22000 391.022
38.23000 400.235
38.24000 395.596
38.25000 384.660
38.26000 374.340
38.27000 372.942
38.28000 374.472
38.29000 376.258
38.30000 380.106
38.31000 384.405
38.32000 388.066
38.33000 381.625
38.34000 375.032
38.35000 370.666
38.36000 373.715
38.37000 377.357
38.38000 379.284
38.39000 377.355
38.40000 375.280
38.41000 374.027
38.42000 366.402
38.43000 360.924
38.44000 357.196
38.45000 355.186
38.46000 353.242
38.47000 356.890
38.48000 364.115
38.49000 371.141
38.50000 370.840
38.51000 367.552
38.52000 364.483
38.53000 364.008
38.54000 364.286
38.55000 364.999
38.56000 368.719
38.57000 373.015
38.58000 376.589
38.59000 378.308
38.60000 379.549
38.61000 379.164
38.62000 373.989
38.63000 368.501
38.64000 366.327
38.65000 370.761
38.66000 375.378
38.67000 378.020
38.68000 383.278
38.69000 386.949
38.70000 383.257
38.71000 373.264
38.72000 363.424
38.73000 361.539
38.74000 364.154
38.75000 366.675
38.76000 366.642
38.77000 365.694
38.78000 364.955
38.79000 366.289
38.80000 368.155
38.81000 369.265
38.82000 365.841
38.83000 361.662
38.84000 358.274
38.85000 365.525
38.86000 372.306
38.87000 375.357
38.88000 368.661
38.89000 361.457
38.90000 358.256
38.91000 362.126
38.92000 366.130
38.93000 368.288
38.94000 369.232
38.95000 369.860
38.96000 367.016
38.97000 361.568
38.98000 356.310
38.99000 357.959
39.00000 363.070
39.01000 367.942
39.02000 362.162
39.03000 353.456
39.04000 346.188
39.05000 351.034
39.06000 358.615
39.07000 363.942
39.08000 357.496
39.09000 349.353
39.10000 342.933
39.11000 351.667
39.12000 359.691
39.13000 363.791
39.14000 358.786
39.15000 353.413
39.16000 350.959
39.17000 353.060
39.18000 355.215
39.19000 356.302
39.20000 352.371
39.21000 349.778
39.22000 350.627
39.23000 353.751
39.24000 356.720
39.25000 355.566
39.26000 352.579
39.27000 349.766
39.28000 351.544
39.29000 354.431
39.30000 357.535
39.31000 362.193
39.32000 367.159
39.33000 371.688
39.34000 374.217
39.35000 376.499
39.36000 378.244
39.37000 381.253
39.38000 383.695
39.39000 381.514
39.40000 369.824
39.41000 357.848
39.42000 352.911
39.43000 357.663
39.44000 362.472
39.45000 365.948
39.46000 368.239
39.47000 370.415
39.48000 365.841
39.49000 357.325
39.50000 349.055
39.51000 345.802
39.52000 344.528
39.53000 343.343
39.54000 348.546
39.55000 354.768
39.56000 359.315
39.57000 353.439
39.58000 345.762
39.59000 339.086
39.60000 336.442
39.61000 334.222
39.62000 332.578
39.63000 346.999
39.64000 358.880
39.65000 364.129
39.66000 357.287
39.67000 350.189
39.68000 344.673
39.69000 341.066
39.70000 337.472
39.71000 340.076
39.72000 347.450
39.73000 354.568
39.74000 351.555
39.75000 343.303
39.76000 335.312
39.77000 331.536
39.78000 329.235
39.79000 327.128
39.80000 330.332
39.81000 334.286
39.82000 338.790
39.83000 346.267
39.84000 354.189
39.85000 361.735
39.86000 367.945
39.87000 374.036
39.88000 378.386
39.89000 375.421
39.90000 372.918
39.91000 370.956
39.92000 369.870
39.93000 368.795
39.94000 366.825
39.95000 363.911
39.96000 361.011
39.97000 352.389
39.98000 340.009
39.99000 328.079
40.00000 329.043
40.01000 335.918
40.02000 342.401
40.03000 343.733
40.04000 343.469
40.05000 343.233
40.06000 351.822
40.07000 360.940
40.08000 367.535
40.09000 362.188
40.10000 355.302
40.11000 350.475
40.12000 352.120
40.13000 354.236
40.14000 355.688
40.15000 357.479
40.16000 358.829
40.17000 357.211
40.18000 351.369
40.19000 345.497
40.20000 343.510
40.21000 345.092
40.22000 346.658
40.23000 350.986
40.24000 356.859
40.25000 362.272
40.26000 357.705
40.27000 349.079
40.28000 341.104
40.29000 340.211
40.30000 341.258
40.31000 342.183
40.32000 338.127
40.33000 333.852
40.34000 330.892
40.35000 333.400
40.36000 336.508
40.37000 336.695
40.38000 328.755
40.39000 320.336
40.40000 314.795
40.41000 327.639
40.42000 337.414
40.43000 342.255
40.44000 340.926
40.45000 339.584
40.46000 340.556
40.47000 343.387
40.48000 346.176
40.49000 345.565
40.50000 343.213
40.51000 340.977
40.52000 340.725
40.53000 341.190
40.54000 341.871
40.55000 344.542
40.56000 347.693
40.57000 350.423
40.58000 346.596
40.59000 342.471
40.60000 339.339
40.61000 339.849
40.62000 340.695
40.63000 341.125
40.64000 340.529
40.65000 339.886
40.66000 339.481
40.67000 332.709
40.68000 327.741
40.69000 329.239
40.70000 337.811
40.71000 346.342
40.72000 348.858
40.73000 347.126
40.74000 345.432
40.75000 345.254
40.76000 345.771
40.77000 346.255
40.78000 346.284
40.79000 346.168
40.80000 345.777
40.81000 343.247
40.82000 340.263
40.83000 337.734
40.84000 336.718
40.85000 336.036
40.86000 335.933
40.87000 337.707
40.88000 339.624
40.89000 341.242
40.90000 342.203
40.91000 343.142
40.92000 343.702
40.93000 331.174
40.94000 322.206
40.95000 318.839
40.96000 320.804
40.97000 322.780
40.98000 325.615
40.99000 328.987
41.00000 332.259
41.01000 331.138
41.02000 328.326
41.03000 326.167
41.04000 331.453
41.05000 338.844
41.06000 344.444
41.07000 338.016
41.08000 329.355
41.09000 322.189
41.10000 325.427
41.11000 329.081
41.12000 331.855
41.13000 332.100
41.14000 332.189
41.15000 332.530
41.16000 333.364
41.17000 334.211
41.18000 334.689
41.19000 328.390
41.20000 324.002
41.21000 324.705
41.22000 329.640
41.23000 334.492
41.24000 335.377
41.25000 334.076
41.26000 332.826
41.27000 330.284
41.28000 327.453
41.29000 325.253
41.30000 329.102
41.31000 334.461
41.32000 338.492
41.33000 334.800
41.34000 329.862
41.35000 325.882
41.36000 317.060
41.37000 309.517
41.38000 307.290
41.39000 318.605
41.40000 330.591
41.41000 335.766
41.42000 329.232
41.43000 322.495
41.44000 318.914
41.45000 319.811
41.46000 320.430
41.47000 322.132
41.48000 324.623
41.49000 327.162
41.50000 331.330
41.51000 336.293
41.52000 341.012
41.53000 336.865
41.54000 330.324
41.55000 324.599
41.56000 325.513
41.57000 327.884
41.58000 329.613
41.59000 328.080
41.60000 326.092
41.61000 324.534
41.62000 325.704
41.63000 326.814
41.64000 327.564
41.65000 327.497
41.66000 327.398
41.67000 328.150
41.68000 330.193
41.69000 332.249
41.70000 333.615
41.71000 334.301
41.72000 334.941
41.73000 331.631
41.74000 325.778
41.75000 320.074
41.76000 318.065
41.77000 317.657
41.78000 317.274
41.79000 316.142
41.80000 314.911
41.81000 314.426
41.82000 319.143
41.83000 324.862
41.84000 330.015
41.85000 332.655
41.86000 334.995
41.87000 336.772
41.88000 331.559
41.89000 327.099
41.90000 322.296
41.91000 316.804
41.92000 311.294
41.93000 313.353
41.94000 325.541
41.95000 337.773
41.96000 338.465
41.97000 329.244
41.98000 320.132
41.99000 316.862
42.00000 316.913
42.01000 316.959
42.02000 316.880
42.03000 316.754
42.04000 316.637
42.05000 320.680
42.06000 325.282
42.07000 328.348
42.08000 322.149
42.09000 314.398
42.10000 309.436
42.11000 315.395
42.12000 322.458
42.13000 327.647
42.14000 325.335
42.15000 323.242
42.16000 319.517
42.17000 312.894
42.18000 306.215
42.19000 303.515
42.20000 305.488
42.21000 307.463
42.22000 308.995
42.23000 310.185
42.24000 311.456
42.25000 315.678
42.26000 321.387
42.27000 326.798
42.28000 327.614
42.29000 326.866
42.30000 326.183
42.31000 319.452
42.32000 312.265
42.33000 307.277
42.34000 313.838
42.35000 322.074
42.36000 328.136
42.37000 326.684
42.38000 324.595
42.39000 323.116
42.40000 322.337
42.41000 321.768
42.42000 322.250
42.43000 324.384
42.44000 326.537
42.45000 325.164
42.46000 320.178
42.47000 315.221
42.48000 314.078
42.49000 315.451
42.50000 316.956
42.51000 322.015
42.52000 328.661
42.53000 334.721
42.54000 333.410
42.55000 329.875
42.56000 326.705
42.57000 326.878
42.58000 327.611
42.59000 327.704
42.60000 324.848
42.61000 321.625
42.62000 319.587
42.63000 321.175
42.64000 323.014
42.65000 324.266
42.66000 326.508
42.67000 328.205
42.68000 325.912
42.69000 318.099
42.70000 310.250
42.71000 302.707
42.72000 295.436
42.73000 288.241
42.74000 291.865
42.75000 301.620
42.76000 310.960
42.77000 311.758
42.78000 309.173
42.79000 307.232
42.80000 312.043
42.81000 318.653
42.82000 324.471
42.83000 320.453
42.84000 315.521
42.85000 311.128
42.86000 308.913
42.87000 306.928
42.88000 306.066
42.89000 308.248
42.90000 310.602
42.91000 312.135
42.92000 308.439
42.93000 305.646
42.94000 307.632
42.95000 315.425
42.96000 323.201
42.97000 322.656
42.98000 315.616
42.99000 308.689
43.00000 310.645
43.01000 317.009
43.02000 322.730
43.03000 317.963
43.04000 309.510
43.05000 301.977
43.06000 302.568
43.07000 305.067
43.08000 307.222
43.09000 305.984
43.10000 304.500
43.11000 303.124
43.12000 302.137
43.13000 301.185
43.14000 301.343
43.15000 304.169
43.16000 307.112
43.17000 308.941
43.18000 314.326
43.19000 318.239
43.20000 319.437
43.21000 317.752
43.22000 316.080
43.23000 316.121
43.24000 317.338
43.25000 318.526
43.26000 312.638
43.27000 303.877
43.28000 295.754
43.29000 296.096
43.30000 299.072
43.31000 301.290
43.32000 297.786
43.33000 293.103
43.34000 289.153
43.35000 291.915
43.36000 294.947
43.37000 298.333
43.38000 302.832
43.39000 307.414
43.40000 307.672
43.41000 298.706
43.42000 289.434
43.43000 283.960
43.44000 292.107
43.45000 297.934
43.46000 300.382
43.47000 299.711
43.48000 298.983
43.49000 294.442
43.50000 287.591
43.51000 280.954
43.52000 287.415
43.53000 298.596
43.54000 308.755
43.55000 307.715
43.56000 303.591
43.57000 300.064
43.58000 300.417
43.59000 301.468
43.60000 302.334
43.61000 301.064
43.62000 299.825
43.63000 298.467
43.64000 296.777
43.65000 295.067
43.66000 295.892
43.67000 301.514
43.68000 307.249
43.69000 310.448
43.70000 302.448
43.71000 296.901
43.72000 296.816
43.73000 301.143
43.74000 305.368
43.75000 305.055
43.76000 302.308
43.77000 299.673
43.78000 301.983
43.79000 305.817
43.80000 309.204
43.81000 308.465
43.82000 306.724
43.83000 304.994
43.84000 303.325
43.85000 301.665
43.86000 300.335
43.87000 300.097
43.88000 299.986
43.89000 299.228
43.90000 296.863
43.91000 294.423
43.92000 293.658
43.93000 295.697
43.94000 297.781
43.95000 298.873
43.96000 296.590
43.97000 295.039
43.98000 293.015
43.99000 290.655
44.00000 288.332
44.01000 287.195
44.02000 286.621
44.03000 286.077
44.04000 288.789
44.05000 292.254
44.06000 295.731
44.07000 299.296
44.08000 302.880
44.09000 306.250
44.10000 308.564
44.11000 310.737
44.12000 312.428
44.13000 300.654
44.14000 290.450
44.15000 286.063
44.16000 294.477
44.17000 303.350
44.18000 306.904
44.19000 302.597
44.20000 298.218
44.21000 298.726
44.22000 303.913
44.23000 309.003
44.24000 306.681
44.25000 299.719
44.26000 293.151
44.27000 295.850
44.28000 302.458
44.29000 308.647
44.30000 304.665
44.31000 298.412
44.32000 293.114
44.33000 294.263
44.34000 296.616
44.35000 298.749
44.36000 299.932
44.37000 301.005
44.38000 301.815
44.39000 292.599
44.40000 284.886
44.41000 282.282
44.42000 289.648
44.43000 297.273
44.44000 301.708
44.45000 301.993
44.46000 302.261
44.47000 302.752
44.48000 303.427
44.49000 304.104
44.50000 304.887
44.51000 305.729
44.52000 306.361
44.53000 303.150
44.54000 298.502
44.55000 294.210
44.56000 296.220
44.57000 299.442
44.58000 301.395
44.59000 295.922
44.60000 289.244
44.61000 284.348
44.62000 286.242
44.63000 288.798
44.64000 290.661
44.65000 295.222
44.66000 298.839
44.67000 301.779
44.68000 303.547
44.69000 305.294
44.70000 306.879
44.71000 308.279
44.72000 309.674
44.73000 307.370
44.74000 302.392
44.75000 297.601
44.76000 299.198
44.77000 303.928
44.78000 308.204
44.79000 305.788
44.80000 301.152
44.81000 296.939
44.82000 301.224
44.83000 306.672
44.84000 311.439
44.85000 312.732
44.86000 313.537
44.87000 314.330
44.88000 315.082
44.89000 315.832
44.90000 316.358
44.91000 311.993
44.92000 308.545
44.93000 308.706
44.94000 314.379
44.95000 320.112
44.96000 321.024
44.97000 317.148
44.98000 313.299
44.99000 311.120
45.00000 310.039
45.01000 308.926
45.02000 307.018
45.03000 304.765
45.04000 302.641
45.05000 302.068
45.06000 301.951
45.07000 301.847
45.08000 307.922
45.09000 314.255
45.10000 319.923
45.11000 322.613
45.12000 324.944
45.13000 325.590
45.14000 321.213
45.15000 316.503
45.16000 313.326
45.17000 317.034
45.18000 319.939
45.19000 324.217
45.20000 330.344
45.21000 336.472
45.22000 335.377
45.23000 328.028
45.24000 320.765
45.25000 320.577
45.26000 324.340
45.27000 328.033
45.28000 330.371
45.29000 332.186
45.30000 333.850
45.31000 333.992
45.32000 333.739
45.33000 333.517
45.34000 334.763
45.35000 336.044
45.36000 336.732
45.37000 335.089
45.38000 333.208
45.39000 333.215
45.40000 338.209
45.41000 343.470
45.42000 346.864
45.43000 353.935
45.44000 359.154
45.45000 357.150
45.46000 346.620
45.47000 336.108
45.48000 332.739
45.49000 334.792
45.50000 336.809
45.51000 336.682
45.52000 335.511
45.53000 334.471
45.54000 335.486
45.55000 337.204
45.56000 338.988
45.57000 341.330
45.58000 343.800
45.59000 345.920
45.60000 347.711
45.61000 349.184
45.62000 349.589
45.63000 346.280
45.64000 342.654
45.65000 341.241
45.66000 345.013
45.67000 349.000
45.68000 351.451
45.69000 345.285
45.70000 340.787
45.71000 341.053
45.72000 346.225
45.73000 351.378
45.74000 354.523
45.75000 356.326
45.76000 358.084
45.77000 359.782
45.78000 361.379
45.79000 362.656
45.80000 359.871
45.81000 355.854
45.82000 352.354
45.83000 352.622
45.84000 353.646
45.85000 354.504
45.86000 352.420
45.87000 350.378
45.88000 350.048
45.89000 354.981
45.90000 360.284
45.91000 363.722
45.92000 363.282
45.93000 362.723
45.94000 362.397
45.95000 357.162
45.96000 353.461
45.97000 352.417
45.98000 353.756
45.99000 355.093
46.00000 356.276
46.01000 357.368
46.02000 358.424
46.03000 357.681
46.04000 356.303
46.05000 355.473
46.06000 360.412
46.07000 366.898
46.08000 372.130
46.09000 369.464
46.10000 365.417
46.11000 362.105
46.12000 366.625
46.13000 371.011
46.14000 373.555
46.15000 371.074
46.16000 368.310
46.17000 365.435
46.18000 362.355
46.19000 359.272
46.20000 357.574
46.21000 357.686
46.22000 357.782
46.23000 362.510
46.24000 370.874
46.25000 379.120
46.26000 382.549
46.27000 383.461
46.28000 384.333
46.29000 380.090
46.30000 374.452
46.31000 368.948
46.32000 364.631
46.33000 360.595
46.34000 357.143
46.35000 356.890
46.36000 357.123
46.37000 357.308
46.38000 355.892
46.39000 354.634
46.40000 356.275
46.41000 364.922
46.42000 373.880
46.43000 380.779
46.44000 384.321
46.45000 387.816
46.46000 389.622
46.47000 373.584
46.48000 362.812
46.49000 357.039
46.50000 354.716
46.51000 352.559
46.52000 355.274
46.53000 360.247
46.54000 364.951
46.55000 366.733
46.56000 367.531
46.57000 368.577
46.58000 371.503
46.59000 374.819
46.60000 377.114
46.61000 374.516
46.62000 371.280
46.63000 368.779
46.64000 370.097
46.65000 371.368
46.66000 373.785
46.67000 378.659
46.68000 383.615
46.69000 384.378
46.70000 379.110
46.71000 373.795
46.72000 371.782
46.73000 372.836
46.74000 373.918
46.75000 376.902
46.76000 381.045
46.77000 384.758
46.78000 378.926
46.79000 369.171
46.80000 360.061
46.81000 364.649
46.82000 372.247
46.83000 378.714
46.84000 377.781
46.85000 375.507
46.86000 372.999
46.87000 369.507
46.88000 365.906
46.89000 363.209
46.90000 371.177
46.91000 377.896
46.92000 382.271
46.93000 382.195
46.94000 382.010
46.95000 379.090
46.96000 372.708
46.97000 366.323
46.98000 364.390
46.99000 366.066
47.00000 367.772
47.01000 370.852
47.02000 374.672
47.03000 378.337
47.04000 379.285
47.05000 379.243
47.06000 379.205
47.07000 372.325
47.08000 364.681
47.09000 358.525
47.10000 360.813
47.11000 364.431
47.12000 368.042
47.13000 371.626
47.14000 375.207
47.15000 377.797
47.16000 370.458
47.17000 364.464
47.18000 361.062
47.19000 362.022
47.20000 363.052
47.21000 362.693
47.22000 360.797
47.23000 358.907
47.24000 360.311
47.25000 364.031
47.26000 367.575
47.27000 365.543
47.28000 360.846
47.29000 356.065
47.30000 350.108
47.31000 343.771
47.32000 338.032
47.33000 342.949
47.34000 349.298
47.35000 355.074
47.36000 358.008
47.37000 360.557
47.38000 359.873
47.39000 348.602
47.40000 336.506
47.41000 328.084
47.42000 339.804
47.43000 349.194
47.44000 352.865
47.45000 348.034
47.46000 343.123
47.47000 340.011
47.48000 338.631
47.49000 337.263
47.50000 338.911
47.51000 342.396
47.52000 345.632
47.53000 342.932
47.54000 337.716
47.55000 333.059
47.56000 334.891
47.57000 338.577
47.58000 341.857
47.59000 342.538
47.60000 342.706
47.61000 341.929
47.62000 337.048
47.63000 331.690
47.64000 328.344
47.65000 330.839
47.66000 333.705
47.67000 335.620
47.68000 340.550
47.69000 344.263
47.70000 341.768
47.71000 331.151
47.72000 320.508
47.73000 314.952
47.74000 313.673
47.75000 312.410
47.76000 313.026
47.77000 314.643
47.78000 316.350
47.79000 319.725
47.80000 323.726
47.81000 327.294
47.82000 326.644
47.83000 324.930
47.84000 323.435
47.85000 316.487
47.86000 309.783
47.87000 305.074
47.88000 308.010
47.89000 311.696
47.90000 313.839
47.91000 312.013
47.92000 309.986
47.93000 308.691
47.94000 313.194
47.95000 316.548
47.96000 318.977
47.97000 320.347
47.98000 321.695
47.99000 319.367
48.00000 314.326
48.01000 309.380
48.02000 306.452
48.03000 304.590
48.04000 302.642
48.05000 299.436
48.06000 295.811
48.07000 292.711
48.08000 293.939
48.09000 296.129
48.10000 297.999
48.11000 295.554
48.12000 292.980
48.13000 291.359
48.14000 292.957
48.15000 294.819
48.16000 295.169
48.17000 292.066
48.18000 288.828
48.19000 286.859
48.20000 293.574
48.21000 298.436
48.22000 300.230
48.23000 298.956
48.24000 297.642
48.25000 292.628
48.26000 285.210
48.27000 277.988
48.28000 274.685
48.29000 273.171
48.30000 271.731
48.31000 271.206
48.32000 270.952
48.33000 270.879
48.34000 272.098
48.35000 273.568
48.36000 274.794
48.37000 281.380
48.38000 287.382
48.39000 291.221
48.40000 288.584
48.41000 285.513
48.42000 284.117
48.43000 286.112
48.44000 288.205
48.45000 289.412
48.46000 277.916
48.47000 269.823
48.48000 266.271
48.49000 266.672
48.50000 267.137
48.51000 271.145
48.52000 277.190
48.53000 283.021
48.54000 279.435
48.55000 272.621
48.56000 266.068
48.57000 262.170
48.58000 258.965
48.59000 256.955
48.60000 262.248
48.61000 268.780
48.62000 274.093
48.63000 271.895
48.64000 269.471
48.65000 267.305
48.66000 265.827
48.67000 264.385
48.68000 261.657
48.69000 256.622
48.70000 251.541
48.71000 248.780
48.72000 251.734
48.73000 253.761
48.74000 254.513
48.75000 254.292
48.76000 254.059
48.77000 253.383
48.78000 252.481
48.79000 251.619
48.80000 253.234
48.81000 255.525
48.82000 257.341
48.83000 255.078
48.84000 251.880
48.85000 250.049
48.86000 255.493
48.87000 262.006
48.88000 267.159
48.89000 255.215
48.90000 244.437
48.91000 237.126
48.92000 237.985
48.93000 239.187
48.94000 241.992
48.95000 247.343
48.96000 252.726
48.97000 255.465
48.98000 244.808
48.99000 237.723
49.00000 237.252
49.01000 241.224
49.02000 245.134
49.03000 247.308
49.04000 248.700
49.05000 250.014
49.06000 250.472
49.07000 250.653
49.08000 250.687
49.09000 249.643
49.10000 248.383
49.11000 247.311
49.12000 247.117
49.13000 247.034
49.14000 246.970
49.15000 248.690
49.16000 250.150
49.17000 251.438
49.18000 252.368
49.19000 253.287
49.20000 252.358
49.21000 248.843
49.22000 245.312
49.23000 245.407
49.24000 248.771
49.25000 252.046
49.26000 249.797
49.27000 244.270
49.28000 239.132
49.29000 242.138
49.30000 248.406
49.31000 254.242
49.32000 257.604
49.33000 260.041
49.34000 260.271
49.35000 246.511
49.36000 230.290
49.37000 218.600
49.38000 225.444
49.39000 234.276
49.40000 240.842
49.41000 243.874
49.42000 246.075
49.43000 246.057
49.44000 241.933
49.45000 237.717
49.46000 234.626
49.47000 232.919
49.48000 231.218
49.49000 233.792
49.50000 239.712
49.51000 245.512
49.52000 246.349
49.53000 244.579
49.54000 242.877
49.55000 242.295
49.56000 242.110
49.57000 241.940
49.58000 238.901
49.59000 235.586
49.60000 233.224
49.61000 236.115
49.62000 239.807
49.63000 242.592
49.64000 242.101
49.65000 241.314
49.66000 240.750
49.67000 237.332
49.68000 234.621
49.69000 234.795
49.70000 239.693
49.71000 244.659
49.72000 244.363
49.73000 238.415
49.74000 232.492
49.75000 232.077
49.76000 235.448
49.77000 238.618
49.78000 235.789
49.79000 230.169
49.80000 225.055
49.81000 226.777
49.82000 230.648
49.83000 234.142
49.84000 234.751
49.85000 234.757
49.86000 234.253
49.87000 231.292
49.88000 228.008
49.89000 226.158
49.90000 228.884
49.91000 231.951
49.92000 234.069
49.93000 234.354
49.94000 234.522
49.95000 235.340
49.96000 237.098
49.97000 238.863
49.98000 238.454
49.99000 236.014
50.00000 233.595
50.01000 232.952
50.02000 233.387
50.03000 233.917
50.04000 236.567
50.05000 240.092
50.06000 243.055
50.07000 239.747
50.08000 234.694
50.09000 230.216
50.10000 228.817
50.11000 228.091
50.12000 228.223
50.13000 231.981
50.14000 236.145
50.15000 239.108
50.16000 238.673
50.17000 238.033
50.18000 237.609
50.19000 228.607
50.20000 221.807
50.21000 219.965
50.22000 224.429
50.23000 228.911
50.24000 231.424
50.25000 232.328
50.26000 233.220
50.27000 231.027
50.28000 227.271
50.29000 223.906
50.30000 227.418
50.31000 233.448
50.32000 238.586
50.33000 235.368
50.34000 230.100
50.35000 225.524
50.36000 231.322
50.37000 237.667
50.38000 241.200
50.39000 234.256
50.40000 226.322
50.41000 221.215
50.42000 223.196
50.43000 225.517
50.44000 226.985
50.45000 223.866
50.46000 221.552
50.47000 219.495
50.48000 217.725
50.49000 215.990
50.50000 219.492
50.51000 226.753
50.52000 233.865
50.53000 235.652
50.54000 234.911
50.55000 234.018
50.56000 230.968
50.57000 227.217
50.58000 224.027
50.59000 225.314
50.60000 227.566
50.61000 229.480
50.62000 228.301
50.63000 226.957
50.64000 225.464
50.65000 223.484
50.66000 221.466
50.67000 220.431
50.68000 221.586
50.69000 222.820
50.70000 223.563
50.71000 229.492
50.72000 233.744
50.73000 232.614
50.74000 226.271
50.75000 220.009
50.76000 220.308
50.77000 224.758
50.78000 229.083
50.79000 229.168
50.80000 227.532
50.81000 225.558
50.82000 219.625
50.83000 212.555
50.84000 206.487
50.85000 207.268
50.86000 209.344
50.87000 211.066
50.88000 216.918
50.89000 222.154
50.90000 226.726
50.91000 229.360
50.92000 231.870
50.93000 231.924
50.94000 227.136
50.95000 222.218
50.96000 219.419
50.97000 221.703
50.98000 223.312
50.99000 224.957
51.00000 226.633
51.01000 228.289
51.02000 228.899
51.03000 228.923
51.04000 228.947
51.05000 226.863
51.06000 224.161
51.07000 221.390
51.08000 217.954
51.09000 214.349
51.10000 212.141
51.11000 218.198
51.12000 225.616
51.13000 231.615
51.14000 228.580
51.15000 225.382
51.16000 223.304
51.17000 224.121
51.18000 225.087
51.19000 225.953
51.20000 226.646
51.21000 227.337
51.22000 227.707
51.23000 229.125
51.24000 230.074
51.25000 227.476
51.26000 222.245
51.27000 217.182
51.28000 218.004
51.29000 221.742
51.30000 225.303
51.31000 225.401
51.32000 224.417
51.33000 223.742
51.34000 225.632
51.35000 228.094
51.36000 229.834
51.37000 227.842
51.38000 225.320
51.39000 223.337
51.40000 226.180
51.41000 228.777
51.42000 230.664
51.43000 230.926
51.44000 231.124
51.45000 229.798
51.46000 226.120
51.47000 222.415
51.48000 220.558
51.49000 219.151
51.50000 218.265
51.51000 222.273
51.52000 229.481
51.53000 236.256
51.54000 231.844
51.55000 222.514
51.56000 213.736
51.57000 213.737
51.58000 216.118
51.59000 218.838
51.60000 223.972
51.61000 229.578
51.62000 232.642
51.63000 224.215
51.64000 214.386
51.65000 206.890
51.66000 211.220
51.67000 215.262
51.68000 218.486
51.69000 220.044
51.70000 221.553
51.71000 223.290
51.72000 225.335
51.73000 227.382
51.74000 228.272
51.75000 228.150
51.76000 227.971
51.77000 224.566
51.78000 219.297
51.79000 214.432
51.80000 217.603
51.81000 223.910
51.82000 229.763
51.83000 227.389
51.84000 223.307
51.85000 219.235
51.86000 215.225
51.87000 211.225
51.88000 208.027
51.89000 208.021
51.90000 208.345
51.91000 208.583
51.92000 211.766
51.93000 214.356
51.94000 218.300
51.95000 224.688
51.96000 231.125
51.97000 231.637
51.98000 225.076
51.99000 218.516
52.00000 216.578
52.01000 218.175
52.02000 219.741
52.03000 220.137
52.04000 219.934
52.05000 219.616
52.06000 217.480
52.07000 214.715
52.08000 212.188
52.09000 215.752
52.10000 220.169
52.11000 223.198
52.12000 218.804
52.13000 213.314
52.14000 208.511
52.15000 206.124
52.16000 203.946
52.17000 202.396
52.18000 206.278
52.19000 209.411
52.20000 209.156
52.21000 203.500
52.22000 197.774
52.23000 197.729
52.24000 203.607
52.25000 209.453
52.26000 212.079
52.27000 212.525
52.28000 213.038
52.29000 215.442
52.30000 218.704
52.31000 222.040
52.32000 226.333
52.33000 230.919
52.34000 235.042
52.35000 223.438
52.36000 210.488
52.37000 200.297
52.38000 203.011
52.39000 207.364
52.40000 211.251
52.41000 213.688
52.42000 216.022
52.43000 217.619
52.44000 212.799
52.45000 209.038
52.46000 209.019
52.47000 214.264
52.48000 219.543
52.49000 219.033
52.50000 213.273
52.51000 207.569
52.52000 204.856
52.53000 203.947
52.54000 203.186
52.55000 205.561
52.56000 209.199
52.57000 212.542
52.58000 212.729
52.59000 212.061
52.60000 211.472
52.61000 207.083
52.62000 202.717
52.63000 200.495
52.64000 207.090
52.65000 214.638
52.66000 220.000
52.67000 219.343
52.68000 218.339
52.69000 217.681
52.70000 214.339
52.71000 211.838
52.72000 208.322
52.73000 203.552
52.74000 198.796
52.75000 199.694
52.76000 205.079
52.77000 210.382
52.78000 210.295
52.79000 207.451
52.80000 204.990
52.81000 208.935
52.82000 215.166
52.83000 220.405
52.84000 216.688
52.85000 210.831
52.86000 205.767
52.87000 215.946
52.88000 226.585
52.89000 233.584
52.90000 227.386
52.91000 219.988
52.92000 213.564
52.93000 209.514
52.94000 205.572
52.95000 203.106
52.96000 206.959
52.97000 209.806
52.98000 210.832
52.99000 209.888
53.00000 208.945
53.01000 208.170
53.02000 207.512
53.03000 206.868
53.04000 204.633
53.05000 201.775
53.06000 199.169
53.07000 199.988
53.08000 201.890
53.09000 203.678
53.10000 204.589
53.11000 205.315
53.12000 205.930
53.13000 212.072
53.14000 217.824
53.15000 221.942
53.16000 220.824
53.17000 219.311
53.18000 217.627
53.19000 215.575
53.20000 213.510
53.21000 212.282
53.22000 207.358
53.23000 203.851
53.24000 203.336
53.25000 205.633
53.26000 207.858
53.27000 204.819
53.28000 198.537
53.29000 192.446
53.30000 197.526
53.31000 206.736
53.32000 215.077
53.33000 213.660
53.34000 209.514
53.35000 206.136
53.36000 207.853
53.37000 210.505
53.38000 212.693
53.39000 208.199
53.40000 203.876
53.41000 200.912
53.42000 201.813
53.43000 202.949
53.44000 205.336
53.45000 210.124
53.46000 214.971
53.47000 217.696
53.48000 213.594
53.49000 210.731
53.50000 208.113
53.51000 205.697
53.52000 203.295
53.53000 201.525
53.54000 200.099
53.55000 198.729
53.56000 201.145
53.57000 204.712
53.58000 208.018
53.59000 208.873
53.60000 209.122
53.61000 209.604
53.62000 211.421
53.63000 213.451
53.64000 215.083
53.65000 210.706
53.66000 206.693
53.67000 203.170
53.68000 200.881
53.69000 198.651
53.70000 198.073
53.71000 200.303
53.72000 202.579
53.73000 203.782
53.74000 213.369
53.75000 219.833
53.76000 218.341
53.77000 211.108
53.78000 204.101
53.79000 204.481
53.80000 208.428
53.81000 212.177
53.82000 211.277
53.83000 209.043
53.84000 206.845
53.85000 204.937
53.86000 203.092
53.87000 201.973
53.88000 204.497
53.89000 207.522
53.90000 209.885
53.91000 206.039
53.92000 202.579
53.93000 198.542
53.94000 193.219
53.95000 187.847
53.96000 186.450
53.97000 191.024
53.98000 195.657
53.99000 197.280
54.00000 195.967
54.01000 194.667
54.02000 194.278
54.03000 194.470
54.04000 194.672
54.05000 195.099
54.06000 195.624
54.07000 196.116
54.08000 196.646
54.09000 197.140
54.10000 198.050
54.11000 201.824
54.12000 206.142
54.13000 208.855
54.14000 204.511
54.15000 199.336
54.16000 195.417
54.17000 190.725
54.18000 187.003
54.19000 187.137
54.20000 194.914
54.21000 202.899
54.22000 206.726
54.23000 205.053
54.24000 203.355
54.25000 204.070
54.26000 206.831
54.27000 209.469
54.28000 205.750
54.29000 198.455
54.30000 191.633
54.31000 193.728
54.32000 199.212
54.33000 204.285
54.34000 203.747
54.35000 201.978
54.36000 200.212
54.37000 198.464
54.38000 196.718
54.39000 194.442
54.40000 190.113
54.41000 185.579
54.42000 182.259
54.43000 187.909
54.44000 192.627
54.45000 195.629
54.46000 195.614
54.47000 195.543
54.48000 198.011
54.49000 203.424
54.50000 208.825
54.51000 208.218
54.52000 203.165
54.53000 198.249
54.54000 198.197
54.55000 200.568
54.56000 202.818
54.57000 203.245
54.58000 203.056
54.59000 202.884
54.60000 198.383
54.61000 193.535
54.62000 189.896
54.63000 192.534
54.64000 196.071
54.65000 198.338
54.66000 196.270
54.67000 193.840
54.68000 192.125
54.69000 190.625
54.70000 189.493
54.71000 189.497
54.72000 191.263
54.73000 193.049
54.74000 192.557
54.75000 189.759
54.76000 186.979
54.77000 188.297
54.78000 192.252
54.79000 196.051
54.80000 195.789
54.81000 193.733
54.82000 192.057
54.83000 195.077
54.84000 199.499
54.85000 203.458
54.86000 198.774
54.87000 193.201
54.88000 189.381
54.89000 193.531
54.90000 198.659
54.91000 201.291
54.92000 196.371
54.93000 190.934
54.94000 187.247
54.95000 197.659
54.96000 205.735
54.97000 208.796
54.98000 204.996
54.99000 201.157
55.00000 198.622
55.01000 197.237
55.02000 195.866
55.03000 193.832
55.04000 191.470
55.05000 189.317
55.06000 191.397
55.07000 195.135
55.08000 198.482
55.09000 197.787
55.10000 196.028
55.11000 194.482
55.12000 192.715
55.13000 191.164
55.14000 190.187
55.15000 191.503
55.16000 193.059
55.17000 194.257
55.18000 194.498
55.19000 194.686
55.20000 194.808
55.21000 195.595
55.22000 196.182
55.23000 198.352
55.24000 202.423
55.25000 206.469
55.26000 203.498
55.27000 195.114
55.28000 186.869
55.29000 186.135
55.30000 189.160
55.31000 192.142
55.32000 194.450
55.33000 196.522
55.34000 197.833
55.35000 192.504
55.36000 185.634
55.37000 179.721
55.38000 179.056
55.39000 179.153
55.40000 180.223
55.41000 184.726
55.42000 189.529
55.43000 193.377
55.44000 194.950
55.45000 196.426
55.46000 197.339
55.47000 205.026
55.48000 210.617
55.49000 207.868
55.50000 196.375
55.51000 184.975
55.52000 184.171
55.53000 190.561
55.54000 196.799
55.55000 196.735
55.56000 193.925
55.57000 191.241
55.58000 190.189
55.59000 189.640
55.60000 189.185
55.61000 189.426
55.62000 189.810
55.63000 190.132
55.64000 193.161
55.65000 195.976
55.66000 198.172
55.67000 198.437
55.68000 198.563
55.69000 197.920
55.70000 195.656
55.71000 193.339
55.72000 191.978
55.73000 182.110
55.74000 175.114
55.75000 174.114
55.76000 178.586
55.77000 183.006
55.78000 184.070
55.79000 183.122
55.80000 182.204
55.81000 183.287
55.82000 185.076
55.83000 186.735
55.84000 186.995
55.85000 186.874
55.86000 186.918
55.87000 188.019
55.88000 189.307
55.89000 190.365
55.90000 187.287
55.91000 184.390
55.92000 182.089
55.93000 181.440
55.94000 180.887
55.95000 181.051
55.96000 182.556
55.97000 184.091
55.98000 184.943
55.99000 185.776
56.00000 186.365
56.01000 191.403
56.02000 199.993
56.03000 208.341
56.04000 206.348
56.05000 198.866
56.06000 191.696
56.07000 189.126
56.08000 188.268
56.09000 187.698
56.10000 189.746
56.11000 192.423
56.12000 195.015
56.13000 197.129
56.14000 199.170
56.15000 200.802
56.16000 203.358
56.17000 205.491
56.18000 205.929
56.19000 202.204
56.20000 198.287
56.21000 194.360
56.22000 190.414
56.23000 186.468
56.24000 184.412
56.25000 183.879
56.26000 183.511
56.27000 182.072
56.28000 179.882
56.29000 177.826
56.30000 179.863
56.31000 183.826
56.32000 187.582
56.33000 192.151
56.34000 196.597
56.35000 200.564
56.36000 200.820
56.37000 200.292
56.38000 199.704
56.39000 198.822
56.40000 197.901
56.41000 197.186
56.42000 195.501
56.43000 194.103
56.44000 193.701
56.45000 195.468
56.46000 197.310
56.47000 196.960
56.48000 193.404
56.49000 189.821
56.50000 188.842
56.51000 190.325
56.52000 191.784
56.53000 191.459
56.54000 190.030
56.55000 188.611
56.56000 187.445
56.57000 186.384
56.58000 185.392
56.59000 181.370
56.60000 176.942
56.61000 173.697
56.62000 178.330
56.63000 184.417
56.64000 188.835
56.65000 186.114
56.66000 182.582
56.67000 179.926
56.68000 187.936
56.69000 194.717
56.70000 197.958
56.71000 194.368
56.72000 190.606
56.73000 190.527
56.74000 195.185
56.75000 199.856
56.76000 197.443
56.77000 189.206
56.78000 181.175
56.79000 182.901
56.80000 189.970
56.81000 196.506
56.82000 193.463
56.83000 186.875
56.84000 180.799
56.85000 180.547
56.86000 181.615
56.87000 182.543
56.88000 182.664
56.89000 182.654
56.90000 183.383
56.91000 186.893
56.92000 190.669
56.93000 193.413
56.94000 191.785
56.95000 190.368
56.96000 187.068
56.97000 180.549
56.98000 173.975
56.99000 170.941
57.00000 171.895
57.01000 172.848
57.02000 174.758
57.03000 177.339
57.04000 179.958
57.05000 183.830
57.06000 188.311
57.07000 192.307
57.08000 189.302
57.09000 184.000
57.10000 179.187
57.11000 178.549
57.12000 178.790
57.13000 179.015
57.14000 179.163
57.15000 179.300
57.16000 179.020
57.17000 177.351
57.18000 175.571
57.19000 174.326
57.20000 174.625
57.21000 174.894
57.22000 176.317
57.23000 179.479
57.24000 182.659
57.25000 185.095
57.26000 186.801
57.27000 188.494
57.28000 187.073
57.29000 183.714
57.30000 180.399
57.31000 178.170
57.32000 176.408
57.33000 175.293
57.34000 181.858
57.35000 190.654
57.36000 198.498
57.37000 192.313
57.38000 184.600
57.39000 178.826
57.40000 181.618
57.41000 185.425
57.42000 187.213
57.43000 183.045
57.44000 178.488
57.45000 175.426
57.46000 172.544
57.47000 170.407
57.48000 170.335
57.49000 173.009
57.50000 175.697
57.51000 178.205
57.52000 180.559
57.53000 182.884
57.54000 183.159
57.55000 182.295
57.56000 181.633
57.57000 184.812
57.58000 189.458
57.59000 193.769
57.60000 194.744
57.61000 194.864
57.62000 194.969
57.63000 191.595
57.64000 188.207
57.65000 185.106
57.66000 183.124
57.67000 181.254
57.68000 182.261
57.69000 190.786
57.70000 199.702
57.71000 205.432
57.72000 195.808
57.73000 188.575
57.74000 185.688
57.75000 187.870
57.76000 190.060
57.77000 192.341
57.78000 194.692
57.79000 197.000
57.80000 193.046
57.81000 186.206
57.82000 179.579
57.83000 176.212
57.84000 173.951
57.85000 171.955
57.86000 172.204
57.87000 172.958
57.88000 173.605
57.89000 176.468
57.90000 179.155
57.91000 180.800
57.92000 178.869
57.93000 176.638
57.94000 176.064
57.95000 179.329
57.96000 182.750
57.97000 184.844
57.98000 184.136
57.99000 183.606
58.00000 181.595
58.01000 178.079
58.02000 174.597
58.03000 174.459
58.04000 176.529
58.05000 178.547
58.06000 179.407
58.07000 179.737
58.08000 179.900
58.09000 177.980
58.10000 175.435
58.11000 173.687
58.12000 177.681
58.13000 182.811
58.14000 187.106
58.15000 182.765
58.16000 178.271
58.17000 176.042
58.18000 180.702
58.19000 185.838
58.20000 188.519
58.21000 186.151
58.22000 183.632
58.23000 182.169
58.24000 178.006
58.25000 175.074
58.26000 173.393
58.27000 172.823
58.28000 172.258
58.29000 172.018
58.30000 171.968
58.31000 171.919
58.32000 174.642
58.33000 178.238
58.34000 181.452
58.35000 180.690
58.36000 178.875
58.37000 176.965
58.38000 174.467
58.39000 171.868
58.40000 169.747
58.41000 169.223
58.42000 168.932
58.43000 171.455
58.44000 181.562
58.45000 192.089
58.46000 196.268
58.47000 188.880
58.48000 181.249
58.49000 177.070
58.50000 179.907
58.51000 181.862
58.52000 182.152
58.53000 181.151
58.54000 180.136
58.55000 178.541
58.56000 176.646
58.57000 174.834
58.58000 170.654
58.59000 165.994
58.60000 162.140
58.61000 165.360
58.62000 170.230
58.63000 174.339
58.64000 174.332
58.65000 173.709
58.66000 173.215
58.67000 175.429
58.68000 177.403
58.69000 179.053
58.70000 179.925
58.71000 180.763
58.72000 180.377
58.73000 178.015
58.74000 175.627
58.75000 174.401
58.76000 176.710
58.77000 178.242
58.78000 177.299
58.79000 174.665
58.80000 172.252
58.81000 176.157
58.82000 182.957
58.83000 189.383
58.84000 185.513
58.85000 179.032
58.86000 173.478
58.87000 174.862
58.88000 177.668
58.89000 179.883
58.90000 179.310
58.91000 178.376
58.92000 177.657
58.93000 174.505
58.94000 171.868
58.95000 170.906
58.96000 173.498
58.97000 176.206
58.98000 179.975
58.99000 185.252
59.00000 190.540
59.01000 190.510
59.02000 185.603
59.03000 180.767
59.04000 180.578
59.05000 183.190
59.06000 185.590
59.07000 183.378
59.08000 179.292
59.09000 175.481
59.10000 176.828
59.11000 179.326
59.12000 181.528
59.13000 181.816
59.14000 181.762
59.15000 180.779
59.16000 175.942
59.17000 170.681
59.18000 166.754
59.19000 172.425
59.20000 177.285
59.21000 179.826
59.22000 178.006
59.23000 176.085
59.24000 175.483
59.25000 176.531
59.26000 177.581
59.27000 176.880
59.28000 174.783
59.29000 172.754
59.30000 173.689
59.31000 176.206
59.32000 178.534
59.33000 177.654
59.34000 175.616
59.35000 173.744
59.36000 173.845
59.37000 174.362
59.38000 174.901
59.39000 175.573
59.40000 176.265
59.41000 176.390
59.42000 174.432
59.43000 172.283
59.44000 170.733
59.45000 170.924
59.46000 171.132
59.47000 173.679
59.48000 180.117
59.49000 186.615
59.50000 184.867
59.51000 174.103
59.52000 163.380
59.53000 161.457
59.54000 165.700
59.55000 169.866
59.56000 171.678
59.57000 172.376
59.58000 173.154
59.59000 175.041
59.60000 177.282
59.61000 179.308
59.62000 177.739
59.63000 175.686
59.64000 173.290
59.65000 169.214
59.66000 164.911
59.67000 163.340
59.68000 170.619
59.69000 178.576
59.70000 184.097
59.71000 182.012
59.72000 180.240
59.73000 181.783
59.74000 188.197
59.75000 194.654
59.76000 192.928
59.77000 183.418
59.78000 173.985
59.79000 173.304
59.80000 177.985
59.81000 182.443
59.82000 181.727
59.83000 178.842
59.84000 176.056
59.85000 174.410
59.86000 173.086
59.87000 171.910
59.88000 171.956
59.89000 172.192
59.90000 173.340
59.91000 178.406
59.92000 183.921
59.93000 186.663
59.94000 181.448
59.95000 175.737
59.96000 171.936
59.97000 172.313
59.98000 172.671
59.99000 172.954
60.00000 173.142
60.01000 173.333
60.02000 175.269
60.03000 178.657
60.04000 181.999
60.05000 179.820
60.06000 174.742
60.07000 169.916
60.08000 169.664
60.09000 171.113
60.10000 172.316
60.11000 171.172
60.12000 169.441
60.13000 167.933
60.14000 171.199
60.15000 174.646
60.16000 176.592
60.17000 172.855
60.18000 168.569
60.19000 166.514
60.20000 170.141
60.21000 174.049
60.22000 176.535
60.23000 181.527
60.24000 185.185
60.25000 184.506
60.26000 178.912
60.27000 173.344
60.28000 172.737
60.29000 175.748
60.30000 178.700
60.31000 179.744
60.32000 179.853
60.33000 179.944
60.34000 179.767
60.35000 179.501
60.36000 179.392
60.37000 180.547
60.38000 181.981
60.39000 183.203
60.40000 185.844
60.41000 188.232
60.42000 188.928
60.43000 183.963
60.44000 178.542
60.45000 175.816
60.46000 179.173
60.47000 182.762
60.48000 184.935
60.49000 181.862
60.50000 179.632
60.51000 176.068
60.52000 171.187
60.53000 166.366
60.54000 166.757
60.55000 170.499
60.56000 174.139
60.57000 174.257
60.58000 172.919
60.59000 171.661
60.60000 171.360
60.61000 171.338
60.62000 171.489
60.63000 172.841
60.64000 174.423
60.65000 175.740
60.66000 178.494
60.67000 180.917
60.68000 181.856
60.69000 178.401
60.70000 174.656
60.71000 172.233
60.72000 172.457
60.73000 172.755
60.74000 172.926
60.75000 175.964
60.76000 178.100
60.77000 182.404
60.78000 188.573
60.79000 194.621
60.80000 194.276
60.81000 190.297
60.82000 186.461
60.83000 181.829
60.84000 177.187
60.85000 172.969
60.86000 172.995
60.87000 174.116
60.88000 174.544
60.89000 170.799
60.90000 166.356
60.91000 162.750
60.92000 173.084
60.93000 182.658
60.94000 188.723
60.95000 185.569
60.96000 181.930
60.97000 179.612
60.98000 179.641
60.99000 179.715
61.00000 179.755
61.01000 172.427
61.02000 167.427
61.03000 167.232
61.04000 170.661
61.05000 174.028
61.06000 175.116
61.07000 175.057
61.08000 175.000
61.09000 175.786
61.10000 176.781
61.11000 177.719
61.12000 178.170
61.13000 178.511
61.14000 179.445
61.15000 183.501
61.16000 188.010
61.17000 191.568
61.18000 187.508
61.19000 183.733
61.20000 179.495
61.21000 174.180
61.22000 168.821
61.23000 168.223
61.24000 175.094
61.25000 182.055
61.26000 185.576
61.27000 184.345
61.28000 183.505
61.29000 180.928
61.30000 177.197
61.31000 173.575
61.32000 172.851
61.33000 173.419
61.34000 173.955
61.35000 179.888
61.36000 186.810
61.37000 192.450
61.38000 188.802
61.39000 183.306
61.40000 177.947
61.41000 173.218
61.42000 168.568
61.43000 165.007
61.44000 168.278
61.45000 171.236
61.46000 174.476
61.47000 178.302
61.48000 182.146
61.49000 183.129
61.50000 180.154
61.51000 177.156
61.52000 178.072
61.53000 182.471
61.54000 186.830
61.55000 188.824
61.56000 189.430
61.57000 190.064
61.58000 191.280
61.59000 192.727
61.60000 194.072
61.61000 193.837
61.62000 193.244
61.63000 193.797
61.64000 201.516
61.65000 210.480
61.66000 220.153
61.67000 232.695
61.68000 245.541
61.69000 255.061
61.70000 269.200
61.71000 280.379
61.72000 289.793
61.73000 295.975
61.74000 302.088
61.75000 305.323
61.76000 305.061
61.77000 304.793
61.78000 306.367
61.79000 309.365
61.80000 312.393
61.81000 316.642
61.82000 321.525
61.83000 326.162
61.84000 326.788
61.85000 326.006
61.86000 325.289
61.87000 313.545
61.88000 300.788
61.89000 288.463
61.90000 278.486
61.91000 268.862
61.92000 259.590
61.93000 251.568
61.94000 243.658
61.95000 238.002
61.96000 226.722
61.97000 217.923
61.98000 210.173
61.99000 204.123
62.00000 198.096
62.01000 194.976
62.02000 194.942
62.03000 194.908
62.04000 191.805
62.05000 186.657
62.06000 181.767
62.07000 184.313
62.08000 190.284
62.09000 195.811
62.10000 195.456
62.11000 193.270
62.12000 191.302
62.13000 189.541
62.14000 188.034
62.15000 186.762
62.16000 186.610
62.17000 186.604
62.18000 186.527
62.19000 186.230
62.20000 185.916
62.21000 185.700
62.22000 181.824
62.23000 178.825
62.24000 178.344
62.25000 181.460
62.26000 184.603
62.27000 185.074
62.28000 183.078
62.29000 181.100
62.30000 179.848
62.31000 179.052
62.32000 178.345
62.33000 179.578
62.34000 181.604
62.35000 183.222
62.36000 180.376
62.37000 176.301
62.38000 172.697
62.39000 176.264
62.40000 180.463
62.41000 184.093
62.42000 185.341
62.43000 186.326
62.44000 187.384
62.45000 188.647
62.46000 189.922
62.47000 190.762
62.48000 191.251
62.49000 191.605
62.50000 192.258
62.51000 193.288
62.52000 194.307
62.53000 190.822
62.54000 183.701
62.55000 176.683
62.56000 179.527
62.57000 187.419
62.58000 194.742
62.59000 192.232
62.60000 186.159
62.61000 180.655
62.62000 180.413
62.63000 181.447
62.64000 182.344
62.65000 182.817
62.66000 183.164
62.67000 183.048
62.68000 181.228
62.69000 179.249
62.70000 179.778
62.71000 186.523
62.72000 193.560
62.73000 197.990
62.74000 192.742
62.75000 188.835
62.76000 186.177
62.77000 184.892
62.78000 183.610
62.79000 182.582
62.80000 181.734
62.81000 180.904
62.82000 179.656
62.83000 178.267
62.84000 177.287
62.85000 182.000
62.86000 188.542
62.87000 194.506
62.88000 195.927
62.89000 196.379
62.90000 196.763
62.91000 191.850
62.92000 187.132
62.93000 183.482
62.94000 183.312
62.95000 183.412
62.96000 184.014
62.97000 185.722
62.98000 187.470
62.99000 188.516
63.00000 187.432
63.01000 186.649
63.02000 185.628
63.03000 184.381
63.04000 183.155
63.05000 183.554
63.06000 184.969
63.07000 186.344
63.08000 188.589
63.09000 191.069
63.10000 192.966
63.11000 188.156
63.12000 181.440
63.13000 175.990
63.14000 179.087
63.15000 183.778
63.16000 187.663
63.17000 192.526
63.18000 196.633
63.19000 199.266
63.20000 197.646
63.21000 195.759
63.22000 194.549
63.23000 194.663
63.24000 194.811
63.25000 194.895
63.26000 196.170
63.27000 197.064
63.28000 199.555
63.29000 203.381
63.30000 207.075
63.31000 204.326
63.32000 198.011
63.33000 191.937
63.34000 189.514
63.35000 188.521
63.36000 187.347
63.37000 184.420
63.38000 181.053
63.39000 178.968
63.40000 184.373
63.41000 190.995
63.42000 196.338
63.43000 197.828
63.44000 198.733
63.45000 198.358
63.46000 194.708
63.47000 190.895
63.48000 189.021
63.49000 190.498
63.50000 192.035
63.51000 192.853
63.52000 192.888
63.53000 192.900
63.54000 190.885
63.55000 187.384
63.56000 184.026
63.57000 185.568
63.58000 189.513
63.59000 193.266
63.60000 194.190
63.61000 194.176
63.62000 193.843
63.63000 190.894
63.64000 187.368
63.65000 184.591
63.66000 185.635
63.67000 187.215
63.68000 188.455
63.69000 187.593
63.70000 186.768
63.71000 187.539
63.72000 191.931
63.73000 196.463
63.74000 197.312
63.75000 192.538
63.76000 187.704
63.77000 188.784
63.78000 195.736
63.79000 202.625
63.80000 204.065
63.81000 201.983
63.82000 199.970
63.83000 199.689
63.84000 200.163
63.85000 200.607
63.86000 200.027
63.87000 199.224
63.88000 198.428
63.89000 197.688
63.90000 196.960
63.91000 195.522
63.92000 190.918
63.93000 185.934
63.94000 182.143
63.95000 195.385
63.96000 206.692
63.97000 211.609
63.98000 203.664
63.99000 195.353
64.00000 192.831
64.01000 198.094
64.02000 203.395
64.03000 205.483
64.04000 204.793
64.05000 204.059
64.06000 200.880
64.07000 196.304
64.08000 191.997
64.09000 192.922
64.10000 195.865
64.11000 198.593
64.12000 200.060
64.13000 201.086
64.14000 201.996
64.15000 202.194
64.16000 202.273
64.17000 201.805
64.18000 199.185
64.19000 196.346
64.20000 194.258
64.21000 201.897
64.22000 208.207
64.23000 213.200
64.24000 215.844
64.25000 218.441
64.26000 217.482
64.27000 212.327
64.28000 207.179
64.29000 206.169
64.30000 208.283
64.31000 210.418
64.32000 213.344
64.33000 216.669
64.34000 219.456
64.35000 213.895
64.36000 205.478
64.37000 197.794
64.38000 197.345
64.39000 198.411
64.40000 199.818
64.41000 203.024
64.42000 206.493
64.43000 209.568
64.44000 211.278
64.45000 212.872
64.46000 214.003
64.47000 213.988
64.48000 213.940
64.49000 214.435
64.50000 215.785
64.51000 217.146
64.52000 216.540
64.53000 213.908
64.54000 211.292
64.55000 209.498
64.56000 208.269
64.57000 207.151
64.58000 209.011
64.59000 212.207
64.60000 215.027
64.61000 213.061
64.62000 209.645
64.63000 206.579
64.64000 206.827
64.65000 207.624
64.66000 208.685
64.67000 210.968
64.68000 213.404
64.69000 215.375
64.70000 215.918
64.71000 216.362
64.72000 216.664
64.73000 218.432
64.74000 219.787
64.75000 221.007
64.76000 222.037
64.77000 223.066
64.78000 223.114
64.79000 222.284
64.80000 221.461
64.81000 220.857
64.82000 220.390
64.83000 219.851
64.84000 217.796
64.85000 215.137
64.86000 212.877
64.87000 214.809
64.88000 217.864
64.89000 220.555
64.90000 223.263
64.91000 225.600
64.92000 227.612
64.93000 228.307
64.94000 228.862
64.95000 229.137
64.96000 228.646
64.97000 228.111
64.98000 227.763
64.99000 229.741
65.00000 231.231
65.01000 230.467
65.02000 226.951
65.03000 223.441
65.04000 223.498
65.05000 226.355
65.06000 229.166
65.07000 227.271
65.08000 223.055
65.09000 219.235
65.10000 221.926
65.11000 226.916
65.12000 231.448
65.13000 231.914
65.14000 231.419
65.15000 230.992
65.16000 231.497
65.17000 232.045
65.18000 232.272
65.19000 231.341
65.20000 230.308
65.21000 230.512
65.22000 233.706
65.23000 237.032
65.24000 239.104
65.25000 242.601
65.26000 245.136
65.27000 244.348
65.28000 240.014
65.29000 235.681
65.30000 231.699
65.31000 227.957
65.32000 224.301
65.33000 229.891
65.34000 239.348
65.35000 248.473
65.36000 253.184
65.37000 256.514
65.38000 259.731
65.39000 262.095
65.40000 264.282
65.41000 266.128
65.42000 263.601
65.43000 261.013
65.44000 259.231
65.45000 260.003
65.46000 260.964
65.47000 261.237
65.48000 260.036
65.49000 258.786
65.50000 258.046
65.51000 267.325
65.52000 273.936
65.53000 274.159
65.54000 268.449
65.55000 262.809
65.56000 262.010
65.57000 264.159
65.58000 266.242
65.59000 271.976
65.60000 278.823
65.61000 285.569
65.62000 291.191
65.63000 296.502
65.64000 300.471
65.65000 295.670
65.66000 289.280
65.67000 284.017
65.68000 289.280
65.69000 294.572
65.70000 301.132
65.71000 311.252
65.72000 321.586
65.73000 331.054
65.74000 338.878
65.75000 346.661
65.76000 351.013
65.77000 369.190
65.78000 381.829
65.79000 401.130
65.80000 425.840
65.81000 450.885
65.82000 490.929
65.83000 539.058
65.84000 585.243
65.85000 646.855
65.86000 709.701
65.87000 771.447
65.88000 822.978
65.89000 872.016
65.90000 918.527
65.91000 950.710
65.92000 980.637
65.93000 1004.641
65.94000 1031.459
65.95000 1053.387
65.96000 1070.830
65.97000 1077.094
65.98000 1082.829
65.99000 1089.593
66.00000 1098.088
66.01000 1106.611
66.02000 1111.089
66.03000 1075.762
66.04000 1051.740
66.05000 1019.131
66.06000 980.397
66.07000 941.269
66.08000 889.650
66.09000 832.063
66.10000 777.414
66.11000 708.978
66.12000 641.735
66.13000 576.702
66.14000 529.138
66.15000 485.320
66.16000 445.197
66.17000 423.370
66.18000 404.026
66.19000 388.953
66.20000 383.451
66.21000 379.660
66.22000 374.200
66.23000 365.047
66.24000 355.760
66.25000 350.688
66.26000 351.876
66.27000 353.122
66.28000 354.502
66.29000 356.010
66.30000 357.519
66.31000 359.036
66.32000 360.560
66.33000 362.145
66.34000 365.200
66.35000 368.879
66.36000 372.326
66.37000 379.636
66.38000 387.292
66.39000 395.359
66.40000 406.205
66.41000 417.574
66.42000 428.250
66.43000 435.913
66.44000 443.228
66.45000 448.751
66.46000 470.385
66.47000 488.142
66.48000 499.150
66.49000 496.926
66.50000 494.353
66.51000 491.961
66.52000 489.807
66.53000 487.655
66.54000 496.176
66.55000 513.616
66.56000 530.588
66.57000 524.261
66.58000 504.972
66.59000 486.653
66.60000 486.280
66.61000 492.652
66.62000 498.540
66.63000 483.979
66.64000 466.285
66.65000 449.129
66.66000 435.141
66.67000 421.670
66.68000 409.267
66.69000 400.952
66.70000 393.037
66.71000 387.261
66.72000 387.037
66.73000 387.081
66.74000 386.211
66.75000 383.755
66.76000 381.271
66.77000 380.004
66.78000 380.131
66.79000 380.259
66.80000 383.805
66.81000 389.825
66.82000 395.573
66.83000 391.929
66.84000 383.657
66.85000 376.159
66.86000 380.158
66.87000 387.987
66.88000 395.108
66.89000 395.474
66.90000 394.472
66.91000 393.388
66.92000 391.886
66.93000 390.325
66.94000 391.483
66.95000 401.832
66.96000 412.932
66.97000 420.740
66.98000 411.734
66.99000 404.414
67.00000 404.343
67.01000 415.397
67.02000 426.573
67.03000 430.982
67.04000 428.636
67.05000 426.305
67.06000 423.361
67.07000 420.067
67.08000 416.913
67.09000 417.306
67.10000 419.248
67.11000 421.158
67.12000 422.662
67.13000 424.046
67.14000 425.284
67.15000 426.628
67.16000 427.817
67.17000 429.033
67.18000 430.366
67.19000 431.713
67.20000 434.199
67.21000 440.092
67.22000 446.213
67.23000 450.348
67.24000 450.647
67.25000 450.787
67.26000 450.158
67.27000 448.487
67.28000 446.809
67.29000 443.613
67.30000 439.096
67.31000 434.630
67.32000 436.063
67.33000 440.768
67.34000 445.705
67.35000 455.183
67.36000 466.423
67.37000 476.429
67.38000 473.905
67.39000 468.117
67.40000 463.039
67.41000 466.848
67.42000 471.413
67.43000 477.216
67.44000 487.921
67.45000 499.128
67.46000 505.225
67.47000 497.759
67.48000 489.565
67.49000 484.267
67.50000 484.138
67.51000 484.119
67.52000 486.940
67.53000 493.129
67.54000 499.318
67.55000 503.993
67.56000 507.514
67.57000 510.973
67.58000 508.876
67.59000 504.117
67.60000 499.925
67.61000 504.608
67.62000 512.343
67.63000 519.571
67.64000 522.450
67.65000 524.331
67.66000 525.946
67.67000 536.691
67.68000 546.912
67.69000 552.015
67.70000 539.247
67.71000 524.944
67.72000 518.304
67.73000 529.705
67.74000 541.860
67.75000 549.350
67.76000 558.717
67.77000 565.456
67.78000 566.948
67.79000 563.005
67.80000 559.105
67.81000 559.690
67.82000 563.288
67.83000 566.797
67.84000 570.275
67.85000 573.586
67.86000 576.564
67.87000 575.287
67.88000 572.714
67.89000 571.437
67.90000 579.675
67.91000 589.829
67.92000 598.354
67.93000 598.405
67.94000 597.559
67.95000 598.307
67.96000 603.984
67.97000 610.010
67.98000 617.337
67.99000 627.378
68.00000 637.505
68.01000 643.426
68.02000 637.922
68.03000 633.999
68.04000 636.378
68.05000 644.437
68.06000 652.447
68.07000 657.406
68.08000 660.556
68.09000 663.602
68.10000 661.996
68.11000 658.723
68.12000 656.353
68.13000 663.576
68.14000 673.382
68.15000 683.069
68.16000 692.009
68.17000 700.818
68.18000 708.032
68.19000 704.535
68.20000 700.726
68.21000 697.348
68.22000 695.150
68.23000 693.019
68.24000 696.950
68.25000 712.100
68.26000 727.498
68.27000 735.996
68.28000 725.753
68.29000 718.682
68.30000 718.424
68.31000 723.541
68.32000 728.874
68.33000 743.104
68.34000 762.005
68.35000 780.101
68.36000 787.542
68.37000 790.954
68.38000 794.287
68.39000 796.909
68.40000 799.362
68.41000 801.706
68.42000 803.446
68.43000 805.095
68.44000 806.409
68.45000 817.407
68.46000 826.985
68.47000 835.470
68.48000 841.302
68.49000 847.014
68.50000 854.689
68.51000 865.579
68.52000 876.515
68.53000 882.178
68.54000 904.369
68.55000 919.251
68.56000 922.691
68.57000 918.194
68.58000 914.140
68.59000 923.228
68.60000 938.432
68.61000 952.823
68.62000 977.114
68.63000 1002.322
68.64000 1024.907
68.65000 1027.462
68.66000 1025.842
68.67000 1031.447
68.68000 1071.817
68.69000 1116.753
68.70000 1151.537
68.71000 1178.883
68.72000 1200.151
68.73000 1233.672
68.74000 1293.589
68.75000 1354.401
68.76000 1407.564
68.77000 1449.673
68.78000 1491.686
68.79000 1548.611
68.80000 1619.437
68.81000 1690.109
68.82000 1749.939
68.83000 1803.131
68.84000 1856.442
68.85000 1912.415
68.86000 1969.486
68.87000 2022.811
68.88000 2095.160
68.89000 2165.604
68.90000 2234.030
68.91000 2289.188
68.92000 2341.929
68.93000 2401.277
68.94000 2488.541
68.95000 2578.933
68.96000 2646.705
68.97000 2859.111
68.98000 3031.820
68.99000 3276.794
69.00000 3659.786
69.01000 4046.145
69.02000 4760.615
69.03000 5892.132
69.04000 7023.543
69.05000 9164.013
69.06000 12117.535
69.07000 15103.649
69.08000 19574.184
69.09000 24848.953
69.10000 30140.609
69.11000 35729.465
69.12000 41427.145
69.13000 46674.387
69.14000 51260.426
69.15000 55217.887
69.16000 58931.797
69.17000 61256.016
69.18000 63360.160
69.19000 65099.328
69.20000 65479.199
69.21000 65730.672
69.22000 65912.781
69.23000 66098.813
69.24000 66241.805
69.25000 66518.250
69.26000 67020.336
69.27000 67526.094
69.28000 68012.125
69.29000 68476.203
69.30000 68938.477
69.31000 68173.430
69.32000 66543.477
69.33000 64863.434
69.34000 61572.195
69.35000 57507.328
69.36000 53478.137
69.37000 49955.164
69.38000 46596.477
69.39000 43552.520
69.40000 41068.023
69.41000 38983.754
69.42000 37052.145
69.43000 35880.863
69.44000 34813.488
69.45000 33781.930
69.46000 32868.266
69.47000 31963.855
69.48000 31333.162
69.49000 29495.293
69.50000 28074.654
69.51000 26238.992
69.52000 23783.516
69.53000 21322.072
69.54000 18668.400
69.55000 15828.573
69.56000 13010.262
69.57000 10726.350
69.58000 8813.232
69.59000 6926.100
69.60000 5663.483
69.61000 4666.851
69.62000 3710.583
69.63000 3225.797
69.64000 2876.417
69.65000 2565.329
69.66000 2352.487
69.67000 2183.682
69.68000 2029.841
69.69000 1941.378
69.70000 1860.557
69.71000 1786.421
69.72000 1731.775
69.73000 1678.378
69.74000 1642.640
69.75000 1557.173
69.76000 1492.803
69.77000 1441.534
69.78000 1407.490
69.79000 1373.535
69.80000 1345.496
69.81000 1322.456
69.82000 1299.705
69.83000 1264.858
69.84000 1224.324
69.85000 1184.589
69.86000 1159.795
69.87000 1140.647
69.88000 1123.138
69.89000 1121.665
69.90000 1124.256
69.91000 1126.519
69.92000 1092.027
69.93000 1057.337
69.94000 1027.922
69.95000 1018.812
69.96000 1011.709
69.97000 1002.687
69.98000 988.706
69.99000 974.470
70.00000 965.360
