36.00000 43.947
36.01000 48.801
36.02000 56.873
36.03000 43.463
36.04000 40.179
36.05000 45.982
36.06000 49.173
36.07000 37.870
36.08000 45.835
36.09000 42.672
36.10000 51.128
36.11000 56.033
36.12000 67.113
36.13000 49.967
36.14000 49.930
36.15000 35.673
36.16000 38.854
36.17000 41.996
36.18000 32.183
36.19000 47.971
36.20000 38.126
36.21000 39.920
36.22000 49.006
36.23000 54.187
36.24000 47.966
36.25000 40.171
36.26000 47.933
36.27000 42.990
36.28000 63.958
36.29000 40.036
36.30000 47.823
36.31000 52.182
36.32000 52.122
36.33000 47.014
36.34000 45.711
36.35000 60.610
36.36000 41.207
36.37000 45.977
36.38000 47.992
36.39000 50.879
36.40000 46.033
36.41000 50.995
36.42000 44.577
36.43000 53.926
36.44000 41.052
36.45000 44.843
36.46000 40.863
36.47000 39.022
36.48000 40.082
36.49000 39.190
36.50000 59.035
36.51000 51.794
36.52000 44.090
36.53000 57.004
36.54000 50.926
36.55000 49.748
36.56000 53.084
36.57000 58.790
36.58000 50.794
36.59000 40.967
36.60000 56.033
36.61000 41.852
36.62000 47.813
36.63000 40.024
36.64000 32.970
36.65000 53.144
36.66000 43.054
36.67000 43.774
36.68000 45.803
36.69000 31.020
36.70000 47.133
36.71000 46.903
36.72000 46.083
36.73000 46.928
36.74000 40.157
36.75000 57.214
36.76000 47.223
36.77000 40.883
36.78000 49.778
36.79000 45.943
36.80000 46.141
36.81000 56.897
36.82000 49.024
36.83000 50.061
36.84000 59.042
36.85000 45.075
36.86000 49.112
36.87000 43.080
36.88000 44.003
36.89000 39.179
36.90000 38.215
36.91000 52.265
36.92000 54.129
36.93000 47.167
36.94000 55.906
36.95000 64.107
36.96000 50.887
36.97000 61.935
36.98000 49.747
36.99000 46.074
37.00000 54.212
37.01000 49.300
37.02000 51.122
37.03000 44.911
37.04000 36.982
37.05000 38.972
37.06000 54.082
37.07000 41.957
37.08000 49.937
37.09000 53.754
37.10000 42.831
37.11000 50.814
37.12000 40.189
37.13000 43.117
37.14000 51.893
37.15000 39.876
37.16000 44.811
37.17000 53.042
37.18000 47.296
37.19000 37.736
37.20000 60.255
37.21000 54.111
37.22000 47.868
37.23000 65.785
37.24000 58.084
37.25000 51.050
37.26000 56.231
37.27000 44.967
37.28000 45.995
37.29000 48.923
37.30000 47.920
37.31000 53.293
37.32000 43.699
37.33000 45.085
37.34000 58.842
37.35000 59.933
37.36000 51.007
37.37000 39.821
37.38000 44.955
37.39000 43.704
37.40000 42.612
37.41000 43.999
37.42000 52.893
37.43000 51.217
37.44000 55.293
37.45000 31.951
37.46000 45.065
37.47000 51.809
37.48000 33.884
37.49000 45.913
37.50000 41.226
37.51000 57.120
37.52000 39.946
37.53000 49.002
37.54000 58.126
37.55000 50.891
37.56000 55.069
37.57000 46.715
37.58000 51.807
37.59000 49.778
37.60000 58.763
37.61000 46.892
37.62000 54.088
37.63000 55.169
37.64000 54.165
37.65000 36.175
37.66000 56.833
37.67000 65.135
37.68000 60.097
37.69000 59.646
37.70000 49.212
37.71000 63.133
37.72000 62.087
37.73000 54.704
37.74000 61.847
37.75000 54.005
37.76000 39.952
37.77000 54.147
37.78000 53.906
37.79000 60.718
37.80000 55.198
37.81000 58.390
37.82000 54.940
37.83000 54.016
37.84000 49.222
37.85000 45.008
37.86000 61.616
37.87000 50.827
37.88000 70.984
37.89000 63.075
37.90000 67.582
37.91000 63.213
37.92000 55.962
37.93000 69.781
37.94000 62.064
37.95000 56.133
37.96000 74.345
37.97000 66.992
37.98000 61.688
37.99000 77.662
38.00000 67.014
38.01000 74.851
38.02000 79.059
38.03000 87.025
38.04000 59.280
38.05000 73.159
38.06000 72.770
38.07000 69.118
38.08000 77.438
38.09000 71.013
38.10000 89.138
38.11000 79.007
38.12000 87.850
38.13000 82.271
38.14000 67.251
38.15000 71.978
38.16000 69.009
38.17000 72.341
38.18000 61.934
38.19000 74.332
38.20000 63.756
38.21000 47.945
38.22000 68.945
38.23000 83.943
38.24000 72.864
38.25000 82.325
38.26000 70.877
38.27000 79.731
38.28000 71.308
38.29000 69.387
38.30000 64.890
38.31000 74.116
38.32000 78.781
38.33000 78.226
38.34000 85.680
38.35000 75.772
38.36000 56.877
38.37000 61.934
38.38000 71.511
38.39000 74.132
38.40000 58.072
38.41000 60.987
38.42000 64.106
38.43000 78.319
38.44000 62.902
38.45000 68.090
38.46000 50.037
38.47000 65.000
38.48000 80.903
38.49000 66.946
38.50000 59.061
38.51000 50.000
38.52000 71.977
38.53000 38.988
38.54000 67.931
38.55000 57.032
38.56000 54.190
38.57000 82.004
38.58000 65.911
38.59000 55.052
38.60000 57.056
38.61000 55.059
38.62000 62.848
38.63000 54.900
38.64000 71.028
38.65000 49.894
38.66000 61.706
38.67000 61.113
38.68000 57.212
38.69000 53.547
38.70000 57.229
38.71000 63.043
38.72000 59.986
38.73000 58.799
38.74000 55.898
38.75000 55.956
38.76000 61.050
38.77000 56.921
38.78000 57.130
38.79000 60.042
38.80000 48.899
38.81000 53.031
38.82000 62.141
38.83000 58.229
38.84000 53.088
38.85000 55.915
38.86000 50.035
38.87000 60.468
38.88000 53.576
38.89000 53.970
38.90000 60.098
38.91000 65.875
38.92000 45.057
38.93000 47.478
38.94000 52.079
38.95000 47.745
38.96000 57.339
38.97000 49.094
38.98000 55.135
38.99000 52.984
39.00000 46.961
39.01000 54.879
39.02000 61.123
39.03000 50.096
39.04000 43.803
39.05000 70.926
39.06000 59.922
39.07000 39.775
39.08000 52.166
39.09000 60.074
39.10000 66.015
39.11000 51.004
39.12000 47.049
39.13000 66.176
39.14000 62.686
39.15000 55.786
39.16000 57.253
39.17000 60.034
39.18000 43.893
39.19000 65.121
39.20000 58.290
39.21000 57.820
39.22000 46.974
39.23000 57.080
39.24000 59.728
39.25000 59.946
39.26000 51.820
39.27000 65.030
39.28000 54.164
39.29000 66.946
39.30000 57.859
39.31000 68.900
39.32000 39.779
39.33000 55.302
39.34000 44.413
39.35000 51.860
39.36000 54.053
39.37000 60.944
39.38000 64.877
39.39000 51.861
39.40000 49.554
39.41000 49.874
39.42000 48.986
39.43000 55.935
39.44000 43.740
39.45000 62.130
39.46000 50.179
39.47000 46.937
39.48000 57.118
39.49000 45.097
39.50000 50.027
39.51000 48.049
39.52000 73.051
39.53000 67.026
39.54000 48.084
39.55000 51.815
39.56000 53.006
39.57000 57.692
39.58000 52.102
39.59000 58.025
39.60000 53.782
39.61000 53.012
39.62000 51.090
39.63000 62.943
39.64000 56.093
39.65000 59.746
39.66000 54.897
39.67000 52.265
39.68000 37.975
39.69000 63.862
39.70000 37.872
39.71000 50.257
39.72000 71.254
39.73000 66.918
39.74000 52.029
39.75000 45.855
39.76000 47.222
39.77000 60.042
39.78000 48.937
39.79000 46.134
39.80000 56.791
39.81000 47.012
39.82000 57.048
39.83000 50.076
39.84000 47.936
39.85000 57.666
39.86000 63.916
39.87000 46.124
39.88000 74.054
39.89000 55.837
39.90000 54.027
39.91000 55.058
39.92000 43.929
39.93000 51.846
39.94000 51.962
39.95000 65.898
39.96000 60.994
39.97000 62.089
39.98000 46.812
39.99000 59.900
40.00000 75.154
40.01000 54.990
40.02000 56.197
40.03000 53.661
40.04000 49.928
40.05000 70.298
40.06000 54.900
40.07000 59.149
40.08000 55.174
40.09000 73.175
40.10000 62.003
40.11000 45.002
40.12000 49.886
40.13000 58.981
40.14000 57.812
40.15000 61.826
40.16000 56.521
40.17000 47.814
40.18000 55.850
40.19000 47.998
40.20000 57.068
40.21000 47.829
40.22000 66.106
40.23000 48.289
40.24000 50.982
40.25000 42.900
40.26000 49.840
40.27000 56.102
40.28000 58.050
40.29000 48.199
40.30000 48.789
40.31000 52.703
40.32000 64.370
40.33000 55.922
40.34000 57.382
40.35000 57.881
40.36000 59.694
40.37000 53.152
40.38000 47.200
40.39000 57.982
40.40000 53.878
40.41000 53.154
40.42000 56.952
40.43000 59.774
40.44000 65.047
40.45000 60.072
40.46000 51.956
40.47000 57.907
40.48000 50.906
40.49000 61.231
40.50000 45.885
40.51000 57.143
40.52000 66.855
40.53000 60.778
40.54000 47.174
40.55000 51.855
40.56000 66.943
40.57000 60.112
40.58000 44.866
40.59000 41.894
40.60000 42.035
40.61000 53.089
40.62000 55.430
40.63000 53.828
40.64000 53.717
40.65000 52.979
40.66000 47.867
40.67000 49.120
40.68000 59.969
40.69000 43.909
40.70000 56.051
40.71000 50.960
40.72000 52.040
40.73000 66.821
40.74000 71.014
40.75000 52.819
40.76000 59.748
40.77000 49.188
40.78000 44.545
40.79000 58.613
40.80000 38.895
40.81000 65.109
40.82000 58.901
40.83000 56.792
40.84000 59.986
40.85000 63.857
40.86000 66.060
40.87000 58.044
40.88000 45.379
40.89000 49.099
40.90000 42.025
40.91000 70.192
40.92000 55.078
40.93000 79.913
40.94000 52.879
40.95000 53.106
40.96000 78.372
40.97000 59.086
40.98000 57.160
40.99000 61.939
41.00000 68.246
41.01000 55.998
41.02000 45.595
41.03000 45.985
41.04000 68.154
41.05000 54.041
41.06000 55.577
41.07000 61.843
41.08000 54.234
41.09000 64.885
41.10000 49.946
41.11000 53.624
41.12000 64.039
41.13000 61.904
41.14000 63.675
41.15000 55.977
41.16000 55.830
41.17000 70.047
41.18000 58.206
41.19000 59.288
41.20000 50.910
41.21000 54.059
41.22000 53.712
41.23000 52.431
41.24000 62.109
41.25000 55.918
41.26000 60.865
41.27000 48.891
41.28000 57.673
41.29000 59.896
41.30000 64.713
41.31000 60.034
41.32000 66.189
41.33000 51.800
41.34000 47.993
41.35000 57.176
41.36000 54.144
41.37000 47.064
41.38000 47.950
41.39000 63.867
41.40000 54.347
41.41000 51.868
41.42000 55.177
41.43000 47.904
41.44000 62.127
41.45000 48.066
41.46000 50.848
41.47000 50.123
41.48000 59.059
41.49000 57.155
41.50000 58.847
41.51000 59.281
41.52000 60.047
41.53000 51.904
41.54000 58.874
41.55000 57.304
41.56000 46.829
41.57000 65.263
41.58000 60.052
41.59000 60.261
41.60000 61.994
41.61000 55.381
41.62000 66.881
41.63000 67.797
41.64000 65.961
41.65000 58.960
41.66000 52.094
41.67000 62.331
41.68000 63.361
41.69000 50.754
41.70000 55.774
41.71000 55.084
41.72000 55.911
41.73000 51.281
41.74000 67.927
41.75000 61.877
41.76000 49.962
41.77000 68.946
41.78000 54.800
41.79000 66.758
41.80000 62.920
41.81000 46.067
41.82000 60.908
41.83000 67.141
41.84000 53.887
41.85000 64.099
41.86000 67.074
41.87000 44.871
41.88000 65.044
41.89000 66.862
41.90000 66.874
41.91000 50.805
41.92000 60.125
41.93000 59.107
41.94000 69.162
41.95000 57.085
41.96000 57.039
41.97000 53.890
41.98000 45.891
41.99000 77.059
42.00000 68.975
42.01000 72.980
42.02000 45.949
42.03000 63.038
42.04000 64.118
42.05000 65.057
42.06000 50.897
42.07000 70.727
42.08000 80.784
42.09000 72.082
42.10000 50.845
42.11000 62.048
42.12000 69.157
42.13000 59.241
42.14000 64.850
42.15000 68.012
42.16000 61.866
42.17000 62.075
42.18000 48.911
42.19000 57.107
42.20000 59.767
42.21000 75.217
42.22000 71.022
42.23000 66.935
42.24000 81.970
42.25000 68.097
42.26000 62.073
42.27000 78.248
42.28000 56.317
42.29000 74.269
42.30000 64.179
42.31000 75.658
42.32000 76.311
42.33000 73.437
42.34000 73.022
42.35000 59.843
42.36000 65.858
42.37000 67.869
42.38000 58.771
42.39000 75.880
42.40000 68.226
42.41000 64.047
42.42000 78.945
42.43000 63.063
42.44000 65.836
42.45000 67.833
42.46000 67.661
42.47000 86.074
42.48000 68.114
42.49000 68.436
42.50000 85.306
42.51000 94.570
42.52000 81.889
42.53000 89.047
42.54000 83.128
42.55000 79.164
42.56000 86.965
42.57000 95.694
42.58000 105.026
42.59000 105.130
42.60000 106.116
42.61000 105.416
42.62000 99.178
42.63000 109.487
42.64000 104.456
42.65000 103.927
42.66000 112.350
42.67000 123.469
42.68000 114.179
42.69000 135.716
42.70000 115.441
42.71000 124.370
42.72000 136.168
42.73000 119.579
42.74000 155.051
42.75000 160.171
42.76000 131.141
42.77000 164.030
42.78000 175.939
42.79000 157.992
42.80000 147.181
42.81000 183.351
42.82000 187.125
42.83000 165.535
42.84000 200.130
42.85000 169.241
42.86000 191.951
42.87000 201.034
42.88000 181.555
42.89000 217.436
42.90000 181.195
42.91000 168.808
42.92000 188.282
42.93000 179.254
42.94000 192.103
42.95000 165.943
42.96000 193.420
42.97000 171.736
42.98000 173.480
42.99000 163.949
43.00000 197.713
43.01000 172.721
43.02000 164.696
43.03000 151.334
43.04000 170.733
43.05000 154.521
43.06000 160.913
43.07000 145.630
43.08000 172.163
43.09000 157.096
43.10000 140.061
43.11000 166.398
43.12000 168.722
43.13000 147.626
43.14000 136.617
43.15000 136.055
43.16000 124.773
43.17000 120.419
43.18000 119.104
43.19000 107.048
43.20000 139.667
43.21000 117.798
43.22000 112.212
43.23000 96.302
43.24000 120.319
43.25000 108.295
43.26000 104.043
43.27000 97.015
43.28000 93.453
43.29000 78.108
43.30000 102.989
43.31000 92.759
43.32000 75.150
43.33000 76.645
43.34000 84.138
43.35000 88.501
43.36000 79.029
43.37000 72.225
43.38000 56.648
43.39000 78.205
43.40000 96.373
43.41000 58.520
43.42000 74.105
43.43000 64.129
43.44000 80.837
43.45000 77.085
43.46000 75.243
43.47000 71.028
43.48000 68.032
43.49000 69.918
43.50000 76.984
43.51000 67.127
43.52000 82.268
43.53000 69.257
43.54000 60.837
43.55000 66.877
43.56000 74.141
43.57000 78.932
43.58000 66.973
43.59000 71.181
43.60000 53.876
43.61000 62.039
43.62000 56.702
43.63000 71.029
43.64000 62.952
43.65000 61.641
43.66000 60.282
43.67000 67.154
43.68000 63.859
43.69000 56.065
43.70000 74.741
43.71000 54.029
43.72000 57.016
43.73000 64.231
43.74000 56.844
43.75000 50.830
43.76000 67.350
43.77000 66.618
43.78000 58.834
43.79000 60.619
43.80000 60.985
43.81000 71.943
43.82000 72.191
43.83000 59.996
43.84000 62.215
43.85000 58.286
43.86000 76.880
43.87000 53.013
43.88000 55.891
43.89000 60.141
43.90000 69.609
43.91000 69.602
43.92000 58.096
43.93000 62.880
43.94000 67.718
43.95000 63.021
43.96000 63.079
43.97000 59.198
43.98000 45.896
43.99000 59.204
44.00000 69.843
44.01000 58.771
44.02000 56.808
44.03000 57.107
44.04000 69.615
44.05000 58.526
44.06000 66.880
44.07000 72.914
44.08000 62.985
44.09000 66.967
44.10000 54.027
44.11000 68.829
44.12000 81.961
44.13000 66.152
44.14000 77.814
44.15000 70.894
44.16000 64.926
44.17000 64.122
44.18000 75.116
44.19000 69.587
44.20000 64.801
44.21000 63.041
44.22000 62.754
44.23000 66.062
44.24000 64.317
44.25000 72.256
44.26000 84.022
44.27000 56.920
44.28000 73.415
44.29000 71.779
44.30000 68.993
44.31000 62.813
44.32000 72.006
44.33000 68.780
44.34000 69.880
44.35000 78.844
44.36000 63.014
44.37000 80.774
44.38000 66.789
44.39000 86.367
44.40000 69.113
44.41000 74.698
44.42000 73.898
44.43000 72.186
44.44000 78.945
44.45000 84.666
44.46000 88.359
44.47000 78.891
44.48000 68.730
44.49000 69.092
44.50000 75.213
44.51000 72.108
44.52000 80.419
44.53000 79.973
44.54000 71.202
44.55000 76.928
44.56000 63.723
44.57000 74.882
44.58000 62.125
44.59000 69.437
44.60000 74.076
44.61000 75.289
44.62000 76.126
44.63000 76.911
44.64000 69.335
44.65000 72.497
44.66000 84.132
44.67000 76.764
44.68000 73.089
44.69000 86.598
44.70000 70.888
44.71000 78.802
44.72000 73.328
44.73000 75.983
44.74000 80.957
44.75000 79.945
44.76000 69.315
44.77000 70.345
44.78000 71.934
44.79000 75.170
44.80000 55.135
44.81000 71.151
44.82000 70.160
44.83000 81.085
44.84000 64.051
44.85000 49.033
44.86000 64.243
44.87000 58.799
44.88000 55.836
44.89000 63.437
44.90000 60.011
44.91000 61.899
44.92000 59.154
44.93000 65.993
44.94000 53.084
44.95000 73.039
44.96000 68.701
44.97000 57.126
44.98000 54.006
44.99000 66.924
45.00000 57.473
45.01000 58.697
45.02000 55.777
45.03000 45.134
45.04000 62.046
45.05000 52.847
45.06000 52.006
45.07000 57.855
45.08000 61.047
45.09000 50.865
45.10000 58.974
45.11000 62.049
45.12000 64.868
45.13000 60.194
45.14000 59.177
45.15000 57.122
45.16000 65.099
45.17000 63.844
45.18000 56.062
45.19000 53.777
45.20000 58.120
45.21000 63.759
45.22000 73.247
45.23000 58.217
45.24000 57.082
45.25000 59.077
45.26000 61.275
45.27000 56.828
45.28000 57.963
45.29000 48.921
45.30000 71.389
45.31000 53.837
45.32000 53.009
45.33000 62.999
45.34000 63.015
45.35000 57.212
45.36000 60.142
45.37000 53.863
45.38000 42.959
45.39000 71.949
45.40000 59.726
45.41000 53.044
45.42000 57.981
45.43000 50.983
45.44000 65.980
45.45000 44.116
45.46000 47.803
45.47000 50.756
45.48000 70.924
45.49000 44.286
45.50000 57.276
45.51000 58.159
45.52000 46.175
45.53000 59.876
45.54000 49.073
45.55000 52.043
45.56000 51.787
45.57000 58.028
45.58000 39.009
45.59000 52.086
45.60000 65.931
45.61000 54.998
45.62000 58.785
45.63000 49.944
45.64000 58.100
45.65000 52.073
45.66000 52.898
45.67000 52.890
45.68000 41.140
45.69000 48.791
45.70000 61.090
45.71000 54.792
45.72000 60.062
45.73000 61.038
45.74000 63.904
45.75000 69.027
45.76000 65.969
45.77000 51.995
45.78000 48.208
45.79000 57.071
45.80000 60.117
45.81000 44.908
45.82000 56.083
45.83000 55.956
45.84000 50.840
45.85000 57.998
45.86000 41.757
45.87000 47.801
45.88000 57.172
45.89000 59.173
45.90000 50.995
45.91000 50.001
45.92000 48.293
45.93000 46.844
45.94000 38.186
45.95000 53.901
45.96000 54.202
45.97000 47.131
45.98000 57.814
45.99000 43.033
46.00000 46.185
46.01000 47.076
46.02000 49.953
46.03000 51.961
46.04000 55.118
46.05000 46.905
46.06000 43.839
46.07000 38.989
46.08000 54.971
46.09000 35.779
46.10000 43.024
46.11000 54.074
46.12000 53.114
46.13000 50.151
46.14000 51.120
46.15000 47.097
46.16000 54.740
46.17000 54.889
46.18000 40.253
46.19000 52.051
46.20000 60.759
46.21000 55.744
46.22000 61.975
46.23000 49.992
46.24000 53.118
46.25000 46.208
46.26000 56.784
46.27000 43.137
46.28000 48.828
46.29000 46.867
46.30000 40.999
46.31000 34.216
46.32000 42.315
46.33000 60.146
46.34000 60.097
46.35000 48.317
46.36000 47.993
46.37000 55.877
46.38000 53.968
46.39000 44.074
46.40000 43.121
46.41000 44.955
46.42000 59.021
46.43000 57.186
46.44000 41.927
46.45000 47.892
46.46000 55.207
46.47000 60.642
46.48000 50.968
46.49000 50.955
46.50000 44.023
46.51000 39.845
46.52000 44.935
46.53000 51.823
46.54000 57.247
46.55000 50.107
46.56000 46.960
46.57000 38.188
46.58000 52.708
46.59000 51.835
46.60000 54.876
46.61000 42.959
46.62000 64.713
46.63000 43.862
46.64000 51.914
46.65000 49.970
46.66000 50.106
46.67000 61.842
46.68000 50.955
46.69000 46.995
46.70000 37.069
46.71000 54.952
46.72000 60.040
46.73000 41.907
46.74000 42.937
46.75000 53.047
46.76000 44.907
46.77000 53.872
46.78000 49.955
46.79000 66.691
46.80000 51.817
46.81000 45.146
46.82000 47.860
46.83000 56.850
46.84000 49.200
46.85000 52.102
46.86000 58.993
46.87000 53.999
46.88000 51.838
46.89000 58.356
46.90000 53.908
46.91000 41.367
46.92000 43.947
46.93000 55.917
46.94000 58.948
46.95000 57.758
46.96000 44.401
46.97000 39.871
46.98000 54.752
46.99000 44.964
47.00000 71.982
47.01000 54.133
47.02000 55.931
47.03000 57.096
47.04000 49.774
47.05000 57.004
47.06000 45.975
47.07000 45.232
47.08000 57.021
47.09000 53.145
47.10000 53.016
47.11000 66.873
47.12000 59.897
47.13000 57.178
47.14000 55.296
47.15000 63.945
47.16000 45.096
47.17000 46.814
47.18000 50.796
47.19000 51.093
47.20000 45.866
47.21000 47.914
47.22000 34.939
47.23000 60.921
47.24000 64.176
47.25000 48.049
47.26000 55.172
47.27000 47.908
47.28000 55.797
47.29000 56.935
47.30000 50.057
47.31000 49.144
47.32000 50.892
47.33000 45.998
47.34000 54.875
47.35000 42.247
47.36000 57.634
47.37000 57.754
47.38000 54.823
47.39000 57.936
47.40000 54.882
47.41000 50.028
47.42000 41.348
47.43000 46.825
47.44000 41.284
47.45000 45.985
47.46000 50.841
47.47000 49.289
47.48000 33.310
47.49000 51.868
47.50000 55.863
47.51000 56.266
47.52000 45.862
47.53000 50.209
47.54000 40.015
47.55000 50.070
47.56000 56.025
47.57000 46.141
47.58000 44.124
47.59000 42.041
47.60000 50.094
47.61000 35.890
47.62000 43.844
47.63000 46.081
47.64000 42.181
47.65000 58.310
47.66000 36.981
47.67000 43.910
47.68000 69.115
47.69000 58.065
47.70000 49.690
47.71000 54.954
47.72000 43.113
47.73000 40.865
47.74000 52.936
47.75000 48.768
47.76000 46.095
47.77000 59.995
47.78000 42.098
47.79000 41.248
47.80000 38.145
47.81000 52.100
47.82000 40.090
47.83000 65.958
47.84000 45.843
47.85000 52.066
47.86000 48.830
47.87000 42.974
47.88000 39.985
47.89000 47.927
47.90000 41.754
47.91000 41.888
47.92000 45.026
47.93000 41.833
47.94000 50.781
47.95000 65.705
47.96000 47.458
47.97000 50.936
47.98000 27.901
47.99000 61.004
48.00000 56.311
48.01000 44.989
48.02000 35.126
48.03000 54.883
48.04000 39.031
48.05000 52.353
48.06000 42.742
48.07000 44.959
48.08000 42.915
48.09000 48.241
48.10000 53.802
48.11000 46.212
48.12000 47.870
48.13000 58.265
48.14000 57.930
48.15000 49.571
48.16000 42.781
48.17000 58.828
48.18000 61.940
48.19000 47.822
48.20000 38.046
48.21000 49.036
48.22000 49.180
48.23000 42.121
48.24000 48.681
48.25000 50.058
48.26000 47.105
48.27000 45.889
48.28000 54.728
48.29000 48.871
48.30000 50.739
48.31000 51.991
48.32000 39.910
48.33000 53.965
48.34000 48.033
48.35000 44.078
48.36000 55.098
48.37000 50.053
48.38000 49.005
48.39000 46.964
48.40000 45.964
48.41000 44.169
48.42000 46.091
48.43000 39.484
48.44000 36.871
48.45000 54.797
48.46000 51.928
48.47000 47.999
48.48000 65.930
48.49000 41.188
48.50000 53.895
48.51000 38.208
48.52000 49.734
48.53000 47.734
48.54000 38.079
48.55000 57.079
48.56000 54.044
48.57000 49.160
48.58000 45.453
48.59000 41.714
48.60000 48.161
48.61000 43.013
48.62000 44.950
48.63000 55.801
48.64000 51.077
48.65000 55.996
48.66000 53.077
48.67000 53.915
48.68000 47.097
48.69000 50.998
48.70000 44.529
48.71000 47.198
48.72000 41.185
48.73000 56.095
48.74000 65.059
48.75000 50.398
48.76000 36.904
48.77000 58.926
48.78000 38.871
48.79000 29.039
48.80000 39.190
48.81000 42.030
48.82000 43.883
48.83000 49.441
48.84000 46.116
48.85000 49.033
48.86000 57.900
48.87000 55.822
48.88000 53.904
48.89000 41.024
48.90000 63.937
48.91000 48.176
48.92000 56.185
48.93000 51.090
48.94000 42.957
48.95000 33.889
48.96000 45.202
48.97000 53.155
48.98000 39.958
48.99000 56.819
49.00000 53.230
49.01000 55.944
49.02000 52.135
49.03000 45.348
49.04000 47.269
49.05000 41.845
49.06000 54.191
49.07000 51.918
49.08000 43.183
49.09000 39.098
49.10000 46.030
49.11000 54.790
49.12000 65.012
49.13000 51.098
49.14000 39.172
49.15000 60.101
49.16000 47.959
49.17000 43.878
49.18000 49.005
49.19000 48.042
49.20000 50.785
49.21000 45.927
49.22000 47.146
49.23000 53.985
49.24000 43.937
49.25000 53.017
49.26000 54.811
49.27000 46.138
49.28000 44.948
49.29000 47.059
49.30000 54.936
49.31000 41.069
49.32000 38.968
49.33000 45.942
49.34000 49.084
49.35000 45.942
49.36000 45.933
49.37000 37.693
49.38000 50.914
49.39000 43.806
49.40000 43.182
49.41000 54.033
49.42000 49.888
49.43000 45.943
49.44000 39.883
49.45000 46.167
49.46000 55.951
49.47000 65.981
49.48000 42.235
49.49000 44.070
49.50000 49.787
49.51000 44.870
49.52000 51.964
49.53000 39.847
49.54000 41.006
49.55000 37.261
49.56000 40.049
49.57000 41.107
49.58000 60.949
49.59000 50.032
49.60000 39.901
49.61000 45.038
49.62000 44.945
49.63000 47.092
49.64000 50.048
49.65000 51.912
49.66000 50.869
49.67000 55.979
49.68000 46.837
49.69000 49.084
49.70000 47.170
49.71000 47.944
49.72000 56.121
49.73000 55.902
49.74000 36.902
49.75000 52.136
49.76000 61.890
49.77000 44.000
49.78000 44.257
49.79000 55.345
49.80000 53.089
49.81000 55.353
49.82000 48.918
49.83000 47.834
49.84000 36.972
49.85000 52.058
49.86000 36.990
49.87000 51.949
49.88000 54.028
49.89000 60.340
49.90000 33.695
49.91000 52.036
49.92000 37.927
49.93000 42.675
49.94000 50.969
49.95000 42.802
49.96000 51.987
49.97000 41.986
49.98000 54.668
49.99000 43.050
50.00000 62.171
50.01000 37.065
50.02000 43.100
50.03000 44.017
50.04000 46.228
50.05000 43.854
50.06000 52.189
50.07000 58.789
50.08000 50.917
50.09000 46.066
50.10000 61.601
50.11000 37.888
50.12000 45.087
50.13000 50.153
50.14000 59.027
50.15000 42.163
50.16000 45.992
50.17000 58.212
50.18000 45.982
50.19000 50.847
50.20000 53.051
50.21000 43.154
50.22000 41.077
50.23000 56.832
50.24000 58.732
50.25000 48.936
50.26000 50.241
50.27000 54.954
50.28000 46.984
50.29000 43.023
50.30000 37.078
50.31000 38.062
50.32000 51.871
50.33000 38.066
50.34000 50.978
50.35000 56.430
50.36000 57.737
50.37000 43.103
50.38000 43.632
50.39000 41.899
50.40000 50.888
50.41000 46.221
50.42000 36.941
50.43000 50.753
50.44000 44.922
50.45000 47.134
50.46000 52.894
50.47000 41.984
50.48000 42.750
50.49000 61.153
50.50000 50.987
50.51000 56.708
50.52000 47.854
50.53000 45.035
50.54000 39.970
50.55000 37.795
50.56000 34.112
50.57000 43.076
50.58000 47.783
50.59000 44.988
50.60000 48.133
50.61000 54.878
50.62000 40.311
50.63000 50.092
50.64000 38.154
50.65000 50.705
50.66000 56.156
50.67000 38.910
50.68000 35.884
50.69000 41.186
50.70000 41.333
50.71000 40.002
50.72000 45.634
50.73000 56.051
50.74000 42.233
50.75000 40.914
50.76000 50.921
50.77000 52.959
50.78000 50.946
50.79000 54.101
50.80000 38.957
50.81000 32.942
50.82000 45.820
50.83000 42.092
50.84000 46.105
50.85000 39.190
50.86000 49.028
50.87000 49.816
50.88000 49.891
50.89000 31.957
50.90000 36.248
50.91000 36.008
50.92000 54.097
50.93000 46.822
50.94000 38.844
50.95000 39.201
50.96000 66.113
50.97000 30.846
50.98000 40.281
50.99000 45.034
51.00000 52.867
51.01000 38.196
51.02000 40.110
51.03000 46.986
51.04000 50.257
51.05000 48.746
51.06000 49.942
51.07000 45.179
51.08000 54.078
51.09000 48.666
51.10000 48.820
51.11000 54.099
51.12000 45.569
51.13000 50.067
51.14000 42.111
51.15000 43.990
51.16000 51.047
51.17000 44.070
51.18000 40.041
51.19000 42.053
51.20000 47.029
51.21000 41.123
51.22000 47.946
51.23000 39.082
51.24000 39.033
51.25000 47.768
51.26000 42.882
51.27000 47.121
51.28000 38.845
51.29000 37.984
51.30000 39.065
51.31000 52.992
51.32000 46.904
51.33000 50.768
51.34000 38.077
51.35000 50.177
51.36000 37.253
51.37000 39.844
51.38000 38.952
51.39000 42.598
51.40000 43.100
51.41000 50.113
51.42000 34.977
51.43000 45.998
51.44000 54.159
51.45000 42.873
51.46000 52.139
51.47000 42.762
51.48000 41.053
51.49000 45.383
51.50000 40.989
51.51000 39.139
51.52000 50.937
51.53000 36.772
51.54000 41.138
51.55000 56.887
51.56000 35.123
51.57000 43.867
51.58000 44.620
51.59000 33.893
51.60000 43.902
51.61000 44.966
51.62000 38.685
51.63000 48.118
51.64000 34.030
51.65000 33.933
51.66000 35.995
51.67000 56.265
51.68000 36.686
51.69000 31.747
51.70000 48.936
51.71000 44.048
51.72000 35.011
51.73000 44.072
51.74000 28.280
51.75000 49.332
51.76000 40.818
51.77000 49.162
51.78000 29.918
51.79000 47.788
51.80000 54.885
51.81000 54.735
51.82000 50.121
51.83000 38.008
51.84000 48.046
51.85000 50.925
51.86000 51.672
51.87000 38.975
51.88000 44.934
51.89000 59.043
51.90000 40.131
51.91000 39.857
51.92000 41.884
51.93000 50.176
51.94000 39.948
51.95000 30.942
51.96000 51.195
51.97000 49.868
51.98000 30.995
51.99000 35.124
52.00000 52.061
52.01000 32.174
52.02000 45.911
52.03000 50.059
52.04000 37.021
52.05000 47.949
52.06000 39.992
52.07000 47.721
52.08000 40.235
52.09000 41.058
52.10000 31.030
52.11000 48.929
52.12000 46.048
52.13000 36.866
52.14000 53.104
52.15000 23.816
52.16000 47.880
52.17000 40.037
52.18000 47.726
52.19000 37.278
52.20000 41.098
52.21000 38.968
52.22000 35.193
52.23000 44.171
52.24000 38.089
52.25000 41.104
52.26000 54.178
52.27000 39.927
52.28000 50.728
52.29000 43.902
52.30000 48.045
52.31000 47.105
52.32000 39.985
52.33000 37.157
52.34000 38.112
52.35000 47.970
52.36000 40.769
52.37000 49.205
52.38000 46.783
52.39000 32.816
52.40000 37.972
52.41000 46.912
52.42000 32.907
52.43000 38.892
52.44000 41.190
52.45000 41.045
52.46000 39.854
52.47000 46.011
52.48000 46.211
52.49000 40.097
52.50000 42.926
52.51000 41.208
52.52000 36.223
52.53000 48.065
52.54000 45.902
52.55000 47.148
52.56000 45.284
52.57000 43.969
52.58000 47.946
52.59000 43.843
52.60000 45.783
52.61000 34.937
52.62000 36.059
52.63000 41.364
52.64000 33.985
52.65000 51.951
52.66000 42.925
52.67000 41.931
52.68000 59.227
52.69000 36.903
52.70000 41.929
52.71000 48.198
52.72000 37.962
52.73000 49.876
52.74000 43.141
52.75000 52.988
52.76000 50.839
52.77000 40.878
52.78000 49.043
52.79000 35.327
52.80000 37.975
52.81000 43.024
52.82000 35.928
52.83000 54.843
52.84000 43.127
52.85000 36.797
52.86000 42.283
52.87000 48.051
52.88000 50.104
52.89000 45.881
52.90000 41.979
52.91000 38.474
52.92000 46.066
52.93000 32.004
52.94000 25.799
52.95000 42.787
52.96000 41.344
52.97000 45.084
52.98000 38.269
52.99000 51.074
53.00000 48.244
53.01000 42.825
53.02000 46.000
53.03000 40.897
53.04000 29.927
53.05000 49.852
53.06000 29.873
53.07000 39.804
53.08000 46.980
53.09000 39.997
53.10000 44.066
53.11000 40.087
53.12000 33.829
53.13000 40.064
53.14000 26.055
53.15000 47.741
53.16000 43.756
53.17000 43.926
53.18000 40.935
53.19000 45.255
53.20000 57.941
53.21000 37.775
53.22000 35.954
53.23000 42.940
53.24000 36.189
53.25000 40.819
53.26000 39.987
53.27000 43.057
53.28000 35.884
53.29000 35.992
53.30000 41.891
53.31000 43.225
53.32000 39.380
53.33000 40.789
53.34000 39.072
53.35000 40.305
53.36000 49.049
53.37000 42.550
53.38000 48.794
53.39000 38.092
53.40000 40.873
53.41000 43.216
53.42000 33.901
53.43000 38.133
53.44000 37.069
53.45000 37.882
53.46000 36.016
53.47000 53.977
53.48000 48.071
53.49000 37.964
53.50000 36.950
53.51000 28.801
53.52000 41.106
53.53000 45.181
53.54000 47.129
53.55000 42.875
53.56000 41.791
53.57000 38.860
53.58000 36.110
53.59000 34.791
53.60000 34.769
53.61000 49.072
53.62000 27.004
53.63000 48.152
53.64000 41.955
53.65000 47.187
53.66000 47.950
53.67000 45.983
53.68000 46.977
53.69000 40.240
53.70000 40.087
53.71000 42.872
53.72000 37.191
53.73000 34.032
53.74000 44.208
53.75000 32.793
53.76000 44.006
53.77000 38.049
53.78000 37.085
53.79000 34.081
53.80000 51.938
53.81000 39.931
53.82000 47.090
53.83000 40.950
53.84000 40.909
53.85000 28.184
53.86000 57.294
53.87000 39.046
53.88000 45.052
53.89000 41.338
53.90000 44.176
53.91000 33.041
53.92000 37.301
53.93000 29.014
53.94000 29.116
53.95000 49.910
53.96000 26.816
53.97000 34.825
53.98000 44.982
53.99000 27.994
54.00000 35.835
54.01000 38.935
54.02000 55.138
54.03000 53.885
54.04000 40.989
54.05000 33.869
54.06000 59.146
54.07000 27.397
54.08000 49.993
54.09000 53.159
54.10000 37.102
54.11000 35.947
54.12000 36.785
54.13000 43.973
54.14000 33.156
54.15000 37.957
54.16000 29.965
54.17000 33.837
54.18000 32.950
54.19000 38.620
54.20000 37.954
54.21000 36.262
54.22000 43.955
54.23000 42.911
54.24000 29.911
54.25000 52.901
54.26000 30.988
54.27000 45.064
54.28000 39.891
54.29000 38.219
54.30000 39.849
54.31000 36.921
54.32000 39.755
54.33000 42.925
54.34000 31.281
54.35000 48.171
54.36000 40.078
54.37000 39.952
54.38000 43.212
54.39000 45.081
54.40000 38.004
54.41000 39.114
54.42000 40.945
54.43000 38.282
54.44000 39.225
54.45000 40.951
54.46000 54.109
54.47000 37.950
54.48000 38.967
54.49000 39.050
54.50000 48.911
54.51000 33.891
54.52000 45.916
54.53000 41.003
54.54000 36.115
54.55000 37.244
54.56000 46.048
54.57000 47.649
54.58000 28.648
54.59000 61.805
54.60000 46.248
54.61000 33.880
54.62000 43.102
54.63000 39.161
54.64000 33.901
54.65000 43.897
54.66000 50.264
54.67000 44.970
54.68000 44.155
54.69000 41.821
54.70000 45.040
54.71000 53.969
54.72000 41.153
54.73000 53.884
54.74000 42.034
54.75000 56.086
54.76000 46.143
54.77000 57.984
54.78000 38.031
54.79000 38.818
54.80000 43.590
54.81000 34.026
54.82000 35.067
54.83000 29.871
54.84000 39.937
54.85000 35.962
54.86000 53.150
54.87000 38.871
54.88000 36.941
54.89000 38.880
54.90000 32.241
54.91000 54.990
54.92000 43.906
54.93000 35.055
54.94000 51.083
54.95000 51.127
54.96000 40.116
54.97000 40.193
54.98000 48.032
54.99000 51.936
55.00000 38.139
55.01000 35.933
55.02000 51.348
55.03000 41.817
55.04000 49.926
55.05000 33.301
55.06000 54.034
55.07000 38.775
55.08000 55.064
55.09000 43.976
55.10000 30.977
55.11000 43.252
55.12000 40.726
55.13000 43.076
55.14000 38.932
55.15000 40.795
55.16000 34.096
55.17000 37.102
55.18000 43.056
55.19000 41.046
55.20000 30.941
55.21000 49.053
55.22000 46.912
55.23000 49.974
55.24000 52.048
55.25000 43.798
55.26000 39.960
55.27000 34.791
55.28000 47.893
55.29000 42.954
55.30000 55.023
55.31000 46.940
55.32000 46.106
55.33000 50.276
55.34000 52.868
55.35000 50.943
55.36000 60.938
55.37000 41.802
55.38000 46.100
55.39000 42.301
55.40000 48.386
55.41000 52.757
55.42000 43.040
55.43000 45.205
55.44000 56.132
55.45000 50.213
55.46000 57.912
55.47000 49.154
55.48000 48.022
55.49000 46.779
55.50000 48.119
55.51000 50.843
55.52000 53.032
55.53000 42.822
55.54000 41.071
55.55000 49.874
55.56000 61.720
55.57000 52.898
55.58000 51.151
55.59000 60.997
55.60000 47.889
55.61000 38.976
55.62000 45.831
55.63000 37.754
55.64000 38.213
55.65000 54.036
55.66000 36.903
55.67000 55.983
55.68000 49.234
55.69000 48.209
55.70000 46.103
55.71000 49.675
55.72000 33.965
55.73000 49.123
55.74000 43.070
55.75000 47.308
55.76000 35.195
55.77000 43.116
55.78000 43.039
55.79000 40.017
55.80000 49.008
55.81000 60.048
55.82000 36.014
55.83000 47.107
55.84000 35.130
55.85000 45.182
55.86000 46.122
55.87000 42.979
55.88000 49.167
55.89000 43.933
55.90000 50.996
55.91000 36.969
55.92000 31.145
55.93000 51.928
55.94000 41.979
55.95000 38.273
55.96000 39.926
55.97000 30.794
55.98000 47.201
55.99000 42.969
56.00000 38.111
56.01000 42.039
56.02000 37.890
56.03000 38.748
56.04000 32.016
56.05000 41.910
56.06000 41.719
56.07000 31.693
56.08000 52.926
56.09000 44.116
56.10000 30.117
56.11000 42.951
56.12000 45.171
56.13000 54.941
56.14000 34.030
56.15000 34.114
56.16000 43.636
56.17000 39.218
56.18000 39.359
56.19000 32.909
56.20000 31.839
56.21000 32.195
56.22000 39.038
56.23000 34.026
56.24000 44.940
56.25000 26.743
56.26000 38.174
56.27000 41.758
56.28000 44.150
56.29000 30.249
56.30000 47.288
56.31000 39.989
56.32000 44.087
56.33000 36.091
56.34000 45.852
56.35000 36.955
56.36000 28.921
56.37000 41.207
56.38000 43.945
56.39000 40.828
56.40000 32.158
56.41000 46.871
56.42000 32.926
56.43000 37.829
56.44000 39.038
56.45000 45.127
56.46000 47.175
56.47000 36.128
56.48000 29.977
56.49000 31.007
56.50000 49.187
56.51000 39.354
56.52000 38.943
56.53000 41.067
56.54000 35.130
56.55000 28.921
56.56000 36.925
56.57000 43.486
56.58000 22.217
56.59000 45.834
56.60000 33.818
56.61000 33.995
56.62000 34.071
56.63000 40.806
56.64000 34.960
56.65000 28.831
56.66000 36.057
56.67000 38.055
56.68000 29.008
56.69000 39.987
56.70000 38.970
56.71000 39.941
56.72000 38.035
56.73000 43.105
56.74000 40.973
56.75000 28.921
56.76000 31.892
56.77000 36.020
56.78000 35.310
56.79000 33.917
56.80000 30.784
56.81000 41.195
56.82000 37.904
56.83000 35.093
56.84000 41.104
56.85000 24.019
56.86000 45.049
56.87000 39.582
56.88000 32.768
56.89000 44.893
56.90000 53.123
56.91000 32.039
56.92000 45.986
56.93000 39.953
56.94000 41.853
56.95000 30.005
56.96000 25.860
56.97000 38.072
56.98000 34.936
56.99000 40.971
57.00000 32.013
57.01000 46.749
57.02000 41.238
57.03000 49.871
57.04000 35.084
57.05000 27.822
57.06000 39.870
57.07000 40.288
57.08000 41.171
57.09000 30.972
57.10000 55.031
57.11000 43.784
57.12000 43.855
57.13000 40.768
57.14000 33.915
57.15000 33.930
57.16000 48.134
57.17000 43.309
57.18000 38.100
57.19000 29.069
57.20000 41.802
57.21000 36.094
57.22000 42.923
57.23000 46.068
57.24000 41.112
57.25000 33.957
57.26000 29.021
57.27000 54.187
57.28000 32.963
57.29000 30.233
57.30000 45.061
57.31000 41.740
57.32000 43.982
57.33000 30.907
57.34000 34.067
57.35000 32.169
57.36000 39.809
57.37000 37.952
57.38000 42.835
57.39000 33.038
57.40000 38.782
57.41000 30.865
57.42000 44.115
57.43000 40.946
57.44000 49.332
57.45000 40.020
57.46000 29.790
57.47000 41.058
57.48000 40.809
57.49000 29.946
57.50000 34.256
57.51000 40.902
57.52000 44.935
57.53000 35.727
57.54000 38.633
57.55000 38.950
57.56000 41.259
57.57000 21.920
57.58000 40.071
57.59000 44.933
57.60000 34.975
57.61000 33.937
57.62000 36.155
57.63000 46.912
57.64000 38.178
57.65000 41.880
57.66000 36.110
57.67000 44.137
57.68000 37.027
57.69000 40.268
57.70000 34.032
57.71000 40.845
57.72000 41.929
57.73000 37.859
57.74000 37.943
57.75000 31.970
57.76000 40.880
57.77000 40.919
57.78000 28.875
57.79000 32.945
57.80000 27.940
57.81000 27.839
57.82000 32.100
57.83000 26.723
57.84000 33.180
57.85000 26.040
57.86000 26.836
57.87000 35.054
57.88000 29.868
57.89000 30.032
57.90000 45.864
57.91000 39.864
57.92000 39.108
57.93000 38.020
57.94000 29.114
57.95000 33.973
57.96000 42.821
57.97000 37.988
57.98000 35.796
57.99000 46.278
58.00000 36.185
58.01000 38.987
58.02000 28.841
58.03000 38.804
58.04000 37.470
58.05000 28.049
58.06000 39.038
58.07000 41.843
58.08000 38.977
58.09000 24.996
58.10000 35.873
58.11000 44.869
58.12000 50.265
58.13000 31.859
58.14000 41.950
58.15000 35.340
58.16000 39.158
58.17000 41.014
58.18000 31.925
58.19000 24.851
58.20000 33.176
58.21000 29.868
58.22000 31.842
58.23000 35.778
58.24000 37.193
58.25000 31.843
58.26000 38.888
58.27000 36.957
58.28000 40.763
58.29000 40.749
58.30000 25.109
58.31000 29.128
58.32000 33.784
58.33000 41.012
58.34000 34.870
58.35000 42.946
58.36000 28.069
58.37000 29.045
58.38000 46.009
58.39000 36.999
58.40000 28.064
58.41000 41.032
58.42000 45.906
58.43000 36.166
58.44000 36.006
58.45000 33.173
58.46000 33.912
58.47000 30.036
58.48000 36.040
58.49000 29.941
58.50000 53.103
58.51000 43.030
58.52000 31.926
58.53000 41.084
58.54000 29.166
58.55000 47.614
58.56000 30.058
58.57000 43.158
58.58000 41.102
58.59000 34.813
58.60000 32.174
58.61000 26.913
58.62000 50.785
58.63000 29.732
58.64000 27.964
58.65000 28.933
58.66000 31.028
58.67000 38.810
58.68000 38.970
58.69000 35.199
58.70000 38.617
58.71000 45.215
58.72000 32.870
58.73000 37.927
58.74000 29.136
58.75000 35.002
58.76000 36.179
58.77000 26.038
58.78000 31.797
58.79000 30.092
58.80000 37.334
58.81000 32.055
58.82000 36.960
58.83000 33.980
58.84000 32.905
58.85000 30.928
58.86000 36.008
58.87000 22.811
58.88000 40.900
58.89000 30.938
58.90000 38.841
58.91000 35.773
58.92000 28.879
58.93000 38.901
58.94000 32.744
58.95000 40.968
58.96000 34.057
58.97000 34.963
58.98000 34.098
58.99000 25.869
59.00000 33.939
59.01000 36.025
59.02000 30.025
59.03000 46.041
59.04000 17.876
59.05000 31.985
59.06000 41.866
59.07000 48.124
59.08000 29.865
59.09000 35.200
59.10000 22.862
59.11000 40.049
59.12000 40.958
59.13000 33.007
59.14000 32.091
59.15000 41.172
59.16000 35.876
59.17000 34.120
59.18000 32.894
59.19000 35.400
59.20000 31.027
59.21000 45.019
59.22000 34.075
59.23000 41.933
59.24000 39.960
59.25000 27.957
59.26000 34.953
59.27000 38.924
59.28000 37.318
59.29000 34.795
59.30000 37.144
59.31000 33.060
59.32000 27.894
59.33000 34.723
59.34000 40.138
59.35000 28.942
59.36000 40.070
59.37000 26.950
59.38000 42.020
59.39000 31.129
59.40000 45.272
59.41000 35.214
59.42000 24.837
59.43000 40.149
59.44000 35.797
59.45000 36.099
59.46000 31.117
59.47000 26.923
59.48000 30.993
59.49000 41.976
59.50000 32.128
59.51000 36.107
59.52000 27.032
59.53000 31.217
59.54000 36.158
59.55000 43.100
59.56000 31.173
59.57000 27.910
59.58000 36.695
59.59000 35.089
59.60000 29.087
59.61000 32.319
59.62000 35.076
59.63000 27.839
59.64000 34.979
59.65000 34.758
59.66000 25.051
59.67000 27.746
59.68000 26.998
59.69000 30.111
59.70000 30.921
59.71000 37.840
59.72000 34.096
59.73000 30.984
59.74000 34.982
59.75000 40.058
59.76000 35.811
59.77000 43.187
59.78000 45.931
59.79000 26.989
59.80000 40.144
59.81000 47.819
59.82000 28.698
59.83000 38.153
59.84000 32.000
59.85000 32.224
59.86000 35.926
59.87000 34.882
59.88000 26.988
59.89000 34.143
59.90000 28.876
59.91000 39.897
59.92000 43.879
59.93000 44.051
59.94000 28.062
59.95000 40.313
59.96000 55.198
59.97000 36.183
59.98000 39.171
59.99000 31.953
60.00000 43.789
60.01000 38.951
60.02000 40.835
60.03000 32.902
60.04000 39.055
60.05000 34.981
60.06000 41.085
60.07000 32.036
60.08000 31.022
60.09000 41.280
60.10000 29.119
60.11000 28.165
60.12000 24.042
60.13000 36.121
60.14000 32.102
60.15000 39.965
60.16000 31.088
60.17000 26.989
60.18000 24.992
60.19000 43.056
60.20000 34.825
60.21000 30.088
60.22000 29.098
60.23000 41.228
60.24000 42.020
60.25000 34.943
60.26000 30.887
60.27000 21.962
60.28000 34.869
60.29000 32.070
60.30000 39.854
60.31000 44.094
60.32000 38.108
60.33000 33.152
60.34000 38.868
60.35000 24.977
60.36000 28.909
60.37000 37.057
60.38000 33.031
60.39000 29.874
60.40000 23.957
60.41000 40.037
60.42000 33.060
60.43000 43.026
60.44000 23.106
60.45000 37.033
60.46000 41.877
60.47000 38.148
60.48000 34.102
60.49000 28.835
60.50000 28.072
60.51000 36.961
60.52000 35.357
60.53000 33.845
60.54000 25.951
60.55000 30.056
60.56000 42.883
60.57000 34.066
60.58000 41.692
60.59000 42.991
60.60000 37.932
60.61000 32.276
60.62000 31.813
60.63000 32.977
60.64000 24.834
60.65000 30.963
60.66000 36.080
60.67000 37.864
60.68000 35.002
60.69000 23.122
60.70000 35.143
60.71000 35.009
60.72000 33.891
60.73000 36.934
60.74000 25.879
60.75000 40.733
60.76000 37.217
60.77000 31.930
60.78000 22.984
60.79000 35.260
60.80000 26.968
60.81000 33.803
60.82000 24.980
60.83000 31.901
60.84000 31.762
60.85000 42.143
60.86000 29.975
60.87000 39.133
60.88000 34.091
60.89000 29.871
60.90000 34.898
60.91000 34.776
60.92000 30.984
60.93000 28.236
60.94000 40.221
60.95000 34.971
60.96000 34.846
60.97000 36.960
60.98000 44.116
60.99000 30.095
61.00000 41.108
61.01000 34.919
61.02000 38.822
61.03000 36.353
61.04000 37.143
61.05000 36.864
61.06000 21.082
61.07000 29.987
61.08000 35.733
61.09000 29.925
61.10000 35.001
61.11000 35.997
61.12000 32.145
61.13000 31.896
61.14000 31.932
61.15000 32.009
61.16000 39.009
61.17000 31.218
61.18000 35.773
61.19000 45.069
61.20000 32.116
61.21000 40.869
61.22000 46.119
61.23000 34.975
61.24000 25.921
61.25000 25.868
61.26000 38.387
61.27000 28.898
61.28000 34.993
61.29000 38.106
61.30000 43.953
61.31000 30.956
61.32000 34.998
61.33000 32.768
61.34000 32.993
61.35000 30.951
61.36000 38.122
61.37000 32.983
61.38000 33.806
61.39000 37.048
61.40000 43.915
61.41000 28.060
61.42000 31.239
61.43000 42.976
61.44000 30.814
61.45000 32.951
61.46000 41.183
61.47000 32.988
61.48000 41.161
61.49000 28.830
61.50000 26.854
61.51000 44.906
61.52000 39.976
61.53000 28.069
61.54000 37.042
61.55000 37.928
61.56000 35.181
61.57000 51.875
61.58000 37.066
61.59000 44.975
61.60000 37.980
61.61000 44.854
61.62000 42.137
61.63000 39.870
61.64000 34.803
61.65000 31.021
61.66000 32.112
61.67000 38.095
61.68000 35.826
61.69000 45.985
61.70000 43.679
61.71000 34.152
61.72000 47.988
61.73000 40.906
61.74000 39.855
61.75000 29.850
61.76000 46.945
61.77000 39.235
61.78000 47.865
61.79000 40.021
61.80000 54.336
61.81000 42.900
61.82000 37.904
61.83000 32.189
61.84000 48.081
61.85000 39.027
61.86000 37.775
61.87000 42.087
61.88000 52.930
61.89000 42.807
61.90000 38.004
61.91000 47.672
61.92000 36.194
61.93000 44.995
61.94000 36.947
61.95000 53.182
61.96000 62.221
61.97000 38.111
61.98000 42.929
61.99000 52.660
62.00000 44.090
62.01000 66.744
62.02000 61.009
62.03000 49.006
62.04000 75.155
62.05000 66.100
62.06000 73.320
62.07000 66.333
62.08000 56.162
62.09000 74.868
62.10000 63.029
62.11000 69.212
62.12000 70.239
62.13000 76.025
62.14000 84.807
62.15000 83.194
62.16000 72.771
62.17000 76.016
62.18000 85.168
62.19000 77.017
62.20000 78.413
62.21000 86.193
62.22000 97.531
62.23000 94.942
62.24000 84.085
62.25000 79.214
62.26000 87.312
62.27000 97.228
62.28000 99.212
62.29000 96.656
62.30000 81.886
62.31000 97.448
62.32000 104.886
62.33000 108.301
62.34000 102.877
62.35000 86.783
62.36000 84.020
62.37000 94.382
62.38000 101.151
62.39000 91.800
62.40000 91.019
62.41000 73.993
62.42000 99.635
62.43000 112.551
62.44000 93.883
62.45000 92.230
62.46000 86.288
62.47000 93.042
62.48000 83.995
62.49000 93.967
62.50000 84.494
62.51000 77.098
62.52000 67.085
62.53000 79.217
62.54000 82.683
62.55000 72.290
62.56000 69.347
62.57000 79.417
62.58000 70.104
62.59000 61.191
62.60000 55.183
62.61000 65.924
62.62000 51.130
62.63000 64.407
62.64000 57.760
62.65000 46.992
62.66000 62.888
62.67000 50.926
62.68000 50.025
62.69000 50.948
62.70000 53.183
62.71000 58.173
62.72000 56.982
62.73000 56.136
62.74000 50.850
62.75000 52.937
62.76000 53.133
62.77000 52.947
62.78000 46.370
62.79000 35.027
62.80000 47.998
62.81000 43.202
62.82000 50.046
62.83000 36.204
62.84000 36.996
62.85000 40.094
62.86000 40.384
62.87000 50.025
62.88000 39.886
62.89000 39.197
62.90000 40.121
62.91000 43.124
62.92000 33.786
62.93000 34.071
62.94000 32.899
62.95000 37.896
62.96000 34.037
62.97000 36.912
62.98000 39.876
62.99000 33.935
63.00000 36.910
63.01000 38.108
63.02000 55.065
63.03000 34.957
63.04000 34.025
63.05000 36.875
63.06000 45.878
63.07000 43.814
63.08000 45.258
63.09000 35.901
63.10000 44.870
63.11000 38.732
63.12000 28.060
63.13000 48.919
63.14000 38.841
63.15000 37.824
63.16000 36.171
63.17000 41.120
63.18000 31.993
63.19000 30.740
63.20000 33.016
63.21000 43.990
63.22000 38.917
63.23000 29.936
63.24000 29.931
63.25000 36.945
63.26000 31.095
63.27000 35.825
63.28000 42.075
63.29000 33.737
63.30000 37.897
63.31000 36.837
63.32000 33.093
63.33000 34.990
63.34000 30.759
63.35000 38.113
63.36000 39.226
63.37000 40.902
63.38000 31.063
63.39000 36.022
63.40000 44.034
63.41000 21.125
63.42000 31.130
63.43000 30.899
63.44000 27.940
63.45000 39.183
63.46000 23.985
63.47000 54.133
63.48000 35.151
63.49000 33.874
63.50000 43.014
63.51000 37.047
63.52000 36.195
63.53000 36.873
63.54000 22.131
63.55000 25.979
63.56000 36.063
63.57000 31.067
63.58000 27.324
63.59000 38.024
63.60000 38.066
63.61000 39.866
63.62000 40.285
63.63000 27.895
63.64000 30.039
63.65000 28.025
63.66000 31.980
63.67000 36.170
63.68000 28.993
63.69000 26.887
63.70000 34.068
63.71000 35.027
63.72000 33.968
63.73000 41.144
63.74000 30.884
63.75000 33.903
63.76000 27.952
63.77000 34.948
63.78000 31.156
63.79000 29.785
63.80000 38.150
63.81000 37.004
63.82000 27.087
63.83000 28.469
63.84000 38.136
63.85000 33.971
63.86000 33.031
63.87000 30.700
63.88000 36.669
63.89000 41.843
63.90000 35.247
63.91000 30.094
63.92000 41.835
63.93000 35.888
63.94000 19.966
63.95000 25.164
63.96000 33.748
63.97000 34.244
63.98000 33.065
63.99000 29.115
64.00000 33.025
