20.00000 193.102
20.01000 185.034
20.02000 186.413
20.03000 192.384
20.04000 215.569
20.05000 206.057
20.06000 195.311
20.07000 206.541
20.08000 180.641
20.09000 167.547
20.10000 202.031
20.11000 181.274
20.12000 168.307
20.13000 184.010
20.14000 167.235
20.15000 191.828
20.16000 196.085
20.17000 193.142
20.18000 187.022
20.19000 177.222
20.20000 194.745
20.21000 165.822
20.22000 159.418
20.23000 189.991
20.24000 193.142
20.25000 193.273
20.26000 177.204
20.27000 202.880
20.28000 179.227
20.29000 200.055
20.30000 172.587
20.31000 190.658
20.32000 157.938
20.33000 185.590
20.34000 181.220
20.35000 202.633
20.36000 168.919
20.37000 188.671
20.38000 198.557
20.39000 188.819
20.40000 171.250
20.41000 195.686
20.42000 189.329
20.43000 228.910
20.44000 180.673
20.45000 169.044
20.46000 195.706
20.47000 204.742
20.48000 163.216
20.49000 186.806
20.50000 172.914
20.51000 220.080
20.52000 177.026
20.53000 194.084
20.54000 171.983
20.55000 191.513
20.56000 181.182
20.57000 188.912
20.58000 185.323
20.59000 157.160
20.60000 181.061
20.61000 202.832
20.62000 200.140
20.63000 168.603
20.64000 208.005
20.65000 187.689
20.66000 184.162
20.67000 174.598
20.68000 181.775
20.69000 172.184
20.70000 184.685
20.71000 186.724
20.72000 189.826
20.73000 175.065
20.74000 201.814
20.75000 164.011
20.76000 181.181
20.77000 192.166
20.78000 150.834
20.79000 177.166
20.80000 155.977
20.81000 173.956
20.82000 187.001
20.83000 189.797
20.84000 179.065
20.85000 204.058
20.86000 194.990
20.87000 183.111
20.88000 158.000
20.89000 172.734
20.90000 203.939
20.91000 168.346
20.92000 192.035
20.93000 197.064
20.94000 203.169
20.95000 178.638
20.96000 168.932
20.97000 183.128
20.98000 189.643
20.99000 182.571
21.00000 201.429
21.01000 187.972
21.02000 200.845
21.03000 171.829
21.04000 170.602
21.05000 206.587
21.06000 193.996
21.07000 179.065
21.08000 183.313
21.09000 211.929
21.10000 174.339
21.11000 184.135
21.12000 173.235
21.13000 169.305
21.14000 198.510
21.15000 186.853
21.16000 184.135
21.17000 174.089
21.18000 173.927
21.19000 196.500
21.20000 191.763
21.21000 172.042
21.22000 201.051
21.23000 185.920
21.24000 193.157
21.25000 206.111
21.26000 190.085
21.27000 202.389
21.28000 197.841
21.29000 210.141
21.30000 189.768
21.31000 186.372
21.32000 190.232
21.33000 206.017
21.34000 170.322
21.35000 177.817
21.36000 199.409
21.37000 189.053
21.38000 202.563
21.39000 192.017
21.40000 205.353
21.41000 204.552
21.42000 190.003
21.43000 186.923
21.44000 179.158
21.45000 206.430
21.46000 189.392
21.47000 171.470
21.48000 194.267
21.49000 171.151
21.50000 191.759
21.51000 176.140
21.52000 201.097
21.53000 183.889
21.54000 194.849
21.55000 188.346
21.56000 200.483
21.57000 217.706
21.58000 225.656
21.59000 236.365
21.60000 202.008
21.61000 219.492
21.62000 196.768
21.63000 202.097
21.64000 213.898
21.65000 220.200
21.66000 242.458
21.67000 228.990
21.68000 216.659
21.69000 237.041
21.70000 228.556
21.71000 261.779
21.72000 266.416
21.73000 261.802
21.74000 249.349
21.75000 259.948
21.76000 298.841
21.77000 298.155
21.78000 283.698
21.79000 278.180
21.80000 309.443
21.81000 300.250
21.82000 331.840
21.83000 333.045
21.84000 354.563
21.85000 356.606
21.86000 386.017
21.87000 439.618
21.88000 388.282
21.89000 484.877
21.90000 493.845
21.91000 541.239
21.92000 533.232
21.93000 552.320
21.94000 597.973
21.95000 575.079
21.96000 691.496
21.97000 697.264
21.98000 762.624
21.99000 740.608
22.00000 746.575
22.01000 833.984
22.02000 875.382
22.03000 884.596
22.04000 908.891
22.05000 946.645
22.06000 950.055
22.07000 947.535
22.08000 1004.972
22.09000 1009.762
22.10000 987.124
22.11000 993.283
22.12000 994.012
22.13000 1003.720
22.14000 956.253
22.15000 994.983
22.16000 1083.557
22.17000 1031.876
22.18000 1015.851
22.19000 987.171
22.20000 988.491
22.21000 888.382
22.22000 935.267
22.23000 881.743
22.24000 850.794
22.25000 799.970
22.26000 830.370
22.27000 755.656
22.28000 736.469
22.29000 733.323
22.30000 691.124
22.31000 635.698
22.32000 631.537
22.33000 524.978
22.34000 509.146
22.35000 511.329
22.36000 472.483
22.37000 476.134
22.38000 438.291
22.39000 399.057
22.40000 393.770
22.41000 352.407
22.42000 313.067
22.43000 289.660
22.44000 313.114
22.45000 280.650
22.46000 266.259
22.47000 245.555
22.48000 256.758
22.49000 248.530
22.50000 218.655
22.51000 209.447
22.52000 219.168
22.53000 208.674
22.54000 195.612
22.55000 174.995
22.56000 201.994
22.57000 179.518
22.58000 201.029
22.59000 190.175
22.60000 222.547
22.61000 191.919
22.62000 184.071
22.63000 201.883
22.64000 181.136
22.65000 202.399
22.66000 190.248
22.67000 200.264
22.68000 166.355
22.69000 187.731
22.70000 177.255
22.71000 167.032
22.72000 176.769
22.73000 183.023
22.74000 158.978
22.75000 165.820
22.76000 196.316
22.77000 173.034
22.78000 196.813
22.79000 184.358
22.80000 172.138
22.81000 142.598
22.82000 168.332
22.83000 175.959
22.84000 189.954
22.85000 168.364
22.86000 169.206
22.87000 181.972
22.88000 144.521
22.89000 197.544
22.90000 161.858
22.91000 175.272
22.92000 145.886
22.93000 160.703
22.94000 193.992
22.95000 178.846
22.96000 179.261
22.97000 159.221
22.98000 172.917
22.99000 148.063
23.00000 166.926
23.01000 170.808
23.02000 184.474
23.03000 165.462
23.04000 163.255
23.05000 156.526
23.06000 170.534
23.07000 153.957
23.08000 177.700
23.09000 167.234
23.10000 155.766
23.11000 179.081
23.12000 174.157
23.13000 169.511
23.14000 152.283
23.15000 163.519
23.16000 169.250
23.17000 160.561
23.18000 155.809
23.19000 159.252
23.20000 154.189
23.21000 155.674
23.22000 167.168
23.23000 157.533
23.24000 166.781
23.25000 163.760
23.26000 160.900
23.27000 178.201
23.28000 131.333
23.29000 153.990
23.30000 158.664
23.31000 179.958
23.32000 151.156
23.33000 145.169
23.34000 144.588
23.35000 151.620
23.36000 167.135
23.37000 147.315
23.38000 156.948
23.39000 157.887
23.40000 150.413
23.41000 159.094
23.42000 174.400
23.43000 168.783
23.44000 152.042
23.45000 163.817
23.46000 134.040
23.47000 139.925
23.48000 157.110
23.49000 160.897
23.50000 146.715
23.51000 131.998
23.52000 174.212
23.53000 132.554
23.54000 134.962
23.55000 157.998
23.56000 178.698
23.57000 145.158
23.58000 152.514
23.59000 161.885
23.60000 136.846
23.61000 139.740
23.62000 140.352
23.63000 156.512
23.64000 136.924
23.65000 146.555
23.66000 162.156
23.67000 149.809
23.68000 160.580
23.69000 149.136
23.70000 167.417
23.71000 162.810
23.72000 152.999
23.73000 147.885
23.74000 162.695
23.75000 148.552
23.76000 166.744
23.77000 150.617
23.78000 158.830
23.79000 143.193
23.80000 156.089
23.81000 150.047
23.82000 176.235
23.83000 151.221
23.84000 154.075
23.85000 131.841
23.86000 133.377
23.87000 144.062
23.88000 142.558
23.89000 170.458
23.90000 151.164
23.91000 146.415
23.92000 154.221
23.93000 156.804
23.94000 146.884
23.95000 143.609
23.96000 150.182
23.97000 171.281
23.98000 138.714
23.99000 152.744
24.00000 149.235
24.01000 149.897
24.02000 137.160
24.03000 149.174
24.04000 170.219
24.05000 142.873
24.06000 133.834
24.07000 134.594
24.08000 144.985
24.09000 158.161
24.10000 162.795
24.11000 173.826
24.12000 153.989
24.13000 155.843
24.14000 144.589
24.15000 139.947
24.16000 136.342
24.17000 153.217
24.18000 154.974
24.19000 162.414
24.20000 130.086
24.21000 154.790
24.22000 160.819
24.23000 160.877
24.24000 157.560
24.25000 156.710
24.26000 141.099
24.27000 147.719
24.28000 162.268
24.29000 164.147
24.30000 170.255
24.31000 162.125
24.32000 114.119
24.33000 161.992
24.34000 166.085
24.35000 134.084
24.36000 159.152
24.37000 150.004
24.38000 154.945
24.39000 149.557
24.40000 168.637
24.41000 143.563
24.42000 166.479
24.43000 163.390
24.44000 159.195
24.45000 144.642
24.46000 146.110
24.47000 135.881
24.48000 145.014
24.49000 140.261
24.50000 141.620
24.51000 124.170
24.52000 147.794
24.53000 131.704
24.54000 161.279
24.55000 139.690
24.56000 140.499
24.57000 148.337
24.58000 143.184
24.59000 151.188
24.60000 134.987
24.61000 154.112
24.62000 152.587
24.63000 143.367
24.64000 172.805
24.65000 161.364
24.66000 145.874
24.67000 139.102
24.68000 157.215
24.69000 141.634
24.70000 132.297
24.71000 148.573
24.72000 150.516
24.73000 141.036
24.74000 158.250
24.75000 151.031
24.76000 159.929
24.77000 162.618
24.78000 145.770
24.79000 170.582
24.80000 169.815
24.81000 138.816
24.82000 142.904
24.83000 142.952
24.84000 147.192
24.85000 146.391
24.86000 168.035
24.87000 189.736
24.88000 131.964
24.89000 163.216
24.90000 149.159
24.91000 167.213
24.92000 136.470
24.93000 129.334
24.94000 146.756
24.95000 144.698
24.96000 135.029
24.97000 185.583
24.98000 166.774
24.99000 156.341
25.00000 153.971
25.01000 132.566
25.02000 137.370
25.03000 164.873
25.04000 133.294
25.05000 124.313
25.06000 142.808
25.07000 163.089
25.08000 146.536
25.09000 141.270
25.10000 140.977
25.11000 152.083
25.12000 154.746
25.13000 147.679
25.14000 154.600
25.15000 162.495
25.16000 152.991
25.17000 143.071
25.18000 142.421
25.19000 138.413
25.20000 150.020
25.21000 164.513
25.22000 147.455
25.23000 158.578
25.24000 150.185
25.25000 146.345
25.26000 147.663
25.27000 155.632
25.28000 132.031
25.29000 138.439
25.30000 146.721
25.31000 150.134
25.32000 138.480
25.33000 125.175
25.34000 154.979
25.35000 128.666
25.36000 167.097
25.37000 144.275
25.38000 133.730
25.39000 139.824
25.40000 143.111
25.41000 135.349
25.42000 168.108
25.43000 150.072
25.44000 146.952
25.45000 133.213
25.46000 151.505
25.47000 151.118
25.48000 172.130
25.49000 148.034
25.50000 139.599
25.51000 154.620
25.52000 159.572
25.53000 140.580
25.54000 163.561
25.55000 168.924
25.56000 151.213
25.57000 147.516
25.58000 154.660
25.59000 158.380
25.60000 149.594
25.61000 141.141
25.62000 159.850
25.63000 136.823
25.64000 164.779
25.65000 136.651
25.66000 130.883
25.67000 142.065
25.68000 147.233
25.69000 129.624
25.70000 124.185
25.71000 154.346
25.72000 145.265
25.73000 112.895
25.74000 136.775
25.75000 152.250
25.76000 146.646
25.77000 172.046
25.78000 140.402
25.79000 128.851
25.80000 149.696
25.81000 151.986
25.82000 157.177
25.83000 145.863
25.84000 160.446
25.85000 153.907
25.86000 155.839
25.87000 152.904
25.88000 134.488
25.89000 156.047
25.90000 147.647
25.91000 138.713
25.92000 153.470
25.93000 144.833
25.94000 142.949
25.95000 159.193
25.96000 148.550
25.97000 143.909
25.98000 131.660
25.99000 158.926
26.00000 145.670
26.01000 140.740
26.02000 143.697
26.03000 141.607
26.04000 136.985
26.05000 143.031
26.06000 147.638
26.07000 152.448
26.08000 160.531
26.09000 144.028
26.10000 137.995
26.11000 150.986
26.12000 132.843
26.13000 122.288
26.14000 140.247
26.15000 132.722
26.16000 146.060
26.17000 149.154
26.18000 159.179
26.19000 129.290
26.20000 151.795
26.21000 153.717
26.22000 161.934
26.23000 148.906
26.24000 142.706
26.25000 150.680
26.26000 134.623
26.27000 158.919
26.28000 162.476
26.29000 111.191
26.30000 163.398
26.31000 159.156
26.32000 154.754
26.33000 143.922
26.34000 131.614
26.35000 132.257
26.36000 153.753
26.37000 159.122
26.38000 162.770
26.39000 149.131
26.40000 131.958
26.41000 138.381
26.42000 140.278
26.43000 153.675
26.44000 151.851
26.45000 150.192
26.46000 158.860
26.47000 152.536
26.48000 143.819
26.49000 154.591
26.50000 141.646
26.51000 148.327
26.52000 146.675
26.53000 132.024
26.54000 142.094
26.55000 168.906
26.56000 143.727
26.57000 132.987
26.58000 149.960
26.59000 139.624
26.60000 162.195
26.61000 150.450
26.62000 142.274
26.63000 130.163
26.64000 131.061
26.65000 142.063
26.66000 143.817
26.67000 128.811
26.68000 145.790
26.69000 148.980
26.70000 179.043
26.71000 134.195
26.72000 128.077
26.73000 130.486
26.74000 155.112
26.75000 140.214
26.76000 162.989
26.77000 116.004
26.78000 132.965
26.79000 151.908
26.80000 143.826
26.81000 138.043
26.82000 136.696
26.83000 131.282
26.84000 146.669
26.85000 135.744
26.86000 151.308
26.87000 150.955
26.88000 137.963
26.89000 151.143
26.90000 138.997
26.91000 143.967
26.92000 135.304
26.93000 140.335
26.94000 142.003
26.95000 142.957
26.96000 152.129
26.97000 145.858
26.98000 157.996
26.99000 151.927
27.00000 126.429
27.01000 128.938
27.02000 136.577
27.03000 126.333
27.04000 136.663
27.05000 153.924
27.06000 147.877
27.07000 151.724
27.08000 138.361
27.09000 121.001
27.10000 156.143
27.11000 151.333
27.12000 115.812
27.13000 141.216
27.14000 136.232
27.15000 147.427
27.16000 140.932
27.17000 161.203
27.18000 154.779
27.19000 154.780
27.20000 151.127
27.21000 145.291
27.22000 156.005
27.23000 134.852
27.24000 155.293
27.25000 151.370
27.26000 148.161
27.27000 148.908
27.28000 143.921
27.29000 124.873
27.30000 145.231
27.31000 160.954
27.32000 138.145
27.33000 142.039
27.34000 161.045
27.35000 175.087
27.36000 135.468
27.37000 142.118
27.38000 148.714
27.39000 130.001
27.40000 146.978
27.41000 141.543
27.42000 134.621
27.43000 143.161
27.44000 158.949
27.45000 137.651
27.46000 151.046
27.47000 153.376
27.48000 151.289
27.49000 147.625
27.50000 119.447
27.51000 151.703
27.52000 147.063
27.53000 146.334
27.54000 139.895
27.55000 166.735
27.56000 146.911
27.57000 161.522
27.58000 140.101
27.59000 146.263
27.60000 172.946
27.61000 144.037
27.62000 138.184
27.63000 143.153
27.64000 144.877
27.65000 153.058
27.66000 149.882
27.67000 146.965
27.68000 160.214
27.69000 162.119
27.70000 168.912
27.71000 152.056
27.72000 144.160
27.73000 139.841
27.74000 145.901
27.75000 125.498
27.76000 147.054
27.77000 131.779
27.78000 149.527
27.79000 152.916
27.80000 156.762
27.81000 161.799
27.82000 148.221
27.83000 144.766
27.84000 143.116
27.85000 144.995
27.86000 144.764
27.87000 134.254
27.88000 159.891
27.89000 144.055
27.90000 145.052
27.91000 143.229
27.92000 139.521
27.93000 157.965
27.94000 134.430
27.95000 149.111
27.96000 130.783
27.97000 133.349
27.98000 154.887
27.99000 153.077
28.00000 148.514
28.01000 170.010
28.02000 168.233
28.03000 131.808
28.04000 163.929
28.05000 137.173
28.06000 153.996
28.07000 151.820
28.08000 147.764
28.09000 149.859
28.10000 167.654
28.11000 144.360
28.12000 195.792
28.13000 171.317
28.14000 166.084
28.15000 161.278
28.16000 171.969
28.17000 170.821
28.18000 160.098
28.19000 179.386
28.20000 155.071
28.21000 169.289
28.22000 171.673
28.23000 163.080
28.24000 188.283
28.25000 166.215
28.26000 193.381
28.27000 159.300
28.28000 170.892
28.29000 174.981
28.30000 174.547
28.31000 184.478
28.32000 161.109
28.33000 188.077
28.34000 174.722
28.35000 187.465
28.36000 170.181
28.37000 172.886
28.38000 183.854
28.39000 180.082
28.40000 154.622
28.41000 173.723
28.42000 187.757
28.43000 170.868
28.44000 176.958
28.45000 167.435
28.46000 173.979
28.47000 154.441
28.48000 176.917
28.49000 158.316
28.50000 162.275
28.51000 160.120
28.52000 167.425
28.53000 155.094
28.54000 154.736
28.55000 180.213
28.56000 155.626
28.57000 161.678
28.58000 152.190
28.59000 147.121
28.60000 134.890
28.61000 154.045
28.62000 152.822
28.63000 159.772
28.64000 138.722
28.65000 165.369
28.66000 172.196
28.67000 153.818
28.68000 139.996
28.69000 148.966
28.70000 151.261
28.71000 152.910
28.72000 147.035
28.73000 165.119
28.74000 163.919
28.75000 139.951
28.76000 151.105
28.77000 146.353
28.78000 151.764
28.79000 185.444
28.80000 143.883
28.81000 154.928
28.82000 130.408
28.83000 157.952
28.84000 143.847
28.85000 169.025
28.86000 172.655
28.87000 161.871
28.88000 144.881
28.89000 151.816
28.90000 167.835
28.91000 169.206
28.92000 148.451
28.93000 146.760
28.94000 157.630
28.95000 156.279
28.96000 159.818
28.97000 150.384
28.98000 144.335
28.99000 166.209
29.00000 141.166
29.01000 164.163
29.02000 152.028
29.03000 136.959
29.04000 187.239
29.05000 151.339
29.06000 165.166
29.07000 165.327
29.08000 149.383
29.09000 171.012
29.10000 164.059
29.11000 138.108
29.12000 157.817
29.13000 170.548
29.14000 180.525
29.15000 160.019
29.16000 144.371
29.17000 178.286
29.18000 139.045
29.19000 182.645
29.20000 140.149
29.21000 155.693
29.22000 148.675
29.23000 152.074
29.24000 149.334
29.25000 175.034
29.26000 173.289
29.27000 160.957
29.28000 150.273
29.29000 176.624
29.30000 149.680
29.31000 172.814
29.32000 142.966
29.33000 153.037
29.34000 144.206
29.35000 170.754
29.36000 178.875
29.37000 192.289
29.38000 137.325
29.39000 176.442
29.40000 153.392
29.41000 161.476
29.42000 165.842
29.43000 174.150
29.44000 156.240
29.45000 162.275
29.46000 146.788
29.47000 193.308
29.48000 165.979
29.49000 137.974
29.50000 178.091
29.51000 176.998
29.52000 172.872
29.53000 152.089
29.54000 161.563
29.55000 183.517
29.56000 163.285
29.57000 172.540
29.58000 167.784
29.59000 156.730
29.60000 184.368
29.61000 178.699
29.62000 157.273
29.63000 185.463
29.64000 188.470
29.65000 166.260
29.66000 170.305
29.67000 160.781
29.68000 210.581
29.69000 166.250
29.70000 163.238
29.71000 174.846
29.72000 171.816
29.73000 212.143
29.74000 176.894
29.75000 216.112
29.76000 179.140
29.77000 204.478
29.78000 186.346
29.79000 220.797
29.80000 205.377
29.81000 201.280
29.82000 192.603
29.83000 210.422
29.84000 222.113
29.85000 234.762
29.86000 226.717
29.87000 227.883
29.88000 232.178
29.89000 239.022
29.90000 193.019
29.91000 252.116
29.92000 237.484
29.93000 230.753
29.94000 272.470
29.95000 270.356
29.96000 284.848
29.97000 263.531
29.98000 275.277
29.99000 292.855
30.00000 295.463
30.01000 281.842
30.02000 289.093
30.03000 324.910
30.04000 308.774
30.05000 310.972
30.06000 340.827
30.07000 324.027
30.08000 360.838
30.09000 315.729
30.10000 330.891
30.11000 302.576
30.12000 298.903
30.13000 329.563
30.14000 303.341
30.15000 333.709
30.16000 328.083
30.17000 274.253
30.18000 344.113
30.19000 324.684
30.20000 291.873
30.21000 334.794
30.22000 312.524
30.23000 290.960
30.24000 336.227
30.25000 304.143
30.26000 280.038
30.27000 284.315
30.28000 270.841
30.29000 261.908
30.30000 308.999
30.31000 276.839
30.32000 288.907
30.33000 295.294
30.34000 275.113
30.35000 301.753
30.36000 299.586
30.37000 302.150
30.38000 269.183
30.39000 282.039
30.40000 312.974
30.41000 254.250
30.42000 276.188
30.43000 273.786
30.44000 257.653
30.45000 271.784
30.46000 266.180
30.47000 289.455
30.48000 282.624
30.49000 274.832
30.50000 263.122
30.51000 302.241
30.52000 261.870
30.53000 302.600
30.54000 309.956
30.55000 252.409
30.56000 302.497
30.57000 283.036
30.58000 295.704
30.59000 257.279
30.60000 289.547
30.61000 294.188
30.62000 306.198
30.63000 312.251
30.64000 298.030
30.65000 325.627
30.66000 305.411
30.67000 327.002
30.68000 362.996
30.69000 320.829
30.70000 340.470
30.71000 325.964
30.72000 357.751
30.73000 365.133
30.74000 365.458
30.75000 374.489
30.76000 349.922
30.77000 395.317
30.78000 374.208
30.79000 371.738
30.80000 394.090
30.81000 450.892
30.82000 393.564
30.83000 393.394
30.84000 434.638
30.85000 462.224
30.86000 482.115
30.87000 465.609
30.88000 517.178
30.89000 501.908
30.90000 515.332
30.91000 506.235
30.92000 491.788
30.93000 577.258
30.94000 545.878
30.95000 588.149
30.96000 614.871
30.97000 682.166
30.98000 702.798
30.99000 742.189
31.00000 781.638
31.01000 794.030
31.02000 842.035
31.03000 916.124
31.04000 1009.133
31.05000 1040.411
31.06000 1026.626
31.07000 1246.248
31.08000 1258.289
31.09000 1386.534
31.10000 1545.034
31.11000 1602.728
31.12000 1747.454
31.13000 1954.207
31.14000 2120.125
31.15000 2223.360
31.16000 2474.696
31.17000 2649.766
31.18000 2806.873
31.19000 3283.468
31.20000 3536.229
31.21000 3773.652
31.22000 4075.833
31.23000 4572.910
31.24000 5176.744
31.25000 5404.590
31.26000 5907.349
31.27000 6394.362
31.28000 6685.230
31.29000 7233.186
31.30000 7873.803
31.31000 8193.104
31.32000 9000.192
31.33000 9327.061
31.34000 9933.932
31.35000 10204.234
31.36000 10654.360
31.37000 11226.522
31.38000 11673.861
31.39000 12079.624
31.40000 12470.454
31.41000 12734.099
31.42000 13017.755
31.43000 13249.764
31.44000 13456.914
31.45000 13662.271
31.46000 13739.475
31.47000 13837.029
31.48000 13638.942
31.49000 13649.921
31.50000 13466.036
31.51000 13372.539
31.52000 13562.398
31.53000 12996.955
31.54000 12752.428
31.55000 12585.552
31.56000 12093.029
31.57000 11738.399
31.58000 11231.448
31.59000 10896.735
31.60000 10293.576
31.61000 9765.540
31.62000 9177.983
31.63000 8656.654
31.64000 8307.320
31.65000 7710.508
31.66000 7135.911
31.67000 6544.606
31.68000 5984.499
31.69000 5666.751
31.70000 5183.310
31.71000 4571.935
31.72000 4152.378
31.73000 3783.406
31.74000 3541.133
31.75000 3095.703
31.76000 2787.789
31.77000 2487.009
31.78000 2242.213
31.79000 2046.641
31.80000 1892.690
31.81000 1631.436
31.82000 1463.329
31.83000 1258.118
31.84000 1188.789
31.85000 1068.784
31.86000 1032.921
31.87000 868.097
31.88000 799.688
31.89000 736.659
31.90000 695.224
31.91000 645.570
31.92000 638.775
31.93000 574.984
31.94000 551.847
31.95000 527.769
31.96000 508.861
31.97000 451.116
31.98000 476.507
31.99000 419.195
32.00000 425.430
32.01000 440.996
32.02000 428.456
32.03000 404.171
32.04000 410.847
32.05000 384.370
32.06000 351.683
32.07000 370.541
32.08000 374.357
32.09000 367.926
32.10000 324.810
32.11000 345.099
32.12000 321.810
32.13000 323.733
32.14000 316.591
32.15000 289.367
32.16000 324.710
32.17000 286.731
32.18000 287.179
32.19000 256.457
32.20000 261.868
32.21000 300.154
32.22000 290.781
32.23000 260.779
32.24000 251.577
32.25000 258.509
32.26000 268.227
32.27000 246.029
32.28000 232.617
32.29000 262.972
32.30000 226.163
32.31000 248.520
32.32000 204.864
32.33000 219.638
32.34000 223.659
32.35000 217.279
32.36000 203.108
32.37000 209.974
32.38000 203.845
32.39000 195.654
32.40000 196.465
32.41000 176.304
32.42000 202.028
32.43000 189.514
32.44000 200.408
32.45000 203.946
32.46000 205.029
32.47000 187.969
32.48000 204.844
32.49000 214.866
32.50000 196.107
32.51000 199.215
32.52000 194.188
32.53000 159.574
32.54000 162.057
32.55000 161.589
32.56000 200.403
32.57000 165.570
32.58000 177.150
32.59000 176.070
32.60000 183.208
32.61000 204.453
32.62000 178.996
32.63000 166.498
32.64000 169.061
32.65000 177.161
32.66000 177.789
32.67000 155.914
32.68000 176.391
32.69000 142.616
32.70000 177.606
32.71000 151.391
32.72000 165.202
32.73000 157.607
32.74000 165.975
32.75000 172.318
32.76000 128.236
32.77000 152.858
32.78000 172.704
32.79000 170.353
32.80000 157.564
32.81000 148.713
32.82000 159.830
32.83000 151.677
32.84000 132.531
32.85000 155.489
32.86000 160.966
32.87000 134.869
32.88000 161.438
32.89000 152.842
32.90000 148.090
32.91000 147.063
32.92000 142.047
32.93000 155.681
32.94000 147.833
32.95000 135.238
32.96000 141.179
32.97000 149.970
32.98000 143.786
32.99000 160.516
33.00000 145.654
33.01000 134.152
33.02000 133.800
33.03000 142.854
33.04000 112.702
33.05000 119.381
33.06000 144.364
33.07000 122.028
33.08000 127.033
33.09000 137.803
33.10000 147.616
33.11000 134.942
33.12000 115.992
33.13000 128.860
33.14000 143.560
33.15000 140.170
33.16000 127.989
33.17000 128.920
33.18000 129.970
33.19000 124.331
33.20000 119.031
33.21000 128.856
33.22000 113.644
33.23000 129.136
33.24000 119.797
33.25000 115.823
33.26000 121.814
33.27000 107.932
33.28000 138.558
33.29000 139.236
33.30000 120.904
33.31000 133.848
33.32000 127.896
33.33000 130.001
33.34000 121.646
33.35000 116.056
33.36000 120.882
33.37000 135.888
33.38000 109.021
33.39000 128.196
33.40000 115.912
33.41000 132.058
33.42000 93.722
33.43000 135.006
33.44000 122.586
33.45000 120.795
33.46000 128.260
33.47000 133.005
33.48000 128.719
33.49000 138.673
33.50000 99.476
33.51000 127.928
33.52000 100.084
33.53000 125.462
33.54000 136.098
33.55000 111.469
33.56000 114.710
33.57000 127.143
33.58000 110.413
33.59000 142.986
33.60000 142.932
33.61000 113.530
33.62000 132.810
33.63000 107.914
33.64000 131.928
33.65000 117.752
33.66000 105.969
33.67000 106.858
33.68000 101.104
33.69000 119.823
33.70000 101.844
33.71000 103.122
33.72000 133.578
33.73000 126.959
33.74000 121.899
33.75000 115.089
33.76000 113.111
33.77000 101.161
33.78000 134.366
33.79000 123.722
33.80000 131.887
33.81000 113.063
33.82000 110.786
33.83000 95.764
33.84000 116.913
33.85000 120.314
33.86000 129.164
33.87000 128.817
33.88000 93.299
33.89000 112.768
33.90000 133.604
33.91000 113.160
33.92000 127.939
33.93000 112.715
33.94000 121.867
33.95000 106.779
33.96000 102.844
33.97000 110.240
33.98000 123.584
33.99000 107.793
34.00000 126.878
34.01000 102.196
34.02000 130.785
34.03000 117.021
34.04000 120.947
34.05000 114.841
34.06000 100.681
34.07000 100.868
34.08000 103.274
34.09000 117.213
34.10000 113.065
34.11000 92.604
34.12000 120.585
34.13000 112.843
34.14000 100.999
34.15000 128.509
34.16000 110.350
34.17000 100.076
34.18000 132.004
34.19000 95.920
34.20000 114.680
34.21000 95.898
34.22000 110.876
34.23000 92.148
34.24000 108.714
34.25000 90.748
34.26000 110.844
34.27000 117.862
34.28000 112.149
34.29000 114.726
34.30000 94.166
34.31000 108.991
34.32000 101.886
34.33000 107.285
34.34000 119.486
34.35000 125.148
34.36000 90.757
34.37000 120.831
34.38000 98.997
34.39000 101.595
34.40000 111.702
34.41000 99.719
34.42000 86.821
34.43000 99.897
34.44000 105.396
34.45000 89.876
34.46000 112.003
34.47000 99.966
34.48000 105.856
34.49000 106.223
34.50000 100.289
34.51000 124.976
34.52000 102.105
34.53000 115.179
34.54000 92.153
34.55000 87.637
34.56000 124.903
34.57000 90.253
34.58000 111.006
34.59000 101.918
34.60000 94.083
34.61000 103.961
34.62000 91.806
34.63000 107.780
34.64000 95.954
34.65000 105.891
34.66000 103.980
34.67000 114.650
34.68000 103.996
34.69000 102.539
34.70000 109.130
34.71000 95.059
34.72000 117.189
34.73000 98.761
34.74000 89.133
34.75000 91.295
34.76000 99.398
34.77000 102.880
34.78000 99.794
34.79000 121.199
34.80000 109.830
34.81000 107.778
34.82000 98.255
34.83000 98.205
34.84000 120.849
34.85000 88.798
34.86000 112.138
34.87000 88.317
34.88000 89.678
34.89000 105.737
34.90000 108.014
34.91000 98.686
34.92000 96.545
34.93000 107.051
34.94000 93.525
34.95000 94.908
34.96000 115.030
34.97000 111.580
34.98000 84.121
34.99000 96.963
35.00000 117.112
35.01000 86.002
35.02000 99.856
35.03000 82.965
35.04000 108.058
35.05000 104.215
35.06000 95.794
35.07000 101.667
35.08000 102.854
35.09000 89.686
35.10000 99.787
35.11000 97.920
35.12000 102.993
35.13000 105.062
35.14000 97.714
35.15000 99.960
35.16000 82.777
35.17000 102.878
35.18000 111.995
35.19000 85.792
35.20000 105.023
35.21000 92.015
35.22000 116.904
35.23000 102.906
35.24000 101.449
35.25000 100.998
35.26000 100.809
35.27000 95.619
35.28000 100.676
35.29000 107.506
35.30000 87.903
35.31000 95.384
35.32000 97.050
35.33000 87.970
35.34000 107.652
35.35000 98.669
35.36000 92.724
35.37000 87.042
35.38000 95.889
35.39000 90.232
35.40000 87.890
35.41000 102.874
35.42000 82.979
35.43000 97.871
35.44000 87.784
35.45000 92.259
35.46000 93.155
35.47000 90.227
35.48000 94.990
35.49000 82.765
35.50000 75.727
35.51000 99.744
35.52000 92.053
35.53000 68.148
35.54000 89.932
35.55000 81.581
35.56000 97.204
35.57000 86.989
35.58000 85.092
35.59000 94.014
35.60000 96.965
35.61000 88.955
35.62000 84.080
35.63000 104.714
35.64000 91.995
35.65000 83.940
35.66000 77.378
35.67000 92.090
35.68000 89.736
35.69000 88.130
35.70000 110.528
35.71000 97.063
35.72000 74.221
35.73000 90.754
35.74000 105.537
35.75000 89.969
35.76000 79.185
35.77000 82.734
35.78000 101.457
35.79000 89.130
35.80000 80.219
35.81000 107.411
35.82000 91.081
35.83000 88.821
35.84000 77.925
35.85000 81.895
35.86000 82.063
35.87000 85.722
35.88000 108.482
35.89000 89.691
35.90000 87.957
35.91000 105.172
35.92000 90.618
35.93000 92.680
35.94000 103.501
35.95000 90.100
35.96000 79.064
35.97000 95.954
35.98000 90.760
35.99000 84.816
36.00000 91.252
36.01000 112.595
36.02000 99.995
36.03000 88.045
36.04000 82.955
36.05000 95.720
36.06000 90.386
36.07000 84.410
36.08000 80.956
36.09000 84.766
36.10000 74.987
36.11000 81.079
36.12000 82.297
36.13000 109.742
36.14000 75.556
36.15000 90.112
36.16000 89.607
36.17000 89.673
36.18000 85.376
36.19000 85.887
36.20000 104.796
36.21000 87.913
36.22000 91.810
36.23000 102.879
36.24000 89.259
36.25000 84.971
36.26000 93.858
36.27000 89.961
36.28000 85.663
36.29000 93.660
36.30000 94.980
36.31000 94.055
36.32000 72.002
36.33000 104.524
36.34000 90.144
36.35000 108.367
36.36000 90.826
36.37000 95.939
36.38000 99.616
36.39000 90.896
36.40000 95.527
36.41000 110.968
36.42000 91.849
36.43000 100.626
36.44000 103.743
36.45000 96.884
36.46000 81.963
36.47000 83.070
36.48000 97.798
36.49000 104.497
36.50000 91.991
36.51000 109.265
36.52000 100.784
36.53000 95.977
36.54000 94.890
36.55000 91.798
36.56000 100.833
36.57000 93.320
36.58000 83.815
36.59000 91.902
36.60000 116.790
36.61000 105.668
36.62000 99.847
36.63000 98.007
36.64000 93.012
36.65000 110.688
36.66000 100.751
36.67000 116.760
36.68000 107.766
36.69000 123.807
36.70000 108.187
36.71000 105.167
36.72000 107.376
36.73000 111.630
36.74000 94.671
36.75000 108.866
36.76000 96.553
36.77000 94.848
36.78000 83.556
36.79000 107.339
36.80000 111.854
36.81000 97.253
36.82000 100.737
36.83000 83.902
36.84000 75.167
36.85000 93.830
36.86000 125.975
36.87000 114.065
36.88000 99.595
36.89000 103.481
36.90000 94.997
36.91000 118.298
36.92000 104.897
36.93000 103.047
36.94000 115.472
36.95000 109.170
36.96000 104.791
36.97000 111.071
36.98000 94.316
36.99000 116.947
37.00000 120.850
37.01000 107.916
37.02000 113.261
37.03000 113.224
37.04000 112.986
37.05000 116.866
37.06000 106.370
37.07000 118.045
37.08000 100.718
37.09000 128.731
37.10000 120.711
37.11000 121.191
37.12000 118.101
37.13000 122.045
37.14000 107.137
37.15000 114.663
37.16000 105.171
37.17000 107.279
37.18000 108.570
37.19000 96.952
37.20000 125.160
37.21000 109.637
37.22000 111.381
37.23000 130.956
37.24000 96.735
37.25000 133.216
37.26000 98.742
37.27000 102.177
37.28000 99.275
37.29000 117.821
37.30000 115.690
37.31000 105.293
37.32000 123.744
37.33000 98.038
37.34000 90.271
37.35000 107.807
37.36000 79.686
37.37000 113.889
37.38000 122.335
37.39000 100.284
37.40000 118.549
37.41000 128.098
37.42000 110.916
37.43000 105.225
37.44000 96.822
37.45000 102.027
37.46000 91.947
37.47000 116.192
37.48000 115.768
37.49000 120.193
37.50000 104.101
37.51000 113.399
37.52000 119.391
37.53000 109.925
37.54000 105.007
37.55000 117.258
37.56000 89.031
37.57000 87.286
37.58000 90.842
37.59000 104.016
37.60000 112.918
37.61000 90.233
37.62000 98.173
37.63000 105.521
37.64000 91.791
37.65000 102.926
37.66000 104.901
37.67000 104.911
37.68000 110.024
37.69000 103.858
37.70000 116.757
37.71000 97.617
37.72000 109.242
37.73000 91.724
37.74000 99.921
37.75000 96.176
37.76000 95.903
37.77000 113.308
37.78000 98.004
37.79000 110.315
37.80000 124.474
37.81000 103.061
37.82000 92.813
37.83000 96.984
37.84000 112.346
37.85000 110.764
37.86000 118.296
37.87000 124.922
37.88000 112.902
37.89000 117.026
37.90000 116.761
37.91000 102.600
37.92000 121.303
37.93000 113.878
37.94000 126.040
37.95000 115.189
37.96000 104.497
37.97000 101.044
37.98000 96.898
37.99000 131.962
38.00000 119.657
38.01000 95.927
38.02000 118.898
38.03000 121.857
38.04000 113.422
38.05000 128.028
38.06000 136.880
38.07000 112.143
38.08000 109.191
38.09000 124.673
38.10000 123.291
38.11000 112.868
38.12000 119.906
38.13000 122.734
38.14000 130.905
38.15000 150.859
38.16000 141.973
38.17000 129.510
38.18000 127.174
38.19000 135.132
38.20000 123.012
38.21000 131.057
38.22000 136.412
38.23000 125.803
38.24000 170.554
38.25000 156.299
38.26000 156.804
38.27000 135.303
38.28000 146.776
38.29000 138.870
38.30000 164.048
38.31000 173.421
38.32000 159.110
38.33000 176.192
38.34000 160.929
38.35000 190.612
38.36000 185.562
38.37000 226.248
38.38000 210.075
38.39000 236.152
38.40000 223.262
38.41000 247.812
38.42000 239.960
38.43000 257.765
38.44000 251.647
38.45000 292.592
38.46000 304.820
38.47000 310.355
38.48000 334.592
38.49000 341.674
38.50000 362.381
38.51000 436.542
38.52000 408.256
38.53000 424.174
38.54000 493.859
38.55000 531.198
38.56000 548.809
38.57000 592.811
38.58000 650.132
38.59000 650.404
38.60000 704.978
38.61000 746.897
38.62000 794.214
38.63000 829.471
38.64000 941.285
38.65000 930.153
38.66000 1001.935
38.67000 1067.451
38.68000 1156.448
38.69000 1194.211
38.70000 1206.322
38.71000 1248.216
38.72000 1330.078
38.73000 1297.379
38.74000 1387.265
38.75000 1422.424
38.76000 1441.452
38.77000 1528.126
38.78000 1582.902
38.79000 1564.669
38.80000 1552.580
38.81000 1645.358
38.82000 1591.586
38.83000 1596.290
38.84000 1609.339
38.85000 1631.386
38.86000 1544.049
38.87000 1621.368
38.88000 1546.316
38.89000 1534.883
38.90000 1509.396
38.91000 1394.590
38.92000 1361.279
38.93000 1351.107
38.94000 1285.333
38.95000 1288.669
38.96000 1231.167
38.97000 1274.042
38.98000 1174.348
38.99000 1073.247
39.00000 1034.162
39.01000 964.105
39.02000 904.329
39.03000 839.262
39.04000 765.124
39.05000 744.852
39.06000 714.137
39.07000 658.721
39.08000 609.163
39.09000 559.162
39.10000 532.967
39.11000 463.087
39.12000 413.925
39.13000 419.247
39.14000 383.332
39.15000 346.492
39.16000 361.511
39.17000 301.075
39.18000 294.485
39.19000 261.395
39.20000 257.542
39.21000 242.441
39.22000 239.988
39.23000 238.033
39.24000 181.968
39.25000 198.798
39.26000 175.994
39.27000 176.626
39.28000 166.794
39.29000 171.818
39.30000 177.050
39.31000 150.048
39.32000 163.383
39.33000 142.011
39.34000 159.398
39.35000 148.834
39.36000 157.356
39.37000 133.052
39.38000 121.033
39.39000 134.579
39.40000 120.856
39.41000 122.149
39.42000 110.148
39.43000 108.813
39.44000 118.048
39.45000 107.741
39.46000 124.284
39.47000 114.980
39.48000 121.062
39.49000 104.059
39.50000 106.972
39.51000 112.346
39.52000 113.770
39.53000 123.175
39.54000 106.194
39.55000 119.733
39.56000 118.842
39.57000 103.728
39.58000 115.346
39.59000 115.935
39.60000 111.804
39.61000 103.085
39.62000 93.813
39.63000 104.960
39.64000 77.746
39.65000 95.290
39.66000 103.258
39.67000 69.927
39.68000 108.120
39.69000 96.181
39.70000 109.664
39.71000 99.015
39.72000 93.662
39.73000 101.764
39.74000 107.767
39.75000 117.011
39.76000 88.980
39.77000 102.460
39.78000 92.687
39.79000 97.161
39.80000 100.401
39.81000 106.740
39.82000 71.746
39.83000 92.849
39.84000 90.857
39.85000 101.299
39.86000 78.467
39.87000 115.732
39.88000 82.625
39.89000 76.196
39.90000 85.971
39.91000 89.744
39.92000 85.152
39.93000 93.396
39.94000 99.962
39.95000 86.884
39.96000 100.822
39.97000 98.043
39.98000 94.901
39.99000 88.997
40.00000 96.782
40.01000 88.863
40.02000 91.167
40.03000 92.604
40.04000 89.940
40.05000 64.863
40.06000 89.732
40.07000 71.805
40.08000 100.117
40.09000 80.810
40.10000 60.123
40.11000 96.964
40.12000 90.993
40.13000 90.833
40.14000 86.091
40.15000 86.012
40.16000 78.941
40.17000 90.572
40.18000 92.095
40.19000 92.877
40.20000 70.810
40.21000 97.242
40.22000 88.835
40.23000 78.091
40.24000 77.843
40.25000 94.285
40.26000 95.956
40.27000 81.779
40.28000 83.115
40.29000 89.974
40.30000 84.690
40.31000 96.281
40.32000 72.972
40.33000 95.333
40.34000 85.787
40.35000 93.017
40.36000 84.350
40.37000 96.801
40.38000 96.822
40.39000 89.991
40.40000 79.777
40.41000 83.080
40.42000 78.253
40.43000 84.024
40.44000 81.318
40.45000 82.966
40.46000 86.884
40.47000 93.067
40.48000 78.874
40.49000 111.211
40.50000 77.665
40.51000 87.826
40.52000 94.049
40.53000 87.816
40.54000 82.810
40.55000 92.944
40.56000 90.276
40.57000 101.791
40.58000 97.080
40.59000 94.626
40.60000 85.808
40.61000 83.998
40.62000 83.840
40.63000 93.895
40.64000 87.241
40.65000 92.916
40.66000 88.738
40.67000 84.960
40.68000 72.884
40.69000 109.089
40.70000 97.135
40.71000 84.894
40.72000 79.727
40.73000 93.998
40.74000 71.589
40.75000 73.624
40.76000 112.831
40.77000 83.759
40.78000 80.009
40.79000 88.058
40.80000 81.163
40.81000 84.138
40.82000 64.615
40.83000 92.888
40.84000 77.689
40.85000 87.978
40.86000 102.988
40.87000 86.572
40.88000 86.008
40.89000 70.006
40.90000 76.753
40.91000 85.687
40.92000 71.994
40.93000 85.041
40.94000 70.849
40.95000 89.710
40.96000 67.987
40.97000 96.568
40.98000 89.545
40.99000 89.044
41.00000 75.789
41.01000 75.729
41.02000 83.759
41.03000 77.289
41.04000 69.377
41.05000 94.150
41.06000 99.401
41.07000 78.026
41.08000 79.025
41.09000 79.853
41.10000 95.028
41.11000 81.464
41.12000 90.470
41.13000 75.820
41.14000 71.138
41.15000 85.826
41.16000 85.699
41.17000 77.372
41.18000 71.837
41.19000 74.891
41.20000 83.898
41.21000 74.867
41.22000 94.570
41.23000 80.014
41.24000 73.736
41.25000 82.838
41.26000 79.731
41.27000 72.821
41.28000 76.025
41.29000 69.245
41.30000 90.957
41.31000 81.132
41.32000 82.025
41.33000 77.801
41.34000 64.868
41.35000 82.934
41.36000 88.801
41.37000 97.008
41.38000 75.331
41.39000 85.843
41.40000 96.882
41.41000 78.815
41.42000 74.037
41.43000 78.199
41.44000 77.650
41.45000 77.974
41.46000 78.623
41.47000 69.505
41.48000 87.533
41.49000 64.940
41.50000 71.390
41.51000 77.014
41.52000 88.660
41.53000 81.767
41.54000 85.958
41.55000 87.792
41.56000 78.029
41.57000 95.513
41.58000 71.136
41.59000 81.667
41.60000 70.027
41.61000 78.120
41.62000 63.862
41.63000 93.281
41.64000 73.074
41.65000 74.083
41.66000 88.190
41.67000 87.884
41.68000 70.072
41.69000 77.043
41.70000 83.049
41.71000 66.121
41.72000 75.776
41.73000 93.879
41.74000 87.104
41.75000 85.078
41.76000 74.913
41.77000 78.945
41.78000 98.810
41.79000 77.760
41.80000 78.177
41.81000 74.657
41.82000 62.723
41.83000 74.793
41.84000 87.989
41.85000 69.988
41.86000 74.791
41.87000 73.129
41.88000 62.982
41.89000 83.813
41.90000 72.857
41.91000 73.794
41.92000 75.939
41.93000 89.791
41.94000 68.718
41.95000 74.599
41.96000 78.924
41.97000 86.308
41.98000 80.938
41.99000 83.893
42.00000 83.220
42.01000 72.922
42.02000 78.755
42.03000 74.973
42.04000 68.006
42.05000 86.841
42.06000 69.500
42.07000 59.110
42.08000 78.146
42.09000 77.989
42.10000 58.161
42.11000 92.076
42.12000 79.202
42.13000 75.557
42.14000 88.462
42.15000 74.876
42.16000 81.886
42.17000 57.932
42.18000 69.935
42.19000 69.975
42.20000 79.060
42.21000 83.100
42.22000 79.295
42.23000 78.896
42.24000 64.059
42.25000 87.928
42.26000 71.915
42.27000 83.128
42.28000 93.475
42.29000 83.962
42.30000 89.799
42.31000 95.797
42.32000 99.614
42.33000 92.159
42.34000 77.143
42.35000 73.774
42.36000 80.837
42.37000 93.066
42.38000 86.712
42.39000 65.930
42.40000 61.894
42.41000 74.111
42.42000 79.901
42.43000 82.881
42.44000 76.621
42.45000 76.658
42.46000 78.521
42.47000 76.029
42.48000 70.660
42.49000 76.057
42.50000 79.036
42.51000 83.827
42.52000 78.919
42.53000 71.075
42.54000 71.922
42.55000 84.812
42.56000 89.825
42.57000 85.179
42.58000 61.839
42.59000 84.837
42.60000 72.810
42.61000 89.055
42.62000 91.071
42.63000 103.012
42.64000 84.651
42.65000 77.056
42.66000 94.082
42.67000 98.914
42.68000 80.918
42.69000 88.059
42.70000 74.044
42.71000 85.828
42.72000 92.081
42.73000 92.519
42.74000 83.777
42.75000 83.110
42.76000 98.092
42.77000 80.564
42.78000 79.019
42.79000 79.120
42.80000 99.851
42.81000 91.793
42.82000 94.599
42.83000 100.094
42.84000 88.677
42.85000 89.570
42.86000 109.140
42.87000 104.889
42.88000 100.084
42.89000 91.540
42.90000 107.065
42.91000 114.961
42.92000 110.859
42.93000 96.880
42.94000 92.188
42.95000 106.969
42.96000 96.030
42.97000 110.770
42.98000 111.649
42.99000 91.962
43.00000 122.692
43.01000 110.127
43.02000 115.373
43.03000 108.833
43.04000 118.072
43.05000 78.145
43.06000 135.836
43.07000 111.759
43.08000 103.903
43.09000 123.854
43.10000 117.083
43.11000 104.765
43.12000 128.539
43.13000 113.630
43.14000 130.148
43.15000 119.227
43.16000 115.899
43.17000 94.964
43.18000 111.930
43.19000 109.644
43.20000 113.082
43.21000 112.454
43.22000 111.844
43.23000 117.131
43.24000 114.087
43.25000 119.759
43.26000 101.184
43.27000 97.105
43.28000 104.423
43.29000 100.966
43.30000 103.148
43.31000 93.560
43.32000 103.146
43.33000 103.868
43.34000 83.989
43.35000 105.661
43.36000 123.876
43.37000 105.600
43.38000 112.871
43.39000 109.957
43.40000 107.903
43.41000 104.242
43.42000 92.294
43.43000 98.693
43.44000 94.640
43.45000 89.905
43.46000 97.833
43.47000 79.893
43.48000 98.995
43.49000 68.637
43.50000 105.379
43.51000 121.000
43.52000 115.788
43.53000 99.837
43.54000 85.996
43.55000 92.161
43.56000 107.006
43.57000 93.181
43.58000 91.637
43.59000 104.747
43.60000 99.946
43.61000 103.708
43.62000 97.162
43.63000 103.674
43.64000 103.821
43.65000 92.500
43.66000 109.343
43.67000 120.137
43.68000 109.212
43.69000 86.840
43.70000 78.983
43.71000 85.188
43.72000 97.607
43.73000 92.294
43.74000 104.764
43.75000 105.993
43.76000 95.793
43.77000 91.054
43.78000 110.853
43.79000 118.218
43.80000 105.171
43.81000 102.849
43.82000 97.974
43.83000 117.158
43.84000 120.613
43.85000 99.120
43.86000 115.851
43.87000 107.009
43.88000 112.268
43.89000 104.617
43.90000 125.058
43.91000 113.907
43.92000 118.444
43.93000 107.129
43.94000 103.053
43.95000 129.903
43.96000 128.573
43.97000 118.280
43.98000 129.013
43.99000 115.984
44.00000 115.334
44.01000 128.902
44.02000 136.858
44.03000 107.907
44.04000 101.874
44.05000 123.754
44.06000 122.046
44.07000 143.751
44.08000 111.929
44.09000 137.299
44.10000 131.160
44.11000 131.830
44.12000 140.263
44.13000 143.759
44.14000 134.074
44.15000 143.010
44.16000 132.005
44.17000 135.618
44.18000 161.922
44.19000 133.029
44.20000 148.225
44.21000 154.911
44.22000 145.795
44.23000 144.058
44.24000 144.897
44.25000 163.807
44.26000 161.227
44.27000 159.324
44.28000 170.997
44.29000 153.993
44.30000 158.827
44.31000 158.382
44.32000 193.048
44.33000 177.175
44.34000 167.328
44.35000 205.191
44.36000 185.986
44.37000 179.370
44.38000 172.498
44.39000 206.022
44.40000 197.942
44.41000 214.209
44.42000 220.021
44.43000 183.895
44.44000 203.271
44.45000 230.809
44.46000 257.169
44.47000 203.549
44.48000 242.262
44.49000 286.159
44.50000 260.472
44.51000 243.184
44.52000 268.670
44.53000 270.116
44.54000 281.638
44.55000 305.602
44.56000 295.561
44.57000 350.323
44.58000 318.568
44.59000 352.827
44.60000 385.214
44.61000 364.269
44.62000 383.753
44.63000 385.586
44.64000 424.581
44.65000 422.596
44.66000 475.319
44.67000 453.226
44.68000 520.212
44.69000 520.055
44.70000 587.479
44.71000 600.849
44.72000 625.977
44.73000 717.636
44.74000 752.673
44.75000 803.594
44.76000 820.964
44.77000 885.485
44.78000 948.473
44.79000 1001.404
44.80000 1083.717
44.81000 1207.865
44.82000 1227.690
44.83000 1260.890
44.84000 1407.043
44.85000 1442.720
44.86000 1539.434
44.87000 1695.838
44.88000 1810.678
44.89000 1817.741
44.90000 1902.093
44.91000 2125.843
44.92000 2224.234
44.93000 2366.871
44.94000 2378.243
44.95000 2498.069
44.96000 2611.008
44.97000 2651.956
44.98000 2858.600
44.99000 2978.892
45.00000 2948.301
45.01000 3049.582
45.02000 3100.826
45.03000 3224.740
45.04000 3243.863
45.05000 3384.818
45.06000 3427.003
45.07000 3383.287
45.08000 3557.150
45.09000 3395.806
45.10000 3544.593
45.11000 3445.059
45.12000 3370.344
45.13000 3352.537
45.14000 3252.276
45.15000 3153.721
45.16000 3220.883
45.17000 3096.284
45.18000 3089.278
45.19000 2991.141
45.20000 2930.149
45.21000 2709.554
45.22000 2649.841
45.23000 2599.163
45.24000 2480.895
45.25000 2352.979
45.26000 2367.323
45.27000 2229.291
45.28000 2068.681
45.29000 1972.398
45.30000 1786.948
45.31000 1733.500
45.32000 1549.039
45.33000 1515.096
45.34000 1396.415
45.35000 1354.478
45.36000 1194.928
45.37000 1167.510
45.38000 1089.079
45.39000 1032.901
45.40000 853.964
45.41000 840.984
45.42000 760.619
45.43000 699.548
45.44000 687.558
45.45000 612.124
45.46000 588.345
45.47000 538.535
45.48000 523.316
45.49000 450.028
45.50000 447.405
45.51000 390.699
45.52000 383.167
45.53000 347.084
45.54000 335.897
45.55000 356.742
45.56000 278.721
45.57000 264.088
45.58000 280.262
45.59000 275.690
45.60000 271.468
45.61000 251.630
45.62000 232.490
45.63000 210.583
45.64000 203.945
45.65000 216.949
45.66000 198.767
45.67000 207.999
45.68000 188.300
45.69000 181.165
45.70000 177.894
45.71000 202.031
45.72000 185.128
45.73000 164.561
45.74000 159.006
45.75000 163.548
45.76000 156.136
45.77000 156.642
45.78000 140.318
45.79000 168.330
45.80000 145.914
45.81000 163.743
45.82000 162.530
45.83000 156.731
45.84000 151.091
45.85000 128.816
45.86000 152.263
45.87000 134.329
45.88000 131.142
45.89000 132.739
45.90000 143.304
45.91000 126.939
45.92000 133.954
45.93000 119.670
45.94000 136.523
45.95000 131.450
45.96000 122.784
45.97000 109.102
45.98000 114.869
45.99000 124.965
46.00000 120.208
46.01000 132.989
46.02000 135.157
46.03000 120.041
46.04000 96.419
46.05000 114.718
46.06000 123.280
46.07000 104.647
46.08000 122.675
46.09000 102.975
46.10000 110.849
46.11000 113.465
46.12000 104.966
46.13000 100.901
46.14000 122.625
46.15000 93.802
46.16000 131.395
46.17000 106.746
46.18000 109.426
46.19000 93.959
46.20000 96.662
46.21000 96.261
46.22000 95.005
46.23000 105.834
46.24000 104.100
46.25000 99.346
46.26000 106.909
46.27000 117.569
46.28000 78.781
46.29000 103.978
46.30000 94.678
46.31000 97.167
46.32000 102.910
46.33000 100.706
46.34000 99.955
46.35000 107.181
46.36000 96.899
46.37000 72.005
46.38000 91.076
46.39000 114.250
46.40000 76.144
46.41000 105.648
46.42000 100.992
46.43000 89.711
46.44000 97.204
46.45000 103.892
46.46000 97.267
46.47000 87.210
46.48000 86.061
46.49000 83.203
46.50000 83.898
46.51000 93.956
46.52000 86.010
46.53000 86.477
46.54000 77.014
46.55000 85.721
46.56000 96.593
46.57000 104.124
46.58000 92.883
46.59000 79.012
46.60000 97.724
46.61000 89.656
46.62000 87.921
46.63000 70.012
46.64000 85.126
46.65000 85.858
46.66000 82.803
46.67000 93.236
46.68000 92.890
46.69000 77.798
46.70000 80.977
46.71000 94.693
46.72000 97.906
46.73000 87.961
46.74000 69.270
46.75000 86.772
46.76000 107.604
46.77000 89.055
46.78000 79.867
46.79000 88.873
46.80000 95.528
46.81000 74.675
46.82000 85.541
46.83000 96.862
46.84000 82.929
46.85000 80.814
46.86000 85.780
46.87000 87.578
46.88000 64.864
46.89000 82.103
46.90000 97.882
46.91000 80.426
46.92000 77.240
46.93000 90.994
46.94000 73.948
46.95000 98.697
46.96000 81.711
46.97000 83.731
46.98000 94.792
46.99000 77.760
47.00000 91.880
47.01000 87.915
47.02000 73.760
47.03000 105.714
47.04000 69.075
47.05000 86.590
47.06000 83.013
47.07000 76.733
47.08000 90.813
47.09000 67.788
47.10000 96.611
47.11000 81.797
47.12000 66.878
47.13000 72.013
47.14000 71.343
47.15000 74.899
47.16000 93.786
47.17000 74.373
47.18000 90.766
47.19000 75.930
47.20000 74.780
47.21000 78.168
47.22000 76.734
47.23000 77.654
47.24000 82.901
47.25000 81.953
47.26000 77.209
47.27000 82.979
47.28000 63.819
47.29000 88.723
47.30000 64.763
47.31000 81.780
47.32000 68.870
47.33000 77.989
47.34000 76.575
47.35000 80.845
47.36000 58.542
47.37000 75.706
47.38000 80.047
47.39000 76.932
47.40000 81.807
47.41000 82.625
47.42000 72.141
47.43000 94.357
47.44000 87.887
47.45000 89.002
47.46000 75.337
47.47000 77.726
47.48000 73.961
47.49000 61.676
47.50000 80.911
47.51000 87.594
47.52000 84.077
47.53000 60.826
47.54000 76.311
47.55000 81.864
47.56000 78.669
47.57000 80.578
47.58000 81.012
47.59000 81.964
47.60000 62.456
47.61000 62.899
47.62000 81.141
47.63000 78.800
47.64000 80.022
47.65000 65.951
47.66000 85.714
47.67000 81.199
47.68000 63.000
47.69000 87.992
47.70000 65.912
47.71000 65.826
47.72000 84.083
47.73000 63.708
47.74000 83.745
47.75000 72.625
47.76000 69.240
47.77000 74.864
47.78000 60.904
47.79000 51.738
47.80000 73.631
47.81000 87.715
47.82000 55.997
47.83000 78.638
47.84000 71.021
47.85000 82.952
47.86000 68.146
47.87000 68.254
47.88000 81.740
47.89000 72.419
47.90000 64.166
47.91000 92.999
47.92000 72.075
47.93000 71.806
47.94000 65.084
47.95000 61.763
47.96000 73.618
47.97000 73.260
47.98000 76.689
47.99000 74.030
48.00000 84.203
48.01000 70.122
48.02000 73.993
48.03000 73.027
48.04000 92.080
48.05000 90.378
48.06000 86.876
48.07000 65.977
48.08000 75.656
48.09000 78.842
48.10000 70.602
48.11000 72.060
48.12000 79.787
48.13000 52.854
48.14000 86.799
48.15000 68.171
48.16000 77.777
48.17000 101.028
48.18000 79.174
48.19000 67.646
48.20000 70.059
48.21000 69.477
48.22000 66.182
48.23000 60.908
48.24000 81.713
48.25000 90.136
48.26000 82.664
48.27000 88.519
48.28000 81.464
48.29000 74.877
48.30000 87.978
48.31000 85.751
48.32000 80.619
48.33000 86.575
48.34000 88.584
48.35000 77.973
48.36000 85.242
48.37000 74.920
48.38000 77.886
48.39000 82.781
48.40000 75.062
48.41000 70.740
48.42000 87.818
48.43000 64.738
48.44000 74.118
48.45000 94.020
48.46000 70.955
48.47000 73.829
48.48000 88.783
48.49000 78.781
48.50000 73.990
48.51000 69.767
48.52000 96.867
48.53000 79.643
48.54000 81.045
48.55000 72.197
48.56000 77.201
48.57000 85.988
48.58000 81.977
48.59000 87.790
48.60000 84.894
48.61000 82.670
48.62000 76.569
48.63000 71.086
48.64000 93.117
48.65000 85.022
48.66000 74.589
48.67000 77.377
48.68000 88.197
48.69000 86.767
48.70000 96.041
48.71000 95.820
48.72000 71.128
48.73000 67.849
48.74000 76.647
48.75000 57.814
48.76000 87.956
48.77000 64.993
48.78000 79.508
48.79000 86.399
48.80000 78.876
48.81000 79.173
48.82000 68.668
48.83000 70.588
48.84000 80.859
48.85000 84.163
48.86000 80.690
48.87000 74.781
48.88000 74.534
48.89000 88.697
48.90000 74.066
48.91000 65.712
48.92000 79.158
48.93000 84.976
48.94000 77.729
48.95000 101.615
48.96000 68.898
48.97000 65.696
48.98000 64.380
48.99000 69.209
49.00000 96.722
49.01000 61.797
49.02000 80.215
49.03000 81.063
49.04000 76.116
49.05000 81.636
49.06000 90.879
49.07000 81.615
49.08000 76.879
49.09000 65.938
49.10000 76.741
49.11000 75.667
49.12000 85.196
49.13000 86.544
49.14000 66.056
49.15000 72.875
49.16000 70.042
49.17000 88.627
49.18000 67.868
49.19000 92.669
49.20000 80.948
49.21000 89.882
49.22000 79.040
49.23000 81.768
49.24000 84.704
49.25000 93.345
49.26000 78.984
49.27000 77.078
49.28000 89.778
49.29000 93.881
49.30000 106.649
49.31000 82.140
49.32000 74.898
49.33000 85.389
49.34000 83.986
49.35000 83.167
49.36000 87.678
49.37000 83.746
49.38000 69.677
49.39000 80.353
49.40000 74.915
49.41000 91.157
49.42000 94.137
49.43000 85.733
49.44000 77.157
49.45000 79.984
49.46000 98.824
49.47000 84.106
49.48000 81.481
49.49000 79.911
49.50000 90.988
49.51000 81.144
49.52000 79.824
49.53000 86.708
49.54000 72.934
49.55000 98.710
49.56000 75.615
49.57000 74.985
49.58000 84.011
49.59000 85.659
49.60000 88.210
49.61000 77.130
49.62000 103.209
49.63000 96.733
49.64000 93.417
49.65000 86.968
49.66000 83.535
49.67000 78.864
49.68000 87.196
49.69000 83.698
49.70000 84.810
49.71000 70.818
49.72000 92.145
49.73000 100.898
49.74000 100.054
49.75000 95.206
49.76000 93.213
49.77000 90.861
49.78000 102.139
49.79000 82.238
49.80000 98.356
49.81000 105.217
49.82000 90.132
49.83000 75.835
49.84000 107.002
49.85000 100.289
49.86000 98.822
49.87000 87.227
49.88000 94.807
49.89000 100.042
49.90000 92.787
49.91000 92.373
49.92000 76.862
49.93000 107.258
49.94000 104.691
49.95000 99.872
49.96000 86.130
49.97000 90.734
49.98000 94.981
49.99000 88.986
50.00000 99.039
50.01000 98.156
50.02000 97.084
50.03000 118.202
50.04000 108.895
50.05000 83.151
50.06000 118.128
50.07000 110.953
50.08000 121.002
50.09000 119.150
50.10000 128.976
50.11000 133.240
50.12000 136.857
50.13000 135.579
50.14000 121.975
50.15000 133.843
50.16000 118.032
50.17000 141.930
50.18000 128.333
50.19000 121.404
50.20000 145.354
50.21000 138.919
50.22000 132.867
50.23000 156.074
50.24000 170.155
50.25000 163.221
50.26000 156.628
50.27000 163.882
50.28000 190.654
50.29000 151.180
50.30000 183.598
50.31000 157.312
50.32000 167.582
50.33000 197.244
50.34000 219.766
50.35000 209.471
50.36000 208.135
50.37000 215.262
50.38000 245.376
50.39000 231.012
50.40000 274.532
50.41000 285.932
50.42000 264.016
50.43000 284.429
50.44000 345.894
50.45000 332.727
50.46000 352.020
50.47000 354.268
50.48000 410.281
50.49000 370.197
50.50000 474.837
50.51000 457.160
50.52000 463.921
50.53000 484.341
50.54000 491.442
50.55000 526.188
50.56000 567.503
50.57000 628.163
50.58000 622.797
50.59000 653.849
50.60000 750.664
50.61000 720.843
50.62000 706.550
50.63000 745.955
50.64000 799.010
50.65000 787.758
50.66000 835.370
50.67000 799.577
50.68000 882.074
50.69000 901.844
50.70000 840.464
50.71000 916.618
50.72000 913.967
50.73000 958.979
50.74000 930.033
50.75000 932.022
50.76000 966.101
50.77000 984.411
50.78000 946.692
50.79000 926.658
50.80000 905.193
50.81000 917.137
50.82000 956.100
50.83000 927.623
50.84000 910.755
50.85000 911.926
50.86000 890.272
50.87000 883.304
50.88000 805.172
50.89000 810.336
50.90000 802.152
50.91000 782.920
50.92000 733.249
50.93000 705.430
50.94000 703.267
50.95000 663.747
50.96000 668.891
50.97000 592.215
50.98000 572.077
50.99000 561.951
51.00000 517.514
51.01000 509.305
51.02000 502.358
51.03000 472.117
51.04000 404.148
51.05000 419.832
51.06000 360.197
51.07000 364.551
51.08000 341.117
51.09000 365.950
51.10000 299.388
51.11000 266.085
51.12000 246.041
51.13000 297.923
51.14000 241.911
51.15000 232.946
51.16000 232.648
51.17000 199.702
51.18000 200.875
51.19000 188.228
51.20000 182.510
51.21000 142.951
51.22000 144.016
51.23000 148.145
51.24000 177.085
51.25000 127.060
51.26000 166.705
51.27000 141.818
51.28000 124.377
51.29000 130.861
51.30000 105.215
51.31000 125.740
51.32000 112.779
51.33000 92.870
51.34000 127.038
51.35000 131.215
51.36000 98.841
51.37000 98.362
51.38000 104.139
51.39000 92.675
51.40000 94.090
51.41000 75.903
51.42000 91.118
51.43000 98.734
51.44000 105.060
51.45000 110.047
51.46000 97.810
51.47000 97.707
51.48000 87.834
51.49000 99.752
51.50000 90.261
51.51000 77.000
51.52000 79.217
51.53000 102.636
51.54000 72.997
51.55000 75.055
51.56000 85.868
51.57000 87.185
51.58000 74.802
51.59000 77.013
51.60000 71.627
51.61000 67.757
51.62000 72.981
51.63000 88.063
51.64000 83.023
51.65000 84.770
51.66000 75.267
51.67000 88.095
51.68000 69.127
51.69000 86.120
51.70000 91.973
51.71000 77.724
51.72000 78.397
51.73000 76.835
51.74000 63.893
51.75000 76.968
51.76000 81.850
51.77000 93.112
51.78000 77.700
51.79000 63.866
51.80000 77.555
51.81000 69.892
51.82000 81.733
51.83000 67.170
51.84000 77.597
51.85000 77.904
51.86000 78.940
51.87000 83.715
51.88000 82.250
51.89000 82.766
51.90000 75.879
51.91000 68.770
51.92000 81.974
51.93000 62.913
51.94000 77.385
51.95000 75.650
51.96000 86.928
51.97000 74.811
51.98000 76.861
51.99000 72.781
52.00000 78.823
52.01000 67.845
52.02000 81.000
52.03000 95.003
52.04000 83.671
52.05000 90.858
52.06000 56.879
52.07000 63.298
52.08000 74.133
52.09000 71.906
52.10000 73.002
52.11000 86.822
52.12000 80.726
52.13000 65.519
52.14000 72.756
52.15000 68.236
52.16000 86.186
52.17000 83.752
52.18000 73.103
52.19000 61.708
52.20000 72.273
52.21000 74.745
52.22000 72.783
52.23000 67.893
52.24000 83.840
52.25000 68.853
52.26000 76.604
52.27000 79.644
52.28000 86.832
52.29000 73.777
52.30000 72.144
52.31000 67.924
52.32000 56.854
52.33000 67.889
52.34000 55.091
52.35000 67.959
52.36000 68.853
52.37000 60.892
52.38000 81.132
52.39000 66.813
52.40000 74.735
52.41000 78.768
52.42000 75.242
52.43000 90.075
52.44000 82.835
52.45000 75.122
52.46000 74.830
52.47000 73.865
52.48000 64.974
52.49000 80.810
52.50000 77.799
52.51000 63.913
52.52000 66.918
52.53000 77.717
52.54000 52.966
52.55000 61.858
52.56000 78.654
52.57000 71.840
52.58000 82.902
52.59000 61.638
52.60000 54.122
52.61000 65.633
52.62000 87.838
52.63000 63.288
52.64000 67.824
52.65000 69.758
52.66000 91.016
52.67000 80.505
52.68000 58.878
52.69000 75.758
52.70000 82.915
52.71000 76.974
52.72000 68.766
52.73000 62.271
52.74000 63.922
52.75000 66.056
52.76000 76.759
52.77000 72.625
52.78000 68.073
52.79000 67.075
52.80000 87.939
52.81000 70.671
52.82000 53.645
52.83000 81.789
52.84000 80.196
52.85000 78.390
52.86000 57.727
52.87000 78.177
52.88000 61.872
52.89000 81.480
52.90000 63.601
52.91000 74.720
52.92000 81.929
52.93000 75.825
52.94000 77.990
52.95000 69.986
52.96000 54.848
52.97000 73.284
52.98000 76.079
52.99000 64.645
53.00000 76.706
53.01000 61.804
53.02000 87.191
53.03000 76.940
53.04000 79.997
53.05000 83.976
53.06000 74.043
53.07000 67.863
53.08000 93.217
53.09000 106.772
53.10000 58.677
53.11000 64.036
53.12000 66.728
53.13000 71.079
53.14000 68.843
53.15000 74.847
53.16000 90.751
53.17000 87.710
53.18000 95.882
53.19000 79.703
53.20000 96.731
53.21000 75.736
53.22000 88.909
53.23000 88.795
53.24000 81.013
53.25000 87.579
53.26000 80.224
53.27000 89.940
53.28000 89.864
53.29000 86.047
53.30000 72.037
53.31000 79.673
53.32000 89.078
53.33000 83.130
53.34000 89.338
53.35000 93.945
53.36000 87.114
53.37000 100.953
53.38000 93.075
53.39000 93.048
53.40000 71.266
53.41000 91.174
53.42000 96.755
53.43000 83.913
53.44000 96.973
53.45000 90.926
53.46000 111.882
53.47000 94.862
53.48000 84.772
53.49000 86.844
53.50000 86.881
53.51000 96.606
53.52000 90.244
53.53000 106.816
53.54000 81.970
53.55000 97.090
53.56000 80.214
53.57000 88.328
53.58000 87.815
53.59000 82.015
53.60000 102.098
53.61000 92.097
53.62000 77.192
53.63000 82.933
53.64000 88.454
53.65000 79.764
53.66000 77.047
53.67000 78.587
53.68000 86.978
53.69000 86.675
53.70000 91.934
53.71000 83.491
53.72000 78.579
53.73000 75.535
53.74000 86.336
53.75000 108.084
53.76000 83.857
53.77000 71.845
53.78000 77.166
53.79000 74.878
53.80000 87.381
53.81000 91.883
53.82000 79.997
53.83000 91.662
53.84000 90.758
53.85000 67.802
53.86000 81.799
53.87000 88.824
53.88000 64.170
53.89000 85.700
53.90000 84.972
53.91000 76.556
53.92000 105.196
53.93000 66.896
53.94000 75.761
53.95000 91.633
53.96000 74.649
53.97000 83.898
53.98000 88.894
53.99000 69.838
54.00000 79.821
54.01000 70.784
54.02000 83.753
54.03000 71.207
54.04000 91.838
54.05000 78.408
54.06000 102.924
54.07000 80.104
54.08000 74.882
54.09000 90.704
54.10000 81.339
54.11000 93.880
54.12000 54.952
54.13000 86.954
54.14000 84.895
54.15000 81.921
54.16000 74.068
54.17000 91.667
54.18000 71.886
54.19000 89.978
54.20000 75.763
54.21000 83.702
54.22000 85.755
54.23000 75.999
54.24000 77.980
54.25000 78.083
54.26000 81.021
54.27000 58.673
54.28000 93.944
54.29000 81.053
54.30000 78.727
54.31000 85.920
54.32000 75.764
54.33000 75.571
54.34000 76.602
54.35000 80.908
54.36000 86.620
54.37000 97.736
54.38000 88.622
54.39000 97.871
54.40000 98.051
54.41000 84.823
54.42000 76.565
54.43000 81.622
54.44000 88.847
54.45000 76.382
54.46000 93.190
54.47000 104.965
54.48000 96.027
54.49000 85.834
54.50000 84.189
54.51000 80.722
54.52000 71.078
54.53000 81.504
54.54000 88.021
54.55000 108.623
54.56000 114.711
54.57000 79.011
54.58000 87.138
54.59000 92.826
54.60000 77.147
54.61000 76.040
54.62000 90.901
54.63000 75.841
54.64000 74.957
54.65000 83.377
54.66000 99.004
54.67000 88.276
54.68000 105.151
54.69000 100.944
54.70000 98.130
54.71000 95.527
54.72000 79.941
54.73000 85.605
54.74000 94.083
54.75000 95.975
54.76000 97.048
54.77000 101.044
54.78000 118.696
54.79000 118.924
54.80000 99.019
54.81000 98.695
54.82000 109.800
54.83000 92.660
54.84000 111.079
54.85000 94.036
54.86000 91.030
54.87000 93.542
54.88000 107.846
54.89000 134.779
54.90000 107.056
54.91000 98.571
54.92000 91.932
54.93000 104.361
54.94000 120.046
54.95000 108.736
54.96000 114.967
54.97000 115.871
54.98000 113.861
54.99000 127.022
55.00000 125.201
55.01000 109.180
55.02000 118.765
55.03000 114.960
55.04000 119.242
55.05000 122.197
55.06000 127.005
55.07000 117.845
55.08000 118.004
55.09000 114.946
55.10000 126.839
55.11000 125.997
55.12000 128.219
55.13000 143.103
55.14000 129.794
55.15000 154.902
55.16000 123.872
55.17000 121.008
55.18000 128.092
55.19000 146.683
55.20000 135.664
55.21000 146.822
55.22000 142.056
55.23000 132.853
55.24000 133.733
55.25000 152.871
55.26000 150.734
55.27000 152.340
55.28000 169.048
55.29000 153.791
55.30000 148.959
55.31000 160.868
55.32000 181.679
55.33000 189.732
55.34000 179.801
55.35000 181.158
55.36000 194.306
55.37000 224.171
55.38000 202.929
55.39000 202.737
55.40000 218.583
55.41000 199.236
55.42000 258.688
55.43000 241.470
55.44000 252.686
55.45000 235.736
55.46000 238.117
55.47000 294.012
55.48000 288.400
55.49000 299.241
55.50000 319.706
55.51000 312.592
55.52000 330.407
55.53000 381.849
55.54000 379.094
55.55000 397.269
55.56000 394.792
55.57000 408.128
55.58000 449.267
55.59000 456.534
55.60000 513.678
55.61000 528.590
55.62000 578.476
55.63000 589.370
55.64000 634.804
55.65000 704.894
55.66000 712.445
55.67000 795.120
55.68000 791.883
55.69000 841.442
55.70000 913.491
55.71000 937.030
55.72000 1011.340
55.73000 1005.213
55.74000 1156.337
55.75000 1177.283
55.76000 1219.619
55.77000 1250.513
55.78000 1318.126
55.79000 1468.085
55.80000 1426.181
55.81000 1542.226
55.82000 1542.877
55.83000 1686.237
55.84000 1706.990
55.85000 1697.096
55.86000 1842.120
55.87000 1921.444
55.88000 1969.651
55.89000 1947.670
55.90000 2067.219
55.91000 2102.688
55.92000 2168.306
55.93000 2206.533
55.94000 2239.950
55.95000 2279.795
55.96000 2324.330
55.97000 2342.216
55.98000 2353.344
55.99000 2403.154
56.00000 2409.413
56.01000 2316.145
56.02000 2439.603
56.03000 2431.277
56.04000 2333.839
56.05000 2366.434
56.06000 2331.032
56.07000 2346.168
56.08000 2346.162
56.09000 2237.291
56.10000 2199.208
56.11000 2181.709
56.12000 2177.528
56.13000 2039.885
56.14000 2096.202
56.15000 1934.606
56.16000 1907.520
56.17000 1925.168
56.18000 1822.709
56.19000 1733.645
56.20000 1676.160
56.21000 1562.559
56.22000 1581.011
56.23000 1471.112
56.24000 1366.302
56.25000 1378.706
56.26000 1334.758
56.27000 1255.048
56.28000 1185.619
56.29000 1114.104
56.30000 1080.816
56.31000 956.564
56.32000 992.140
56.33000 850.763
56.34000 815.092
56.35000 842.637
56.36000 727.255
56.37000 698.105
56.38000 679.211
56.39000 625.353
56.40000 611.593
56.41000 560.731
56.42000 577.007
56.43000 479.451
56.44000 491.594
56.45000 410.590
56.46000 389.779
56.47000 383.011
56.48000 384.164
56.49000 337.039
56.50000 339.026
56.51000 313.686
56.52000 296.645
56.53000 319.866
56.54000 288.251
56.55000 254.275
56.56000 255.022
56.57000 233.319
56.58000 223.380
56.59000 236.506
56.60000 206.274
56.61000 221.140
56.62000 194.876
56.63000 214.294
56.64000 159.013
56.65000 163.766
56.66000 164.085
56.67000 161.070
56.68000 162.637
56.69000 173.914
56.70000 150.359
56.71000 164.656
56.72000 131.955
56.73000 143.997
56.74000 136.949
56.75000 136.548
56.76000 157.171
56.77000 129.967
56.78000 151.721
56.79000 110.243
56.80000 139.696
56.81000 138.448
56.82000 129.179
56.83000 128.104
56.84000 119.963
56.85000 123.477
56.86000 109.294
56.87000 126.795
56.88000 129.136
56.89000 133.848
56.90000 107.023
56.91000 129.125
56.92000 143.462
56.93000 122.805
56.94000 124.144
56.95000 94.622
56.96000 103.061
56.97000 98.027
56.98000 140.094
56.99000 111.761
57.00000 115.713
57.01000 103.043
57.02000 107.107
57.03000 91.639
57.04000 103.041
57.05000 104.787
57.06000 121.694
57.07000 100.895
57.08000 116.030
57.09000 72.429
57.10000 111.711
57.11000 102.805
57.12000 100.891
57.13000 95.674
57.14000 92.459
57.15000 107.540
57.16000 83.954
57.17000 105.041
57.18000 98.200
57.19000 90.696
57.20000 81.849
57.21000 72.906
57.22000 107.711
57.23000 97.806
57.24000 102.065
57.25000 83.794
57.26000 82.788
57.27000 78.879
57.28000 81.629
57.29000 86.795
57.30000 99.839
57.31000 69.010
57.32000 81.944
57.33000 70.053
57.34000 96.781
57.35000 82.848
57.36000 98.907
57.37000 94.126
57.38000 94.699
57.39000 96.640
57.40000 85.928
57.41000 59.934
57.42000 95.987
57.43000 76.940
57.44000 81.926
57.45000 93.438
57.46000 109.007
57.47000 83.844
57.48000 84.276
57.49000 93.831
57.50000 77.750
57.51000 88.664
57.52000 89.817
57.53000 77.131
57.54000 71.821
57.55000 81.787
57.56000 70.974
57.57000 70.093
57.58000 83.753
57.59000 80.778
57.60000 68.632
57.61000 76.728
57.62000 77.805
57.63000 77.657
57.64000 89.721
57.65000 84.471
57.66000 75.971
57.67000 77.152
57.68000 73.484
57.69000 74.673
57.70000 74.720
57.71000 68.918
57.72000 67.997
57.73000 79.033
57.74000 86.380
57.75000 60.854
57.76000 80.002
57.77000 67.046
57.78000 79.692
57.79000 62.045
57.80000 72.627
57.81000 75.898
57.82000 87.781
57.83000 78.138
57.84000 58.053
57.85000 77.907
57.86000 70.312
57.87000 65.781
57.88000 77.747
57.89000 69.842
57.90000 84.722
57.91000 61.234
57.92000 74.826
57.93000 71.348
57.94000 74.688
57.95000 85.679
57.96000 78.840
57.97000 79.842
57.98000 73.105
57.99000 77.995
58.00000 73.511
58.01000 76.964
58.02000 75.019
58.03000 80.959
58.04000 76.775
58.05000 72.324
58.06000 64.684
58.07000 60.689
58.08000 71.001
58.09000 67.656
58.10000 72.944
58.11000 78.400
58.12000 62.982
58.13000 70.142
58.14000 60.149
58.15000 80.529
58.16000 88.250
58.17000 67.884
58.18000 82.792
58.19000 57.718
58.20000 67.762
58.21000 69.901
58.22000 68.907
58.23000 69.802
58.24000 70.189
58.25000 83.778
58.26000 81.743
58.27000 70.690
58.28000 77.583
58.29000 70.048
58.30000 87.935
58.31000 76.012
58.32000 74.632
58.33000 52.826
58.34000 62.605
58.35000 58.658
58.36000 74.796
58.37000 78.878
58.38000 68.819
58.39000 72.777
58.40000 70.654
58.41000 64.792
58.42000 88.830
58.43000 70.873
58.44000 68.622
58.45000 65.769
58.46000 67.758
58.47000 66.632
58.48000 66.486
58.49000 64.010
58.50000 81.255
58.51000 63.952
58.52000 69.861
58.53000 66.756
58.54000 69.618
58.55000 61.760
58.56000 64.809
58.57000 63.906
58.58000 64.843
58.59000 60.885
58.60000 80.888
58.61000 73.712
58.62000 58.760
58.63000 59.703
58.64000 53.956
58.65000 80.935
58.66000 64.180
58.67000 57.759
58.68000 54.194
58.69000 63.091
58.70000 65.064
58.71000 59.819
58.72000 68.209
58.73000 72.247
58.74000 64.608
58.75000 67.404
58.76000 66.035
58.77000 62.923
58.78000 64.836
58.79000 55.561
58.80000 60.969
58.81000 67.374
58.82000 78.890
58.83000 57.994
58.84000 66.668
58.85000 49.839
58.86000 66.846
58.87000 70.891
58.88000 62.813
58.89000 64.828
58.90000 67.861
58.91000 60.541
58.92000 63.840
58.93000 67.068
58.94000 59.816
58.95000 52.041
58.96000 68.904
58.97000 68.706
58.98000 56.851
58.99000 81.614
59.00000 61.037
59.01000 66.828
59.02000 58.729
59.03000 66.954
59.04000 59.722
59.05000 73.723
59.06000 69.299
59.07000 60.085
59.08000 68.038
59.09000 64.697
59.10000 69.749
59.11000 66.970
59.12000 79.978
59.13000 56.909
59.14000 69.084
59.15000 58.134
59.16000 63.778
59.17000 51.876
59.18000 62.964
59.19000 61.338
59.20000 55.005
59.21000 62.847
59.22000 73.639
59.23000 73.537
59.24000 65.594
59.25000 64.881
59.26000 56.756
59.27000 76.678
59.28000 72.803
59.29000 62.913
59.30000 56.005
59.31000 71.689
59.32000 61.319
59.33000 81.426
59.34000 57.759
59.35000 55.164
59.36000 58.078
59.37000 61.727
59.38000 53.722
59.39000 57.943
59.40000 48.797
59.41000 74.711
59.42000 41.012
59.43000 61.118
59.44000 70.131
59.45000 61.914
59.46000 49.882
59.47000 59.826
59.48000 55.524
59.49000 61.941
59.50000 51.419
59.51000 51.808
59.52000 55.033
59.53000 45.920
59.54000 58.312
59.55000 71.695
59.56000 75.552
59.57000 58.775
59.58000 55.761
59.59000 57.908
59.60000 55.705
59.61000 58.806
59.62000 56.826
59.63000 71.769
59.64000 73.886
59.65000 61.655
59.66000 58.761
59.67000 69.120
59.68000 58.126
59.69000 46.646
59.70000 60.742
59.71000 58.704
59.72000 53.746
59.73000 75.745
59.74000 61.840
59.75000 66.167
59.76000 56.019
59.77000 55.096
59.78000 55.043
59.79000 67.739
59.80000 53.562
59.81000 65.952
59.82000 43.196
59.83000 62.662
59.84000 51.725
59.85000 62.782
59.86000 45.704
59.87000 70.001
59.88000 52.900
59.89000 70.515
59.90000 68.799
59.91000 57.846
59.92000 58.896
59.93000 67.879
59.94000 69.808
59.95000 52.740
59.96000 62.646
59.97000 76.718
59.98000 76.909
59.99000 64.691
60.00000 73.819
60.01000 65.600
60.02000 58.095
60.03000 51.050
60.04000 62.872
60.05000 77.752
60.06000 43.908
60.07000 61.884
60.08000 49.684
60.09000 47.490
60.10000 55.921
60.11000 70.019
60.12000 64.098
60.13000 47.920
60.14000 66.875
60.15000 64.952
60.16000 67.063
60.17000 59.197
60.18000 57.719
60.19000 64.982
60.20000 53.897
60.21000 62.601
60.22000 54.968
60.23000 51.807
60.24000 49.003
60.25000 57.833
60.26000 59.632
60.27000 58.044
60.28000 58.923
60.29000 67.710
60.30000 50.805
60.31000 70.961
60.32000 63.893
60.33000 52.002
60.34000 66.780
60.35000 57.758
60.36000 59.548
60.37000 63.966
60.38000 56.708
60.39000 59.711
60.40000 54.667
60.41000 56.915
60.42000 63.676
60.43000 54.923
60.44000 61.893
60.45000 64.866
60.46000 48.933
60.47000 56.755
60.48000 59.809
60.49000 62.994
60.50000 57.177
60.51000 59.191
60.52000 61.584
60.53000 64.885
60.54000 60.998
60.55000 69.721
60.56000 81.773
60.57000 63.099
60.58000 47.976
60.59000 67.846
60.60000 50.940
60.61000 44.950
60.62000 59.902
60.63000 64.898
60.64000 49.649
60.65000 60.685
60.66000 61.619
60.67000 63.159
60.68000 54.036
60.69000 61.729
60.70000 82.600
60.71000 62.660
60.72000 69.738
60.73000 66.523
60.74000 56.864
60.75000 57.854
60.76000 58.978
60.77000 51.032
60.78000 64.098
60.79000 64.367
60.80000 58.742
60.81000 67.734
60.82000 58.833
60.83000 56.821
60.84000 66.642
60.85000 63.610
60.86000 58.005
60.87000 58.781
60.88000 49.743
60.89000 56.555
60.90000 51.833
60.91000 56.684
60.92000 61.761
60.93000 63.747
60.94000 61.593
60.95000 59.879
60.96000 59.872
60.97000 47.857
60.98000 52.517
60.99000 70.812
61.00000 57.837
61.01000 65.794
61.02000 50.849
61.03000 64.753
61.04000 64.744
61.05000 58.288
61.06000 69.088
61.07000 56.579
61.08000 39.977
61.09000 67.058
61.10000 55.203
61.11000 53.894
61.12000 66.888
61.13000 51.186
61.14000 59.390
61.15000 65.413
61.16000 69.641
61.17000 60.678
61.18000 54.002
61.19000 48.158
61.20000 64.563
61.21000 51.012
61.22000 59.756
61.23000 56.957
61.24000 50.021
61.25000 58.347
61.26000 56.807
61.27000 47.954
61.28000 57.836
61.29000 62.958
61.30000 63.090
61.31000 49.086
61.32000 60.091
61.33000 63.201
61.34000 74.021
61.35000 61.874
61.36000 62.697
61.37000 51.898
61.38000 52.769
61.39000 63.206
61.40000 51.067
61.41000 49.044
61.42000 54.026
61.43000 64.503
61.44000 48.129
61.45000 56.781
61.46000 57.957
61.47000 60.787
61.48000 67.008
61.49000 65.741
61.50000 57.648
61.51000 47.650
61.52000 57.534
61.53000 60.912
61.54000 56.897
61.55000 66.531
61.56000 70.010
61.57000 65.792
61.58000 50.992
61.59000 49.550
61.60000 50.171
61.61000 60.883
61.62000 55.838
61.63000 69.023
61.64000 49.857
61.65000 56.717
61.66000 64.843
61.67000 52.911
61.68000 42.879
61.69000 49.800
61.70000 74.666
61.71000 56.942
61.72000 63.754
61.73000 51.088
61.74000 52.870
61.75000 54.863
61.76000 54.717
61.77000 60.063
61.78000 51.644
61.79000 51.909
61.80000 51.955
61.81000 59.615
61.82000 55.058
61.83000 63.479
61.84000 70.067
61.85000 55.771
61.86000 60.679
61.87000 52.467
61.88000 47.060
61.89000 50.797
61.90000 58.046
61.91000 52.011
61.92000 60.857
61.93000 57.768
61.94000 47.146
61.95000 48.005
61.96000 52.781
61.97000 68.861
61.98000 62.882
61.99000 62.567
62.00000 59.041
62.01000 56.733
62.02000 63.977
62.03000 60.577
62.04000 53.058
62.05000 55.007
62.06000 69.004
62.07000 54.827
62.08000 57.035
62.09000 67.687
62.10000 50.807
62.11000 58.322
62.12000 66.897
62.13000 61.766
62.14000 49.986
62.15000 62.680
62.16000 63.841
62.17000 63.052
62.18000 57.806
62.19000 58.924
62.20000 56.528
62.21000 57.967
62.22000 54.674
62.23000 52.611
62.24000 60.539
62.25000 66.000
62.26000 62.652
62.27000 55.153
62.28000 71.671
62.29000 72.927
62.30000 66.698
62.31000 51.303
62.32000 55.971
62.33000 54.099
62.34000 78.681
62.35000 55.967
62.36000 63.965
62.37000 61.891
62.38000 73.044
62.39000 70.617
62.40000 85.547
62.41000 49.697
62.42000 68.806
62.43000 72.008
62.44000 59.669
62.45000 59.859
62.46000 74.812
62.47000 69.832
62.48000 88.722
62.49000 61.060
62.50000 83.917
62.51000 77.036
62.52000 59.707
62.53000 61.730
62.54000 54.772
62.55000 58.855
62.56000 81.583
62.57000 62.980
62.58000 87.941
62.59000 72.291
62.60000 58.744
62.61000 59.810
62.62000 56.134
62.63000 65.746
62.64000 61.159
62.65000 64.095
62.66000 79.464
62.67000 57.613
62.68000 71.680
62.69000 72.963
62.70000 62.787
62.71000 64.897
62.72000 72.091
62.73000 54.819
62.74000 71.478
62.75000 66.974
62.76000 66.906
62.77000 65.730
62.78000 60.737
62.79000 74.060
62.80000 72.035
62.81000 67.830
62.82000 75.240
62.83000 61.036
62.84000 68.170
62.85000 56.782
62.86000 66.217
62.87000 65.644
62.88000 50.819
62.89000 64.910
62.90000 68.913
62.91000 48.737
62.92000 57.862
62.93000 59.887
62.94000 59.836
62.95000 59.566
62.96000 56.908
62.97000 61.930
62.98000 64.077
62.99000 58.131
63.00000 54.888
63.01000 62.915
63.02000 71.702
63.03000 56.982
63.04000 68.113
63.05000 68.822
63.06000 61.112
63.07000 53.883
63.08000 51.054
63.09000 52.779
63.10000 66.927
63.11000 44.724
63.12000 54.894
63.13000 65.043
63.14000 69.989
63.15000 64.210
63.16000 69.048
63.17000 64.979
63.18000 49.864
63.19000 57.743
63.20000 66.097
63.21000 60.710
63.22000 55.652
63.23000 66.453
63.24000 59.544
63.25000 67.113
63.26000 67.115
63.27000 60.034
63.28000 54.044
63.29000 49.790
63.30000 75.717
63.31000 55.301
63.32000 60.157
63.33000 58.858
63.34000 58.637
63.35000 74.010
63.36000 60.731
63.37000 76.664
63.38000 54.824
63.39000 62.819
63.40000 49.149
63.41000 77.032
63.42000 57.986
63.43000 54.989
63.44000 59.121
63.45000 55.770
63.46000 56.827
63.47000 64.739
63.48000 58.774
63.49000 48.909
63.50000 60.776
63.51000 63.995
63.52000 53.742
63.53000 60.825
63.54000 62.186
63.55000 68.412
63.56000 57.540
63.57000 43.760
63.58000 63.814
63.59000 49.135
63.60000 73.758
63.61000 52.693
63.62000 62.992
63.63000 55.801
63.64000 55.102
63.65000 65.956
63.66000 60.826
63.67000 71.922
63.68000 61.791
63.69000 55.743
63.70000 55.786
63.71000 64.936
63.72000 63.787
63.73000 59.943
63.74000 67.715
63.75000 69.753
63.76000 69.686
63.77000 56.727
63.78000 56.810
63.79000 54.933
63.80000 76.975
63.81000 76.908
63.82000 68.883
63.83000 66.777
63.84000 70.912
63.85000 45.986
63.86000 64.115
63.87000 61.831
63.88000 68.905
63.89000 63.911
63.90000 69.692
63.91000 75.840
63.92000 67.497
63.93000 66.770
63.94000 62.942
63.95000 57.822
63.96000 65.990
63.97000 70.211
63.98000 56.889
63.99000 70.803
64.00000 74.681
64.01000 58.091
64.02000 61.924
64.03000 81.751
64.04000 69.808
64.05000 72.655
64.06000 69.362
64.07000 71.834
64.08000 67.880
64.09000 61.589
64.10000 68.904
64.11000 62.184
64.12000 62.769
64.13000 66.629
64.14000 62.668
64.15000 64.909
64.16000 62.751
64.17000 71.885
64.18000 69.684
64.19000 77.989
64.20000 60.106
64.21000 60.694
64.22000 76.001
64.23000 71.626
64.24000 64.834
64.25000 71.004
64.26000 60.529
64.27000 56.693
64.28000 86.696
64.29000 68.167
64.30000 65.769
64.31000 71.218
64.32000 69.988
64.33000 75.525
64.34000 62.031
64.35000 75.839
64.36000 68.697
64.37000 51.936
64.38000 69.757
64.39000 76.202
64.40000 64.844
64.41000 61.051
64.42000 78.087
64.43000 76.876
64.44000 68.641
64.45000 62.856
64.46000 77.687
64.47000 83.938
64.48000 59.695
64.49000 66.351
64.50000 68.697
64.51000 84.556
64.52000 66.230
64.53000 76.164
64.54000 72.904
64.55000 75.279
64.56000 66.234
64.57000 76.129
64.58000 73.692
64.59000 83.154
64.60000 73.942
64.61000 78.752
64.62000 78.654
64.63000 89.540
64.64000 68.700
64.65000 71.988
64.66000 79.888
64.67000 93.422
64.68000 84.933
64.69000 106.944
64.70000 86.078
64.71000 101.920
64.72000 78.858
64.73000 102.691
64.74000 106.384
64.75000 90.614
64.76000 91.729
64.77000 78.042
64.78000 90.617
64.79000 89.160
64.80000 118.643
64.81000 88.816
64.82000 86.648
64.83000 97.902
64.84000 110.935
64.85000 90.631
64.86000 110.300
64.87000 106.865
64.88000 95.771
64.89000 101.811
64.90000 103.149
64.91000 98.731
64.92000 104.726
64.93000 112.811
64.94000 99.084
64.95000 135.713
64.96000 113.809
64.97000 123.999
64.98000 121.315
64.99000 107.820
65.00000 143.888
65.01000 150.725
65.02000 136.949
65.03000 136.835
65.04000 160.963
65.05000 125.134
65.06000 177.551
65.07000 185.328
65.08000 157.613
65.09000 166.154
65.10000 184.064
65.11000 175.629
65.12000 183.061
65.13000 187.244
65.14000 209.428
65.15000 211.374
65.16000 222.515
65.17000 246.947
65.18000 233.452
65.19000 270.628
65.20000 260.634
65.21000 285.593
65.22000 313.523
65.23000 307.923
65.24000 298.649
65.25000 331.952
65.26000 370.049
65.27000 359.580
65.28000 386.378
65.29000 425.399
65.30000 432.067
65.31000 454.343
65.32000 487.838
65.33000 478.178
65.34000 503.287
65.35000 552.150
65.36000 573.216
65.37000 558.560
65.38000 616.572
65.39000 666.595
65.40000 681.026
65.41000 640.370
65.42000 717.810
65.43000 730.356
65.44000 747.669
65.45000 836.471
65.46000 819.187
65.47000 850.472
65.48000 886.023
65.49000 903.928
65.50000 940.342
65.51000 985.802
65.52000 1037.830
65.53000 968.643
65.54000 1033.545
65.55000 1086.165
65.56000 1086.906
65.57000 1044.856
65.58000 1034.276
65.59000 1079.242
65.60000 1109.233
65.61000 1086.246
65.62000 1159.017
65.63000 1117.553
65.64000 1131.197
65.65000 1189.173
65.66000 1165.748
65.67000 1099.474
65.68000 1130.973
65.69000 1141.086
65.70000 1121.944
65.71000 1090.980
65.72000 1064.264
65.73000 993.923
65.74000 1017.801
65.75000 1062.854
65.76000 962.883
65.77000 1012.915
65.78000 1000.914
65.79000 967.270
65.80000 977.811
65.81000 823.777
65.82000 895.938
65.83000 841.482
65.84000 789.716
65.85000 822.339
65.86000 730.929
65.87000 701.394
65.88000 729.549
65.89000 665.285
65.90000 663.357
65.91000 687.568
65.92000 604.017
65.93000 572.763
65.94000 483.934
65.95000 528.412
65.96000 462.248
65.97000 483.626
65.98000 410.310
65.99000 441.159
66.00000 412.975
66.01000 389.563
66.02000 391.434
66.03000 380.398
66.04000 371.520
66.05000 336.614
66.06000 313.045
66.07000 290.211
66.08000 296.214
66.09000 225.168
66.10000 254.019
66.11000 218.985
66.12000 250.006
66.13000 209.533
66.14000 215.038
66.15000 206.329
66.16000 186.169
66.17000 174.501
66.18000 147.635
66.19000 168.813
66.20000 129.678
66.21000 155.672
66.22000 138.192
66.23000 130.644
66.24000 115.240
66.25000 147.316
66.26000 134.328
66.27000 129.452
66.28000 106.757
66.29000 90.556
66.30000 118.244
66.31000 120.727
66.32000 96.799
66.33000 105.621
66.34000 108.280
66.35000 102.549
66.36000 85.068
66.37000 107.615
66.38000 89.547
66.39000 125.159
66.40000 110.035
66.41000 95.154
66.42000 93.300
66.43000 106.897
66.44000 95.371
66.45000 88.047
66.46000 91.705
66.47000 91.283
66.48000 86.501
66.49000 94.175
66.50000 103.079
66.51000 94.714
66.52000 102.824
66.53000 99.726
66.54000 93.309
66.55000 83.960
66.56000 75.028
66.57000 76.954
66.58000 75.563
66.59000 73.157
66.60000 95.179
66.61000 95.208
66.62000 86.308
66.63000 82.770
66.64000 91.780
66.65000 83.889
66.66000 79.155
66.67000 82.867
66.68000 80.913
66.69000 84.888
66.70000 69.815
66.71000 78.917
66.72000 86.073
66.73000 87.970
66.74000 68.979
66.75000 85.140
66.76000 67.010
66.77000 79.930
66.78000 78.041
66.79000 62.791
66.80000 74.138
66.81000 75.922
66.82000 82.530
66.83000 64.750
66.84000 65.992
66.85000 69.094
66.86000 82.755
66.87000 57.155
66.88000 83.935
66.89000 69.726
66.90000 72.707
66.91000 70.851
66.92000 80.272
66.93000 74.647
66.94000 64.560
66.95000 73.704
66.96000 76.778
66.97000 65.164
66.98000 63.923
66.99000 63.813
67.00000 59.967
67.01000 62.922
67.02000 64.806
67.03000 85.206
67.04000 61.884
67.05000 69.724
67.06000 52.721
67.07000 84.696
67.08000 72.017
67.09000 60.582
67.10000 53.960
67.11000 71.919
67.12000 65.747
67.13000 67.652
67.14000 84.956
67.15000 68.938
67.16000 74.941
67.17000 76.981
67.18000 72.910
67.19000 63.691
67.20000 63.848
67.21000 72.528
67.22000 62.847
67.23000 62.759
67.24000 69.810
67.25000 81.938
67.26000 61.725
67.27000 59.742
67.28000 57.569
67.29000 81.484
67.30000 65.598
67.31000 59.054
67.32000 57.829
67.33000 73.782
67.34000 59.878
67.35000 72.833
67.36000 69.098
67.37000 60.491
67.38000 64.063
67.39000 66.097
67.40000 63.785
67.41000 60.833
67.42000 53.145
67.43000 58.102
67.44000 61.700
67.45000 65.897
67.46000 67.874
67.47000 64.707
67.48000 57.604
67.49000 61.900
67.50000 63.697
67.51000 66.621
67.52000 64.799
67.53000 52.783
67.54000 57.146
67.55000 60.995
67.56000 58.911
67.57000 54.853
67.58000 59.765
67.59000 60.037
67.60000 60.049
67.61000 64.888
67.62000 75.988
67.63000 71.677
67.64000 66.024
67.65000 56.673
67.66000 58.997
67.67000 65.817
67.68000 73.590
67.69000 49.597
67.70000 70.225
67.71000 59.759
67.72000 66.626
67.73000 67.758
67.74000 50.834
67.75000 49.808
67.76000 50.860
67.77000 58.025
67.78000 64.071
67.79000 68.734
67.80000 66.932
67.81000 58.957
67.82000 61.833
67.83000 61.624
67.84000 48.617
67.85000 62.980
67.86000 63.058
67.87000 63.089
67.88000 49.889
67.89000 51.672
67.90000 68.264
67.91000 67.238
67.92000 52.732
67.93000 62.740
67.94000 54.520
67.95000 56.748
67.96000 62.108
67.97000 62.784
67.98000 49.661
67.99000 43.855
68.00000 64.584
68.01000 53.620
68.02000 53.834
68.03000 60.681
68.04000 74.031
68.05000 68.106
68.06000 50.007
68.07000 83.728
68.08000 55.634
68.09000 60.981
68.10000 79.212
68.11000 57.855
68.12000 54.703
68.13000 51.693
68.14000 52.639
68.15000 65.766
68.16000 53.841
68.17000 51.808
68.18000 56.611
68.19000 62.980
68.20000 56.865
68.21000 65.879
68.22000 53.829
68.23000 63.539
68.24000 78.009
68.25000 78.500
68.26000 64.807
68.27000 58.961
68.28000 59.075
68.29000 54.067
68.30000 53.731
68.31000 46.744
68.32000 59.873
68.33000 66.768
68.34000 54.141
68.35000 57.811
68.36000 52.924
68.37000 58.701
68.38000 60.617
68.39000 69.706
68.40000 56.695
68.41000 64.161
68.42000 61.455
68.43000 68.923
68.44000 54.715
68.45000 47.938
68.46000 57.836
68.47000 75.242
68.48000 70.158
68.49000 46.777
68.50000 67.860
68.51000 60.093
68.52000 70.762
68.53000 70.879
68.54000 58.805
68.55000 63.756
68.56000 65.084
68.57000 49.307
68.58000 72.821
68.59000 57.718
68.60000 65.998
68.61000 64.515
68.62000 64.623
68.63000 51.723
68.64000 55.041
68.65000 58.473
68.66000 59.585
68.67000 72.783
68.68000 64.230
68.69000 65.968
68.70000 51.181
68.71000 55.651
68.72000 53.222
68.73000 58.626
68.74000 59.025
68.75000 73.002
68.76000 55.591
68.77000 65.743
68.78000 48.847
68.79000 56.028
68.80000 57.114
68.81000 65.793
68.82000 66.981
68.83000 71.677
68.84000 62.798
68.85000 49.698
68.86000 58.017
68.87000 59.359
68.88000 69.286
68.89000 53.648
68.90000 62.629
68.91000 65.905
68.92000 57.819
68.93000 69.950
68.94000 69.710
68.95000 47.632
68.96000 64.668
68.97000 73.764
68.98000 50.621
68.99000 43.787
69.00000 59.983
69.01000 64.903
69.02000 62.725
69.03000 66.775
69.04000 62.278
69.05000 70.948
69.06000 85.918
69.07000 60.820
69.08000 80.451
69.09000 64.842
69.10000 48.780
69.11000 67.731
69.12000 79.829
69.13000 58.792
69.14000 54.923
69.15000 55.905
69.16000 63.768
69.17000 54.090
69.18000 79.113
69.19000 65.095
69.20000 71.492
69.21000 81.079
69.22000 79.391
69.23000 70.944
69.24000 65.089
69.25000 77.563
69.26000 56.040
69.27000 72.006
69.28000 80.734
69.29000 79.704
69.30000 65.721
69.31000 65.075
69.32000 64.169
69.33000 70.150
69.34000 62.764
69.35000 80.012
69.36000 67.649
69.37000 70.942
69.38000 81.527
69.39000 77.980
69.40000 85.833
69.41000 74.818
69.42000 67.127
69.43000 78.460
69.44000 77.668
69.45000 72.812
69.46000 64.125
69.47000 81.686
69.48000 67.158
69.49000 76.952
69.50000 73.949
69.51000 91.926
69.52000 84.867
69.53000 77.671
69.54000 100.066
69.55000 76.562
69.56000 92.785
69.57000 98.688
69.58000 96.910
69.59000 87.232
69.60000 101.089
69.61000 89.626
69.62000 103.787
69.63000 94.701
69.64000 102.115
69.65000 105.646
69.66000 92.865
69.67000 91.185
69.68000 121.483
69.69000 116.713
69.70000 126.448
69.71000 117.370
69.72000 117.954
69.73000 134.018
69.74000 127.589
69.75000 126.247
69.76000 136.049
69.77000 144.108
69.78000 131.369
69.79000 152.830
69.80000 150.786
69.81000 163.358
69.82000 145.010
69.83000 152.189
69.84000 169.407
69.85000 171.773
69.86000 183.742
69.87000 166.031
69.88000 178.879
69.89000 170.798
69.90000 209.463
69.91000 199.244
69.92000 211.352
69.93000 198.371
69.94000 239.153
69.95000 224.787
69.96000 248.824
69.97000 259.397
69.98000 282.717
69.99000 245.014
70.00000 251.606
