30.00000 19.502
30.01000 19.912
30.02000 17.628
30.03000 18.416
30.04000 26.371
30.05000 29.190
30.06000 19.039
30.07000 20.093
30.08000 26.677
30.09000 18.716
30.10000 33.126
30.11000 19.186
30.12000 22.287
30.13000 20.113
30.14000 29.428
30.15000 22.552
30.16000 18.695
30.17000 20.695
30.18000 17.594
30.19000 18.626
30.20000 28.369
30.21000 22.492
30.22000 23.381
30.23000 27.295
30.24000 20.895
30.25000 18.114
30.26000 17.289
30.27000 28.370
30.28000 7.506
30.29000 19.090
30.30000 16.113
30.31000 17.245
30.32000 17.032
30.33000 14.935
30.34000 19.759
30.35000 18.542
30.36000 14.293
30.37000 29.504
30.38000 11.783
30.39000 16.592
30.40000 17.932
30.41000 16.342
30.42000 17.540
30.43000 26.830
30.44000 26.120
30.45000 22.441
30.46000 23.402
30.47000 19.683
30.48000 14.373
30.49000 16.479
30.50000 20.476
30.51000 18.856
30.52000 22.914
30.53000 15.853
30.54000 19.426
30.55000 15.953
30.56000 25.963
30.57000 24.346
30.58000 19.498
30.59000 17.197
30.60000 25.688
30.61000 27.618
30.62000 22.136
30.63000 21.618
30.64000 32.207
30.65000 29.702
30.66000 32.767
30.67000 22.976
30.68000 28.296
30.69000 24.336
30.70000 30.790
30.71000 30.124
30.72000 39.702
30.73000 30.646
30.74000 22.461
30.75000 30.788
30.76000 29.591
30.77000 25.898
30.78000 41.063
30.79000 26.887
30.80000 29.511
30.81000 34.373
30.82000 35.201
30.83000 38.355
30.84000 40.713
30.85000 42.390
30.86000 36.483
30.87000 40.551
30.88000 44.638
30.89000 40.461
30.90000 64.827
30.91000 53.431
30.92000 60.424
30.93000 52.737
30.94000 58.122
30.95000 75.048
30.96000 60.228
30.97000 62.485
30.98000 83.916
30.99000 75.334
31.00000 89.373
31.01000 98.199
31.02000 101.996
31.03000 123.201
31.04000 140.484
31.05000 137.355
31.06000 165.620
31.07000 179.847
31.08000 189.620
31.09000 191.127
31.10000 251.773
31.11000 255.601
31.12000 285.330
31.13000 331.067
31.14000 313.356
31.15000 390.421
31.16000 389.427
31.17000 483.920
31.18000 488.707
31.19000 506.315
31.20000 573.789
31.21000 552.728
31.22000 603.824
31.23000 666.708
31.24000 720.756
31.25000 720.566
31.26000 773.968
31.27000 823.951
31.28000 843.846
31.29000 864.834
31.30000 904.782
31.31000 899.917
31.32000 938.158
31.33000 949.044
31.34000 974.913
31.35000 986.753
31.36000 923.729
31.37000 987.092
31.38000 959.122
31.39000 925.778
31.40000 863.040
31.41000 891.170
31.42000 933.917
31.43000 822.972
31.44000 842.819
31.45000 774.206
31.46000 822.226
31.47000 714.903
31.48000 673.439
31.49000 674.423
31.50000 604.115
31.51000 577.917
31.52000 548.318
31.53000 501.827
31.54000 437.347
31.55000 444.027
31.56000 407.156
31.57000 354.129
31.58000 341.133
31.59000 303.308
31.60000 260.295
31.61000 245.570
31.62000 205.178
31.63000 194.433
31.64000 169.828
31.65000 154.461
31.66000 139.417
31.67000 115.725
31.68000 112.032
31.69000 111.765
31.70000 98.514
31.71000 74.169
31.72000 69.889
31.73000 68.090
31.74000 72.534
31.75000 44.842
31.76000 58.150
31.77000 56.408
31.78000 48.525
31.79000 34.907
31.80000 44.786
31.81000 39.283
31.82000 34.894
31.83000 29.453
31.84000 32.742
31.85000 28.601
31.86000 23.850
31.87000 35.351
31.88000 29.618
31.89000 28.447
31.90000 32.733
31.91000 16.653
31.92000 25.375
31.93000 18.009
31.94000 25.396
31.95000 23.505
31.96000 27.831
31.97000 27.958
31.98000 20.921
31.99000 18.912
32.00000 16.520
32.01000 16.481
32.02000 18.007
32.03000 27.617
32.04000 20.564
32.05000 27.518
32.06000 19.657
32.07000 14.188
32.08000 22.059
32.09000 16.634
32.10000 21.094
32.11000 21.596
32.12000 12.276
32.13000 21.312
32.14000 18.342
32.15000 18.593
32.16000 16.245
32.17000 20.787
32.18000 21.886
32.19000 20.620
32.20000 16.885
32.21000 15.026
32.22000 19.146
32.23000 19.750
32.24000 23.794
32.25000 18.675
32.26000 15.427
32.27000 13.094
32.28000 11.616
32.29000 13.767
32.30000 25.128
32.31000 11.525
32.32000 16.035
32.33000 17.210
32.34000 7.398
32.35000 12.744
32.36000 17.240
32.37000 17.608
32.38000 22.122
32.39000 13.471
32.40000 10.268
32.41000 9.157
32.42000 15.541
32.43000 18.247
32.44000 14.345
32.45000 5.073
32.46000 7.165
32.47000 14.178
32.48000 11.559
32.49000 13.347
32.50000 19.022
32.51000 14.353
32.52000 10.634
32.53000 15.216
32.54000 10.510
32.55000 11.185
32.56000 10.224
32.57000 17.168
32.58000 10.847
32.59000 8.718
32.60000 8.141
32.61000 9.489
32.62000 13.257
32.63000 4.062
32.64000 11.178
32.65000 11.148
32.66000 9.190
32.67000 10.489
32.68000 13.621
32.69000 8.197
32.70000 15.100
32.71000 11.556
32.72000 14.518
32.73000 9.581
32.74000 16.745
32.75000 10.248
32.76000 14.237
32.77000 14.102
32.78000 14.294
32.79000 11.500
32.80000 9.502
32.81000 15.666
32.82000 11.306
32.83000 12.407
32.84000 12.489
32.85000 15.290
32.86000 13.565
32.87000 13.288
32.88000 12.545
32.89000 13.234
32.90000 12.026
32.91000 8.798
32.92000 10.512
32.93000 9.501
32.94000 7.452
32.95000 8.420
32.96000 6.446
32.97000 8.431
32.98000 10.503
32.99000 18.337
33.00000 6.749
33.01000 16.219
33.02000 10.429
33.03000 10.198
33.04000 11.019
33.05000 12.579
33.06000 5.977
33.07000 4.695
33.08000 5.460
33.09000 11.684
33.10000 10.248
33.11000 3.125
33.12000 9.543
33.13000 13.090
33.14000 8.132
33.15000 9.199
33.16000 14.531
33.17000 8.427
33.18000 12.426
33.19000 5.971
33.20000 6.235
33.21000 5.488
33.22000 15.489
33.23000 12.702
33.24000 5.037
33.25000 5.107
33.26000 14.607
33.27000 10.793
33.28000 4.406
33.29000 12.955
33.30000 12.374
33.31000 10.193
33.32000 15.898
33.33000 9.915
33.34000 5.548
33.35000 10.853
33.36000 8.060
33.37000 10.209
33.38000 10.878
33.39000 10.211
33.40000 9.123
33.41000 11.427
33.42000 10.275
33.43000 12.299
33.44000 8.127
33.45000 10.277
33.46000 8.995
33.47000 6.383
33.48000 11.421
33.49000 6.174
33.50000 7.834
33.51000 9.153
33.52000 9.519
33.53000 6.036
33.54000 6.189
33.55000 3.421
33.56000 8.481
33.57000 10.408
33.58000 7.395
33.59000 9.118
33.60000 7.350
33.61000 11.120
33.62000 11.097
33.63000 10.429
33.64000 5.372
33.65000 9.247
33.66000 9.252
33.67000 5.090
33.68000 14.606
33.69000 6.113
33.70000 12.220
33.71000 6.486
33.72000 15.612
33.73000 7.361
33.74000 6.349
33.75000 15.238
33.76000 9.774
33.77000 7.088
33.78000 12.352
33.79000 4.351
33.80000 3.761
33.81000 8.080
33.82000 8.773
33.83000 8.161
33.84000 5.446
33.85000 5.064
33.86000 12.559
33.87000 7.078
33.88000 7.081
33.89000 10.532
33.90000 8.852
33.91000 9.487
33.92000 11.949
33.93000 6.767
33.94000 8.531
33.95000 4.362
33.96000 11.163
33.97000 11.249
33.98000 12.208
33.99000 7.104
34.00000 5.132
34.01000 6.725
34.02000 7.169
34.03000 4.730
34.04000 8.466
34.05000 7.257
34.06000 5.392
34.07000 7.029
34.08000 6.111
34.09000 11.407
34.10000 8.804
34.11000 5.378
34.12000 4.082
34.13000 4.795
34.14000 12.488
34.15000 8.341
34.16000 6.069
34.17000 3.671
34.18000 5.080
34.19000 6.773
34.20000 13.145
34.21000 7.173
34.22000 13.563
34.23000 10.168
34.24000 5.046
34.25000 6.439
34.26000 11.069
34.27000 8.131
34.28000 12.115
34.29000 6.124
34.30000 4.712
34.31000 4.754
34.32000 7.403
34.33000 9.511
34.34000 7.172
34.35000 2.370
34.36000 5.415
34.37000 9.418
34.38000 8.057
34.39000 8.492
34.40000 5.381
34.41000 3.431
34.42000 5.191
34.43000 2.357
34.44000 4.022
34.45000 9.167
34.46000 13.265
34.47000 6.039
34.48000 7.101
34.49000 4.101
34.50000 8.195
34.51000 4.127
34.52000 10.114
34.53000 7.135
34.54000 5.460
34.55000 8.429
34.56000 5.457
34.57000 4.454
34.58000 11.275
34.59000 10.123
34.60000 8.465
34.61000 9.476
34.62000 7.449
34.63000 5.480
34.64000 8.170
34.65000 7.504
34.66000 8.504
34.67000 3.414
34.68000 1.389
34.69000 9.867
34.70000 7.075
34.71000 7.030
34.72000 5.430
34.73000 9.192
34.74000 7.503
34.75000 7.028
34.76000 9.770
34.77000 8.531
34.78000 12.012
34.79000 7.384
34.80000 17.312
34.81000 1.995
34.82000 9.765
34.83000 6.150
34.84000 6.025
34.85000 12.155
34.86000 5.034
34.87000 8.065
34.88000 5.954
34.89000 12.133
34.90000 6.043
34.91000 14.248
34.92000 6.990
34.93000 5.187
34.94000 8.144
34.95000 3.017
34.96000 8.143
34.97000 5.064
34.98000 11.182
34.99000 5.071
35.00000 1.341
35.01000 8.191
35.02000 3.055
35.03000 7.107
35.04000 7.133
35.05000 11.208
35.06000 8.107
35.07000 7.202
35.08000 5.070
35.09000 5.098
35.10000 6.185
35.11000 7.064
35.12000 7.426
35.13000 7.139
35.14000 8.487
35.15000 7.184
35.16000 5.092
35.17000 3.023
35.18000 5.073
35.19000 4.437
35.20000 7.414
35.21000 5.385
35.22000 7.686
35.23000 3.083
35.24000 6.527
35.25000 8.549
35.26000 7.089
35.27000 4.478
35.28000 8.034
35.29000 3.123
35.30000 5.371
35.31000 2.960
35.32000 9.475
35.33000 7.537
35.34000 4.347
35.35000 9.292
35.36000 8.077
35.37000 8.103
35.38000 7.111
35.39000 2.009
35.40000 4.387
35.41000 4.430
35.42000 3.091
35.43000 3.340
35.44000 4.197
35.45000 7.129
35.46000 4.033
35.47000 5.104
35.48000 10.863
35.49000 5.071
35.50000 2.681
35.51000 3.422
35.52000 4.690
35.53000 4.349
35.54000 8.384
35.55000 8.123
35.56000 4.345
35.57000 10.139
35.58000 4.192
35.59000 7.072
35.60000 8.080
35.61000 8.194
35.62000 7.762
35.63000 8.783
35.64000 5.144
35.65000 6.239
35.66000 2.080
35.67000 11.179
35.68000 5.391
35.69000 4.998
35.70000 5.728
35.71000 10.443
35.72000 10.207
35.73000 3.005
35.74000 8.065
35.75000 5.737
35.76000 7.358
35.77000 5.474
35.78000 8.613
35.79000 10.116
35.80000 7.501
35.81000 6.177
35.82000 7.745
35.83000 9.537
35.84000 6.339
35.85000 7.474
35.86000 2.392
35.87000 7.090
35.88000 2.389
35.89000 4.286
35.90000 9.117
35.91000 7.117
35.92000 6.548
35.93000 3.064
35.94000 5.030
35.95000 3.059
35.96000 10.249
35.97000 3.392
35.98000 9.130
35.99000 9.809
36.00000 5.491
36.01000 5.358
36.02000 9.500
36.03000 4.354
36.04000 7.436
36.05000 6.437
36.06000 9.201
36.07000 7.094
36.08000 10.820
36.09000 8.839
36.10000 7.415
36.11000 5.323
36.12000 10.081
36.13000 4.742
36.14000 5.060
36.15000 8.049
36.16000 6.370
36.17000 6.088
36.18000 5.149
36.19000 5.402
36.20000 4.045
36.21000 4.989
36.22000 8.111
36.23000 4.724
36.24000 2.050
36.25000 4.009
36.26000 7.111
36.27000 8.515
36.28000 1.344
36.29000 6.148
36.30000 3.070
36.31000 9.728
36.32000 5.129
36.33000 6.169
36.34000 1.996
36.35000 7.485
36.36000 10.230
36.37000 9.094
36.38000 5.108
36.39000 7.067
36.40000 6.433
36.41000 3.099
36.42000 9.500
36.43000 4.102
36.44000 7.132
36.45000 1.003
36.46000 2.025
36.47000 6.088
36.48000 2.029
36.49000 6.162
36.50000 8.536
36.51000 10.519
36.52000 7.135
36.53000 5.404
36.54000 5.013
36.55000 12.916
36.56000 7.490
36.57000 8.154
36.58000 4.047
36.59000 3.079
36.60000 7.156
36.61000 4.998
36.62000 4.741
36.63000 4.130
36.64000 4.989
36.65000 8.574
36.66000 4.030
36.67000 8.093
36.68000 7.261
36.69000 8.570
36.70000 6.409
36.71000 5.459
36.72000 5.029
36.73000 8.046
36.74000 7.134
36.75000 4.491
36.76000 7.202
36.77000 3.060
36.78000 3.027
36.79000 1.972
36.80000 2.427
36.81000 9.123
36.82000 7.430
36.83000 7.812
36.84000 3.102
36.85000 6.066
36.86000 2.371
36.87000 5.129
36.88000 5.466
36.89000 2.028
36.90000 3.442
36.91000 6.050
36.92000 7.424
36.93000 6.113
36.94000 8.203
36.95000 7.089
36.96000 9.475
36.97000 4.996
36.98000 6.403
36.99000 9.500
37.00000 4.977
37.01000 10.247
37.02000 7.160
37.03000 8.471
37.04000 5.461
37.05000 5.086
37.06000 5.089
37.07000 4.151
37.08000 9.159
37.09000 4.110
37.10000 3.095
37.11000 10.175
37.12000 2.051
37.13000 8.507
37.14000 10.194
37.15000 5.521
37.16000 4.134
37.17000 5.997
37.18000 5.039
37.19000 6.509
37.20000 10.756
37.21000 8.845
37.22000 4.989
37.23000 8.203
37.24000 3.361
37.25000 4.450
37.26000 9.163
37.27000 4.731
37.28000 8.724
37.29000 7.083
37.30000 6.608
37.31000 7.114
37.32000 8.033
37.33000 6.073
37.34000 2.019
37.35000 4.993
37.36000 4.421
37.37000 7.050
37.38000 7.395
37.39000 6.085
37.40000 2.349
37.41000 8.110
37.42000 8.070
37.43000 7.376
37.44000 3.058
37.45000 4.412
37.46000 3.017
37.47000 6.440
37.48000 2.966
37.49000 11.443
37.50000 6.346
37.51000 10.398
37.52000 6.150
37.53000 10.169
37.54000 8.744
37.55000 9.261
37.56000 1.995
37.57000 6.075
37.58000 6.548
37.59000 6.453
37.60000 8.460
37.61000 7.207
37.62000 7.091
37.63000 3.167
37.64000 2.038
37.65000 4.041
37.66000 2.985
37.67000 9.426
37.68000 4.329
37.69000 7.074
37.70000 4.071
37.71000 5.755
37.72000 7.201
37.73000 8.188
37.74000 11.401
37.75000 4.039
37.76000 6.545
37.77000 6.138
37.78000 3.063
37.79000 7.448
37.80000 7.500
37.81000 7.543
37.82000 8.267
37.83000 12.065
37.84000 9.791
37.85000 4.974
37.86000 7.205
37.87000 7.389
37.88000 4.006
37.89000 6.066
37.90000 7.109
37.91000 10.206
37.92000 6.430
37.93000 7.860
37.94000 4.440
37.95000 7.142
37.96000 5.688
37.97000 4.062
37.98000 4.046
37.99000 9.394
38.00000 7.374
38.01000 9.476
38.02000 9.052
38.03000 4.764
38.04000 11.456
38.05000 3.740
38.06000 8.043
38.07000 7.080
38.08000 10.619
38.09000 6.164
38.10000 4.164
38.11000 7.473
38.12000 9.746
38.13000 4.398
38.14000 8.172
38.15000 4.335
38.16000 10.245
38.17000 3.363
38.18000 4.079
38.19000 7.457
38.20000 8.200
38.21000 6.052
38.22000 10.151
38.23000 8.524
38.24000 9.219
38.25000 5.474
38.26000 7.197
38.27000 9.436
38.28000 8.484
38.29000 8.186
38.30000 11.463
38.31000 8.127
38.32000 11.553
38.33000 13.874
38.34000 12.371
38.35000 15.930
38.36000 7.726
38.37000 12.290
38.38000 16.689
38.39000 13.284
38.40000 13.606
38.41000 6.559
38.42000 7.089
38.43000 13.211
38.44000 14.427
38.45000 15.895
38.46000 19.323
38.47000 20.733
38.48000 29.229
38.49000 21.684
38.50000 14.599
38.51000 17.459
38.52000 27.536
38.53000 25.362
38.54000 22.639
38.55000 33.936
38.56000 28.838
38.57000 29.895
38.58000 28.070
38.59000 37.751
38.60000 48.633
38.61000 37.946
38.62000 45.194
38.63000 34.040
38.64000 42.888
38.65000 37.854
38.66000 40.215
38.67000 37.837
38.68000 34.796
38.69000 40.724
38.70000 40.762
38.71000 31.460
38.72000 24.129
38.73000 44.635
38.74000 30.979
38.75000 31.529
38.76000 30.625
38.77000 33.393
38.78000 45.515
38.79000 38.778
38.80000 33.483
38.81000 31.222
38.82000 32.352
38.83000 29.968
38.84000 32.462
38.85000 31.034
38.86000 24.709
38.87000 16.917
38.88000 21.204
38.89000 19.050
38.90000 19.305
38.91000 23.669
38.92000 21.702
38.93000 18.623
38.94000 15.719
38.95000 14.541
38.96000 14.886
38.97000 20.349
38.98000 14.143
38.99000 23.218
39.00000 8.823
39.01000 16.135
39.02000 12.642
39.03000 9.895
39.04000 8.845
39.05000 10.063
39.06000 9.007
39.07000 5.416
39.08000 8.244
39.09000 9.035
39.10000 7.833
39.11000 9.477
39.12000 11.264
39.13000 11.386
39.14000 6.161
39.15000 6.423
39.16000 6.423
39.17000 6.105
39.18000 9.418
39.19000 7.482
39.20000 4.402
39.21000 10.107
39.22000 7.767
39.23000 4.495
39.24000 4.329
39.25000 4.369
39.26000 8.128
39.27000 10.134
39.28000 7.122
39.29000 4.005
39.30000 9.139
39.31000 10.185
39.32000 3.023
39.33000 6.401
39.34000 7.488
39.35000 4.043
39.36000 6.357
39.37000 7.169
39.38000 10.151
39.39000 10.465
39.40000 7.470
39.41000 12.941
39.42000 7.009
39.43000 4.082
39.44000 3.013
39.45000 8.082
39.46000 6.032
39.47000 10.281
39.48000 6.152
39.49000 7.082
39.50000 4.731
39.51000 9.422
39.52000 9.532
39.53000 5.728
39.54000 8.478
39.55000 2.441
39.56000 5.106
39.57000 2.002
39.58000 0.336
39.59000 2.423
39.60000 4.128
39.61000 4.033
39.62000 6.356
39.63000 6.080
39.64000 6.164
39.65000 3.996
39.66000 6.092
39.67000 5.426
39.68000 3.061
39.69000 6.180
39.70000 3.989
39.71000 7.123
39.72000 4.011
39.73000 2.975
39.74000 7.462
39.75000 5.051
39.76000 4.054
39.77000 7.071
39.78000 4.080
39.79000 3.363
39.80000 3.079
39.81000 6.099
39.82000 6.198
39.83000 5.780
39.84000 1.370
39.85000 5.980
39.86000 2.367
39.87000 3.021
39.88000 5.930
39.89000 5.190
39.90000 2.017
39.91000 6.500
39.92000 5.451
39.93000 3.061
39.94000 6.732
39.95000 4.078
39.96000 11.205
39.97000 3.080
39.98000 5.289
39.99000 2.030
40.00000 8.173
40.01000 2.099
40.02000 7.060
40.03000 5.406
40.04000 2.025
40.05000 6.436
40.06000 4.548
40.07000 4.396
40.08000 7.105
40.09000 5.042
40.10000 6.068
40.11000 5.107
40.12000 0.000
40.13000 10.548
40.14000 10.120
40.15000 8.176
40.16000 7.108
40.17000 2.344
40.18000 0.329
40.19000 4.384
40.20000 6.056
40.21000 6.499
40.22000 3.092
40.23000 7.292
40.24000 5.445
40.25000 4.152
40.26000 7.102
40.27000 2.044
40.28000 3.711
40.29000 4.205
40.30000 5.122
40.31000 6.456
40.32000 5.417
40.33000 3.451
40.34000 3.133
40.35000 7.734
40.36000 6.098
40.37000 5.707
40.38000 3.365
40.39000 7.059
40.40000 5.462
40.41000 7.222
40.42000 2.365
40.43000 6.043
40.44000 8.203
40.45000 3.038
40.46000 1.304
40.47000 5.204
40.48000 6.468
40.49000 7.481
40.50000 7.034
40.51000 3.057
40.52000 4.404
40.53000 5.043
40.54000 2.430
40.55000 3.699
40.56000 2.053
40.57000 5.103
40.58000 4.661
40.59000 6.788
40.60000 3.026
40.61000 5.241
40.62000 0.995
40.63000 4.407
40.64000 6.154
40.65000 6.106
40.66000 2.072
40.67000 5.118
40.68000 4.013
40.69000 1.032
40.70000 12.447
40.71000 3.101
40.72000 4.419
40.73000 2.343
40.74000 6.155
40.75000 4.094
40.76000 7.525
40.77000 4.363
40.78000 5.802
40.79000 0.000
40.80000 4.988
40.81000 3.023
40.82000 6.090
40.83000 3.023
40.84000 4.160
40.85000 3.712
40.86000 9.099
40.87000 4.068
40.88000 3.410
40.89000 4.069
40.90000 6.208
40.91000 3.986
40.92000 6.037
40.93000 5.501
40.94000 4.032
40.95000 5.058
40.96000 2.008
40.97000 3.045
40.98000 3.037
40.99000 6.115
41.00000 3.364
41.01000 3.047
41.02000 9.026
41.03000 4.070
41.04000 2.721
41.05000 5.094
41.06000 2.078
41.07000 9.231
41.08000 5.112
41.09000 7.066
41.10000 3.000
41.11000 9.128
41.12000 3.088
41.13000 5.179
41.14000 4.372
41.15000 4.375
41.16000 4.044
41.17000 4.069
41.18000 5.368
41.19000 2.026
41.20000 7.242
41.21000 6.068
41.22000 3.984
41.23000 0.987
41.24000 3.999
41.25000 4.971
41.26000 2.022
41.27000 3.069
41.28000 5.218
41.29000 9.898
41.30000 3.396
41.31000 2.041
41.32000 6.056
41.33000 2.355
41.34000 9.230
41.35000 4.060
41.36000 2.022
41.37000 3.055
41.38000 4.422
41.39000 6.126
41.40000 2.037
41.41000 5.048
41.42000 7.443
41.43000 3.076
41.44000 6.442
41.45000 2.009
41.46000 4.998
41.47000 1.016
41.48000 0.978
41.49000 2.018
41.50000 3.053
41.51000 7.150
41.52000 4.100
41.53000 4.169
41.54000 5.264
41.55000 3.406
41.56000 3.042
41.57000 4.338
41.58000 4.062
41.59000 4.358
41.60000 1.062
41.61000 2.747
41.62000 8.127
41.63000 6.094
41.64000 4.019
41.65000 4.058
41.66000 3.081
41.67000 5.065
41.68000 5.478
41.69000 4.974
41.70000 0.000
41.71000 7.167
41.72000 5.392
41.73000 2.002
41.74000 2.073
41.75000 3.150
41.76000 4.070
41.77000 5.012
41.78000 3.063
41.79000 7.106
41.80000 2.982
41.81000 5.064
41.82000 2.030
41.83000 7.187
41.84000 7.055
41.85000 6.483
41.86000 6.058
41.87000 2.983
41.88000 6.147
41.89000 6.017
41.90000 6.419
41.91000 4.087
41.92000 2.033
41.93000 1.038
41.94000 2.034
41.95000 2.016
41.96000 2.114
41.97000 3.013
41.98000 2.328
41.99000 4.192
42.00000 3.083
42.01000 0.000
42.02000 6.045
42.03000 5.427
42.04000 2.033
42.05000 5.024
42.06000 4.122
42.07000 4.113
42.08000 4.034
42.09000 9.124
42.10000 0.984
42.11000 3.012
42.12000 3.059
42.13000 3.361
42.14000 4.014
42.15000 3.362
42.16000 3.012
42.17000 1.413
42.18000 2.326
42.19000 8.131
42.20000 4.095
42.21000 4.095
42.22000 3.492
42.23000 3.064
42.24000 5.040
42.25000 6.369
42.26000 3.065
42.27000 4.006
42.28000 2.997
42.29000 3.079
42.30000 0.000
42.31000 4.080
42.32000 5.013
42.33000 7.147
42.34000 3.415
42.35000 6.129
42.36000 7.119
42.37000 8.479
42.38000 2.050
42.39000 5.129
42.40000 4.028
42.41000 4.427
42.42000 5.013
42.43000 4.695
42.44000 2.998
42.45000 5.993
42.46000 5.021
42.47000 7.152
42.48000 2.998
42.49000 2.012
42.50000 5.999
42.51000 5.320
42.52000 5.024
42.53000 2.992
42.54000 2.031
42.55000 2.048
42.56000 7.037
42.57000 0.993
42.58000 5.036
42.59000 1.992
42.60000 3.054
42.61000 5.102
42.62000 4.366
42.63000 1.015
42.64000 6.118
42.65000 3.053
42.66000 3.054
42.67000 2.102
42.68000 3.048
42.69000 6.184
42.70000 9.166
42.71000 4.087
42.72000 5.037
42.73000 4.099
42.74000 4.004
42.75000 7.064
42.76000 3.043
42.77000 6.059
42.78000 8.043
42.79000 2.382
42.80000 4.037
42.81000 3.105
42.82000 5.038
42.83000 3.053
42.84000 4.366
42.85000 5.020
42.86000 6.456
42.87000 7.290
42.88000 5.395
42.89000 5.102
42.90000 9.512
42.91000 0.998
42.92000 12.166
42.93000 9.397
42.94000 6.165
42.95000 8.496
42.96000 5.405
42.97000 7.184
42.98000 5.375
42.99000 7.338
43.00000 3.367
43.01000 3.999
43.02000 5.050
43.03000 3.058
43.04000 9.240
43.05000 8.385
43.06000 3.130
43.07000 4.022
43.08000 5.300
43.09000 7.416
43.10000 8.044
43.11000 2.076
43.12000 8.160
43.13000 4.053
43.14000 5.120
43.15000 9.151
43.16000 8.130
43.17000 7.157
43.18000 2.113
43.19000 8.473
43.20000 8.202
43.21000 1.003
43.22000 3.722
43.23000 5.028
43.24000 9.418
43.25000 5.018
43.26000 2.006
43.27000 5.407
43.28000 4.424
43.29000 4.069
43.30000 4.387
43.31000 1.317
43.32000 5.012
43.33000 3.100
43.34000 4.374
43.35000 4.381
43.36000 2.041
43.37000 4.418
43.38000 2.018
43.39000 7.434
43.40000 2.361
43.41000 6.360
43.42000 3.318
43.43000 6.171
43.44000 7.111
43.45000 8.107
43.46000 6.700
43.47000 4.036
43.48000 5.363
43.49000 6.517
43.50000 3.366
43.51000 6.119
43.52000 5.138
43.53000 7.235
43.54000 6.181
43.55000 8.176
43.56000 6.190
43.57000 3.403
43.58000 6.502
43.59000 12.424
43.60000 6.442
43.61000 4.092
43.62000 4.201
43.63000 2.026
43.64000 8.510
43.65000 3.389
43.66000 4.373
43.67000 3.099
43.68000 1.989
43.69000 10.912
43.70000 7.208
43.71000 6.189
43.72000 5.133
43.73000 8.226
43.74000 5.360
43.75000 3.021
43.76000 4.036
43.77000 5.068
43.78000 3.062
43.79000 3.390
43.80000 1.386
43.81000 6.105
43.82000 7.165
43.83000 6.006
43.84000 7.409
43.85000 9.143
43.86000 8.409
43.87000 1.988
43.88000 6.441
43.89000 5.044
43.90000 2.073
43.91000 4.996
43.92000 7.176
43.93000 5.104
43.94000 8.390
43.95000 2.004
43.96000 4.096
43.97000 6.382
43.98000 3.045
43.99000 8.189
44.00000 6.168
44.01000 6.187
44.02000 2.028
44.03000 3.037
44.04000 9.415
44.05000 6.094
44.06000 5.012
44.07000 4.117
44.08000 3.331
44.09000 4.090
44.10000 3.078
44.11000 3.448
44.12000 11.498
44.13000 9.403
44.14000 6.029
44.15000 8.106
44.16000 5.345
44.17000 7.796
44.18000 5.046
44.19000 5.132
44.20000 3.415
44.21000 8.452
44.22000 6.396
44.23000 8.823
44.24000 8.150
44.25000 7.232
44.26000 4.365
44.27000 3.099
44.28000 9.092
44.29000 5.165
44.30000 8.925
44.31000 9.223
44.32000 10.169
44.33000 7.484
44.34000 10.797
44.35000 5.087
44.36000 5.056
44.37000 6.209
44.38000 13.538
44.39000 8.204
44.40000 13.568
44.41000 9.256
44.42000 7.049
44.43000 12.160
44.44000 6.420
44.45000 13.305
44.46000 9.033
44.47000 12.227
44.48000 16.507
44.49000 11.600
44.50000 7.511
44.51000 12.504
44.52000 8.057
44.53000 15.255
44.54000 14.472
44.55000 17.612
44.56000 13.378
44.57000 12.555
44.58000 16.364
44.59000 29.488
44.60000 16.943
44.61000 14.947
44.62000 31.909
44.63000 24.461
44.64000 31.639
44.65000 32.029
44.66000 31.710
44.67000 42.265
44.68000 38.160
44.69000 36.858
44.70000 35.635
44.71000 45.038
44.72000 40.176
44.73000 50.408
44.74000 37.616
44.75000 62.273
44.76000 57.282
44.77000 54.250
44.78000 58.681
44.79000 79.550
44.80000 83.973
44.81000 72.298
44.82000 88.293
44.83000 69.873
44.84000 97.561
44.85000 64.984
44.86000 84.442
44.87000 102.415
44.88000 70.263
44.89000 107.003
44.90000 116.586
44.91000 129.347
44.92000 111.952
44.93000 128.718
44.94000 122.815
44.95000 122.035
44.96000 133.335
44.97000 121.867
44.98000 114.163
44.99000 121.774
45.00000 128.859
45.01000 110.505
45.02000 129.887
45.03000 109.000
45.04000 113.419
45.05000 112.738
45.06000 84.884
45.07000 124.162
45.08000 103.961
45.09000 98.386
45.10000 104.728
45.11000 90.658
45.12000 83.775
45.13000 87.653
45.14000 98.494
45.15000 96.116
45.16000 82.434
45.17000 59.854
45.18000 68.356
45.19000 52.791
45.20000 63.132
45.21000 68.386
45.22000 54.424
45.23000 47.555
45.24000 48.928
45.25000 57.590
45.26000 49.639
45.27000 38.558
45.28000 44.125
45.29000 30.598
45.30000 34.475
45.31000 31.811
45.32000 35.103
45.33000 32.332
45.34000 18.308
45.35000 33.872
45.36000 18.233
45.37000 21.339
45.38000 14.561
45.39000 18.933
45.40000 22.756
45.41000 15.865
45.42000 12.552
45.43000 9.577
45.44000 16.694
45.45000 13.647
45.46000 13.563
45.47000 10.069
45.48000 11.204
45.49000 11.128
45.50000 12.393
45.51000 6.078
45.52000 11.333
45.53000 9.503
45.54000 10.454
45.55000 8.877
45.56000 6.348
45.57000 7.782
45.58000 13.537
45.59000 14.250
45.60000 10.182
45.61000 7.772
45.62000 7.407
45.63000 8.069
45.64000 8.432
45.65000 8.110
45.66000 2.971
45.67000 8.781
45.68000 8.187
45.69000 8.215
45.70000 7.097
45.71000 4.380
45.72000 2.004
45.73000 8.184
45.74000 4.125
45.75000 1.018
45.76000 5.132
45.77000 6.747
45.78000 4.021
45.79000 12.465
45.80000 5.077
45.81000 7.581
45.82000 6.832
45.83000 7.367
45.84000 8.032
45.85000 4.950
45.86000 4.495
45.87000 5.361
45.88000 6.126
45.89000 9.158
45.90000 3.068
45.91000 4.306
45.92000 2.991
45.93000 6.086
45.94000 5.086
45.95000 3.055
45.96000 7.544
45.97000 4.396
45.98000 5.019
45.99000 5.116
46.00000 6.766
46.01000 4.421
46.02000 8.488
46.03000 8.152
46.04000 9.182
46.05000 8.214
46.06000 5.989
46.07000 5.376
46.08000 5.981
46.09000 7.043
46.10000 7.928
46.11000 4.440
46.12000 2.324
46.13000 1.666
46.14000 8.094
46.15000 8.563
46.16000 6.087
46.17000 2.330
46.18000 1.004
46.19000 5.139
46.20000 2.365
46.21000 8.484
46.22000 5.157
46.23000 8.150
46.24000 7.133
46.25000 9.662
46.26000 1.015
46.27000 4.292
46.28000 6.060
46.29000 4.500
46.30000 7.103
46.31000 0.000
46.32000 1.720
46.33000 6.058
46.34000 3.134
46.35000 1.999
46.36000 2.077
46.37000 1.089
46.38000 5.087
46.39000 3.399
46.40000 6.467
46.41000 5.996
46.42000 4.132
46.43000 2.998
46.44000 6.138
46.45000 1.016
46.46000 4.389
46.47000 3.035
46.48000 4.089
46.49000 3.036
46.50000 4.394
46.51000 8.174
46.52000 6.156
46.53000 1.332
46.54000 2.403
46.55000 6.169
46.56000 4.044
46.57000 10.018
46.58000 3.442
46.59000 3.042
46.60000 1.988
46.61000 3.332
46.62000 1.004
46.63000 4.120
46.64000 5.016
46.65000 6.397
46.66000 7.137
46.67000 5.143
46.68000 4.802
46.69000 4.096
46.70000 1.356
46.71000 3.086
46.72000 2.379
46.73000 3.342
46.74000 3.037
46.75000 4.052
46.76000 3.054
46.77000 2.006
46.78000 2.009
46.79000 3.019
46.80000 4.381
46.81000 6.762
46.82000 7.257
46.83000 3.004
46.84000 1.016
46.85000 3.381
46.86000 6.014
46.87000 2.350
46.88000 5.367
46.89000 3.701
46.90000 4.039
46.91000 2.024
46.92000 7.967
46.93000 0.999
46.94000 5.115
46.95000 5.148
46.96000 3.012
46.97000 1.051
46.98000 6.106
46.99000 2.974
47.00000 5.080
