20.00000 11.997
20.01000 7.037
20.02000 11.132
20.03000 19.300
20.04000 9.029
20.05000 16.287
20.06000 12.061
20.07000 16.074
20.08000 15.160
20.09000 21.482
20.10000 17.261
20.11000 15.182
20.12000 18.261
20.13000 18.241
20.14000 14.216
20.15000 13.113
20.16000 19.131
20.17000 15.250
20.18000 17.435
20.19000 22.086
20.20000 16.189
20.21000 22.228
20.22000 12.014
20.23000 19.174
20.24000 13.255
20.25000 18.192
20.26000 12.093
20.27000 14.199
20.28000 14.144
20.29000 15.276
20.30000 14.088
20.31000 15.206
20.32000 11.169
20.33000 16.273
20.34000 10.057
20.35000 19.205
20.36000 20.123
20.37000 15.113
20.38000 21.227
20.39000 13.063
20.40000 12.143
20.41000 14.121
20.42000 19.233
20.43000 14.243
20.44000 18.185
20.45000 22.380
20.46000 20.148
20.47000 19.181
20.48000 14.306
20.49000 21.187
20.50000 14.183
20.51000 16.165
20.52000 12.069
20.53000 20.113
20.54000 16.199
20.55000 19.045
20.56000 11.129
20.57000 22.344
20.58000 15.243
20.59000 15.222
20.60000 20.246
20.61000 20.169
20.62000 17.287
20.63000 18.192
20.64000 14.459
20.65000 14.192
20.66000 18.203
20.67000 11.178
20.68000 21.059
20.69000 16.329
20.70000 11.137
20.71000 12.049
20.72000 13.265
20.73000 19.400
20.74000 10.183
20.75000 9.047
20.76000 9.065
20.77000 16.049
20.78000 16.126
20.79000 14.432
20.80000 22.270
20.81000 15.229
20.82000 18.164
20.83000 13.191
20.84000 21.261
20.85000 11.040
20.86000 16.261
20.87000 12.226
20.88000 18.417
20.89000 13.378
20.90000 13.150
20.91000 15.122
20.92000 21.157
20.93000 8.154
20.94000 16.135
20.95000 12.149
20.96000 17.210
20.97000 13.259
20.98000 20.207
20.99000 8.182
21.00000 11.210
21.01000 21.167
21.02000 20.306
21.03000 10.921
21.04000 15.242
21.05000 20.282
21.06000 17.280
21.07000 14.035
21.08000 19.341
21.09000 12.330
21.10000 19.090
21.11000 24.270
21.12000 12.025
21.13000 16.376
21.14000 14.162
21.15000 16.279
21.16000 17.274
21.17000 18.113
21.18000 17.167
21.19000 18.217
21.20000 10.179
21.21000 9.086
21.22000 11.049
21.23000 15.120
21.24000 20.291
21.25000 22.247
21.26000 16.320
21.27000 16.041
21.28000 21.257
21.29000 16.101
21.30000 16.309
21.31000 16.184
21.32000 20.171
21.33000 16.242
21.34000 15.192
21.35000 17.178
21.36000 16.338
21.37000 19.308
21.38000 23.280
21.39000 21.158
21.40000 14.161
21.41000 15.240
21.42000 21.303
21.43000 13.239
21.44000 16.257
21.45000 19.328
21.46000 28.550
21.47000 15.233
21.48000 19.204
21.49000 12.080
21.50000 15.403
21.51000 10.141
21.52000 16.280
21.53000 9.166
21.54000 17.271
21.55000 17.192
21.56000 14.059
21.57000 18.185
21.58000 23.132
21.59000 24.418
21.60000 14.244
21.61000 14.206
21.62000 17.198
21.63000 16.090
21.64000 15.222
21.65000 13.192
21.66000 11.087
21.67000 11.023
21.68000 15.142
21.69000 17.209
21.70000 26.194
21.71000 18.012
21.72000 20.319
21.73000 15.165
21.74000 21.096
21.75000 15.415
21.76000 23.380
21.77000 10.163
21.78000 12.266
21.79000 15.133
21.80000 14.310
21.81000 16.226
21.82000 15.191
21.83000 15.069
21.84000 17.278
21.85000 16.369
21.86000 14.287
21.87000 14.184
21.88000 15.153
21.89000 16.141
21.90000 8.122
21.91000 16.289
21.92000 21.299
21.93000 19.494
21.94000 11.077
21.95000 12.251
21.96000 18.165
21.97000 12.236
21.98000 21.242
21.99000 9.120
22.00000 8.971
22.01000 20.263
22.02000 17.182
22.03000 17.462
22.04000 9.073
22.05000 18.262
22.06000 16.199
22.07000 15.213
22.08000 17.149
22.09000 15.249
22.10000 15.331
22.11000 13.064
22.12000 19.203
22.13000 23.044
22.14000 16.311
22.15000 10.120
22.16000 17.267
22.17000 17.062
22.18000 19.356
22.19000 17.247
22.20000 15.232
22.21000 22.433
22.22000 15.214
22.23000 19.202
22.24000 18.213
22.25000 23.332
22.26000 17.094
22.27000 11.289
22.28000 18.323
22.29000 23.174
22.30000 16.298
22.31000 22.518
22.32000 8.053
22.33000 13.165
22.34000 16.127
22.35000 16.144
22.36000 20.034
22.37000 28.392
22.38000 15.114
22.39000 12.027
22.40000 18.132
22.41000 16.414
22.42000 18.096
22.43000 16.110
22.44000 11.052
22.45000 20.393
22.46000 14.224
22.47000 22.277
22.48000 18.071
22.49000 14.287
22.50000 14.212
22.51000 21.291
22.52000 12.073
22.53000 16.069
22.54000 16.156
22.55000 18.219
22.56000 15.307
22.57000 17.245
22.58000 19.220
22.59000 20.324
22.60000 17.245
22.61000 16.234
22.62000 12.017
22.63000 11.185
22.64000 14.070
22.65000 11.100
22.66000 24.043
22.67000 20.248
22.68000 14.132
22.69000 12.156
22.70000 19.390
22.71000 14.091
22.72000 12.219
22.73000 16.153
22.74000 19.189
22.75000 11.283
22.76000 17.204
22.77000 16.127
22.78000 16.158
22.79000 23.430
22.80000 16.244
22.81000 19.159
22.82000 16.288
22.83000 16.026
22.84000 15.079
22.85000 15.336
22.86000 17.277
22.87000 15.122
22.88000 23.432
22.89000 20.147
22.90000 19.354
22.91000 25.263
22.92000 19.088
22.93000 13.103
22.94000 19.236
22.95000 27.124
22.96000 24.093
22.97000 14.121
22.98000 23.109
22.99000 17.237
23.00000 19.226
23.01000 11.285
23.02000 16.350
23.03000 21.121
23.04000 15.264
23.05000 21.435
23.06000 10.074
23.07000 17.178
23.08000 13.143
23.09000 14.176
23.10000 22.295
23.11000 16.204
23.12000 16.125
23.13000 28.082
23.14000 14.021
23.15000 16.358
23.16000 22.377
23.17000 13.217
23.18000 16.197
23.19000 18.297
23.20000 16.196
23.21000 19.326
23.22000 20.287
23.23000 16.249
23.24000 19.346
23.25000 14.222
23.26000 15.237
23.27000 16.306
23.28000 13.180
23.29000 21.255
23.30000 19.185
23.31000 19.246
23.32000 14.103
23.33000 19.481
23.34000 17.165
23.35000 24.352
23.36000 18.423
23.37000 22.309
23.38000 12.212
23.39000 14.304
23.40000 16.108
23.41000 21.426
23.42000 16.314
23.43000 21.127
23.44000 17.228
23.45000 13.356
23.46000 16.267
23.47000 19.278
23.48000 17.956
23.49000 26.214
23.50000 17.216
23.51000 23.310
23.52000 13.189
23.53000 16.206
23.54000 14.027
23.55000 9.041
23.56000 27.383
23.57000 15.324
23.58000 21.343
23.59000 19.127
23.60000 20.300
23.61000 22.215
23.62000 22.409
23.63000 16.062
23.64000 22.193
23.65000 11.137
23.66000 16.231
23.67000 15.157
23.68000 26.582
23.69000 19.248
23.70000 15.184
23.71000 16.311
23.72000 13.116
23.73000 23.272
23.74000 20.528
23.75000 19.215
23.76000 17.409
23.77000 22.192
23.78000 20.463
23.79000 22.260
23.80000 15.345
23.81000 19.160
23.82000 27.171
23.83000 23.399
23.84000 8.123
23.85000 13.075
23.86000 22.256
23.87000 22.361
23.88000 22.514
23.89000 18.381
23.90000 19.347
23.91000 25.218
23.92000 23.198
23.93000 21.226
23.94000 20.393
23.95000 11.222
23.96000 16.189
23.97000 19.101
23.98000 15.235
23.99000 23.071
24.00000 18.258
24.01000 23.386
24.02000 19.242
24.03000 22.237
24.04000 18.135
24.05000 15.160
24.06000 18.204
24.07000 24.518
24.08000 24.501
24.09000 23.329
24.10000 22.250
24.11000 27.322
24.12000 17.204
24.13000 20.152
24.14000 20.347
24.15000 27.414
24.16000 15.117
24.17000 19.321
24.18000 25.082
24.19000 18.110
24.20000 27.405
24.21000 14.217
24.22000 19.241
24.23000 19.270
24.24000 23.326
24.25000 19.143
24.26000 20.009
24.27000 19.316
24.28000 25.372
24.29000 20.098
24.30000 19.142
24.31000 24.236
24.32000 16.230
24.33000 26.284
24.34000 21.316
24.35000 23.324
24.36000 26.442
24.37000 21.264
24.38000 19.298
24.39000 14.170
24.40000 20.337
24.41000 19.259
24.42000 22.231
24.43000 25.337
24.44000 18.403
24.45000 25.225
24.46000 17.197
24.47000 16.231
24.48000 27.349
24.49000 22.285
24.50000 20.157
24.51000 20.525
24.52000 16.258
24.53000 16.257
24.54000 30.501
24.55000 19.169
24.56000 28.285
24.57000 31.296
24.58000 21.317
24.59000 25.308
24.60000 20.396
24.61000 25.464
24.62000 24.249
24.63000 19.156
24.64000 17.159
24.65000 12.241
24.66000 24.489
24.67000 24.358
24.68000 16.069
24.69000 13.102
24.70000 18.314
24.71000 19.144
24.72000 22.485
24.73000 24.180
24.74000 18.177
24.75000 32.351
24.76000 19.242
24.77000 24.376
24.78000 24.321
24.79000 19.205
24.80000 14.393
24.81000 19.417
24.82000 23.173
24.83000 21.136
24.84000 24.507
24.85000 18.334
24.86000 25.327
24.87000 21.105
24.88000 28.398
24.89000 25.369
24.90000 30.463
24.91000 21.321
24.92000 22.136
24.93000 28.641
24.94000 33.531
24.95000 22.379
24.96000 17.181
24.97000 22.182
24.98000 21.261
24.99000 17.003
25.00000 22.401
25.01000 19.271
25.02000 35.339
25.03000 25.334
25.04000 21.262
25.05000 19.207
25.06000 27.481
25.07000 23.563
25.08000 27.297
25.09000 21.232
25.10000 18.228
25.11000 24.314
25.12000 20.292
25.13000 15.236
25.14000 15.232
25.15000 36.344
25.16000 22.367
25.17000 23.408
25.18000 16.211
25.19000 19.180
25.20000 18.167
25.21000 27.374
25.22000 25.504
25.23000 19.125
25.24000 20.347
25.25000 26.393
25.26000 31.410
25.27000 24.291
25.28000 24.219
25.29000 19.211
25.30000 23.433
25.31000 24.335
25.32000 22.356
25.33000 28.384
25.34000 23.406
25.35000 36.355
25.36000 20.180
25.37000 20.224
25.38000 21.460
25.39000 36.454
25.40000 25.344
25.41000 16.189
25.42000 26.231
25.43000 23.250
25.44000 30.249
25.45000 20.274
25.46000 23.244
25.47000 28.086
25.48000 27.412
25.49000 24.208
25.50000 24.334
25.51000 25.468
25.52000 32.244
25.53000 30.431
25.54000 22.356
25.55000 27.380
25.56000 27.440
25.57000 29.340
25.58000 36.380
25.59000 28.519
25.60000 23.176
25.61000 27.492
25.62000 28.301
25.63000 24.452
25.64000 31.483
25.65000 22.376
25.66000 33.423
25.67000 22.552
25.68000 26.489
25.69000 31.370
25.70000 28.451
25.71000 34.583
25.72000 23.181
25.73000 30.321
25.74000 38.252
25.75000 18.351
25.76000 38.632
25.77000 19.436
25.78000 25.284
25.79000 24.358
25.80000 23.214
25.81000 33.530
25.82000 28.447
25.83000 27.353
25.84000 32.440
25.85000 30.286
25.86000 33.555
25.87000 27.412
25.88000 29.610
25.89000 35.597
25.90000 23.348
25.91000 27.425
25.92000 26.240
25.93000 25.229
25.94000 18.277
25.95000 33.544
25.96000 30.153
25.97000 38.341
25.98000 21.247
25.99000 26.316
26.00000 26.340
26.01000 22.344
26.02000 34.431
26.03000 43.675
26.04000 36.410
26.05000 38.614
26.06000 20.231
26.07000 33.415
26.08000 19.447
26.09000 35.483
26.10000 38.655
26.11000 26.198
26.12000 32.356
26.13000 23.210
26.14000 22.199
26.15000 32.462
26.16000 31.443
26.17000 29.292
26.18000 28.396
26.19000 36.654
26.20000 27.160
26.21000 29.232
26.22000 32.397
26.23000 29.340
26.24000 31.349
26.25000 30.404
26.26000 26.283
26.27000 34.402
26.28000 24.329
26.29000 28.238
26.30000 38.499
26.31000 25.292
26.32000 22.279
26.33000 31.530
26.34000 31.219
26.35000 24.387
26.36000 37.698
26.37000 18.264
26.38000 22.351
26.39000 35.354
26.40000 34.502
26.41000 30.445
26.42000 25.190
26.43000 38.544
26.44000 31.506
26.45000 31.541
26.46000 37.328
26.47000 28.362
26.48000 33.411
26.49000 34.280
26.50000 25.332
26.51000 25.231
26.52000 30.499
26.53000 25.165
26.54000 30.515
26.55000 38.440
26.56000 31.388
26.57000 33.434
26.58000 33.596
26.59000 27.333
26.60000 32.783
26.61000 23.323
26.62000 25.205
26.63000 31.589
26.64000 30.388
26.65000 38.539
26.66000 32.668
26.67000 24.237
26.68000 25.272
26.69000 25.427
26.70000 30.354
26.71000 30.523
26.72000 32.434
26.73000 32.348
26.74000 28.597
26.75000 35.521
26.76000 30.714
26.77000 35.737
26.78000 28.485
26.79000 22.229
26.80000 44.407
26.81000 42.422
26.82000 32.311
26.83000 18.116
26.84000 35.435
26.85000 37.310
26.86000 28.506
26.87000 38.496
26.88000 29.445
26.89000 26.311
26.90000 35.525
26.91000 28.376
26.92000 26.265
26.93000 30.410
26.94000 33.496
26.95000 36.590
26.96000 24.219
26.97000 33.423
26.98000 31.404
26.99000 33.155
27.00000 23.450
27.01000 27.348
27.02000 31.395
27.03000 40.511
27.04000 41.432
27.05000 37.684
27.06000 43.365
27.07000 31.330
27.08000 36.719
27.09000 29.495
27.10000 41.720
27.11000 26.264
27.12000 34.471
27.13000 29.402
27.14000 26.387
27.15000 29.462
27.16000 34.334
27.17000 35.578
27.18000 47.416
27.19000 32.444
27.20000 32.467
27.21000 31.578
27.22000 35.449
27.23000 37.358
27.24000 28.186
27.25000 34.445
27.26000 33.593
27.27000 45.372
27.28000 46.585
27.29000 40.501
27.30000 31.418
27.31000 32.489
27.32000 36.466
27.33000 41.511
27.34000 23.488
27.35000 38.454
27.36000 37.585
27.37000 29.374
27.38000 45.742
27.39000 40.684
27.40000 35.630
27.41000 41.356
27.42000 39.306
27.43000 35.544
27.44000 29.482
27.45000 35.443
27.46000 29.299
27.47000 33.587
27.48000 31.268
27.49000 34.492
27.50000 32.472
27.51000 24.533
27.52000 31.288
27.53000 32.510
27.54000 31.522
27.55000 25.375
27.56000 49.608
27.57000 35.499
27.58000 38.520
27.59000 36.368
27.60000 40.349
27.61000 33.628
27.62000 27.337
27.63000 31.426
27.64000 34.165
27.65000 31.655
27.66000 46.529
27.67000 40.683
27.68000 36.533
27.69000 37.226
27.70000 31.549
27.71000 34.436
27.72000 36.606
27.73000 36.384
27.74000 26.446
27.75000 37.618
27.76000 42.644
27.77000 33.417
27.78000 32.487
27.79000 31.434
27.80000 38.467
27.81000 29.366
27.82000 28.326
27.83000 37.415
27.84000 23.191
27.85000 28.423
27.86000 41.756
27.87000 40.575
27.88000 34.641
27.89000 36.434
27.90000 35.456
27.91000 38.342
27.92000 30.603
27.93000 47.634
27.94000 36.407
27.95000 34.460
27.96000 46.607
27.97000 39.271
27.98000 25.248
27.99000 31.564
28.00000 39.646
28.01000 35.465
28.02000 36.223
28.03000 33.242
28.04000 39.558
28.05000 32.441
28.06000 28.288
28.07000 34.619
28.08000 29.432
28.09000 31.498
28.10000 46.801
28.11000 39.739
28.12000 32.350
28.13000 25.300
28.14000 27.380
28.15000 28.350
28.16000 35.402
28.17000 32.426
28.18000 37.597
28.19000 23.243
28.20000 38.507
28.21000 28.222
28.22000 31.409
28.23000 34.615
28.24000 29.315
28.25000 33.559
28.26000 25.266
28.27000 27.421
28.28000 36.361
28.29000 30.594
28.30000 31.186
28.31000 29.290
28.32000 46.634
28.33000 28.287
28.34000 36.476
28.35000 39.201
28.36000 30.406
28.37000 38.541
28.38000 34.505
28.39000 32.227
28.40000 26.168
28.41000 32.540
28.42000 34.447
28.43000 30.324
28.44000 36.527
28.45000 35.388
28.46000 25.328
28.47000 24.413
28.48000 24.361
28.49000 28.369
28.50000 31.495
28.51000 36.412
28.52000 36.680
28.53000 31.784
28.54000 29.380
28.55000 30.344
28.56000 33.471
28.57000 36.566
28.58000 26.379
28.59000 27.215
28.60000 23.535
28.61000 32.424
28.62000 37.662
28.63000 28.425
28.64000 34.321
28.65000 35.540
28.66000 36.349
28.67000 31.374
28.68000 31.338
28.69000 29.440
28.70000 36.586
28.71000 31.545
28.72000 22.307
28.73000 30.271
28.74000 25.396
28.75000 31.435
28.76000 22.122
28.77000 29.220
28.78000 23.168
28.79000 38.687
28.80000 38.531
28.81000 30.318
28.82000 25.292
28.83000 23.151
28.84000 32.555
28.85000 26.137
28.86000 24.438
28.87000 26.163
28.88000 27.519
28.89000 27.306
28.90000 23.291
28.91000 25.352
28.92000 30.215
28.93000 31.452
28.94000 31.441
28.95000 25.311
28.96000 21.372
28.97000 28.305
28.98000 28.409
28.99000 35.403
29.00000 28.314
29.01000 22.171
29.02000 22.391
29.03000 32.279
29.04000 29.152
29.05000 26.319
29.06000 28.180
29.07000 26.288
29.08000 23.391
29.09000 28.274
29.10000 37.282
29.11000 29.314
29.12000 26.322
29.13000 25.466
29.14000 24.276
29.15000 35.533
29.16000 27.134
29.17000 28.343
29.18000 22.202
29.19000 18.164
29.20000 35.515
29.21000 27.651
29.22000 25.298
29.23000 29.346
29.24000 19.342
29.25000 31.311
29.26000 20.065
29.27000 31.132
29.28000 17.242
29.29000 31.325
29.30000 28.236
29.31000 24.276
29.32000 34.509
29.33000 25.405
29.34000 30.292
29.35000 29.458
29.36000 24.446
29.37000 25.259
29.38000 32.230
29.39000 37.493
29.40000 23.304
29.41000 31.361
29.42000 30.405
29.43000 23.367
29.44000 25.083
29.45000 28.187
29.46000 30.635
29.47000 27.295
29.48000 25.388
29.49000 22.277
29.50000 21.212
29.51000 29.470
29.52000 16.164
29.53000 32.558
29.54000 21.081
29.55000 23.100
29.56000 29.343
29.57000 30.218
29.58000 32.564
29.59000 25.365
29.60000 29.579
29.61000 28.621
29.62000 22.066
29.63000 25.202
29.64000 24.331
29.65000 30.338
29.66000 17.215
29.67000 35.573
29.68000 32.236
29.69000 20.286
29.70000 30.142
29.71000 25.219
29.72000 21.451
29.73000 31.366
29.74000 23.381
29.75000 27.298
29.76000 16.174
29.77000 27.217
29.78000 14.293
29.79000 23.309
29.80000 24.301
29.81000 25.411
29.82000 37.617
29.83000 22.410
29.84000 33.369
29.85000 24.409
29.86000 24.403
29.87000 34.405
29.88000 24.388
29.89000 32.660
29.90000 21.264
29.91000 20.305
29.92000 26.380
29.93000 33.614
29.94000 29.292
29.95000 24.414
29.96000 24.285
29.97000 22.244
29.98000 20.194
29.99000 21.280
30.00000 23.207
30.01000 25.443
30.02000 26.306
30.03000 18.209
30.04000 26.389
30.05000 31.697
30.06000 30.719
30.07000 28.349
30.08000 21.459
30.09000 27.365
30.10000 20.147
30.11000 28.194
30.12000 20.103
30.13000 19.465
30.14000 16.046
30.15000 16.242
30.16000 25.427
30.17000 35.640
30.18000 21.508
30.19000 28.486
30.20000 27.451
30.21000 25.160
30.22000 23.159
30.23000 21.202
30.24000 14.256
30.25000 32.491
30.26000 36.601
30.27000 23.401
30.28000 24.337
30.29000 20.398
30.30000 27.470
30.31000 31.406
30.32000 23.184
30.33000 6.022
30.34000 25.366
30.35000 18.280
30.36000 25.468
30.37000 27.203
30.38000 30.632
30.39000 24.325
30.40000 21.303
30.41000 19.249
30.42000 23.388
30.43000 22.255
30.44000 26.212
30.45000 25.499
30.46000 17.400
30.47000 19.290
30.48000 23.302
30.49000 21.175
30.50000 19.132
30.51000 24.251
30.52000 24.360
30.53000 24.398
30.54000 23.284
30.55000 19.216
30.56000 27.354
30.57000 14.045
30.58000 18.293
30.59000 13.084
30.60000 15.227
30.61000 28.347
30.62000 30.438
30.63000 22.196
30.64000 21.133
30.65000 18.347
30.66000 21.354
30.67000 23.197
30.68000 16.136
30.69000 21.377
30.70000 27.229
30.71000 27.252
30.72000 20.262
30.73000 16.080
30.74000 20.356
30.75000 29.617
30.76000 20.547
30.77000 21.262
30.78000 14.201
30.79000 20.274
30.80000 21.141
30.81000 16.073
30.82000 22.235
30.83000 18.337
30.84000 19.194
30.85000 22.369
30.86000 19.223
30.87000 23.337
30.88000 15.143
30.89000 17.261
30.90000 14.116
30.91000 15.140
30.92000 23.265
30.93000 18.191
30.94000 12.139
30.95000 16.167
30.96000 19.102
30.97000 15.130
30.98000 23.285
30.99000 16.094
31.00000 22.332
31.01000 18.335
31.02000 15.332
31.03000 17.333
31.04000 20.283
31.05000 19.207
31.06000 18.088
31.07000 28.445
31.08000 24.348
31.09000 19.381
31.10000 20.302
31.11000 18.008
31.12000 14.300
31.13000 14.195
31.14000 21.227
31.15000 22.247
31.16000 15.165
31.17000 24.204
31.18000 15.255
31.19000 23.252
31.20000 22.192
31.21000 15.460
31.22000 17.351
31.23000 20.236
31.24000 19.408
31.25000 16.312
31.26000 23.315
31.27000 17.226
31.28000 18.211
31.29000 26.418
31.30000 20.356
31.31000 22.271
31.32000 18.306
31.33000 21.314
31.34000 19.399
31.35000 18.236
31.36000 17.162
31.37000 23.354
31.38000 13.240
31.39000 29.299
31.40000 28.225
31.41000 18.087
31.42000 15.218
31.43000 17.247
31.44000 14.051
31.45000 16.211
31.46000 17.229
31.47000 14.034
31.48000 10.056
31.49000 22.540
31.50000 18.370
31.51000 19.235
31.52000 19.251
31.53000 19.287
31.54000 21.135
31.55000 19.227
31.56000 20.257
31.57000 14.285
31.58000 14.154
31.59000 21.118
31.60000 15.222
31.61000 14.224
31.62000 15.300
31.63000 17.173
31.64000 24.267
31.65000 20.261
31.66000 11.103
31.67000 16.266
31.68000 24.280
31.69000 16.209
31.70000 22.048
31.71000 20.062
31.72000 6.011
31.73000 13.064
31.74000 14.209
31.75000 14.135
31.76000 16.222
31.77000 15.200
31.78000 18.274
31.79000 16.203
31.80000 16.256
31.81000 17.124
31.82000 17.136
31.83000 24.233
31.84000 16.146
31.85000 14.235
31.86000 15.191
31.87000 16.257
31.88000 19.023
31.89000 21.151
31.90000 10.093
31.91000 15.250
31.92000 12.224
31.93000 15.128
31.94000 18.114
31.95000 21.241
31.96000 21.251
31.97000 21.388
31.98000 14.174
31.99000 20.225
32.00000 18.155
32.01000 16.300
32.02000 15.422
32.03000 17.219
32.04000 14.019
32.05000 19.169
32.06000 14.362
32.07000 12.145
32.08000 19.124
32.09000 14.277
32.10000 19.310
32.11000 14.197
32.12000 16.260
32.13000 22.263
32.14000 15.086
32.15000 11.144
32.16000 14.202
32.17000 13.012
32.18000 13.170
32.19000 14.147
32.20000 14.249
32.21000 21.046
32.22000 11.037
32.23000 14.219
32.24000 17.136
32.25000 24.477
32.26000 17.188
32.27000 14.284
32.28000 19.120
32.29000 13.067
32.30000 20.352
32.31000 23.361
32.32000 15.133
32.33000 18.305
32.34000 18.269
32.35000 12.217
32.36000 21.409
32.37000 21.437
32.38000 12.065
32.39000 18.141
32.40000 23.191
32.41000 8.021
32.42000 29.419
32.43000 16.181
32.44000 9.208
32.45000 13.181
32.46000 18.366
32.47000 15.128
32.48000 17.186
32.49000 13.165
32.50000 6.146
32.51000 17.277
32.52000 11.096
32.53000 12.116
32.54000 15.212
32.55000 13.144
32.56000 11.105
32.57000 12.222
32.58000 18.253
32.59000 11.140
32.60000 8.159
32.61000 18.377
32.62000 12.288
32.63000 14.224
32.64000 17.314
32.65000 15.271
32.66000 15.304
32.67000 13.140
32.68000 12.256
32.69000 18.185
32.70000 15.189
32.71000 13.088
32.72000 14.215
32.73000 12.079
32.74000 14.159
32.75000 13.180
32.76000 11.048
32.77000 13.187
32.78000 13.215
32.79000 14.197
32.80000 19.146
32.81000 13.066
32.82000 15.129
32.83000 18.091
32.84000 19.350
32.85000 15.215
32.86000 12.094
32.87000 16.169
32.88000 10.079
32.89000 13.241
32.90000 13.124
32.91000 10.245
32.92000 13.206
32.93000 13.111
32.94000 17.143
32.95000 13.200
32.96000 10.130
32.97000 7.099
32.98000 15.230
32.99000 14.184
33.00000 9.068
33.01000 13.119
33.02000 8.221
33.03000 17.320
33.04000 18.308
33.05000 16.257
33.06000 7.092
33.07000 13.336
33.08000 13.296
33.09000 16.311
33.10000 11.161
33.11000 12.029
33.12000 10.273
33.13000 11.166
33.14000 8.055
33.15000 15.258
33.16000 10.040
33.17000 13.299
33.18000 13.143
33.19000 16.246
33.20000 16.128
33.21000 12.133
33.22000 10.049
33.23000 10.161
33.24000 10.061
33.25000 12.361
33.26000 8.096
33.27000 7.166
33.28000 19.248
33.29000 14.129
33.30000 8.025
33.31000 7.107
33.32000 6.122
33.33000 10.148
33.34000 18.183
33.35000 4.973
33.36000 12.054
33.37000 9.252
33.38000 18.354
33.39000 14.188
33.40000 10.209
33.41000 12.308
33.42000 10.171
33.43000 17.236
33.44000 15.469
33.45000 12.258
33.46000 10.289
33.47000 9.070
33.48000 9.095
33.49000 13.129
33.50000 15.147
33.51000 12.036
33.52000 11.038
33.53000 12.076
33.54000 9.048
33.55000 15.211
33.56000 12.199
33.57000 12.274
33.58000 21.269
33.59000 8.002
33.60000 13.180
33.61000 9.232
33.62000 11.128
33.63000 8.174
33.64000 9.233
33.65000 11.350
33.66000 9.134
33.67000 11.218
33.68000 9.106
33.69000 14.244
33.70000 9.112
33.71000 15.220
33.72000 9.129
33.73000 8.969
33.74000 17.244
33.75000 12.269
33.76000 12.125
33.77000 11.216
33.78000 8.173
33.79000 13.057
33.80000 9.064
33.81000 15.260
33.82000 7.089
33.83000 19.471
33.84000 11.103
33.85000 9.147
33.86000 11.132
33.87000 10.104
33.88000 11.306
33.89000 12.269
33.90000 13.179
33.91000 18.220
33.92000 13.257
33.93000 13.200
33.94000 5.120
33.95000 11.154
33.96000 15.245
33.97000 7.056
33.98000 11.160
33.99000 8.086
34.00000 14.199
34.01000 13.089
34.02000 5.017
34.03000 11.196
34.04000 13.042
34.05000 12.192
34.06000 14.183
34.07000 10.036
34.08000 12.195
34.09000 18.272
34.10000 17.245
34.11000 11.001
34.12000 10.210
34.13000 11.045
34.14000 11.231
34.15000 12.278
34.16000 12.158
34.17000 8.091
34.18000 9.223
34.19000 8.076
34.20000 13.266
34.21000 3.007
34.22000 11.041
34.23000 18.191
34.24000 9.082
34.25000 14.189
34.26000 10.094
34.27000 9.220
34.28000 8.071
34.29000 12.205
34.30000 11.127
34.31000 7.083
34.32000 14.147
34.33000 13.297
34.34000 15.185
34.35000 8.129
34.36000 8.083
34.37000 13.218
34.38000 11.060
34.39000 16.190
34.40000 9.074
34.41000 8.029
34.42000 12.073
34.43000 16.092
34.44000 8.099
34.45000 5.022
34.46000 15.248
34.47000 12.146
34.48000 11.266
34.49000 18.147
34.50000 11.089
34.51000 10.139
34.52000 9.164
34.53000 19.468
34.54000 7.086
34.55000 14.188
34.56000 13.284
34.57000 10.160
34.58000 12.124
34.59000 9.188
34.60000 10.053
34.61000 10.205
34.62000 12.249
34.63000 12.081
34.64000 12.080
34.65000 9.196
34.66000 8.088
34.67000 10.051
34.68000 10.053
34.69000 15.218
34.70000 6.015
34.71000 11.138
34.72000 10.207
34.73000 7.211
34.74000 14.204
34.75000 10.033
34.76000 9.012
34.77000 11.110
34.78000 9.087
34.79000 17.223
34.80000 12.155
34.81000 15.355
34.82000 21.356
34.83000 7.076
34.84000 10.210
34.85000 19.261
34.86000 11.160
34.87000 6.018
34.88000 4.063
34.89000 8.129
34.90000 11.137
34.91000 7.172
34.92000 8.062
34.93000 6.989
34.94000 9.141
34.95000 8.112
34.96000 12.181
34.97000 10.250
34.98000 9.119
34.99000 15.225
35.00000 6.125
35.01000 4.014
35.02000 9.177
35.03000 16.160
35.04000 8.216
35.05000 17.257
35.06000 11.194
35.07000 12.142
35.08000 13.129
35.09000 11.147
35.10000 10.041
35.11000 11.159
35.12000 14.155
35.13000 8.185
35.14000 16.276
35.15000 8.070
35.16000 10.162
35.17000 5.111
35.18000 7.086
35.19000 4.068
35.20000 22.038
35.21000 11.186
35.22000 16.233
35.23000 9.045
35.24000 8.004
35.25000 17.063
35.26000 10.052
35.27000 13.252
35.28000 5.074
35.29000 4.157
35.30000 12.211
35.31000 11.159
35.32000 15.200
35.33000 7.036
35.34000 10.117
35.35000 11.166
35.36000 9.057
35.37000 15.388
35.38000 13.340
35.39000 16.352
35.40000 7.120
35.41000 10.228
35.42000 11.094
35.43000 15.197
35.44000 19.216
35.45000 11.222
35.46000 14.155
35.47000 13.129
35.48000 12.226
35.49000 15.379
35.50000 9.081
35.51000 9.100
35.52000 11.130
35.53000 10.060
35.54000 6.041
35.55000 9.148
35.56000 9.048
35.57000 5.079
35.58000 15.139
35.59000 14.200
35.60000 10.154
35.61000 9.174
35.62000 10.256
35.63000 7.068
35.64000 14.253
35.65000 10.201
35.66000 9.074
35.67000 9.110
35.68000 6.040
35.69000 12.200
35.70000 7.035
35.71000 12.235
35.72000 9.109
35.73000 10.153
35.74000 8.074
35.75000 11.048
35.76000 16.167
35.77000 10.213
35.78000 13.017
35.79000 11.118
35.80000 12.201
35.81000 10.131
35.82000 10.205
35.83000 11.126
35.84000 5.032
35.85000 16.149
35.86000 14.134
35.87000 9.148
35.88000 11.046
35.89000 6.156
35.90000 12.027
35.91000 8.131
35.92000 8.193
35.93000 8.087
35.94000 9.034
35.95000 4.086
35.96000 12.174
35.97000 6.089
35.98000 10.166
35.99000 10.183
36.00000 11.335
36.01000 14.232
36.02000 14.248
36.03000 13.285
36.04000 15.016
36.05000 12.146
36.06000 8.994
36.07000 7.100
36.08000 21.310
36.09000 11.159
36.10000 8.023
36.11000 13.278
36.12000 3.970
36.13000 15.128
36.14000 9.106
36.15000 12.152
36.16000 15.215
36.17000 13.238
36.18000 12.327
36.19000 7.998
36.20000 14.100
36.21000 16.209
36.22000 17.238
36.23000 12.180
36.24000 15.029
36.25000 12.325
36.26000 6.100
36.27000 7.161
36.28000 11.144
36.29000 14.011
36.30000 12.150
36.31000 11.137
36.32000 10.234
36.33000 9.112
36.34000 11.270
36.35000 12.213
36.36000 14.138
36.37000 14.069
36.38000 8.121
36.39000 11.118
36.40000 8.172
36.41000 13.277
36.42000 16.210
36.43000 16.053
36.44000 9.072
36.45000 12.090
36.46000 16.386
36.47000 12.115
36.48000 13.183
36.49000 7.066
36.50000 11.130
36.51000 10.047
36.52000 13.095
36.53000 10.157
36.54000 7.042
36.55000 9.120
36.56000 14.115
36.57000 12.061
36.58000 15.237
36.59000 12.059
36.60000 11.079
36.61000 15.155
36.62000 8.020
36.63000 12.105
36.64000 11.093
36.65000 7.237
36.66000 12.180
36.67000 12.057
36.68000 8.146
36.69000 7.027
36.70000 10.286
36.71000 10.271
36.72000 12.194
36.73000 12.242
36.74000 20.469
36.75000 8.062
36.76000 9.044
36.77000 14.295
36.78000 10.129
36.79000 13.103
36.80000 9.108
36.81000 7.050
36.82000 13.195
36.83000 16.192
36.84000 12.403
36.85000 11.227
36.86000 5.028
36.87000 14.092
36.88000 7.158
36.89000 12.138
36.90000 12.129
36.91000 6.021
36.92000 8.131
36.93000 10.040
36.94000 15.231
36.95000 7.079
36.96000 8.056
36.97000 8.176
36.98000 7.097
36.99000 13.137
37.00000 7.005
37.01000 8.132
37.02000 5.004
37.03000 8.000
37.04000 8.082
37.05000 6.004
37.06000 10.224
37.07000 5.042
37.08000 14.252
37.09000 9.965
37.10000 3.048
37.11000 15.064
37.12000 12.067
37.13000 8.130
37.14000 15.247
37.15000 8.135
37.16000 11.123
37.17000 14.093
37.18000 14.143
37.19000 10.107
37.20000 10.155
37.21000 11.147
37.22000 8.227
37.23000 12.021
37.24000 9.007
37.25000 7.072
37.26000 15.057
37.27000 12.183
37.28000 9.012
37.29000 15.146
37.30000 9.136
37.31000 10.196
37.32000 13.191
37.33000 9.240
37.34000 8.947
37.35000 8.163
37.36000 15.053
37.37000 16.284
37.38000 11.069
37.39000 11.196
37.40000 10.296
37.41000 14.154
37.42000 9.120
37.43000 10.091
37.44000 18.275
37.45000 13.123
37.46000 20.297
37.47000 15.263
37.48000 18.359
37.49000 15.333
37.50000 8.161
37.51000 14.332
37.52000 11.107
37.53000 16.090
37.54000 12.163
37.55000 12.066
37.56000 11.175
37.57000 9.128
37.58000 10.086
37.59000 18.129
37.60000 13.163
37.61000 15.356
37.62000 17.442
37.63000 14.225
37.64000 13.183
37.65000 10.261
37.66000 12.011
37.67000 5.120
37.68000 13.161
37.69000 22.118
37.70000 8.101
37.71000 10.158
37.72000 11.063
37.73000 10.215
37.74000 12.277
37.75000 10.117
37.76000 9.248
37.77000 14.072
37.78000 7.083
37.79000 7.140
37.80000 7.090
37.81000 12.031
37.82000 10.071
37.83000 7.060
37.84000 3.030
37.85000 17.190
37.86000 9.128
37.87000 11.167
37.88000 10.196
37.89000 16.139
37.90000 11.192
37.91000 12.236
37.92000 12.165
37.93000 9.054
37.94000 9.151
37.95000 13.285
37.96000 13.240
37.97000 11.250
37.98000 15.236
37.99000 7.094
38.00000 15.219
38.01000 8.160
38.02000 12.110
38.03000 13.217
38.04000 13.984
38.05000 11.185
38.06000 10.065
38.07000 8.091
38.08000 11.172
38.09000 10.271
38.10000 13.236
38.11000 8.112
38.12000 9.067
38.13000 13.038
38.14000 6.049
38.15000 17.190
38.16000 6.141
38.17000 13.997
38.18000 14.142
38.19000 9.045
38.20000 17.318
38.21000 14.152
38.22000 10.257
38.23000 11.071
38.24000 9.125
38.25000 8.277
38.26000 6.028
38.27000 6.081
38.28000 14.210
38.29000 13.144
38.30000 9.122
38.31000 6.060
38.32000 13.113
38.33000 6.115
38.34000 12.064
38.35000 3.999
38.36000 14.202
38.37000 12.274
38.38000 13.219
38.39000 10.057
38.40000 9.096
38.41000 9.054
38.42000 15.147
38.43000 11.115
38.44000 14.240
38.45000 5.059
38.46000 10.125
38.47000 9.050
38.48000 10.265
38.49000 10.093
38.50000 12.048
38.51000 11.190
38.52000 17.164
38.53000 12.345
38.54000 17.223
38.55000 9.155
38.56000 12.091
38.57000 15.427
38.58000 14.238
38.59000 12.227
38.60000 9.195
38.61000 3.974
38.62000 11.223
38.63000 15.200
38.64000 12.178
38.65000 10.070
38.66000 11.177
38.67000 10.146
38.68000 9.138
38.69000 9.114
38.70000 12.241
38.71000 3.060
38.72000 12.238
38.73000 11.140
38.74000 11.071
38.75000 15.035
38.76000 8.240
38.77000 9.137
38.78000 12.196
38.79000 12.177
38.80000 8.087
38.81000 8.056
38.82000 12.226
38.83000 14.035
38.84000 16.245
38.85000 22.187
38.86000 12.063
38.87000 11.188
38.88000 15.241
38.89000 12.064
38.90000 8.156
38.91000 8.023
38.92000 12.169
38.93000 10.154
38.94000 12.131
38.95000 9.085
38.96000 12.127
38.97000 7.107
38.98000 18.165
38.99000 11.116
39.00000 8.181
39.01000 10.010
39.02000 8.125
39.03000 11.202
39.04000 11.199
39.05000 14.131
39.06000 14.146
39.07000 9.088
39.08000 11.090
39.09000 8.028
39.10000 15.205
39.11000 14.086
39.12000 15.243
39.13000 10.132
39.14000 12.245
39.15000 12.153
39.16000 11.268
39.17000 15.187
39.18000 6.070
39.19000 16.249
39.20000 7.136
39.21000 5.043
39.22000 12.055
39.23000 16.289
39.24000 10.053
39.25000 8.069
39.26000 14.116
39.27000 15.241
39.28000 10.337
39.29000 16.088
39.30000 3.069
39.31000 15.152
39.32000 18.103
39.33000 10.166
39.34000 9.087
39.35000 9.038
39.36000 11.284
39.37000 11.261
39.38000 14.139
39.39000 6.060
39.40000 9.161
39.41000 9.086
39.42000 8.958
39.43000 15.309
39.44000 13.096
39.45000 13.082
39.46000 12.222
39.47000 9.052
39.48000 15.352
39.49000 6.043
39.50000 14.257
39.51000 7.011
39.52000 16.086
39.53000 9.080
39.54000 11.152
39.55000 19.194
39.56000 15.115
39.57000 12.252
39.58000 14.169
39.59000 9.135
39.60000 12.215
39.61000 18.039
39.62000 10.223
39.63000 8.974
39.64000 12.152
39.65000 4.993
39.66000 17.155
39.67000 12.169
39.68000 10.040
39.69000 8.235
39.70000 12.162
39.71000 15.158
39.72000 11.298
39.73000 15.115
39.74000 4.998
39.75000 17.246
39.76000 13.057
39.77000 14.028
39.78000 10.081
39.79000 10.123
39.80000 12.024
39.81000 13.093
39.82000 9.120
39.83000 18.039
39.84000 13.353
39.85000 13.148
39.86000 11.050
39.87000 14.464
39.88000 13.210
39.89000 13.093
39.90000 14.100
39.91000 6.173
39.92000 11.225
39.93000 12.178
39.94000 15.290
39.95000 12.077
39.96000 11.163
39.97000 11.449
39.98000 12.090
39.99000 15.172
40.00000 13.146
40.01000 16.139
40.02000 13.202
40.03000 16.058
40.04000 18.232
40.05000 8.996
40.06000 13.237
40.07000 15.154
40.08000 16.167
40.09000 8.161
40.10000 16.140
40.11000 19.213
40.12000 13.979
40.13000 9.126
40.14000 9.986
40.15000 13.170
40.16000 16.416
40.17000 7.146
40.18000 9.076
40.19000 16.298
40.20000 9.139
40.21000 18.046
40.22000 16.201
40.23000 15.241
40.24000 10.078
40.25000 9.199
40.26000 9.148
40.27000 12.999
40.28000 9.155
40.29000 17.107
40.30000 20.437
40.31000 12.235
40.32000 16.291
40.33000 14.222
40.34000 11.103
40.35000 7.170
40.36000 9.111
40.37000 17.133
40.38000 6.086
40.39000 12.286
40.40000 6.104
40.41000 7.081
40.42000 10.160
40.43000 14.272
40.44000 15.211
40.45000 11.047
40.46000 7.098
40.47000 8.991
40.48000 7.105
40.49000 6.059
40.50000 18.322
40.51000 11.222
40.52000 14.245
40.53000 21.234
40.54000 13.258
40.55000 11.097
40.56000 9.027
40.57000 10.047
40.58000 17.167
40.59000 14.157
40.60000 8.190
40.61000 13.073
40.62000 13.159
40.63000 7.093
40.64000 8.201
40.65000 15.189
40.66000 8.334
40.67000 13.126
40.68000 16.290
40.69000 12.162
40.70000 15.292
40.71000 13.015
40.72000 7.055
40.73000 15.161
40.74000 11.138
40.75000 14.147
40.76000 17.232
40.77000 2.996
40.78000 12.042
40.79000 14.177
40.80000 12.146
40.81000 17.251
40.82000 13.017
40.83000 10.072
40.84000 9.150
40.85000 10.100
40.86000 13.154
40.87000 9.087
40.88000 12.201
40.89000 13.280
40.90000 11.121
40.91000 12.264
40.92000 11.053
40.93000 15.112
40.94000 15.180
40.95000 20.328
40.96000 12.360
40.97000 10.109
40.98000 15.077
40.99000 11.026
41.00000 9.117
41.01000 13.088
41.02000 15.296
41.03000 13.213
41.04000 12.110
41.05000 13.201
41.06000 16.167
41.07000 12.051
41.08000 12.112
41.09000 10.114
41.10000 18.191
41.11000 16.331
41.12000 16.074
41.13000 11.180
41.14000 8.119
41.15000 15.080
41.16000 14.219
41.17000 5.121
41.18000 11.038
41.19000 13.020
41.20000 12.065
41.21000 15.377
41.22000 14.100
41.23000 18.153
41.24000 16.364
41.25000 9.276
41.26000 12.950
41.27000 12.132
41.28000 15.312
41.29000 12.167
41.30000 11.110
41.31000 5.097
41.32000 9.014
41.33000 12.205
41.34000 13.216
41.35000 14.245
41.36000 12.147
41.37000 9.187
41.38000 14.153
41.39000 14.289
41.40000 17.267
41.41000 16.110
41.42000 9.156
41.43000 12.128
41.44000 13.130
41.45000 13.187
41.46000 7.206
41.47000 6.148
41.48000 10.029
41.49000 10.131
41.50000 11.095
41.51000 13.227
41.52000 10.034
41.53000 14.271
41.54000 7.108
41.55000 13.105
41.56000 7.026
41.57000 11.216
41.58000 15.160
41.59000 10.047
41.60000 10.272
41.61000 12.279
41.62000 12.165
41.63000 8.094
41.64000 5.025
41.65000 15.142
41.66000 7.133
41.67000 11.178
41.68000 17.203
41.69000 14.331
41.70000 14.140
41.71000 14.182
41.72000 10.105
41.73000 8.214
41.74000 9.232
41.75000 9.130
41.76000 11.128
41.77000 9.042
41.78000 8.124
41.79000 7.105
41.80000 10.158
41.81000 19.211
41.82000 17.308
41.83000 14.137
41.84000 12.139
41.85000 13.200
41.86000 6.084
41.87000 15.210
41.88000 9.156
41.89000 11.153
41.90000 13.186
41.91000 14.082
41.92000 4.126
41.93000 15.362
41.94000 8.113
41.95000 14.281
41.96000 8.159
41.97000 9.144
41.98000 14.220
41.99000 13.219
42.00000 11.065
42.01000 8.156
42.02000 7.124
42.03000 16.100
42.04000 12.137
42.05000 7.120
42.06000 18.383
42.07000 8.032
42.08000 12.225
42.09000 11.172
42.10000 12.286
42.11000 12.167
42.12000 7.116
42.13000 7.049
42.14000 11.058
42.15000 9.143
42.16000 14.164
42.17000 19.401
42.18000 6.067
42.19000 12.074
42.20000 14.291
42.21000 20.176
42.22000 12.139
42.23000 13.017
42.24000 8.186
42.25000 16.334
42.26000 16.184
42.27000 17.183
42.28000 9.114
42.29000 9.029
42.30000 8.212
42.31000 13.256
42.32000 13.223
42.33000 16.340
42.34000 13.189
42.35000 13.181
42.36000 9.122
42.37000 9.117
42.38000 9.131
42.39000 7.168
42.40000 12.120
42.41000 6.121
42.42000 10.171
42.43000 12.212
42.44000 16.342
42.45000 8.047
42.46000 4.059
42.47000 15.086
42.48000 14.075
42.49000 11.123
42.50000 13.167
42.51000 13.159
42.52000 7.151
42.53000 14.045
42.54000 8.059
42.55000 15.325
42.56000 11.258
42.57000 14.117
42.58000 18.293
42.59000 11.118
42.60000 12.022
42.61000 10.132
42.62000 11.984
42.63000 12.115
42.64000 6.135
42.65000 14.144
42.66000 13.055
42.67000 13.174
42.68000 18.176
42.69000 5.200
42.70000 7.205
42.71000 7.020
42.72000 10.269
42.73000 10.185
42.74000 10.244
42.75000 17.340
42.76000 12.096
42.77000 16.147
42.78000 14.052
42.79000 16.379
42.80000 13.219
42.81000 11.119
42.82000 15.111
42.83000 13.048
42.84000 12.282
42.85000 17.397
42.86000 13.161
42.87000 12.090
42.88000 14.205
42.89000 13.235
42.90000 10.966
42.91000 10.126
42.92000 10.140
42.93000 13.135
42.94000 12.168
42.95000 13.128
42.96000 10.312
42.97000 11.145
42.98000 13.210
42.99000 12.122
43.00000 13.143
43.01000 7.089
43.02000 12.112
43.03000 16.269
43.04000 13.032
43.05000 18.263
43.06000 9.080
43.07000 11.066
43.08000 11.273
43.09000 10.201
43.10000 13.050
43.11000 11.194
43.12000 17.299
43.13000 11.184
43.14000 12.176
43.15000 12.152
43.16000 10.120
43.17000 7.123
43.18000 10.176
43.19000 10.043
43.20000 9.056
43.21000 9.312
43.22000 13.157
43.23000 16.165
43.24000 9.012
43.25000 12.168
43.26000 7.079
43.27000 12.192
43.28000 11.042
43.29000 11.088
43.30000 9.058
43.31000 10.189
43.32000 12.202
43.33000 15.136
43.34000 17.083
43.35000 13.387
43.36000 13.078
43.37000 11.972
43.38000 21.157
43.39000 11.212
43.40000 9.097
43.41000 10.181
43.42000 10.276
43.43000 9.147
43.44000 6.176
43.45000 9.123
43.46000 12.060
43.47000 13.422
43.48000 13.185
43.49000 14.098
43.50000 14.035
43.51000 12.290
43.52000 15.203
43.53000 8.979
43.54000 7.115
43.55000 7.157
43.56000 18.394
43.57000 13.303
43.58000 12.158
43.59000 11.125
43.60000 13.178
43.61000 8.198
43.62000 11.207
43.63000 16.255
43.64000 9.146
43.65000 11.079
43.66000 16.234
43.67000 15.198
43.68000 9.042
43.69000 13.308
43.70000 13.269
43.71000 8.985
43.72000 11.205
43.73000 8.046
43.74000 11.193
43.75000 16.108
43.76000 9.139
43.77000 11.079
43.78000 12.172
43.79000 5.003
43.80000 11.239
43.81000 13.010
43.82000 10.081
43.83000 10.136
43.84000 13.180
43.85000 7.065
43.86000 9.218
43.87000 8.040
43.88000 12.031
43.89000 11.082
43.90000 9.043
43.91000 14.129
43.92000 15.262
43.93000 12.315
43.94000 9.122
43.95000 10.164
43.96000 15.126
43.97000 7.075
43.98000 8.073
43.99000 11.155
44.00000 10.064
44.01000 10.148
44.02000 8.316
44.03000 11.098
44.04000 12.186
44.05000 14.084
44.06000 7.956
44.07000 20.320
44.08000 9.249
44.09000 12.209
44.10000 9.989
44.11000 11.230
44.12000 10.142
44.13000 18.475
44.14000 7.101
44.15000 9.063
44.16000 10.034
44.17000 6.030
44.18000 5.098
44.19000 8.144
44.20000 14.239
44.21000 10.136
44.22000 10.101
44.23000 11.131
44.24000 13.154
44.25000 12.271
44.26000 8.137
44.27000 8.953
44.28000 12.175
44.29000 12.041
44.30000 12.279
44.31000 10.137
44.32000 15.263
44.33000 12.153
44.34000 17.231
44.35000 10.082
44.36000 9.095
44.37000 10.169
44.38000 13.187
44.39000 10.211
44.40000 12.110
44.41000 12.152
44.42000 4.052
44.43000 9.152
44.44000 11.244
44.45000 10.900
44.46000 17.240
44.47000 16.037
44.48000 13.163
44.49000 10.135
44.50000 14.364
44.51000 14.131
44.52000 10.080
44.53000 14.251
44.54000 16.165
44.55000 8.133
44.56000 9.063
44.57000 11.337
44.58000 13.394
44.59000 11.159
44.60000 14.299
44.61000 9.168
44.62000 11.194
44.63000 21.163
44.64000 8.225
44.65000 13.071
44.66000 11.220
44.67000 12.439
44.68000 16.069
44.69000 12.186
44.70000 10.226
44.71000 9.126
44.72000 20.172
44.73000 9.197
44.74000 12.115
44.75000 8.174
44.76000 10.176
44.77000 14.167
44.78000 13.152
44.79000 11.356
44.80000 16.158
44.81000 6.066
44.82000 8.103
44.83000 8.245
44.84000 13.113
44.85000 10.188
44.86000 8.070
44.87000 11.032
44.88000 14.084
44.89000 5.097
44.90000 13.116
44.91000 10.129
44.92000 9.126
44.93000 9.976
44.94000 10.211
44.95000 10.180
44.96000 11.177
44.97000 13.209
44.98000 11.202
44.99000 11.178
45.00000 15.327
45.01000 11.049
45.02000 11.238
45.03000 18.325
45.04000 12.059
45.05000 8.016
45.06000 15.008
45.07000 7.978
45.08000 18.301
45.09000 13.242
45.10000 9.147
45.11000 14.012
45.12000 13.383
45.13000 10.141
45.14000 10.209
45.15000 7.115
45.16000 10.252
45.17000 17.221
45.18000 7.032
45.19000 10.068
45.20000 16.188
45.21000 14.331
45.22000 14.283
45.23000 9.154
45.24000 14.035
45.25000 10.215
45.26000 8.038
45.27000 14.152
45.28000 8.218
45.29000 10.109
45.30000 7.084
45.31000 14.207
45.32000 10.115
45.33000 9.139
45.34000 10.223
45.35000 7.159
45.36000 19.208
45.37000 13.106
45.38000 11.143
45.39000 11.155
45.40000 10.333
45.41000 9.147
45.42000 9.226
45.43000 15.283
45.44000 15.302
45.45000 14.263
45.46000 14.269
45.47000 11.284
45.48000 15.305
45.49000 12.104
45.50000 7.038
45.51000 7.037
45.52000 7.044
45.53000 16.219
45.54000 11.125
45.55000 11.322
45.56000 12.215
45.57000 15.293
45.58000 11.227
45.59000 13.178
45.60000 12.188
45.61000 10.141
45.62000 12.213
45.63000 11.014
45.64000 9.054
45.65000 7.072
45.66000 21.090
45.67000 9.015
45.68000 10.094
45.69000 7.069
45.70000 12.990
45.71000 11.146
45.72000 13.174
45.73000 7.053
45.74000 12.222
45.75000 12.019
45.76000 8.052
45.77000 5.085
45.78000 7.025
45.79000 3.957
45.80000 9.106
45.81000 14.322
45.82000 11.208
45.83000 14.159
45.84000 9.028
45.85000 5.205
45.86000 14.144
45.87000 9.077
45.88000 8.008
45.89000 10.165
45.90000 10.141
45.91000 6.102
45.92000 7.101
45.93000 12.050
45.94000 13.104
45.95000 8.038
45.96000 14.183
45.97000 10.229
45.98000 12.107
45.99000 13.102
46.00000 17.284
46.01000 11.093
46.02000 8.120
46.03000 9.151
46.04000 16.252
46.05000 7.180
46.06000 17.245
46.07000 12.242
46.08000 14.079
46.09000 8.090
46.10000 11.244
46.11000 13.124
46.12000 10.220
46.13000 8.044
46.14000 7.064
46.15000 10.149
46.16000 18.284
46.17000 7.150
46.18000 13.212
46.19000 13.101
46.20000 14.161
46.21000 7.098
46.22000 10.106
46.23000 15.233
46.24000 12.201
46.25000 9.116
46.26000 14.133
46.27000 20.330
46.28000 7.121
46.29000 8.230
46.30000 10.194
46.31000 12.252
46.32000 15.140
46.33000 12.086
46.34000 12.040
46.35000 11.194
46.36000 14.131
46.37000 10.168
46.38000 13.270
46.39000 9.180
46.40000 11.038
46.41000 14.149
46.42000 8.060
46.43000 12.171
46.44000 11.167
46.45000 12.136
46.46000 7.106
46.47000 7.972
46.48000 12.128
46.49000 12.136
46.50000 14.250
46.51000 5.045
46.52000 9.156
46.53000 14.215
46.54000 14.101
46.55000 8.097
46.56000 11.056
46.57000 4.010
46.58000 6.113
46.59000 13.339
46.60000 13.231
46.61000 11.258
46.62000 18.381
46.63000 11.125
46.64000 12.146
46.65000 17.071
46.66000 7.065
46.67000 13.150
46.68000 11.107
46.69000 7.200
46.70000 15.255
46.71000 14.319
46.72000 11.030
46.73000 5.123
46.74000 14.293
46.75000 12.100
46.76000 11.121
46.77000 10.007
46.78000 7.177
46.79000 14.187
46.80000 12.010
46.81000 11.240
46.82000 8.128
46.83000 17.251
46.84000 15.124
46.85000 12.137
46.86000 11.016
46.87000 10.205
46.88000 14.131
46.89000 12.281
46.90000 12.138
46.91000 5.088
46.92000 8.053
46.93000 15.180
46.94000 13.080
46.95000 6.089
46.96000 10.147
46.97000 9.114
46.98000 6.094
46.99000 21.192
47.00000 13.201
47.01000 7.170
47.02000 6.993
47.03000 13.128
47.04000 10.176
47.05000 9.153
47.06000 12.269
47.07000 12.234
47.08000 4.016
47.09000 12.054
47.10000 15.162
47.11000 9.080
47.12000 12.161
47.13000 8.153
47.14000 10.095
47.15000 11.096
47.16000 8.044
47.17000 10.145
47.18000 5.029
47.19000 9.959
47.20000 11.224
47.21000 14.257
47.22000 11.101
47.23000 6.003
47.24000 16.261
47.25000 9.113
47.26000 7.177
47.27000 10.106
47.28000 6.035
47.29000 15.299
47.30000 13.259
47.31000 6.025
47.32000 20.506
47.33000 8.139
47.34000 11.183
47.35000 10.153
47.36000 10.061
47.37000 15.324
47.38000 12.090
47.39000 8.096
47.40000 6.184
47.41000 12.320
47.42000 8.115
47.43000 12.085
47.44000 13.428
47.45000 9.024
47.46000 10.215
47.47000 6.066
47.48000 8.164
47.49000 8.108
47.50000 7.984
47.51000 18.329
47.52000 8.147
47.53000 8.211
47.54000 9.027
47.55000 10.155
47.56000 4.084
47.57000 6.159
47.58000 12.261
47.59000 5.026
47.60000 15.265
47.61000 11.282
47.62000 15.268
47.63000 11.294
47.64000 4.112
47.65000 6.187
47.66000 13.156
47.67000 9.192
47.68000 8.053
47.69000 8.222
47.70000 9.075
47.71000 11.314
47.72000 11.127
47.73000 15.155
47.74000 6.050
47.75000 8.068
47.76000 15.278
47.77000 14.141
47.78000 15.302
47.79000 5.088
47.80000 17.336
47.81000 11.122
47.82000 21.396
47.83000 12.097
47.84000 6.139
47.85000 8.099
47.86000 13.204
47.87000 15.196
47.88000 16.236
47.89000 6.021
47.90000 6.073
47.91000 12.165
47.92000 8.099
47.93000 12.044
47.94000 10.126
47.95000 12.164
47.96000 11.014
47.97000 11.105
47.98000 5.058
47.99000 11.019
48.00000 10.183
48.01000 9.127
48.02000 8.117
48.03000 7.036
48.04000 11.133
48.05000 7.273
48.06000 14.035
48.07000 7.089
48.08000 9.148
48.09000 14.080
48.10000 8.140
48.11000 4.000
48.12000 6.096
48.13000 9.111
48.14000 11.132
48.15000 10.024
48.16000 9.116
48.17000 8.012
48.18000 13.034
48.19000 6.116
48.20000 15.179
48.21000 12.169
48.22000 9.081
48.23000 8.070
48.24000 11.240
48.25000 6.100
48.26000 10.160
48.27000 9.218
48.28000 10.371
48.29000 17.293
48.30000 13.207
48.31000 12.231
48.32000 10.099
48.33000 9.879
48.34000 5.121
48.35000 4.014
48.36000 17.159
48.37000 14.242
48.38000 15.108
48.39000 20.243
48.40000 6.133
48.41000 9.169
48.42000 7.133
48.43000 10.115
48.44000 10.078
48.45000 14.141
48.46000 18.231
48.47000 14.087
48.48000 7.146
48.49000 11.231
48.50000 6.164
48.51000 13.138
48.52000 11.291
48.53000 7.152
48.54000 12.173
48.55000 12.188
48.56000 10.108
48.57000 4.055
48.58000 16.403
48.59000 8.978
48.60000 9.321
48.61000 3.069
48.62000 6.188
48.63000 17.391
48.64000 8.113
48.65000 15.323
48.66000 10.171
48.67000 13.175
48.68000 12.212
48.69000 12.346
48.70000 8.238
48.71000 11.032
48.72000 8.045
48.73000 12.207
48.74000 12.047
48.75000 9.219
48.76000 13.216
48.77000 13.326
48.78000 6.041
48.79000 4.940
48.80000 11.185
48.81000 11.150
48.82000 20.417
48.83000 7.036
48.84000 12.006
48.85000 6.130
48.86000 7.055
48.87000 9.319
48.88000 8.094
48.89000 6.167
48.90000 7.001
48.91000 11.115
48.92000 10.144
48.93000 12.204
48.94000 11.214
48.95000 10.267
48.96000 12.128
48.97000 5.959
48.98000 3.038
48.99000 16.216
49.00000 6.184
49.01000 10.130
49.02000 9.061
49.03000 8.027
49.04000 5.134
49.05000 11.068
49.06000 10.170
49.07000 4.986
49.08000 9.132
49.09000 9.063
49.10000 10.169
49.11000 14.216
49.12000 6.092
49.13000 11.266
49.14000 8.083
49.15000 13.139
49.16000 8.051
49.17000 13.095
49.18000 8.297
49.19000 14.155
49.20000 10.124
49.21000 12.271
49.22000 7.998
49.23000 12.133
49.24000 14.325
49.25000 13.229
49.26000 12.137
49.27000 12.190
49.28000 19.224
49.29000 3.067
49.30000 5.146
49.31000 8.068
49.32000 14.087
49.33000 8.027
49.34000 15.160
49.35000 10.057
49.36000 6.151
49.37000 12.168
49.38000 14.346
49.39000 7.051
49.40000 9.048
49.41000 11.260
49.42000 14.272
49.43000 17.173
49.44000 14.136
49.45000 10.214
49.46000 14.151
49.47000 7.131
49.48000 10.160
49.49000 10.115
49.50000 9.046
49.51000 10.157
49.52000 6.075
49.53000 10.119
49.54000 10.980
49.55000 9.053
49.56000 11.164
49.57000 11.283
49.58000 15.096
49.59000 4.021
49.60000 15.227
49.61000 7.080
49.62000 6.100
49.63000 12.099
49.64000 6.140
49.65000 9.246
49.66000 8.090
49.67000 9.118
49.68000 9.168
49.69000 8.071
49.70000 10.229
49.71000 16.264
49.72000 17.146
49.73000 16.415
49.74000 8.189
49.75000 13.230
49.76000 3.999
49.77000 8.144
49.78000 14.201
49.79000 7.087
49.80000 12.102
49.81000 15.152
49.82000 5.939
49.83000 5.037
49.84000 7.201
49.85000 8.059
49.86000 8.061
49.87000 9.187
49.88000 12.095
49.89000 7.153
49.90000 9.193
49.91000 11.056
49.92000 5.003
49.93000 7.226
49.94000 11.123
49.95000 10.114
49.96000 10.085
49.97000 9.109
49.98000 14.169
49.99000 12.182
50.00000 12.066
50.01000 7.109
50.02000 11.263
50.03000 13.021
50.04000 9.101
50.05000 9.032
50.06000 5.189
50.07000 13.263
50.08000 12.305
50.09000 6.092
50.10000 12.148
50.11000 12.190
50.12000 10.207
50.13000 13.193
50.14000 9.023
50.15000 10.024
50.16000 9.082
50.17000 12.027
50.18000 12.095
50.19000 15.193
50.20000 16.137
50.21000 2.988
50.22000 11.182
50.23000 14.201
50.24000 11.179
50.25000 7.073
50.26000 7.040
50.27000 10.203
50.28000 14.243
50.29000 12.141
50.30000 10.093
50.31000 7.001
50.32000 15.261
50.33000 8.043
50.34000 11.056
50.35000 7.072
50.36000 9.111
50.37000 7.123
50.38000 5.090
50.39000 6.152
50.40000 6.051
50.41000 8.102
50.42000 18.071
50.43000 8.052
50.44000 15.152
50.45000 3.029
50.46000 9.237
50.47000 11.159
50.48000 12.221
50.49000 8.064
50.50000 10.103
50.51000 7.987
50.52000 8.180
50.53000 12.246
50.54000 8.058
50.55000 17.361
50.56000 8.111
50.57000 4.022
50.58000 12.078
50.59000 7.046
50.60000 5.010
50.61000 9.266
50.62000 5.075
50.63000 8.114
50.64000 9.167
50.65000 10.196
50.66000 9.095
50.67000 11.104
50.68000 11.165
50.69000 8.123
50.70000 8.114
50.71000 9.159
50.72000 5.982
50.73000 12.157
50.74000 9.067
50.75000 7.114
50.76000 8.045
50.77000 16.000
50.78000 11.983
50.79000 12.419
50.80000 7.043
50.81000 4.027
50.82000 12.361
50.83000 11.142
50.84000 9.083
50.85000 6.095
50.86000 12.124
50.87000 6.024
50.88000 9.172
50.89000 15.317
50.90000 9.140
50.91000 6.079
50.92000 9.108
50.93000 14.031
50.94000 10.090
50.95000 11.094
50.96000 8.023
50.97000 19.341
50.98000 9.126
50.99000 10.105
51.00000 10.138
51.01000 4.094
51.02000 7.065
51.03000 13.158
51.04000 12.244
51.05000 4.052
51.06000 7.016
51.07000 9.082
51.08000 11.198
51.09000 9.265
51.10000 9.095
51.11000 5.046
51.12000 12.217
51.13000 7.095
51.14000 5.130
51.15000 12.139
51.16000 16.105
51.17000 11.022
51.18000 7.989
51.19000 6.006
51.20000 10.241
51.21000 9.068
51.22000 11.072
51.23000 7.106
51.24000 12.212
51.25000 12.247
51.26000 10.063
51.27000 11.038
51.28000 6.051
51.29000 10.121
51.30000 6.072
51.31000 12.233
51.32000 6.083
51.33000 11.180
51.34000 6.155
51.35000 7.166
51.36000 17.038
51.37000 6.033
51.38000 15.365
51.39000 9.054
51.40000 8.092
51.41000 13.966
51.42000 11.175
51.43000 7.185
51.44000 11.114
51.45000 12.166
51.46000 6.101
51.47000 7.990
51.48000 6.057
51.49000 6.113
51.50000 14.216
51.51000 8.182
51.52000 3.045
51.53000 15.230
51.54000 8.105
51.55000 5.176
51.56000 7.968
51.57000 13.183
51.58000 11.115
51.59000 7.032
51.60000 14.126
51.61000 9.161
51.62000 14.152
51.63000 19.140
51.64000 10.126
51.65000 7.028
51.66000 7.194
51.67000 7.134
51.68000 10.138
51.69000 8.046
51.70000 7.062
51.71000 8.060
51.72000 12.168
51.73000 12.153
51.74000 10.016
51.75000 8.211
51.76000 5.137
51.77000 10.090
51.78000 7.176
51.79000 7.144
51.80000 7.149
51.81000 13.269
51.82000 9.129
51.83000 11.170
51.84000 6.089
51.85000 10.068
51.86000 6.089
51.87000 9.055
51.88000 10.077
51.89000 5.009
51.90000 11.174
51.91000 10.096
51.92000 6.076
51.93000 13.947
51.94000 9.072
51.95000 11.053
51.96000 8.074
51.97000 10.220
51.98000 9.214
51.99000 8.063
52.00000 9.149
52.01000 12.084
52.02000 6.088
52.03000 9.161
52.04000 8.232
52.05000 10.208
52.06000 11.142
52.07000 10.134
52.08000 10.095
52.09000 10.134
52.10000 9.132
52.11000 7.221
52.12000 7.113
52.13000 9.085
52.14000 9.088
52.15000 7.162
52.16000 7.023
52.17000 9.140
52.18000 9.123
52.19000 11.088
52.20000 10.085
52.21000 12.082
52.22000 10.018
52.23000 11.218
52.24000 13.143
52.25000 6.123
52.26000 12.063
52.27000 13.038
52.28000 6.021
52.29000 11.069
52.30000 14.197
52.31000 2.985
52.32000 12.260
52.33000 7.076
52.34000 11.065
52.35000 6.024
52.36000 4.084
52.37000 11.297
52.38000 4.114
52.39000 8.019
52.40000 8.155
52.41000 5.076
52.42000 8.232
52.43000 12.203
52.44000 14.194
52.45000 10.061
52.46000 9.054
52.47000 5.062
52.48000 0.000
52.49000 12.188
52.50000 9.167
52.51000 10.258
52.52000 4.989
52.53000 8.054
52.54000 7.186
52.55000 11.174
52.56000 4.030
52.57000 15.320
52.58000 8.162
52.59000 12.193
52.60000 4.106
52.61000 11.142
52.62000 14.293
52.63000 12.144
52.64000 8.042
52.65000 9.066
52.66000 16.162
52.67000 10.051
52.68000 15.309
52.69000 10.085
52.70000 9.099
52.71000 6.044
52.72000 7.134
52.73000 7.138
52.74000 7.036
52.75000 4.126
52.76000 14.161
52.77000 9.088
52.78000 5.984
52.79000 8.094
52.80000 7.025
52.81000 10.189
52.82000 4.984
52.83000 7.202
52.84000 5.100
52.85000 12.111
52.86000 10.042
52.87000 6.142
52.88000 6.074
52.89000 6.061
52.90000 9.058
52.91000 7.050
52.92000 9.023
52.93000 8.082
52.94000 8.219
52.95000 14.126
52.96000 7.247
52.97000 12.111
52.98000 10.248
52.99000 8.130
53.00000 5.086
53.01000 7.091
53.02000 10.071
53.03000 10.072
53.04000 3.023
53.05000 11.073
53.06000 6.076
53.07000 5.005
53.08000 11.133
53.09000 16.092
53.10000 7.183
53.11000 15.273
53.12000 7.039
53.13000 8.070
53.14000 3.065
53.15000 9.073
53.16000 8.104
53.17000 9.089
53.18000 7.019
53.19000 7.069
53.20000 3.121
53.21000 13.079
53.22000 7.017
53.23000 12.180
53.24000 10.237
53.25000 5.105
53.26000 8.104
53.27000 6.100
53.28000 10.117
53.29000 9.141
53.30000 11.107
53.31000 9.069
53.32000 7.019
53.33000 10.184
53.34000 6.038
53.35000 6.952
53.36000 9.058
53.37000 4.943
53.38000 8.054
53.39000 9.189
53.40000 9.082
53.41000 8.003
53.42000 18.404
53.43000 10.091
53.44000 4.070
53.45000 11.054
53.46000 7.243
53.47000 7.198
53.48000 10.051
53.49000 6.115
53.50000 6.964
53.51000 13.151
53.52000 8.205
53.53000 11.007
53.54000 5.089
53.55000 7.027
53.56000 4.064
53.57000 3.007
53.58000 10.232
53.59000 6.117
53.60000 11.255
53.61000 11.177
53.62000 8.064
53.63000 4.029
53.64000 8.139
53.65000 10.207
53.66000 10.144
53.67000 9.012
53.68000 3.993
53.69000 7.995
53.70000 7.139
53.71000 15.112
53.72000 12.090
53.73000 7.054
53.74000 8.084
53.75000 13.122
53.76000 8.054
53.77000 6.037
53.78000 5.109
53.79000 9.076
53.80000 7.965
53.81000 10.090
53.82000 9.057
53.83000 5.047
53.84000 4.972
53.85000 12.237
53.86000 3.033
53.87000 8.154
53.88000 14.230
53.89000 5.163
53.90000 8.124
53.91000 12.059
53.92000 6.159
53.93000 6.104
53.94000 9.035
53.95000 7.082
53.96000 12.108
53.97000 12.166
53.98000 9.106
53.99000 6.204
54.00000 5.125
54.01000 9.139
54.02000 12.353
54.03000 9.060
54.04000 15.983
54.05000 5.982
54.06000 11.331
54.07000 8.133
54.08000 10.097
54.09000 5.981
54.10000 6.016
54.11000 5.020
54.12000 8.149
54.13000 7.082
54.14000 16.156
54.15000 3.111
54.16000 4.076
54.17000 7.126
54.18000 9.230
54.19000 10.039
54.20000 3.077
54.21000 7.079
54.22000 7.990
54.23000 9.029
54.24000 7.267
54.25000 10.053
54.26000 5.023
54.27000 2.935
54.28000 11.087
54.29000 3.049
54.30000 9.995
54.31000 7.001
54.32000 9.104
54.33000 7.083
54.34000 5.987
54.35000 4.119
54.36000 14.217
54.37000 9.149
54.38000 7.985
54.39000 8.011
54.40000 5.034
54.41000 7.166
54.42000 8.099
54.43000 4.060
54.44000 9.049
54.45000 8.152
54.46000 15.194
54.47000 6.073
54.48000 5.068
54.49000 7.121
54.50000 7.986
54.51000 8.267
54.52000 13.157
54.53000 9.080
54.54000 10.173
54.55000 8.166
54.56000 6.157
54.57000 10.044
54.58000 7.057
54.59000 10.094
54.60000 3.982
54.61000 7.141
54.62000 11.136
54.63000 10.171
54.64000 6.999
54.65000 5.072
54.66000 11.064
54.67000 8.031
54.68000 11.099
54.69000 7.171
54.70000 10.144
54.71000 6.993
54.72000 8.085
54.73000 5.105
54.74000 7.070
54.75000 7.070
54.76000 4.029
54.77000 9.104
54.78000 10.059
54.79000 10.103
54.80000 8.066
54.81000 5.986
54.82000 6.153
54.83000 5.070
54.84000 6.099
54.85000 7.055
54.86000 5.126
54.87000 4.008
54.88000 7.032
54.89000 5.128
54.90000 9.072
54.91000 5.095
54.92000 6.063
54.93000 7.022
54.94000 5.184
54.95000 6.029
54.96000 5.122
54.97000 11.153
54.98000 5.080
54.99000 8.222
55.00000 12.181
55.01000 10.226
55.02000 10.147
55.03000 10.089
55.04000 8.036
55.05000 12.250
55.06000 5.009
55.07000 11.050
55.08000 7.144
55.09000 8.021
55.10000 8.124
55.11000 7.016
55.12000 5.050
55.13000 7.105
55.14000 13.080
55.15000 3.997
55.16000 17.349
55.17000 9.214
55.18000 4.046
55.19000 2.028
55.20000 5.993
55.21000 5.131
55.22000 9.151
55.23000 4.077
55.24000 9.115
55.25000 7.175
55.26000 8.122
55.27000 5.084
55.28000 9.184
55.29000 8.202
55.30000 9.101
55.31000 8.020
55.32000 9.287
55.33000 8.104
55.34000 10.251
55.35000 3.025
55.36000 12.174
55.37000 6.179
55.38000 6.074
55.39000 11.093
55.40000 10.099
55.41000 6.154
55.42000 12.067
55.43000 9.113
55.44000 13.109
55.45000 8.139
55.46000 6.029
55.47000 7.106
55.48000 9.133
55.49000 5.022
55.50000 12.101
55.51000 5.005
55.52000 3.976
55.53000 8.110
55.54000 6.074
55.55000 5.031
55.56000 5.053
55.57000 7.010
55.58000 10.149
55.59000 9.238
55.60000 8.306
55.61000 9.286
55.62000 11.107
55.63000 6.098
55.64000 5.123
55.65000 8.147
55.66000 2.051
55.67000 7.000
55.68000 13.216
55.69000 6.978
55.70000 10.183
55.71000 6.052
55.72000 14.133
55.73000 7.004
55.74000 11.123
55.75000 7.025
55.76000 4.111
55.77000 8.098
55.78000 15.264
55.79000 4.024
55.80000 5.046
55.81000 8.074
55.82000 0.978
55.83000 9.201
55.84000 8.012
55.85000 8.060
55.86000 2.041
55.87000 9.066
55.88000 6.091
55.89000 7.089
55.90000 9.198
55.91000 6.953
55.92000 5.991
55.93000 11.042
55.94000 9.061
55.95000 6.031
55.96000 16.215
55.97000 11.075
55.98000 7.091
55.99000 3.068
56.00000 7.103
56.01000 2.061
56.02000 9.062
56.03000 7.117
56.04000 6.107
56.05000 7.074
56.06000 11.104
56.07000 4.987
56.08000 11.069
56.09000 8.185
56.10000 7.002
56.11000 4.104
56.12000 7.223
56.13000 10.058
56.14000 12.139
56.15000 8.118
56.16000 5.092
56.17000 6.047
56.18000 4.095
56.19000 4.099
56.20000 6.075
56.21000 6.012
56.22000 4.022
56.23000 3.030
56.24000 9.201
56.25000 6.077
56.26000 6.979
56.27000 7.290
56.28000 7.031
56.29000 9.094
56.30000 9.069
56.31000 6.047
56.32000 5.004
56.33000 10.218
56.34000 11.082
56.35000 5.080
56.36000 6.047
56.37000 2.031
56.38000 9.150
56.39000 9.186
56.40000 9.994
56.41000 8.220
56.42000 6.116
56.43000 6.122
56.44000 6.051
56.45000 6.017
56.46000 7.101
56.47000 8.066
56.48000 9.038
56.49000 15.220
56.50000 4.042
56.51000 7.065
56.52000 2.023
56.53000 10.124
56.54000 4.987
56.55000 7.103
56.56000 6.981
56.57000 7.227
56.58000 7.159
56.59000 9.196
56.60000 10.304
56.61000 6.040
56.62000 7.178
56.63000 8.204
56.64000 10.290
56.65000 3.997
56.66000 5.174
56.67000 5.051
56.68000 5.032
56.69000 9.150
56.70000 2.012
56.71000 11.125
56.72000 9.141
56.73000 7.149
56.74000 9.129
56.75000 10.000
56.76000 6.060
56.77000 7.112
56.78000 4.047
56.79000 8.183
56.80000 8.989
56.81000 8.003
56.82000 5.115
56.83000 4.070
56.84000 15.243
56.85000 5.109
56.86000 7.031
56.87000 4.053
56.88000 7.220
56.89000 10.288
56.90000 10.028
56.91000 7.091
56.92000 5.035
56.93000 6.135
56.94000 1.984
56.95000 5.128
56.96000 9.096
56.97000 11.118
56.98000 7.148
56.99000 7.138
57.00000 13.163
57.01000 4.061
57.02000 8.152
57.03000 3.094
57.04000 6.131
57.05000 4.982
57.06000 5.035
57.07000 0.000
57.08000 9.073
57.09000 2.977
57.10000 9.072
57.11000 7.111
57.12000 8.056
57.13000 10.049
57.14000 9.160
57.15000 4.018
57.16000 11.149
57.17000 10.188
57.18000 11.273
57.19000 4.046
57.20000 6.016
57.21000 6.148
57.22000 9.240
57.23000 7.991
57.24000 7.034
57.25000 3.984
57.26000 4.021
57.27000 9.171
57.28000 10.130
57.29000 9.048
57.30000 5.126
57.31000 8.239
57.32000 11.141
57.33000 8.183
57.34000 14.238
57.35000 7.186
57.36000 5.191
57.37000 3.203
57.38000 11.047
57.39000 7.010
57.40000 8.200
57.41000 5.053
57.42000 10.134
57.43000 6.012
57.44000 3.007
57.45000 9.016
57.46000 10.209
57.47000 5.102
57.48000 7.095
57.49000 8.137
57.50000 4.057
57.51000 4.034
57.52000 10.094
57.53000 9.143
57.54000 6.974
57.55000 6.111
57.56000 3.997
57.57000 4.999
57.58000 4.002
57.59000 6.197
57.60000 7.152
57.61000 8.094
57.62000 9.167
57.63000 6.109
57.64000 4.010
57.65000 10.195
57.66000 8.032
57.67000 9.091
57.68000 10.106
57.69000 8.046
57.70000 4.980
57.71000 8.090
57.72000 10.080
57.73000 6.171
57.74000 7.148
57.75000 10.333
57.76000 7.147
57.77000 9.076
57.78000 7.011
57.79000 4.163
57.80000 7.005
57.81000 11.143
57.82000 5.055
57.83000 5.978
57.84000 7.008
57.85000 8.992
57.86000 6.113
57.87000 12.210
57.88000 10.956
57.89000 9.055
57.90000 8.092
57.91000 8.002
57.92000 7.078
57.93000 7.018
57.94000 8.059
57.95000 3.042
57.96000 4.065
57.97000 4.083
57.98000 5.054
57.99000 5.060
58.00000 10.136
58.01000 9.049
58.02000 9.120
58.03000 7.124
58.04000 3.068
58.05000 8.075
58.06000 4.039
58.07000 9.124
58.08000 11.134
58.09000 4.034
58.10000 4.012
58.11000 6.074
58.12000 11.042
58.13000 3.042
58.14000 2.032
58.15000 6.016
58.16000 5.981
58.17000 3.013
58.18000 5.086
58.19000 8.111
58.20000 6.042
58.21000 5.079
58.22000 9.110
58.23000 5.011
58.24000 6.049
58.25000 3.004
58.26000 5.045
58.27000 7.094
58.28000 3.056
58.29000 6.119
58.30000 9.133
58.31000 7.016
58.32000 5.080
58.33000 9.257
58.34000 7.970
58.35000 8.159
58.36000 5.032
58.37000 5.057
58.38000 1.019
58.39000 5.138
58.40000 9.069
58.41000 4.011
58.42000 9.217
58.43000 14.056
58.44000 6.108
58.45000 7.132
58.46000 8.113
58.47000 7.048
58.48000 10.173
58.49000 10.174
58.50000 8.063
58.51000 8.023
58.52000 4.093
58.53000 1.992
58.54000 12.154
58.55000 10.178
58.56000 3.114
58.57000 4.032
58.58000 10.095
58.59000 7.082
58.60000 10.160
58.61000 2.993
58.62000 8.051
58.63000 8.027
58.64000 10.011
58.65000 6.087
58.66000 8.249
58.67000 6.044
58.68000 6.033
58.69000 7.105
58.70000 9.151
58.71000 4.052
58.72000 12.120
58.73000 4.027
58.74000 5.146
58.75000 10.257
58.76000 7.039
58.77000 5.023
58.78000 9.168
58.79000 6.130
58.80000 7.154
58.81000 8.173
58.82000 10.114
58.83000 11.067
58.84000 0.981
58.85000 5.081
58.86000 2.024
58.87000 10.057
58.88000 5.074
58.89000 3.009
58.90000 4.007
58.91000 4.092
58.92000 11.098
58.93000 7.147
58.94000 1.026
58.95000 10.976
58.96000 10.209
58.97000 4.104
58.98000 9.046
58.99000 9.145
59.00000 4.023
59.01000 5.069
59.02000 6.062
59.03000 6.036
59.04000 9.140
59.05000 6.025
59.06000 2.009
59.07000 7.076
59.08000 7.202
59.09000 5.170
59.10000 7.007
59.11000 2.008
59.12000 2.983
59.13000 3.997
59.14000 7.067
59.15000 7.103
59.16000 5.067
59.17000 7.097
59.18000 8.074
59.19000 10.026
59.20000 5.022
59.21000 3.026
59.22000 7.030
59.23000 9.168
59.24000 7.051
59.25000 11.188
59.26000 3.070
59.27000 3.956
59.28000 1.989
59.29000 6.099
59.30000 1.049
59.31000 4.109
59.32000 5.119
59.33000 6.144
59.34000 6.135
59.35000 8.066
59.36000 6.053
59.37000 6.036
59.38000 4.100
59.39000 6.067
59.40000 4.041
59.41000 6.069
59.42000 4.116
59.43000 5.107
59.44000 7.118
59.45000 4.103
59.46000 10.019
59.47000 6.056
59.48000 5.017
59.49000 6.091
59.50000 2.064
59.51000 8.037
59.52000 6.098
59.53000 8.009
59.54000 1.997
59.55000 5.060
59.56000 6.037
59.57000 3.089
59.58000 3.180
59.59000 4.075
59.60000 9.065
59.61000 9.136
59.62000 9.026
59.63000 7.109
59.64000 11.270
59.65000 6.074
59.66000 6.108
59.67000 4.041
59.68000 3.049
59.69000 8.177
59.70000 3.976
59.71000 9.193
59.72000 3.046
59.73000 5.009
59.74000 2.996
59.75000 4.175
59.76000 6.953
59.77000 2.014
59.78000 4.034
59.79000 10.086
59.80000 7.054
59.81000 9.148
59.82000 7.032
59.83000 4.041
59.84000 5.055
59.85000 6.963
59.86000 4.010
59.87000 8.177
59.88000 4.047
59.89000 9.174
59.90000 5.996
59.91000 8.117
59.92000 7.089
59.93000 5.069
59.94000 9.997
59.95000 4.039
59.96000 5.059
59.97000 4.140
59.98000 5.106
59.99000 3.077
60.00000 2.018
60.01000 0.982
60.02000 6.216
60.03000 9.118
60.04000 8.087
60.05000 5.101
60.06000 9.170
60.07000 7.100
60.08000 6.200
60.09000 10.084
60.10000 5.122
60.11000 5.030
60.12000 8.118
60.13000 10.117
60.14000 7.098
60.15000 2.018
60.16000 6.136
60.17000 4.088
60.18000 5.049
60.19000 6.050
60.20000 6.092
60.21000 11.184
60.22000 9.117
60.23000 7.137
60.24000 5.032
60.25000 4.111
60.26000 5.992
60.27000 5.030
60.28000 11.116
60.29000 13.150
60.30000 5.016
60.31000 5.041
60.32000 7.152
60.33000 6.018
60.34000 3.962
60.35000 6.078
60.36000 0.977
60.37000 4.082
60.38000 4.091
60.39000 8.183
60.40000 8.109
60.41000 3.007
60.42000 5.029
60.43000 3.082
60.44000 6.170
60.45000 7.152
60.46000 7.057
60.47000 9.118
60.48000 6.989
60.49000 3.039
60.50000 7.064
60.51000 4.015
60.52000 5.927
60.53000 3.041
60.54000 7.210
60.55000 5.036
60.56000 5.114
60.57000 6.116
60.58000 8.150
60.59000 4.049
60.60000 7.152
60.61000 5.965
60.62000 6.045
60.63000 8.037
60.64000 3.021
60.65000 9.080
60.66000 3.998
60.67000 0.000
60.68000 8.019
60.69000 6.100
60.70000 5.141
60.71000 4.091
60.72000 5.039
60.73000 7.956
60.74000 6.114
60.75000 4.082
60.76000 4.042
60.77000 4.022
60.78000 3.075
60.79000 3.085
60.80000 5.064
60.81000 9.155
60.82000 5.020
60.83000 1.990
60.84000 3.934
60.85000 12.048
60.86000 8.044
60.87000 5.010
60.88000 7.101
60.89000 3.120
60.90000 7.106
60.91000 5.021
60.92000 7.087
60.93000 6.034
60.94000 7.048
60.95000 3.024
60.96000 6.034
60.97000 2.972
60.98000 5.124
60.99000 2.083
61.00000 5.016
61.01000 7.105
61.02000 6.015
61.03000 4.115
61.04000 7.065
61.05000 4.068
61.06000 1.029
61.07000 7.123
61.08000 4.058
61.09000 6.154
61.10000 9.166
61.11000 4.012
61.12000 9.166
61.13000 9.181
61.14000 8.102
61.15000 4.042
61.16000 4.035
61.17000 6.048
61.18000 5.079
61.19000 7.205
61.20000 3.050
61.21000 8.184
61.22000 6.025
61.23000 3.009
61.24000 9.095
61.25000 8.116
61.26000 5.061
61.27000 5.933
61.28000 4.072
61.29000 1.020
61.30000 5.047
61.31000 8.159
61.32000 6.109
61.33000 5.018
61.34000 7.085
61.35000 6.056
61.36000 8.053
61.37000 7.190
61.38000 6.009
61.39000 1.021
61.40000 7.074
61.41000 5.045
61.42000 8.965
61.43000 7.134
61.44000 4.012
61.45000 3.975
61.46000 8.194
61.47000 3.016
61.48000 4.038
61.49000 5.961
61.50000 0.998
61.51000 6.977
61.52000 4.031
61.53000 5.031
61.54000 4.001
61.55000 1.001
61.56000 2.999
61.57000 2.104
61.58000 4.005
61.59000 8.140
61.60000 4.066
61.61000 4.038
61.62000 8.101
61.63000 6.155
61.64000 6.115
61.65000 4.012
61.66000 5.008
61.67000 11.197
61.68000 4.125
61.69000 9.085
61.70000 4.062
61.71000 4.029
61.72000 5.989
61.73000 5.092
61.74000 6.101
61.75000 2.054
61.76000 9.999
61.77000 4.045
61.78000 4.039
61.79000 0.977
61.80000 2.022
61.81000 6.133
61.82000 6.068
61.83000 6.187
61.84000 3.959
61.85000 4.129
61.86000 2.080
61.87000 7.061
61.88000 7.051
61.89000 4.035
61.90000 6.033
61.91000 3.028
61.92000 5.974
61.93000 8.014
61.94000 8.143
61.95000 4.975
61.96000 6.087
61.97000 3.054
61.98000 7.007
61.99000 4.034
62.00000 2.053
62.01000 9.001
62.02000 6.094
62.03000 6.098
62.04000 3.002
62.05000 6.089
62.06000 3.130
62.07000 3.050
62.08000 10.167
62.09000 4.010
62.10000 5.079
62.11000 9.124
62.12000 8.964
62.13000 4.056
62.14000 3.115
62.15000 8.135
62.16000 4.030
62.17000 10.153
62.18000 4.040
62.19000 0.000
62.20000 10.090
62.21000 13.077
62.22000 5.100
62.23000 7.169
62.24000 3.001
62.25000 7.128
62.26000 6.089
62.27000 9.086
62.28000 2.982
62.29000 8.093
62.30000 5.114
62.31000 8.034
62.32000 6.163
62.33000 0.984
62.34000 2.041
62.35000 5.156
62.36000 4.036
62.37000 5.089
62.38000 5.013
62.39000 1.000
62.40000 6.093
62.41000 4.963
62.42000 3.058
62.43000 6.013
62.44000 4.056
62.45000 4.042
62.46000 5.032
62.47000 4.097
62.48000 7.089
62.49000 2.033
62.50000 5.138
62.51000 3.031
62.52000 5.021
62.53000 3.990
62.54000 6.105
62.55000 2.034
62.56000 7.211
62.57000 4.038
62.58000 2.062
62.59000 2.002
62.60000 5.067
62.61000 5.995
62.62000 5.135
62.63000 3.113
62.64000 5.076
62.65000 4.045
62.66000 2.006
62.67000 8.139
62.68000 9.107
62.69000 6.202
62.70000 6.023
62.71000 4.020
62.72000 4.078
62.73000 12.157
62.74000 2.031
62.75000 13.136
62.76000 7.044
62.77000 5.099
62.78000 6.010
62.79000 5.021
62.80000 0.981
62.81000 4.024
62.82000 11.116
62.83000 1.977
62.84000 3.025
62.85000 2.966
62.86000 5.138
62.87000 4.018
62.88000 4.102
62.89000 5.020
62.90000 9.234
62.91000 8.178
62.92000 3.002
62.93000 3.002
62.94000 6.096
62.95000 3.019
62.96000 5.151
62.97000 10.310
62.98000 3.028
62.99000 9.226
63.00000 3.031
63.01000 4.083
63.02000 6.142
63.03000 5.989
63.04000 6.143
63.05000 3.020
63.06000 7.105
63.07000 3.037
63.08000 6.003
63.09000 6.072
63.10000 6.086
63.11000 3.057
63.12000 3.043
63.13000 6.047
63.14000 5.100
63.15000 6.104
63.16000 5.119
63.17000 6.129
63.18000 6.024
63.19000 7.053
63.20000 4.018
63.21000 7.010
63.22000 5.178
63.23000 4.147
63.24000 1.047
63.25000 5.067
63.26000 2.972
63.27000 7.143
63.28000 6.054
63.29000 4.155
63.30000 6.115
63.31000 3.068
63.32000 6.103
63.33000 4.030
63.34000 9.147
63.35000 5.113
63.36000 5.059
63.37000 4.004
63.38000 5.072
63.39000 7.059
63.40000 6.074
63.41000 1.994
63.42000 5.118
63.43000 5.908
63.44000 6.207
63.45000 4.064
63.46000 2.031
63.47000 2.084
63.48000 2.054
63.49000 3.090
63.50000 5.067
63.51000 5.067
63.52000 4.969
63.53000 3.078
63.54000 4.066
63.55000 8.112
63.56000 4.144
63.57000 4.029
63.58000 2.022
63.59000 7.086
63.60000 2.011
63.61000 7.053
63.62000 6.056
63.63000 6.052
63.64000 8.089
63.65000 6.029
63.66000 8.000
63.67000 7.031
63.68000 5.092
63.69000 4.033
63.70000 10.018
63.71000 9.117
63.72000 2.026
63.73000 4.126
63.74000 2.993
63.75000 7.093
63.76000 4.066
63.77000 2.006
63.78000 8.135
63.79000 3.022
63.80000 4.111
63.81000 5.986
63.82000 6.079
63.83000 7.088
63.84000 7.173
63.85000 3.030
63.86000 2.994
63.87000 6.072
63.88000 3.020
63.89000 5.092
63.90000 7.107
63.91000 5.042
63.92000 9.192
63.93000 4.040
63.94000 8.166
63.95000 4.983
63.96000 7.049
63.97000 5.162
63.98000 4.000
63.99000 5.090
64.00000 5.041
64.01000 7.246
64.02000 1.991
64.03000 2.019
64.04000 4.023
64.05000 6.089
64.06000 7.062
64.07000 3.995
64.08000 3.977
64.09000 7.145
64.10000 5.024
64.11000 8.022
64.12000 1.010
64.13000 4.087
64.14000 8.053
64.15000 5.151
64.16000 6.071
64.17000 4.980
64.18000 4.044
64.19000 9.073
64.20000 9.081
64.21000 2.000
64.22000 5.121
64.23000 5.147
64.24000 5.065
64.25000 8.049
64.26000 6.094
64.27000 9.151
64.28000 8.185
64.29000 7.145
64.30000 5.021
64.31000 4.042
64.32000 7.040
64.33000 2.001
64.34000 4.096
64.35000 6.027
64.36000 2.974
64.37000 5.009
64.38000 2.032
64.39000 6.107
64.40000 5.965
64.41000 1.036
64.42000 3.030
64.43000 5.025
64.44000 4.987
64.45000 6.147
64.46000 8.102
64.47000 3.012
64.48000 6.962
64.49000 10.041
64.50000 3.049
64.51000 4.063
64.52000 4.109
64.53000 5.059
64.54000 3.035
64.55000 5.062
64.56000 4.011
64.57000 11.160
64.58000 6.146
64.59000 7.044
64.60000 2.982
64.61000 2.027
64.62000 5.093
64.63000 4.985
64.64000 3.049
64.65000 5.031
64.66000 8.106
64.67000 5.090
64.68000 3.023
64.69000 4.077
64.70000 4.000
64.71000 9.179
64.72000 0.990
64.73000 3.082
64.74000 13.267
64.75000 4.111
64.76000 3.912
64.77000 5.046
64.78000 5.076
64.79000 3.071
64.80000 4.987
64.81000 3.976
64.82000 7.076
64.83000 1.999
64.84000 4.074
64.85000 6.152
64.86000 5.164
64.87000 8.125
64.88000 1.030
64.89000 3.070
64.90000 7.049
64.91000 6.066
64.92000 3.040
64.93000 3.940
64.94000 4.036
64.95000 6.089
64.96000 6.087
64.97000 4.050
64.98000 3.051
64.99000 3.062
65.00000 3.991
