20.00000 19.364
20.01000 25.476
20.02000 31.340
20.03000 19.309
20.04000 29.479
20.05000 12.895
20.06000 21.351
20.07000 13.060
20.08000 24.179
20.09000 16.250
20.10000 14.324
20.11000 20.375
20.12000 13.144
20.13000 19.263
20.14000 18.178
20.15000 20.255
20.16000 19.137
20.17000 14.126
20.18000 21.270
20.19000 16.016
20.20000 27.523
20.21000 24.267
20.22000 20.411
20.23000 20.180
20.24000 22.177
20.25000 22.406
20.26000 22.196
20.27000 22.185
20.28000 24.394
20.29000 22.116
20.30000 31.539
20.31000 17.353
20.32000 15.274
20.33000 25.312
20.34000 18.373
20.35000 19.120
20.36000 21.108
20.37000 24.394
20.38000 16.232
20.39000 18.185
20.40000 21.337
20.41000 20.312
20.42000 18.300
20.43000 20.091
20.44000 26.557
20.45000 20.242
20.46000 19.476
20.47000 16.128
20.48000 20.255
20.49000 15.275
20.50000 20.230
20.51000 19.105
20.52000 18.047
20.53000 23.311
20.54000 28.393
20.55000 26.579
20.56000 14.071
20.57000 18.228
20.58000 11.193
20.59000 14.263
20.60000 13.132
20.61000 30.520
20.62000 19.377
20.63000 15.202
20.64000 14.310
20.65000 23.168
20.66000 18.147
20.67000 15.269
20.68000 23.347
20.69000 23.250
20.70000 27.296
20.71000 17.168
20.72000 29.531
20.73000 19.510
20.74000 18.048
20.75000 23.312
20.76000 15.169
20.77000 22.307
20.78000 17.153
20.79000 18.227
20.80000 12.044
20.81000 15.123
20.82000 20.191
20.83000 20.174
20.84000 28.379
20.85000 21.345
20.86000 26.149
20.87000 23.133
20.88000 19.249
20.89000 21.308
20.90000 23.444
20.91000 20.248
20.92000 25.015
20.93000 26.468
20.94000 20.130
20.95000 24.430
20.96000 19.147
20.97000 21.246
20.98000 27.469
20.99000 20.233
21.00000 15.471
21.01000 19.264
21.02000 19.154
21.03000 19.207
21.04000 20.430
21.05000 30.269
21.06000 21.325
21.07000 28.544
21.08000 21.193
21.09000 19.233
21.10000 20.311
21.11000 16.187
21.12000 26.177
21.13000 32.369
21.14000 21.164
21.15000 18.033
21.16000 30.430
21.17000 26.334
21.18000 21.193
21.19000 16.127
21.20000 22.301
21.21000 17.331
21.22000 21.211
21.23000 24.402
21.24000 29.154
21.25000 19.138
21.26000 21.286
21.27000 20.271
21.28000 18.040
21.29000 9.089
21.30000 23.307
21.31000 20.219
21.32000 21.546
21.33000 23.271
21.34000 27.278
21.35000 22.180
21.36000 18.254
21.37000 28.243
21.38000 27.334
21.39000 18.354
21.40000 23.110
21.41000 25.298
21.42000 27.572
21.43000 25.424
21.44000 27.480
21.45000 24.385
21.46000 16.279
21.47000 23.597
21.48000 24.204
21.49000 15.206
21.50000 23.270
21.51000 16.158
21.52000 19.259
21.53000 27.384
21.54000 8.134
21.55000 14.991
21.56000 14.077
21.57000 16.304
21.58000 21.183
21.59000 30.455
21.60000 24.228
21.61000 18.241
21.62000 23.255
21.63000 31.300
21.64000 17.091
21.65000 19.156
21.66000 19.061
21.67000 22.429
21.68000 25.321
21.69000 26.284
21.70000 20.295
21.71000 28.373
21.72000 16.198
21.73000 16.377
21.74000 29.313
21.75000 19.194
21.76000 27.216
21.77000 21.413
21.78000 22.273
21.79000 15.315
21.80000 24.329
21.81000 29.340
21.82000 24.235
21.83000 19.058
21.84000 24.434
21.85000 20.239
21.86000 23.242
21.87000 32.080
21.88000 23.371
21.89000 32.440
21.90000 24.220
21.91000 27.144
21.92000 28.233
21.93000 23.182
21.94000 18.146
21.95000 29.542
21.96000 22.319
21.97000 33.183
21.98000 29.405
21.99000 19.343
22.00000 36.421
22.01000 19.231
22.02000 18.120
22.03000 24.196
22.04000 21.413
22.05000 34.300
22.06000 14.166
22.07000 18.313
22.08000 27.325
22.09000 27.598
22.10000 26.110
22.11000 21.269
22.12000 23.477
22.13000 29.560
22.14000 20.987
22.15000 38.047
22.16000 32.237
22.17000 26.185
22.18000 26.447
22.19000 26.408
22.20000 26.290
22.21000 25.324
22.22000 33.586
22.23000 21.161
22.24000 20.198
22.25000 26.277
22.26000 23.455
22.27000 20.139
22.28000 23.315
22.29000 31.331
22.30000 37.521
22.31000 24.236
22.32000 11.162
22.33000 24.160
22.34000 21.385
22.35000 29.429
22.36000 22.370
22.37000 23.347
22.38000 28.270
22.39000 33.409
22.40000 31.388
22.41000 21.330
22.42000 23.444
22.43000 25.161
22.44000 27.442
22.45000 21.206
22.46000 25.315
22.47000 38.275
22.48000 27.503
22.49000 29.347
22.50000 22.167
22.51000 31.533
22.52000 25.288
22.53000 25.219
22.54000 29.382
22.55000 22.241
22.56000 30.484
22.57000 21.380
22.58000 28.627
22.59000 30.566
22.60000 20.443
22.61000 19.369
22.62000 24.290
22.63000 21.363
22.64000 20.387
22.65000 30.361
22.66000 28.427
22.67000 25.177
22.68000 32.294
22.69000 26.300
22.70000 25.433
22.71000 22.181
22.72000 23.330
22.73000 31.366
22.74000 19.009
22.75000 22.220
22.76000 21.258
22.77000 33.327
22.78000 22.171
22.79000 30.317
22.80000 43.527
22.81000 29.225
22.82000 20.221
22.83000 33.476
22.84000 27.061
22.85000 24.211
22.86000 33.406
22.87000 27.479
22.88000 25.437
22.89000 26.386
22.90000 29.574
22.91000 21.219
22.92000 30.424
22.93000 26.525
22.94000 27.252
22.95000 27.495
22.96000 18.157
22.97000 25.342
22.98000 25.529
22.99000 13.028
23.00000 32.498
23.01000 19.182
23.02000 21.243
23.03000 38.634
23.04000 20.153
23.05000 35.618
23.06000 27.493
23.07000 27.367
23.08000 18.247
23.09000 25.512
23.10000 33.530
23.11000 31.255
23.12000 27.508
23.13000 40.577
23.14000 29.602
23.15000 25.309
23.16000 38.716
23.17000 25.361
23.18000 21.268
23.19000 28.270
23.20000 28.440
23.21000 25.391
23.22000 17.045
23.23000 22.390
23.24000 21.311
23.25000 32.389
23.26000 23.353
23.27000 25.127
23.28000 18.252
23.29000 22.177
23.30000 26.392
23.31000 32.445
23.32000 25.181
23.33000 29.261
23.34000 26.249
23.35000 24.467
23.36000 20.409
23.37000 39.709
23.38000 27.643
23.39000 15.125
23.40000 26.211
23.41000 29.491
23.42000 31.351
23.43000 25.408
23.44000 27.235
23.45000 33.490
23.46000 24.329
23.47000 29.406
23.48000 28.103
23.49000 24.474
23.50000 30.365
23.51000 23.410
23.52000 34.332
23.53000 34.174
23.54000 36.729
23.55000 26.313
23.56000 24.184
23.57000 34.488
23.58000 36.581
23.59000 26.055
23.60000 22.300
23.61000 46.484
23.62000 28.290
23.63000 32.367
23.64000 30.345
23.65000 30.428
23.66000 36.549
23.67000 34.372
23.68000 41.631
23.69000 35.641
23.70000 29.496
23.71000 22.296
23.72000 31.467
23.73000 23.366
23.74000 28.407
23.75000 20.313
23.76000 28.118
23.77000 19.361
23.78000 20.404
23.79000 33.410
23.80000 30.323
23.81000 33.431
23.82000 29.329
23.83000 37.484
23.84000 18.400
23.85000 35.409
23.86000 35.223
23.87000 32.235
23.88000 30.208
23.89000 30.431
23.90000 32.701
23.91000 35.316
23.92000 17.071
23.93000 31.627
23.94000 41.865
23.95000 33.723
23.96000 31.361
23.97000 36.488
23.98000 31.516
23.99000 43.374
24.00000 25.386
24.01000 24.204
24.02000 32.368
24.03000 31.661
24.04000 36.546
24.05000 38.509
24.06000 31.498
24.07000 30.356
24.08000 26.303
24.09000 38.671
24.10000 30.361
24.11000 28.316
24.12000 32.503
24.13000 27.506
24.14000 39.402
24.15000 35.442
24.16000 37.297
24.17000 20.230
24.18000 24.345
24.19000 28.343
24.20000 29.374
24.21000 34.669
24.22000 25.269
24.23000 36.344
24.24000 36.428
24.25000 32.491
24.26000 36.636
24.27000 39.291
24.28000 27.564
24.29000 41.373
24.30000 41.912
24.31000 41.647
24.32000 23.139
24.33000 28.307
24.34000 24.267
24.35000 23.363
24.36000 27.289
24.37000 46.608
24.38000 38.347
24.39000 41.646
24.40000 43.491
24.41000 36.328
24.42000 23.376
24.43000 41.992
24.44000 36.399
24.45000 32.373
24.46000 44.464
24.47000 24.349
24.48000 27.251
24.49000 40.360
24.50000 33.368
24.51000 31.502
24.52000 32.604
24.53000 38.148
24.54000 36.628
24.55000 39.794
24.56000 29.526
24.57000 30.587
24.58000 32.572
24.59000 39.240
24.60000 36.565
24.61000 41.630
24.62000 42.631
24.63000 38.235
24.64000 35.159
24.65000 39.446
24.66000 35.260
24.67000 31.439
24.68000 40.212
24.69000 40.567
24.70000 39.620
24.71000 37.369
24.72000 22.142
24.73000 37.489
24.74000 46.385
24.75000 31.144
24.76000 31.534
24.77000 44.640
24.78000 33.490
24.79000 29.362
24.80000 48.318
24.81000 46.568
24.82000 45.514
24.83000 43.586
24.84000 33.395
24.85000 33.142
24.86000 31.478
24.87000 41.490
24.88000 37.504
24.89000 34.501
24.90000 34.323
24.91000 35.323
24.92000 43.764
24.93000 47.672
24.94000 38.474
24.95000 40.495
24.96000 21.293
24.97000 36.469
24.98000 46.656
24.99000 41.554
25.00000 44.526
25.01000 40.687
25.02000 45.481
25.03000 41.802
25.04000 36.582
25.05000 37.269
25.06000 46.393
25.07000 41.471
25.08000 34.485
25.09000 35.637
25.10000 45.240
25.11000 34.298
25.12000 47.703
25.13000 44.255
25.14000 39.442
25.15000 46.446
25.16000 37.456
25.17000 45.814
25.18000 37.363
25.19000 39.757
25.20000 38.568
25.21000 40.438
25.22000 45.414
25.23000 45.813
25.24000 33.381
25.25000 45.617
25.26000 36.470
25.27000 36.412
25.28000 43.571
25.29000 28.528
25.30000 37.596
25.31000 43.356
25.32000 47.761
25.33000 45.845
25.34000 41.340
25.35000 46.446
25.36000 51.789
25.37000 49.814
25.38000 35.252
25.39000 46.668
25.40000 50.700
25.41000 50.591
25.42000 39.812
25.43000 37.486
25.44000 42.228
25.45000 41.547
25.46000 52.510
25.47000 35.389
25.48000 51.618
25.49000 48.573
25.50000 38.571
25.51000 57.803
25.52000 44.666
25.53000 45.495
25.54000 42.524
25.55000 43.616
25.56000 47.518
25.57000 58.771
25.58000 42.197
25.59000 41.394
25.60000 48.665
25.61000 39.676
25.62000 46.464
25.63000 47.866
25.64000 35.659
25.65000 40.636
25.66000 34.434
25.67000 52.528
25.68000 43.464
25.69000 38.243
25.70000 46.635
25.71000 51.730
25.72000 51.835
25.73000 46.716
25.74000 54.737
25.75000 51.971
25.76000 37.508
25.77000 44.546
25.78000 50.896
25.79000 35.500
25.80000 45.837
25.81000 44.608
25.82000 44.503
25.83000 54.671
25.84000 50.745
25.85000 42.716
25.86000 60.649
25.87000 52.529
25.88000 42.598
25.89000 35.358
25.90000 40.613
25.91000 47.831
25.92000 46.686
25.93000 46.738
25.94000 40.600
25.95000 47.745
25.96000 50.559
25.97000 35.549
25.98000 49.657
25.99000 56.767
26.00000 48.678
26.01000 39.372
26.02000 57.645
26.03000 66.530
26.04000 59.466
26.05000 51.682
26.06000 52.694
26.07000 46.628
26.08000 48.582
26.09000 49.659
26.10000 41.470
26.11000 53.379
26.12000 45.621
26.13000 42.704
26.14000 49.521
26.15000 55.408
26.16000 40.731
26.17000 54.863
26.18000 47.616
26.19000 55.521
26.20000 61.969
26.21000 44.823
26.22000 49.572
26.23000 57.662
26.24000 37.484
26.25000 56.953
26.26000 47.620
26.27000 46.726
26.28000 45.713
26.29000 44.354
26.30000 51.464
26.31000 47.832
26.32000 65.089
26.33000 61.760
26.34000 42.488
26.35000 58.068
26.36000 50.750
26.37000 48.595
26.38000 51.430
26.39000 44.448
26.40000 59.837
26.41000 59.784
26.42000 56.851
26.43000 51.859
26.44000 64.899
26.45000 40.568
26.46000 55.888
26.47000 41.581
26.48000 39.454
26.49000 44.538
26.50000 62.036
26.51000 51.586
26.52000 71.212
26.53000 42.110
26.54000 59.738
26.55000 50.537
26.56000 52.796
26.57000 44.568
26.58000 42.507
26.59000 48.662
26.60000 50.685
26.61000 62.707
26.62000 46.874
26.63000 67.835
26.64000 44.250
26.65000 52.641
26.66000 52.460
26.67000 49.380
26.68000 42.806
26.69000 47.795
26.70000 60.103
26.71000 56.871
26.72000 67.993
26.73000 42.604
26.74000 60.804
26.75000 62.990
26.76000 51.957
26.77000 59.615
26.78000 44.320
26.79000 46.631
26.80000 53.771
26.81000 62.839
26.82000 58.710
26.83000 55.776
26.84000 56.022
26.85000 59.798
26.86000 67.783
26.87000 57.799
26.88000 55.671
26.89000 52.732
26.90000 57.859
26.91000 57.679
26.92000 53.938
26.93000 61.028
26.94000 53.025
26.95000 69.848
26.96000 49.603
26.97000 55.005
26.98000 61.814
26.99000 60.613
27.00000 52.559
27.01000 66.690
27.02000 58.987
27.03000 42.528
27.04000 57.776
27.05000 48.809
27.06000 58.676
27.07000 59.815
27.08000 42.632
27.09000 51.607
27.10000 60.510
27.11000 54.980
27.12000 58.654
27.13000 56.989
27.14000 64.034
27.15000 63.842
27.16000 57.821
27.17000 53.631
27.18000 63.015
27.19000 54.884
27.20000 55.617
27.21000 53.730
27.22000 61.673
27.23000 52.412
27.24000 54.709
27.25000 51.777
27.26000 52.001
27.27000 58.984
27.28000 59.950
27.29000 57.469
27.30000 55.807
27.31000 61.720
27.32000 46.580
27.33000 58.634
27.34000 52.745
27.35000 63.290
27.36000 65.076
27.37000 53.594
27.38000 47.963
27.39000 52.941
27.40000 49.822
27.41000 56.656
27.42000 57.745
27.43000 62.093
27.44000 65.770
27.45000 69.976
27.46000 79.138
27.47000 51.855
27.48000 56.852
27.49000 59.988
27.50000 61.948
27.51000 53.562
27.52000 54.944
27.53000 45.599
27.54000 56.004
27.55000 66.085
27.56000 50.792
27.57000 69.849
27.58000 64.722
27.59000 57.746
27.60000 62.671
27.61000 67.006
27.62000 51.231
27.63000 61.368
27.64000 68.873
27.65000 45.562
27.66000 50.696
27.67000 61.041
27.68000 58.735
27.69000 46.551
27.70000 68.073
27.71000 51.860
27.72000 61.934
27.73000 67.980
27.74000 60.834
27.75000 49.456
27.76000 53.978
27.77000 47.630
27.78000 54.633
27.79000 51.663
27.80000 62.184
27.81000 68.670
27.82000 70.043
27.83000 50.576
27.84000 66.918
27.85000 65.048
27.86000 57.590
27.87000 56.829
27.88000 54.809
27.89000 46.745
27.90000 41.636
27.91000 50.417
27.92000 55.804
27.93000 51.475
27.94000 51.732
27.95000 51.016
27.96000 55.488
27.97000 56.059
27.98000 39.393
27.99000 57.827
28.00000 66.474
28.01000 49.043
28.02000 63.127
28.03000 66.934
28.04000 70.007
28.05000 67.786
28.06000 52.686
28.07000 52.634
28.08000 64.053
28.09000 65.147
28.10000 75.061
28.11000 49.696
28.12000 53.524
28.13000 57.734
28.14000 62.082
28.15000 72.276
28.16000 60.805
28.17000 55.583
28.18000 68.823
28.19000 46.419
28.20000 53.548
28.21000 57.709
28.22000 59.927
28.23000 59.943
28.24000 60.944
28.25000 50.805
28.26000 54.772
28.27000 68.873
28.28000 64.882
28.29000 52.466
28.30000 63.086
28.31000 45.857
28.32000 54.680
28.33000 45.485
28.34000 66.540
28.35000 46.818
28.36000 55.660
28.37000 56.669
28.38000 62.945
28.39000 57.767
28.40000 51.580
28.41000 55.655
28.42000 52.627
28.43000 53.484
28.44000 57.519
28.45000 52.882
28.46000 56.816
28.47000 47.627
28.48000 57.063
28.49000 49.736
28.50000 63.741
28.51000 60.462
28.52000 47.622
28.53000 54.886
28.54000 62.872
28.55000 38.538
28.56000 65.859
28.57000 44.643
28.58000 48.715
28.59000 51.821
28.60000 63.021
28.61000 49.443
28.62000 57.961
28.63000 42.695
28.64000 48.611
28.65000 65.759
28.66000 52.498
28.67000 55.838
28.68000 51.496
28.69000 42.829
28.70000 48.910
28.71000 58.774
28.72000 53.877
28.73000 62.875
28.74000 51.832
28.75000 71.015
28.76000 52.646
28.77000 52.555
28.78000 36.428
28.79000 48.980
28.80000 55.446
28.81000 63.653
28.82000 49.879
28.83000 60.288
28.84000 55.514
28.85000 44.587
28.86000 62.772
28.87000 46.711
28.88000 41.575
28.89000 59.692
28.90000 47.500
28.91000 56.861
28.92000 50.983
28.93000 42.626
28.94000 42.842
28.95000 43.621
28.96000 52.898
28.97000 50.706
28.98000 45.427
28.99000 57.202
29.00000 51.598
29.01000 60.804
29.02000 64.318
29.03000 52.682
29.04000 42.536
29.05000 59.504
29.06000 44.417
29.07000 52.543
29.08000 44.768
29.09000 52.650
29.10000 59.935
29.11000 52.472
29.12000 68.695
29.13000 49.698
29.14000 54.736
29.15000 54.549
29.16000 53.469
29.17000 47.821
29.18000 56.667
29.19000 66.970
29.20000 55.363
29.21000 44.606
29.22000 48.530
29.23000 42.673
29.24000 49.963
29.25000 38.680
29.26000 48.657
29.27000 49.662
29.28000 42.595
29.29000 53.591
29.30000 47.762
29.31000 29.349
29.32000 32.474
29.33000 49.246
29.34000 45.585
29.35000 46.471
29.36000 46.592
29.37000 40.477
29.38000 42.529
29.39000 40.599
29.40000 52.498
29.41000 44.534
29.42000 46.757
29.43000 42.629
29.44000 42.327
29.45000 47.497
29.46000 49.784
29.47000 42.692
29.48000 49.830
29.49000 51.718
29.50000 50.634
29.51000 45.572
29.52000 30.457
29.53000 50.594
29.54000 42.392
29.55000 42.785
29.56000 37.446
29.57000 42.578
29.58000 45.393
29.59000 49.634
29.60000 57.007
29.61000 48.390
29.62000 44.483
29.63000 50.896
29.64000 42.155
29.65000 48.594
29.66000 62.485
29.67000 62.991
29.68000 35.568
29.69000 39.337
29.70000 40.536
29.71000 45.301
29.72000 38.824
29.73000 48.945
29.74000 41.206
29.75000 39.312
29.76000 50.063
29.77000 46.494
29.78000 43.215
29.79000 41.388
29.80000 47.396
29.81000 45.738
29.82000 44.725
29.83000 48.865
29.84000 36.488
29.85000 46.625
29.86000 40.742
29.87000 39.420
29.88000 40.451
29.89000 43.465
29.90000 45.601
29.91000 46.463
29.92000 41.892
29.93000 47.855
29.94000 59.008
29.95000 45.586
29.96000 39.329
29.97000 44.550
29.98000 25.263
29.99000 35.392
30.00000 48.867
30.01000 49.774
30.02000 32.353
30.03000 50.545
30.04000 38.449
30.05000 39.655
30.06000 35.431
30.07000 34.370
30.08000 37.641
30.09000 48.563
30.10000 41.443
30.11000 46.590
30.12000 36.736
30.13000 26.421
30.14000 34.531
30.15000 38.607
30.16000 36.381
30.17000 34.620
30.18000 32.354
30.19000 38.703
30.20000 39.560
30.21000 38.537
30.22000 36.324
30.23000 37.549
30.24000 34.412
30.25000 40.368
30.26000 33.306
30.27000 47.626
30.28000 45.584
30.29000 34.529
30.30000 44.565
30.31000 37.484
30.32000 34.623
30.33000 38.178
30.34000 29.407
30.35000 39.759
30.36000 27.379
30.37000 40.477
30.38000 32.431
30.39000 32.396
30.40000 42.319
30.41000 33.644
30.42000 41.444
30.43000 38.603
30.44000 34.768
30.45000 36.610
30.46000 37.785
30.47000 38.633
30.48000 36.367
30.49000 34.614
30.50000 34.552
30.51000 45.721
30.52000 40.666
30.53000 44.466
30.54000 35.422
30.55000 40.236
30.56000 36.394
30.57000 36.550
30.58000 35.413
30.59000 30.423
30.60000 36.545
30.61000 37.218
30.62000 36.447
30.63000 44.612
30.64000 41.527
30.65000 26.226
30.66000 39.588
30.67000 41.740
30.68000 33.166
30.69000 42.858
30.70000 31.509
30.71000 34.419
30.72000 37.567
30.73000 45.568
30.74000 45.646
30.75000 32.574
30.76000 38.672
30.77000 27.360
30.78000 31.226
30.79000 50.824
30.80000 40.557
30.81000 33.194
30.82000 33.348
30.83000 30.372
30.84000 26.526
30.85000 34.411
30.86000 34.430
30.87000 41.506
30.88000 41.557
30.89000 24.466
30.90000 36.364
30.91000 31.480
30.92000 32.451
30.93000 24.182
30.94000 31.525
30.95000 40.548
30.96000 31.482
30.97000 40.494
30.98000 29.341
30.99000 26.344
31.00000 26.280
31.01000 35.461
31.02000 41.340
31.03000 45.648
31.04000 33.349
31.05000 31.539
31.06000 37.239
31.07000 23.154
31.08000 36.402
31.09000 42.542
31.10000 25.404
31.11000 33.403
31.12000 23.326
31.13000 21.364
31.14000 45.549
31.15000 35.386
31.16000 29.250
31.17000 35.525
31.18000 32.731
31.19000 34.441
31.20000 29.450
31.21000 36.666
31.22000 34.233
31.23000 33.502
31.24000 50.552
31.25000 33.406
31.26000 29.302
31.27000 33.480
31.28000 41.262
31.29000 27.554
31.30000 31.299
31.31000 26.435
31.32000 27.527
31.33000 27.158
31.34000 35.468
31.35000 30.424
31.36000 40.664
31.37000 25.254
31.38000 42.313
31.39000 28.445
31.40000 38.582
31.41000 27.356
31.42000 38.546
31.43000 24.497
31.44000 36.261
31.45000 28.283
31.46000 29.225
31.47000 31.611
31.48000 24.328
31.49000 32.671
31.50000 33.465
31.51000 31.440
31.52000 28.430
31.53000 30.223
31.54000 29.560
31.55000 33.218
31.56000 31.238
31.57000 35.409
31.58000 36.546
31.59000 22.311
31.60000 29.532
31.61000 29.623
31.62000 25.300
31.63000 33.653
31.64000 33.469
31.65000 37.529
31.66000 23.386
31.67000 41.326
31.68000 25.081
31.69000 32.623
31.70000 20.195
31.71000 36.419
31.72000 30.371
31.73000 32.356
31.74000 32.658
31.75000 21.181
31.76000 27.370
31.77000 37.625
31.78000 26.475
31.79000 28.199
31.80000 19.412
31.81000 19.231
31.82000 30.434
31.83000 29.534
31.84000 28.735
31.85000 23.173
31.86000 21.217
31.87000 29.488
31.88000 28.483
31.89000 32.366
31.90000 27.353
31.91000 24.348
31.92000 20.204
31.93000 30.487
31.94000 22.428
31.95000 36.236
31.96000 27.313
31.97000 28.376
31.98000 29.464
31.99000 28.656
32.00000 26.527
32.01000 27.299
32.02000 30.470
32.03000 23.067
32.04000 34.494
32.05000 23.275
32.06000 26.478
32.07000 31.571
32.08000 39.550
32.09000 37.456
32.10000 27.385
32.11000 36.713
32.12000 22.363
32.13000 21.145
32.14000 23.266
32.15000 27.364
32.16000 25.179
32.17000 25.281
32.18000 30.446
32.19000 31.690
32.20000 34.633
32.21000 36.427
32.22000 29.140
32.23000 33.353
32.24000 26.415
32.25000 22.225
32.26000 48.453
32.27000 27.470
32.28000 20.319
32.29000 26.597
32.30000 41.723
32.31000 29.311
32.32000 28.563
32.33000 24.418
32.34000 36.555
32.35000 22.164
32.36000 26.452
32.37000 32.209
32.38000 23.331
32.39000 30.519
32.40000 29.324
32.41000 30.178
32.42000 34.595
32.43000 25.249
32.44000 25.485
32.45000 30.313
32.46000 30.551
32.47000 25.391
32.48000 28.067
32.49000 33.221
32.50000 32.712
32.51000 25.359
32.52000 30.108
32.53000 20.209
32.54000 28.616
32.55000 28.303
32.56000 37.530
32.57000 33.546
32.58000 23.191
32.59000 22.198
32.60000 27.307
32.61000 25.267
32.62000 34.398
32.63000 28.248
32.64000 21.349
32.65000 26.118
32.66000 27.437
32.67000 22.370
32.68000 28.420
32.69000 26.311
32.70000 26.247
32.71000 18.105
32.72000 33.503
32.73000 25.361
32.74000 28.778
32.75000 25.437
32.76000 24.386
32.77000 32.118
32.78000 23.309
32.79000 23.159
32.80000 24.264
32.81000 35.288
32.82000 26.347
32.83000 19.349
32.84000 28.323
32.85000 30.396
32.86000 35.289
32.87000 19.260
32.88000 27.708
32.89000 25.111
32.90000 17.317
32.91000 15.234
32.92000 29.460
32.93000 21.167
32.94000 26.348
32.95000 25.327
32.96000 20.166
32.97000 21.282
32.98000 26.327
32.99000 23.168
33.00000 25.212
33.01000 29.484
33.02000 22.286
33.03000 24.443
33.04000 26.248
33.05000 26.403
33.06000 20.247
33.07000 15.155
33.08000 17.189
33.09000 22.280
33.10000 23.345
33.11000 16.108
33.12000 22.150
33.13000 15.144
33.14000 21.383
33.15000 19.320
33.16000 26.319
33.17000 21.328
33.18000 18.027
33.19000 25.386
33.20000 15.094
33.21000 22.181
33.22000 29.449
33.23000 23.283
33.24000 17.116
33.25000 26.204
33.26000 20.169
33.27000 22.318
33.28000 19.161
33.29000 28.387
33.30000 17.352
33.31000 21.390
33.32000 21.254
33.33000 27.270
33.34000 19.427
33.35000 15.310
33.36000 21.252
33.37000 20.433
33.38000 21.278
33.39000 17.212
33.40000 23.390
33.41000 18.163
33.42000 23.423
33.43000 20.097
33.44000 28.148
33.45000 23.218
33.46000 23.426
33.47000 28.482
33.48000 20.210
33.49000 24.301
33.50000 27.297
33.51000 20.178
33.52000 19.221
33.53000 26.376
33.54000 23.307
33.55000 22.270
33.56000 13.057
33.57000 25.266
33.58000 20.358
33.59000 27.333
33.60000 32.532
33.61000 19.091
33.62000 29.396
33.63000 19.315
33.64000 19.173
33.65000 22.308
33.66000 22.355
33.67000 21.559
33.68000 19.207
33.69000 23.409
33.70000 24.275
33.71000 14.345
33.72000 22.210
33.73000 22.203
33.74000 25.290
33.75000 19.252
33.76000 21.314
33.77000 17.264
33.78000 27.425
33.79000 19.375
33.80000 18.553
33.81000 8.143
33.82000 24.182
33.83000 18.323
33.84000 25.422
33.85000 30.509
33.86000 16.280
33.87000 19.287
33.88000 22.177
33.89000 13.061
33.90000 22.425
33.91000 20.334
33.92000 26.237
33.93000 21.351
33.94000 19.312
33.95000 18.108
33.96000 16.101
33.97000 13.164
33.98000 16.224
33.99000 29.363
34.00000 24.276
34.01000 15.095
34.02000 23.467
34.03000 20.316
34.04000 15.147
34.05000 22.298
34.06000 20.286
34.07000 21.233
34.08000 16.210
34.09000 18.233
34.10000 22.193
34.11000 19.177
34.12000 22.452
34.13000 21.270
34.14000 21.087
34.15000 18.215
34.16000 20.316
34.17000 15.227
34.18000 17.128
34.19000 16.294
34.20000 23.412
34.21000 15.201
34.22000 23.101
34.23000 26.299
34.24000 25.430
34.25000 26.284
34.26000 17.497
34.27000 19.143
34.28000 16.330
34.29000 16.220
34.30000 28.251
34.31000 18.458
34.32000 20.175
34.33000 25.468
34.34000 18.153
34.35000 19.114
34.36000 15.222
34.37000 28.394
34.38000 15.048
34.39000 21.313
34.40000 21.341
34.41000 20.195
34.42000 16.058
34.43000 19.065
34.44000 20.300
34.45000 14.179
34.46000 15.344
34.47000 14.293
34.48000 27.470
34.49000 20.212
34.50000 15.014
34.51000 23.075
34.52000 22.131
34.53000 15.137
34.54000 19.365
34.55000 15.330
34.56000 18.159
34.57000 19.258
34.58000 21.277
34.59000 12.120
34.60000 23.574
34.61000 24.371
34.62000 24.284
34.63000 15.180
34.64000 16.132
34.65000 24.393
34.66000 22.303
34.67000 14.325
34.68000 16.129
34.69000 17.205
34.70000 8.037
34.71000 23.495
34.72000 19.316
34.73000 26.294
34.74000 26.228
34.75000 27.353
34.76000 18.184
34.77000 19.320
34.78000 25.262
34.79000 15.146
34.80000 17.148
34.81000 19.394
34.82000 17.210
34.83000 22.247
34.84000 21.256
34.85000 23.185
34.86000 14.179
34.87000 24.234
34.88000 25.155
34.89000 17.285
34.90000 18.214
34.91000 17.280
34.92000 26.445
34.93000 14.081
34.94000 17.130
34.95000 17.371
34.96000 16.059
34.97000 19.277
34.98000 17.249
34.99000 16.208
35.00000 14.314
35.01000 16.134
35.02000 18.275
35.03000 18.383
35.04000 14.093
35.05000 21.314
35.06000 18.305
35.07000 18.264
35.08000 20.287
35.09000 16.246
35.10000 11.113
35.11000 16.203
35.12000 12.088
35.13000 9.157
35.14000 14.356
35.15000 22.266
35.16000 24.403
35.17000 13.277
35.18000 19.257
35.19000 13.398
35.20000 15.039
35.21000 22.340
35.22000 18.354
35.23000 17.087
35.24000 25.129
35.25000 29.190
35.26000 19.332
35.27000 19.216
35.28000 12.253
35.29000 21.206
35.30000 12.170
35.31000 21.556
35.32000 13.218
35.33000 15.200
35.34000 21.426
35.35000 17.302
35.36000 16.218
35.37000 16.283
35.38000 17.250
35.39000 20.347
35.40000 13.111
35.41000 16.392
35.42000 14.233
35.43000 12.239
35.44000 20.134
35.45000 19.326
35.46000 10.290
35.47000 13.203
35.48000 17.373
35.49000 14.029
35.50000 26.353
35.51000 16.265
35.52000 16.122
35.53000 26.338
35.54000 18.342
35.55000 17.222
35.56000 13.189
35.57000 18.422
35.58000 17.255
35.59000 22.459
35.60000 17.167
35.61000 21.175
35.62000 12.141
35.63000 19.148
35.64000 13.017
35.65000 9.152
35.66000 24.162
35.67000 21.575
35.68000 20.237
35.69000 24.230
35.70000 19.200
35.71000 18.442
35.72000 26.426
35.73000 23.317
35.74000 26.376
35.75000 24.381
35.76000 18.271
35.77000 21.272
35.78000 16.183
35.79000 15.209
35.80000 16.287
35.81000 23.435
35.82000 15.974
35.83000 22.229
35.84000 18.248
35.85000 17.210
35.86000 19.239
35.87000 17.182
35.88000 16.113
35.89000 19.193
35.90000 19.364
35.91000 28.200
35.92000 20.233
35.93000 24.121
35.94000 11.136
35.95000 21.188
35.96000 26.322
35.97000 16.459
35.98000 18.266
35.99000 14.169
36.00000 18.142
36.01000 12.317
36.02000 16.290
36.03000 12.106
36.04000 24.273
36.05000 22.341
36.06000 14.148
36.07000 19.236
36.08000 20.094
36.09000 20.231
36.10000 12.139
36.11000 22.207
36.12000 18.064
36.13000 24.297
36.14000 25.059
36.15000 19.337
36.16000 14.250
36.17000 17.052
36.18000 23.348
36.19000 17.304
36.20000 22.450
36.21000 20.269
36.22000 15.105
36.23000 13.189
36.24000 14.082
36.25000 19.257
36.26000 14.120
36.27000 17.363
36.28000 25.405
36.29000 18.414
36.30000 16.201
36.31000 10.103
36.32000 19.163
36.33000 18.408
36.34000 23.510
36.35000 19.179
36.36000 13.149
36.37000 14.067
36.38000 15.125
36.39000 28.250
36.40000 20.219
36.41000 13.133
36.42000 17.182
36.43000 33.575
36.44000 17.314
36.45000 22.203
36.46000 20.290
36.47000 16.424
36.48000 16.190
36.49000 18.310
36.50000 18.179
36.51000 27.106
36.52000 17.257
36.53000 23.066
36.54000 16.241
36.55000 22.284
36.56000 20.230
36.57000 23.176
36.58000 23.330
36.59000 23.279
36.60000 14.133
36.61000 29.344
36.62000 20.311
36.63000 17.989
36.64000 18.317
36.65000 17.252
36.66000 16.268
36.67000 23.232
36.68000 16.165
36.69000 20.202
36.70000 16.114
36.71000 23.296
36.72000 22.306
36.73000 18.231
36.74000 25.294
36.75000 20.379
36.76000 15.196
36.77000 25.410
36.78000 18.285
36.79000 20.136
36.80000 28.393
36.81000 28.340
36.82000 12.062
36.83000 21.371
36.84000 23.271
36.85000 20.195
36.86000 25.447
36.87000 24.108
36.88000 16.124
36.89000 20.081
36.90000 18.188
36.91000 18.417
36.92000 14.110
36.93000 30.411
36.94000 14.200
36.95000 17.152
36.96000 11.013
36.97000 21.132
36.98000 16.065
36.99000 16.274
37.00000 23.297
37.01000 23.217
37.02000 19.285
37.03000 11.972
37.04000 20.202
37.05000 21.266
37.06000 12.225
37.07000 21.465
37.08000 20.312
37.09000 17.276
37.10000 21.301
37.11000 18.237
37.12000 19.164
37.13000 28.169
37.14000 14.332
37.15000 20.424
37.16000 16.100
37.17000 23.429
37.18000 22.397
37.19000 14.181
37.20000 18.115
37.21000 13.277
37.22000 27.369
37.23000 21.195
37.24000 17.196
37.25000 21.421
37.26000 20.184
37.27000 20.552
37.28000 21.292
37.29000 17.348
37.30000 22.291
37.31000 16.216
37.32000 23.291
37.33000 15.263
37.34000 20.403
37.35000 23.172
37.36000 22.297
37.37000 22.258
37.38000 21.336
37.39000 19.347
37.40000 11.180
37.41000 23.453
37.42000 25.451
37.43000 24.340
37.44000 19.060
37.45000 9.107
37.46000 21.217
37.47000 21.380
37.48000 19.355
37.49000 26.334
37.50000 23.346
37.51000 22.039
37.52000 18.093
37.53000 13.073
37.54000 20.383
37.55000 18.328
37.56000 19.079
37.57000 20.508
37.58000 15.209
37.59000 24.157
37.60000 24.473
37.61000 14.114
37.62000 24.432
37.63000 22.159
37.64000 21.277
37.65000 15.218
37.66000 18.125
37.67000 21.221
37.68000 11.195
37.69000 16.138
37.70000 30.271
37.71000 20.109
37.72000 23.354
37.73000 24.580
37.74000 19.322
37.75000 18.219
37.76000 28.318
37.77000 18.275
37.78000 16.250
37.79000 23.371
37.80000 14.242
37.81000 14.189
37.82000 21.335
37.83000 13.195
37.84000 22.340
37.85000 25.295
37.86000 15.288
37.87000 20.110
37.88000 11.109
37.89000 26.407
37.90000 21.280
37.91000 18.186
37.92000 18.163
37.93000 27.340
37.94000 20.174
37.95000 24.317
37.96000 17.215
37.97000 22.139
37.98000 13.063
37.99000 21.115
38.00000 16.150
38.01000 19.365
38.02000 15.230
38.03000 16.170
38.04000 18.426
38.05000 24.287
38.06000 18.240
38.07000 29.366
38.08000 26.316
38.09000 17.200
38.10000 18.298
38.11000 13.123
38.12000 16.083
38.13000 23.422
38.14000 26.487
38.15000 20.153
38.16000 27.440
38.17000 18.381
38.18000 18.292
38.19000 16.134
38.20000 18.431
38.21000 21.385
38.22000 17.382
38.23000 28.178
38.24000 30.559
38.25000 22.576
38.26000 25.642
38.27000 19.176
38.28000 20.275
38.29000 20.342
38.30000 18.178
38.31000 19.039
38.32000 29.476
38.33000 18.206
38.34000 17.315
38.35000 24.141
38.36000 27.347
38.37000 31.470
38.38000 12.194
38.39000 15.306
38.40000 29.411
38.41000 20.312
38.42000 17.261
38.43000 18.087
38.44000 15.303
38.45000 26.496
38.46000 20.195
38.47000 13.146
38.48000 28.496
38.49000 16.375
38.50000 21.390
38.51000 19.199
38.52000 34.292
38.53000 22.212
38.54000 25.404
38.55000 19.180
38.56000 29.361
38.57000 31.509
38.58000 19.096
38.59000 15.121
38.60000 22.392
38.61000 19.124
38.62000 15.220
38.63000 20.331
38.64000 18.210
38.65000 20.340
38.66000 19.172
38.67000 24.325
38.68000 24.282
38.69000 26.389
38.70000 28.592
38.71000 17.277
38.72000 19.329
38.73000 18.315
38.74000 20.202
38.75000 23.333
38.76000 28.514
38.77000 29.466
38.78000 26.333
38.79000 21.275
38.80000 29.470
38.81000 27.376
38.82000 22.245
38.83000 18.520
38.84000 21.207
38.85000 21.472
38.86000 23.220
38.87000 17.246
38.88000 22.101
38.89000 15.235
38.90000 19.394
38.91000 14.086
38.92000 19.167
38.93000 25.374
38.94000 23.296
38.95000 22.287
38.96000 22.217
38.97000 21.270
38.98000 23.369
38.99000 19.380
39.00000 17.305
39.01000 23.211
39.02000 18.194
39.03000 18.340
39.04000 24.460
39.05000 11.202
39.06000 21.336
39.07000 17.140
39.08000 24.463
39.09000 15.345
39.10000 18.240
39.11000 25.193
39.12000 20.358
39.13000 21.197
39.14000 40.715
39.15000 13.065
39.16000 28.374
39.17000 20.096
39.18000 18.314
39.19000 16.196
39.20000 27.276
39.21000 18.159
39.22000 24.431
39.23000 19.198
39.24000 18.306
39.25000 23.257
39.26000 25.182
39.27000 28.401
39.28000 31.476
39.29000 19.366
39.30000 20.351
39.31000 24.194
39.32000 21.257
39.33000 21.135
39.34000 16.305
39.35000 26.274
39.36000 23.022
39.37000 20.249
39.38000 33.429
39.39000 21.293
39.40000 24.246
39.41000 24.334
39.42000 18.519
39.43000 11.173
39.44000 24.320
39.45000 26.484
39.46000 22.543
39.47000 26.551
39.48000 20.268
39.49000 19.194
39.50000 18.425
39.51000 18.117
39.52000 28.435
39.53000 18.319
39.54000 16.152
39.55000 15.275
39.56000 22.320
39.57000 17.163
39.58000 15.101
39.59000 18.266
39.60000 19.441
39.61000 22.430
39.62000 23.248
39.63000 14.191
39.64000 23.268
39.65000 21.462
39.66000 23.342
39.67000 23.435
39.68000 18.393
39.69000 22.357
39.70000 23.286
39.71000 18.177
39.72000 25.454
39.73000 17.183
39.74000 19.154
39.75000 35.380
39.76000 24.389
39.77000 15.168
39.78000 26.477
39.79000 24.215
39.80000 32.262
39.81000 23.300
39.82000 29.556
39.83000 20.318
39.84000 20.206
39.85000 21.284
39.86000 21.409
39.87000 24.395
39.88000 24.223
39.89000 21.121
39.90000 18.364
39.91000 31.465
39.92000 23.278
39.93000 23.163
39.94000 25.314
39.95000 14.319
39.96000 21.328
39.97000 16.162
39.98000 19.309
39.99000 23.297
40.00000 19.283
40.01000 19.180
40.02000 24.422
40.03000 27.451
40.04000 15.100
40.05000 22.232
40.06000 25.209
40.07000 23.432
40.08000 27.605
40.09000 19.243
40.10000 26.393
40.11000 30.317
40.12000 28.385
40.13000 20.312
40.14000 25.197
40.15000 16.498
40.16000 21.405
40.17000 14.170
40.18000 22.276
40.19000 15.226
40.20000 14.201
40.21000 23.274
40.22000 17.129
40.23000 25.265
40.24000 19.371
40.25000 24.304
40.26000 26.070
40.27000 26.436
40.28000 17.219
40.29000 29.377
40.30000 21.330
40.31000 26.429
40.32000 16.213
40.33000 17.361
40.34000 33.448
40.35000 27.353
40.36000 11.154
40.37000 17.191
40.38000 11.233
40.39000 27.220
40.40000 24.304
40.41000 26.368
40.42000 24.286
40.43000 16.221
40.44000 26.260
40.45000 26.398
40.46000 31.469
40.47000 15.232
40.48000 24.185
40.49000 24.115
40.50000 29.341
40.51000 21.052
40.52000 26.469
40.53000 22.303
40.54000 19.093
40.55000 18.231
40.56000 15.258
40.57000 21.311
40.58000 37.536
40.59000 25.345
40.60000 26.767
40.61000 18.228
40.62000 30.488
40.63000 26.514
40.64000 24.518
40.65000 20.348
40.66000 18.163
40.67000 20.445
40.68000 27.491
40.69000 22.217
40.70000 25.325
40.71000 24.485
40.72000 16.142
40.73000 26.470
40.74000 28.363
40.75000 22.238
40.76000 16.283
40.77000 22.277
40.78000 22.371
40.79000 18.181
40.80000 25.204
40.81000 18.109
40.82000 34.457
40.83000 23.256
40.84000 25.233
40.85000 18.313
40.86000 25.460
40.87000 15.205
40.88000 23.319
40.89000 19.501
40.90000 35.348
40.91000 20.241
40.92000 19.301
40.93000 28.611
40.94000 26.196
40.95000 18.177
40.96000 17.127
40.97000 30.366
40.98000 23.176
40.99000 20.398
41.00000 16.162
41.01000 21.333
41.02000 23.354
41.03000 30.439
41.04000 27.260
41.05000 23.326
41.06000 28.422
41.07000 21.477
41.08000 22.399
41.09000 19.127
41.10000 11.266
41.11000 24.383
41.12000 25.296
41.13000 20.340
41.14000 25.193
41.15000 21.386
41.16000 19.404
41.17000 23.455
41.18000 26.315
41.19000 26.244
41.20000 21.393
41.21000 18.196
41.22000 20.150
41.23000 17.152
41.24000 23.318
41.25000 18.062
41.26000 27.463
41.27000 24.451
41.28000 28.284
41.29000 33.366
41.30000 22.210
41.31000 29.674
41.32000 17.308
41.33000 25.284
41.34000 25.310
41.35000 21.214
41.36000 22.393
41.37000 23.437
41.38000 21.350
41.39000 23.462
41.40000 18.242
41.41000 23.143
41.42000 21.385
41.43000 27.588
41.44000 14.073
41.45000 27.378
41.46000 23.420
41.47000 20.233
41.48000 28.358
41.49000 22.316
41.50000 16.210
41.51000 21.206
41.52000 25.377
41.53000 21.106
41.54000 23.429
41.55000 21.319
41.56000 23.109
41.57000 18.135
41.58000 25.515
41.59000 34.771
41.60000 19.322
41.61000 23.289
41.62000 19.367
41.63000 24.263
41.64000 19.137
41.65000 14.064
41.66000 24.185
41.67000 24.570
41.68000 25.095
41.69000 25.305
41.70000 20.169
41.71000 17.081
41.72000 23.323
41.73000 13.356
41.74000 26.227
41.75000 26.139
41.76000 26.042
41.77000 24.387
41.78000 30.456
41.79000 22.212
41.80000 20.304
41.81000 24.553
41.82000 24.405
41.83000 20.265
41.84000 18.068
41.85000 19.432
41.86000 12.283
41.87000 18.366
41.88000 22.377
41.89000 27.279
41.90000 25.462
41.91000 17.149
41.92000 24.502
41.93000 21.285
41.94000 20.137
41.95000 29.153
41.96000 21.461
41.97000 18.143
41.98000 23.233
41.99000 27.418
42.00000 17.181
42.01000 19.163
42.02000 15.233
42.03000 18.364
42.04000 18.093
42.05000 19.353
42.06000 21.535
42.07000 15.135
42.08000 19.958
42.09000 27.535
42.10000 18.129
42.11000 20.274
42.12000 21.390
42.13000 15.144
42.14000 26.085
42.15000 23.216
42.16000 23.301
42.17000 17.136
42.18000 23.527
42.19000 23.266
42.20000 22.400
42.21000 28.376
42.22000 21.138
42.23000 20.196
42.24000 19.090
42.25000 17.364
42.26000 24.251
42.27000 23.335
42.28000 19.076
42.29000 21.238
42.30000 23.301
42.31000 17.190
42.32000 15.302
42.33000 15.181
42.34000 20.251
42.35000 21.114
42.36000 18.320
42.37000 21.374
42.38000 16.182
42.39000 19.424
42.40000 21.246
42.41000 25.231
42.42000 35.454
42.43000 29.327
42.44000 26.352
42.45000 19.274
42.46000 20.251
42.47000 18.236
42.48000 17.229
42.49000 23.284
42.50000 18.176
42.51000 32.283
42.52000 17.184
42.53000 18.965
42.54000 16.122
42.55000 17.056
42.56000 16.163
42.57000 19.291
42.58000 21.195
42.59000 26.068
42.60000 23.227
42.61000 26.330
42.62000 26.219
42.63000 15.089
42.64000 21.350
42.65000 21.411
42.66000 20.374
42.67000 24.332
42.68000 14.123
42.69000 23.345
42.70000 18.107
42.71000 29.374
42.72000 19.494
42.73000 23.256
42.74000 21.443
42.75000 20.213
42.76000 20.282
42.77000 26.352
42.78000 22.341
42.79000 29.453
42.80000 20.196
42.81000 20.234
42.82000 16.065
42.83000 16.203
42.84000 16.169
42.85000 20.125
42.86000 17.196
42.87000 24.185
42.88000 24.341
42.89000 22.364
42.90000 21.361
42.91000 10.081
42.92000 29.314
42.93000 14.228
42.94000 21.334
42.95000 17.202
42.96000 20.356
42.97000 15.181
42.98000 22.319
42.99000 17.335
43.00000 16.277
43.01000 22.265
43.02000 24.268
43.03000 22.305
43.04000 20.281
43.05000 20.447
43.06000 21.006
43.07000 21.465
43.08000 22.251
43.09000 23.375
43.10000 14.158
43.11000 22.358
43.12000 30.249
43.13000 25.213
43.14000 20.275
43.15000 26.291
43.16000 19.272
43.17000 17.317
43.18000 22.230
43.19000 21.265
43.20000 21.284
43.21000 23.446
43.22000 28.240
43.23000 26.185
43.24000 18.188
43.25000 26.225
43.26000 17.213
43.27000 13.261
43.28000 15.317
43.29000 18.122
43.30000 28.302
43.31000 28.419
43.32000 14.355
43.33000 19.136
43.34000 24.301
43.35000 15.080
43.36000 18.286
43.37000 22.303
43.38000 32.399
43.39000 19.167
43.40000 18.293
43.41000 28.261
43.42000 23.231
43.43000 30.235
43.44000 21.475
43.45000 20.359
43.46000 19.461
43.47000 26.280
43.48000 26.400
43.49000 26.198
43.50000 20.234
43.51000 11.254
43.52000 15.216
43.53000 17.184
43.54000 24.258
43.55000 17.269
43.56000 19.209
43.57000 20.180
43.58000 15.421
43.59000 13.150
43.60000 28.416
43.61000 21.445
43.62000 29.273
43.63000 21.241
43.64000 23.247
43.65000 18.129
43.66000 26.425
43.67000 24.276
43.68000 25.466
43.69000 22.118
43.70000 20.196
43.71000 14.110
43.72000 17.127
43.73000 15.156
43.74000 25.362
43.75000 39.681
43.76000 24.270
43.77000 20.154
43.78000 29.430
43.79000 21.295
43.80000 17.261
43.81000 21.217
43.82000 22.154
43.83000 23.392
43.84000 19.350
43.85000 21.382
43.86000 14.253
43.87000 24.364
43.88000 22.271
43.89000 15.399
43.90000 19.487
43.91000 19.322
43.92000 21.282
43.93000 25.293
43.94000 19.278
43.95000 21.407
43.96000 22.147
43.97000 14.137
43.98000 31.471
43.99000 19.099
44.00000 19.108
44.01000 18.283
44.02000 20.416
44.03000 22.384
44.04000 31.616
44.05000 17.186
44.06000 15.262
44.07000 22.196
44.08000 16.265
44.09000 23.345
44.10000 20.285
44.11000 29.408
44.12000 19.232
44.13000 21.182
44.14000 22.294
44.15000 27.254
44.16000 29.340
44.17000 28.437
44.18000 24.144
44.19000 21.352
44.20000 21.265
44.21000 25.258
44.22000 23.438
44.23000 25.506
44.24000 27.128
44.25000 24.424
44.26000 20.354
44.27000 27.371
44.28000 17.174
44.29000 15.174
44.30000 17.363
44.31000 21.542
44.32000 26.275
44.33000 28.192
44.34000 18.254
44.35000 23.236
44.36000 28.023
44.37000 18.120
44.38000 22.304
44.39000 22.233
44.40000 23.211
44.41000 15.111
44.42000 29.307
44.43000 21.223
44.44000 15.249
44.45000 24.264
44.46000 18.402
44.47000 24.458
44.48000 25.448
44.49000 25.408
44.50000 25.420
44.51000 21.241
44.52000 16.082
44.53000 16.091
44.54000 27.312
44.55000 24.167
44.56000 22.365
44.57000 19.431
44.58000 17.159
44.59000 19.175
44.60000 13.138
44.61000 16.083
44.62000 19.365
44.63000 20.188
44.64000 21.188
44.65000 25.342
44.66000 25.127
44.67000 26.313
44.68000 24.302
44.69000 21.265
44.70000 17.269
44.71000 22.407
44.72000 21.253
44.73000 30.241
44.74000 20.276
44.75000 28.335
44.76000 14.124
44.77000 24.279
44.78000 26.322
44.79000 16.247
44.80000 25.288
44.81000 23.170
44.82000 18.155
44.83000 15.140
44.84000 16.152
44.85000 15.162
44.86000 19.122
44.87000 24.352
44.88000 28.529
44.89000 27.188
44.90000 13.139
44.91000 22.049
44.92000 26.139
44.93000 18.241
44.94000 16.158
44.95000 21.461
44.96000 25.366
44.97000 15.281
44.98000 18.192
44.99000 19.184
45.00000 21.332
45.01000 30.342
45.02000 24.302
45.03000 19.320
45.04000 20.207
45.05000 20.210
45.06000 18.285
45.07000 16.151
45.08000 27.360
45.09000 14.293
45.10000 16.240
45.11000 26.329
45.12000 16.143
45.13000 23.237
45.14000 16.271
45.15000 22.317
45.16000 10.199
45.17000 23.298
45.18000 21.145
45.19000 15.347
45.20000 25.371
45.21000 18.098
45.22000 15.255
45.23000 14.168
45.24000 17.278
45.25000 27.211
45.26000 20.310
45.27000 23.280
45.28000 17.134
45.29000 28.374
45.30000 21.365
45.31000 21.257
45.32000 22.154
45.33000 20.355
45.34000 20.052
45.35000 22.170
45.36000 23.358
45.37000 26.496
45.38000 19.448
45.39000 22.317
45.40000 20.436
45.41000 25.385
45.42000 28.512
45.43000 17.363
45.44000 22.102
45.45000 14.279
45.46000 21.362
45.47000 15.351
45.48000 27.432
45.49000 13.201
45.50000 10.209
45.51000 14.352
45.52000 25.138
45.53000 27.309
45.54000 21.108
45.55000 30.409
45.56000 22.285
45.57000 23.235
45.58000 26.442
45.59000 22.127
45.60000 26.405
45.61000 22.317
45.62000 17.274
45.63000 20.233
45.64000 32.370
45.65000 18.237
45.66000 22.309
45.67000 28.299
45.68000 19.192
45.69000 16.288
45.70000 22.231
45.71000 23.270
45.72000 25.200
45.73000 22.317
45.74000 25.281
45.75000 19.251
45.76000 26.447
45.77000 21.272
45.78000 24.441
45.79000 24.161
45.80000 23.396
45.81000 25.299
45.82000 17.073
45.83000 17.310
45.84000 26.227
45.85000 25.154
45.86000 18.279
45.87000 20.234
45.88000 17.184
45.89000 20.246
45.90000 18.311
45.91000 24.159
45.92000 29.401
45.93000 23.231
45.94000 27.335
45.95000 24.508
45.96000 24.312
45.97000 24.280
45.98000 21.267
45.99000 21.419
46.00000 19.145
46.01000 21.208
46.02000 20.424
46.03000 19.337
46.04000 24.310
46.05000 25.529
46.06000 20.286
46.07000 26.322
46.08000 28.509
46.09000 26.337
46.10000 18.118
46.11000 29.665
46.12000 20.351
46.13000 20.324
46.14000 24.442
46.15000 20.309
46.16000 18.220
46.17000 25.131
46.18000 19.209
46.19000 28.432
46.20000 22.178
46.21000 21.316
46.22000 16.346
46.23000 23.124
46.24000 23.405
46.25000 25.312
46.26000 25.235
46.27000 20.410
46.28000 24.274
46.29000 12.184
46.30000 21.198
46.31000 26.352
46.32000 22.405
46.33000 24.232
46.34000 22.430
46.35000 27.515
46.36000 16.192
46.37000 20.071
46.38000 26.401
46.39000 21.348
46.40000 26.468
46.41000 21.254
46.42000 16.239
46.43000 23.301
46.44000 17.255
46.45000 22.299
46.46000 15.332
46.47000 19.203
46.48000 28.188
46.49000 26.325
46.50000 25.401
46.51000 17.282
46.52000 27.500
46.53000 15.170
46.54000 25.273
46.55000 26.418
46.56000 23.339
46.57000 21.141
46.58000 25.281
46.59000 22.452
46.60000 27.399
46.61000 22.278
46.62000 17.233
46.63000 19.343
46.64000 18.286
46.65000 21.420
46.66000 32.306
46.67000 25.431
46.68000 23.369
46.69000 20.422
46.70000 19.300
46.71000 17.372
46.72000 13.190
46.73000 19.146
46.74000 24.448
46.75000 20.192
46.76000 21.241
46.77000 17.365
46.78000 24.408
46.79000 9.135
46.80000 24.372
46.81000 28.500
46.82000 25.322
46.83000 26.214
46.84000 21.360
46.85000 23.325
46.86000 20.473
46.87000 21.255
46.88000 26.360
46.89000 22.203
46.90000 23.056
46.91000 23.442
46.92000 23.471
46.93000 15.190
46.94000 17.266
46.95000 19.368
46.96000 14.164
46.97000 16.055
46.98000 18.247
46.99000 21.223
47.00000 18.386
47.01000 17.184
47.02000 16.142
47.03000 20.411
47.04000 19.207
47.05000 18.391
47.06000 20.410
47.07000 21.475
47.08000 17.223
47.09000 17.380
47.10000 21.258
47.11000 19.287
47.12000 16.246
47.13000 19.418
47.14000 14.303
47.15000 16.105
47.16000 27.306
47.17000 22.292
47.18000 27.400
47.19000 22.239
47.20000 27.462
47.21000 19.212
47.22000 22.272
47.23000 8.045
47.24000 21.097
47.25000 21.337
47.26000 17.034
47.27000 15.035
47.28000 20.441
47.29000 18.343
47.30000 20.138
47.31000 26.540
47.32000 15.235
47.33000 21.357
47.34000 18.341
47.35000 19.387
47.36000 16.432
47.37000 25.410
47.38000 24.283
47.39000 19.287
47.40000 18.236
47.41000 23.268
47.42000 20.413
47.43000 12.184
47.44000 14.208
47.45000 24.273
47.46000 14.049
47.47000 27.387
47.48000 23.506
47.49000 14.311
47.50000 8.964
47.51000 18.224
47.52000 15.188
47.53000 27.200
47.54000 21.221
47.55000 10.098
47.56000 18.217
47.57000 15.189
47.58000 20.264
47.59000 24.446
47.60000 15.203
47.61000 16.316
47.62000 21.420
47.63000 27.326
47.64000 18.256
47.65000 17.253
47.66000 12.119
47.67000 13.191
47.68000 22.213
47.69000 20.283
47.70000 18.061
47.71000 24.221
47.72000 25.428
47.73000 21.473
47.74000 18.241
47.75000 13.194
47.76000 20.209
47.77000 19.204
47.78000 25.205
47.79000 17.027
47.80000 16.088
47.81000 20.089
47.82000 24.293
47.83000 19.359
47.84000 19.274
47.85000 17.248
47.86000 19.150
47.87000 18.314
47.88000 16.258
47.89000 24.431
47.90000 14.013
47.91000 11.151
47.92000 20.521
47.93000 16.380
47.94000 14.190
47.95000 20.184
47.96000 17.305
47.97000 14.041
47.98000 19.277
47.99000 20.280
48.00000 24.581
48.01000 20.226
48.02000 19.335
48.03000 17.228
48.04000 24.110
48.05000 25.242
48.06000 14.178
48.07000 21.373
48.08000 16.254
48.09000 22.467
48.10000 23.231
48.11000 24.296
48.12000 19.307
48.13000 13.154
48.14000 8.078
48.15000 15.236
48.16000 18.237
48.17000 18.173
48.18000 11.124
48.19000 25.368
48.20000 19.378
48.21000 11.220
48.22000 17.179
48.23000 19.202
48.24000 18.231
48.25000 20.174
48.26000 23.403
48.27000 19.180
48.28000 20.449
48.29000 18.290
48.30000 17.203
48.31000 21.033
48.32000 15.234
48.33000 24.297
48.34000 23.389
48.35000 15.186
48.36000 14.200
48.37000 11.175
48.38000 17.242
48.39000 18.432
48.40000 18.257
48.41000 15.135
48.42000 20.296
48.43000 24.362
48.44000 18.195
48.45000 17.140
48.46000 19.166
48.47000 21.093
48.48000 24.387
48.49000 22.285
48.50000 15.117
48.51000 19.152
48.52000 24.406
48.53000 17.177
48.54000 20.169
48.55000 18.310
48.56000 28.456
48.57000 19.265
48.58000 19.120
48.59000 22.483
48.60000 25.413
48.61000 15.196
48.62000 22.207
48.63000 23.188
48.64000 21.239
48.65000 14.141
48.66000 23.099
48.67000 19.173
48.68000 20.358
48.69000 24.437
48.70000 12.207
48.71000 9.182
48.72000 17.174
48.73000 18.224
48.74000 22.288
48.75000 29.212
48.76000 15.192
48.77000 21.300
48.78000 15.110
48.79000 22.181
48.80000 14.172
48.81000 14.099
48.82000 24.298
48.83000 21.450
48.84000 12.106
48.85000 22.409
48.86000 17.172
48.87000 13.291
48.88000 13.267
48.89000 14.054
48.90000 22.230
48.91000 17.198
48.92000 20.223
48.93000 23.193
48.94000 17.377
48.95000 9.106
48.96000 20.970
48.97000 17.189
48.98000 20.176
48.99000 20.215
49.00000 19.459
49.01000 12.293
49.02000 21.142
49.03000 18.419
49.04000 16.209
49.05000 16.207
49.06000 16.078
49.07000 23.431
49.08000 23.296
49.09000 17.216
49.10000 11.140
49.11000 18.401
49.12000 13.269
49.13000 28.294
49.14000 14.192
49.15000 16.321
49.16000 19.326
49.17000 15.327
49.18000 11.213
49.19000 15.200
49.20000 11.158
49.21000 23.164
49.22000 14.203
49.23000 19.126
49.24000 19.277
49.25000 23.545
49.26000 18.199
49.27000 21.334
49.28000 20.314
49.29000 20.173
49.30000 16.151
49.31000 19.077
49.32000 18.099
49.33000 8.064
49.34000 17.160
49.35000 15.144
49.36000 11.125
49.37000 16.089
49.38000 26.231
49.39000 13.138
49.40000 20.313
49.41000 14.151
49.42000 22.205
49.43000 15.202
49.44000 14.102
49.45000 20.371
49.46000 18.220
49.47000 15.196
49.48000 19.110
49.49000 18.348
49.50000 14.143
49.51000 16.148
49.52000 17.114
49.53000 17.184
49.54000 17.195
49.55000 8.923
49.56000 17.216
49.57000 13.174
49.58000 21.244
49.59000 22.259
49.60000 14.112
49.61000 12.088
49.62000 20.173
49.63000 16.121
49.64000 16.201
49.65000 18.143
49.66000 27.375
49.67000 11.995
49.68000 27.251
49.69000 16.212
49.70000 13.193
49.71000 21.242
49.72000 21.121
49.73000 13.210
49.74000 16.087
49.75000 18.243
49.76000 19.278
49.77000 24.245
49.78000 15.156
49.79000 12.169
49.80000 21.427
49.81000 29.498
49.82000 19.451
49.83000 10.010
49.84000 16.183
49.85000 11.200
49.86000 26.190
49.87000 13.166
49.88000 12.014
49.89000 24.158
49.90000 18.223
49.91000 17.295
49.92000 16.257
49.93000 20.205
49.94000 27.426
49.95000 20.193
49.96000 23.271
49.97000 24.503
49.98000 17.202
49.99000 17.272
50.00000 19.097
50.01000 13.194
50.02000 16.154
50.03000 19.227
50.04000 20.082
50.05000 15.182
50.06000 24.188
50.07000 24.352
50.08000 12.164
50.09000 23.300
50.10000 22.112
50.11000 22.282
50.12000 18.337
50.13000 16.234
50.14000 16.183
50.15000 16.213
50.16000 22.359
50.17000 16.321
50.18000 12.192
50.19000 19.035
50.20000 19.312
50.21000 13.017
50.22000 16.169
50.23000 16.180
50.24000 26.446
50.25000 23.401
50.26000 18.218
50.27000 12.158
50.28000 20.384
50.29000 16.231
50.30000 15.200
50.31000 18.362
50.32000 18.290
50.33000 24.354
50.34000 28.521
50.35000 16.176
50.36000 10.065
50.37000 10.106
50.38000 24.253
50.39000 23.361
50.40000 17.118
50.41000 18.304
50.42000 9.266
50.43000 19.276
50.44000 20.393
50.45000 19.348
50.46000 16.312
50.47000 16.095
50.48000 19.240
50.49000 16.437
50.50000 18.356
50.51000 16.241
50.52000 20.139
50.53000 21.461
50.54000 16.062
50.55000 19.054
50.56000 18.194
50.57000 14.130
50.58000 15.079
50.59000 21.258
50.60000 17.187
50.61000 24.271
50.62000 17.168
50.63000 17.361
50.64000 10.053
50.65000 18.304
50.66000 18.118
50.67000 17.187
50.68000 16.140
50.69000 14.130
50.70000 17.283
50.71000 18.289
50.72000 8.075
50.73000 19.291
50.74000 15.194
50.75000 25.321
50.76000 13.048
50.77000 14.142
50.78000 18.212
50.79000 19.223
50.80000 20.393
50.81000 16.365
50.82000 22.274
50.83000 18.126
50.84000 16.359
50.85000 20.280
50.86000 18.228
50.87000 14.116
50.88000 14.156
50.89000 18.101
50.90000 15.169
50.91000 23.176
50.92000 11.168
50.93000 26.261
50.94000 22.463
50.95000 22.110
50.96000 26.206
50.97000 21.381
50.98000 17.230
50.99000 17.157
51.00000 9.074
51.01000 19.327
51.02000 20.125
51.03000 11.172
51.04000 16.101
51.05000 18.293
51.06000 15.159
51.07000 15.376
51.08000 15.163
51.09000 12.139
51.10000 17.338
51.11000 20.063
51.12000 21.432
51.13000 18.272
51.14000 17.228
51.15000 19.252
51.16000 14.218
51.17000 12.304
51.18000 15.153
51.19000 21.300
51.20000 12.065
51.21000 16.362
51.22000 28.165
51.23000 17.068
51.24000 14.273
51.25000 18.164
51.26000 26.258
51.27000 10.224
51.28000 16.185
51.29000 11.026
51.30000 14.993
51.31000 21.325
51.32000 19.479
51.33000 18.164
51.34000 15.402
51.35000 13.194
51.36000 17.060
51.37000 18.252
51.38000 15.129
51.39000 13.238
51.40000 13.388
51.41000 16.218
51.42000 21.184
51.43000 13.188
51.44000 16.252
51.45000 20.283
51.46000 15.179
51.47000 22.257
51.48000 11.141
51.49000 11.107
51.50000 14.090
51.51000 16.059
51.52000 11.162
51.53000 22.355
51.54000 16.272
51.55000 20.376
51.56000 13.269
51.57000 18.243
51.58000 7.105
51.59000 21.420
51.60000 11.280
51.61000 12.088
51.62000 12.117
51.63000 18.334
51.64000 16.168
51.65000 17.207
51.66000 15.175
51.67000 10.134
51.68000 12.195
51.69000 15.261
51.70000 14.330
51.71000 14.216
51.72000 16.162
51.73000 16.366
51.74000 13.182
51.75000 14.150
51.76000 12.054
51.77000 18.320
51.78000 21.287
51.79000 19.269
51.80000 14.214
51.81000 21.339
51.82000 19.375
51.83000 22.399
51.84000 17.202
51.85000 12.067
51.86000 16.282
51.87000 19.047
51.88000 24.171
51.89000 15.050
51.90000 24.373
51.91000 11.127
51.92000 13.335
51.93000 12.238
51.94000 21.350
51.95000 17.256
51.96000 11.201
51.97000 19.393
51.98000 19.114
51.99000 13.201
52.00000 15.217
52.01000 15.999
52.02000 15.086
52.03000 13.314
52.04000 19.038
52.05000 15.204
52.06000 14.113
52.07000 17.186
52.08000 18.260
52.09000 13.936
52.10000 13.004
52.11000 13.146
52.12000 20.228
52.13000 9.080
52.14000 8.049
52.15000 11.271
52.16000 9.135
52.17000 10.114
52.18000 18.193
52.19000 14.116
52.20000 14.389
52.21000 12.148
52.22000 25.264
52.23000 22.283
52.24000 13.032
52.25000 15.399
52.26000 12.056
52.27000 14.024
52.28000 9.093
52.29000 17.048
52.30000 16.360
52.31000 13.181
52.32000 19.372
52.33000 11.248
52.34000 11.120
52.35000 20.351
52.36000 18.358
52.37000 12.240
52.38000 11.126
52.39000 16.412
52.40000 13.144
52.41000 13.005
52.42000 7.097
52.43000 10.053
52.44000 24.155
52.45000 17.129
52.46000 13.057
52.47000 11.090
52.48000 18.155
52.49000 25.409
52.50000 17.383
52.51000 16.162
52.52000 14.048
52.53000 22.311
52.54000 13.169
52.55000 12.141
52.56000 9.141
52.57000 20.205
52.58000 15.270
52.59000 23.316
52.60000 9.147
52.61000 3.977
52.62000 15.246
52.63000 17.123
52.64000 14.165
52.65000 22.243
52.66000 18.184
52.67000 11.103
52.68000 9.099
52.69000 18.370
52.70000 18.201
52.71000 20.296
52.72000 12.149
52.73000 17.357
52.74000 13.174
52.75000 13.168
52.76000 15.235
52.77000 19.318
52.78000 12.992
52.79000 14.062
52.80000 12.175
52.81000 15.190
52.82000 16.210
52.83000 17.396
52.84000 15.089
52.85000 21.045
52.86000 17.102
52.87000 18.113
52.88000 14.955
52.89000 13.420
52.90000 10.186
52.91000 15.147
52.92000 14.152
52.93000 15.257
52.94000 14.093
52.95000 16.302
52.96000 19.354
52.97000 17.081
52.98000 12.038
52.99000 9.140
53.00000 13.129
53.01000 13.324
53.02000 14.145
53.03000 12.162
53.04000 15.277
53.05000 18.269
53.06000 11.210
53.07000 11.233
53.08000 18.187
53.09000 20.166
53.10000 10.991
53.11000 10.171
53.12000 12.148
53.13000 12.064
53.14000 15.167
53.15000 18.206
53.16000 16.113
53.17000 17.221
53.18000 14.210
53.19000 16.238
53.20000 15.362
53.21000 20.317
53.22000 15.232
53.23000 12.179
53.24000 20.242
53.25000 17.414
53.26000 19.324
53.27000 9.151
53.28000 22.202
53.29000 16.072
53.30000 16.211
53.31000 14.217
53.32000 20.254
53.33000 15.336
53.34000 13.159
53.35000 12.174
53.36000 11.187
53.37000 18.259
53.38000 12.119
53.39000 15.322
53.40000 20.328
53.41000 14.137
53.42000 20.370
53.43000 17.297
53.44000 19.112
53.45000 20.177
53.46000 15.183
53.47000 14.069
53.48000 17.176
53.49000 16.210
53.50000 14.125
53.51000 21.504
53.52000 24.465
53.53000 15.219
53.54000 15.092
53.55000 13.114
53.56000 13.014
53.57000 13.085
53.58000 10.080
53.59000 21.170
53.60000 15.324
53.61000 15.187
53.62000 16.063
53.63000 19.215
53.64000 9.230
53.65000 16.457
53.66000 6.035
53.67000 25.363
53.68000 19.295
53.69000 12.064
53.70000 10.136
53.71000 18.264
53.72000 14.177
53.73000 15.249
53.74000 16.104
53.75000 15.358
53.76000 12.151
53.77000 14.171
53.78000 15.208
53.79000 13.183
53.80000 17.292
53.81000 11.132
53.82000 21.361
53.83000 21.356
53.84000 16.338
53.85000 11.041
53.86000 16.121
53.87000 16.326
53.88000 20.091
53.89000 10.103
53.90000 17.322
53.91000 11.104
53.92000 13.173
53.93000 15.111
53.94000 14.193
53.95000 9.100
53.96000 20.174
53.97000 15.394
53.98000 11.165
53.99000 16.238
54.00000 12.162
54.01000 16.175
54.02000 7.088
54.03000 14.205
54.04000 22.234
54.05000 13.137
54.06000 7.984
54.07000 12.174
54.08000 14.225
54.09000 13.131
54.10000 16.125
54.11000 24.339
54.12000 28.299
54.13000 20.284
54.14000 9.076
54.15000 15.125
54.16000 16.224
54.17000 19.253
54.18000 9.081
54.19000 16.303
54.20000 9.134
54.21000 14.374
54.22000 14.304
54.23000 24.419
54.24000 13.052
54.25000 20.203
54.26000 6.115
54.27000 17.344
54.28000 16.103
54.29000 14.096
54.30000 13.116
54.31000 14.194
54.32000 17.283
54.33000 14.115
54.34000 16.256
54.35000 16.357
54.36000 16.293
54.37000 16.176
54.38000 16.232
54.39000 12.198
54.40000 7.172
54.41000 12.255
54.42000 10.067
54.43000 11.065
54.44000 16.320
54.45000 11.163
54.46000 13.033
54.47000 9.037
54.48000 21.074
54.49000 14.432
54.50000 14.127
54.51000 13.137
54.52000 15.366
54.53000 15.170
54.54000 22.155
54.55000 9.071
54.56000 12.149
54.57000 12.212
54.58000 13.194
54.59000 15.233
54.60000 13.050
54.61000 10.190
54.62000 10.312
54.63000 11.294
54.64000 6.036
54.65000 14.208
54.66000 14.237
54.67000 15.358
54.68000 10.139
54.69000 13.104
54.70000 11.036
54.71000 12.173
54.72000 13.288
54.73000 13.005
54.74000 17.913
54.75000 15.108
54.76000 11.199
54.77000 19.353
54.78000 11.236
54.79000 13.281
54.80000 6.161
54.81000 13.271
54.82000 19.329
54.83000 17.240
54.84000 14.232
54.85000 21.086
54.86000 9.124
54.87000 9.010
54.88000 18.333
54.89000 15.310
54.90000 17.213
54.91000 12.178
54.92000 10.112
54.93000 10.353
54.94000 16.314
54.95000 12.079
54.96000 13.117
54.97000 14.157
54.98000 16.124
54.99000 10.152
55.00000 13.218
55.01000 17.340
55.02000 11.151
55.03000 11.080
55.04000 10.145
55.05000 16.097
55.06000 11.239
55.07000 10.044
55.08000 14.103
55.09000 14.274
55.10000 12.416
55.11000 11.065
55.12000 17.199
55.13000 10.027
55.14000 20.385
55.15000 14.259
55.16000 10.112
55.17000 15.102
55.18000 19.440
55.19000 17.272
55.20000 10.114
55.21000 12.124
55.22000 21.464
55.23000 9.305
55.24000 12.030
55.25000 8.090
55.26000 17.183
55.27000 8.112
55.28000 12.269
55.29000 15.076
55.30000 14.296
55.31000 11.107
55.32000 19.134
55.33000 12.176
55.34000 19.252
55.35000 18.184
55.36000 19.276
55.37000 12.895
55.38000 10.126
55.39000 18.207
55.40000 17.165
55.41000 18.332
55.42000 15.277
55.43000 21.250
55.44000 11.212
55.45000 16.011
55.46000 11.159
55.47000 21.207
55.48000 16.186
55.49000 14.093
55.50000 21.148
55.51000 18.130
55.52000 16.128
55.53000 20.305
55.54000 12.127
55.55000 15.253
55.56000 9.267
55.57000 9.955
55.58000 9.125
55.59000 12.174
55.60000 20.204
55.61000 11.192
55.62000 9.080
55.63000 11.152
55.64000 14.149
55.65000 9.141
55.66000 22.342
55.67000 11.189
55.68000 9.186
55.69000 14.318
55.70000 16.187
55.71000 20.151
55.72000 11.180
55.73000 13.153
55.74000 10.183
55.75000 15.137
55.76000 18.090
55.77000 10.023
55.78000 7.021
55.79000 16.240
55.80000 17.243
55.81000 12.211
55.82000 14.207
55.83000 8.064
55.84000 12.139
55.85000 12.080
55.86000 14.248
55.87000 16.291
55.88000 11.080
55.89000 12.167
55.90000 19.402
55.91000 4.977
55.92000 10.283
55.93000 12.227
55.94000 10.210
55.95000 13.153
55.96000 15.132
55.97000 17.244
55.98000 9.072
55.99000 15.158
56.00000 10.229
56.01000 15.117
56.02000 14.202
56.03000 10.002
56.04000 11.174
56.05000 17.306
56.06000 11.970
56.07000 18.122
56.08000 13.093
56.09000 22.314
56.10000 7.117
56.11000 11.964
56.12000 14.154
56.13000 10.238
56.14000 7.053
56.15000 12.147
56.16000 7.043
56.17000 12.142
56.18000 11.139
56.19000 18.301
56.20000 10.071
56.21000 14.226
56.22000 15.194
56.23000 11.087
56.24000 16.005
56.25000 16.188
56.26000 10.011
56.27000 16.198
56.28000 12.187
56.29000 16.094
56.30000 13.975
56.31000 20.409
56.32000 13.223
56.33000 13.329
56.34000 11.233
56.35000 7.979
56.36000 14.281
56.37000 10.147
56.38000 15.120
56.39000 19.248
56.40000 13.178
56.41000 14.054
56.42000 8.055
56.43000 9.115
56.44000 17.324
56.45000 12.164
56.46000 11.293
56.47000 13.103
56.48000 13.102
56.49000 7.132
56.50000 12.229
56.51000 13.175
56.52000 8.118
56.53000 13.149
56.54000 12.144
56.55000 19.122
56.56000 8.032
56.57000 12.230
56.58000 8.037
56.59000 8.080
56.60000 8.161
56.61000 14.164
56.62000 16.224
56.63000 16.234
56.64000 10.154
56.65000 12.262
56.66000 11.197
56.67000 12.053
56.68000 12.234
56.69000 15.127
56.70000 11.146
56.71000 14.198
56.72000 10.142
56.73000 8.297
56.74000 15.349
56.75000 14.056
56.76000 10.137
56.77000 12.176
56.78000 8.175
56.79000 15.247
56.80000 13.123
56.81000 8.150
56.82000 12.050
56.83000 14.210
56.84000 16.076
56.85000 15.072
56.86000 17.182
56.87000 8.197
56.88000 7.150
56.89000 10.170
56.90000 11.207
56.91000 15.183
56.92000 10.145
56.93000 13.053
56.94000 8.099
56.95000 10.069
56.96000 10.144
56.97000 11.118
56.98000 11.220
56.99000 9.051
57.00000 16.150
57.01000 5.009
57.02000 10.251
57.03000 11.101
57.04000 3.008
57.05000 11.275
57.06000 13.183
57.07000 10.998
57.08000 9.972
57.09000 17.267
57.10000 13.091
57.11000 12.164
57.12000 11.175
57.13000 16.243
57.14000 14.032
57.15000 16.158
57.16000 19.271
57.17000 13.014
57.18000 13.210
57.19000 18.151
57.20000 10.204
57.21000 10.150
57.22000 15.162
57.23000 16.162
57.24000 6.091
57.25000 19.406
57.26000 15.233
57.27000 9.183
57.28000 11.991
57.29000 13.160
57.30000 13.038
57.31000 9.201
57.32000 11.096
57.33000 14.195
57.34000 10.123
57.35000 16.353
57.36000 12.070
57.37000 7.080
57.38000 10.063
57.39000 16.199
57.40000 6.945
57.41000 11.118
57.42000 17.232
57.43000 15.286
57.44000 12.123
57.45000 21.245
57.46000 12.080
57.47000 17.341
57.48000 11.131
57.49000 12.133
57.50000 18.319
57.51000 16.235
57.52000 13.213
57.53000 10.094
57.54000 12.198
57.55000 8.066
57.56000 9.166
57.57000 11.144
57.58000 12.226
57.59000 15.306
57.60000 10.162
57.61000 11.105
57.62000 20.381
57.63000 9.156
57.64000 13.053
57.65000 10.130
57.66000 17.212
57.67000 15.197
57.68000 14.099
57.69000 13.342
57.70000 13.129
57.71000 10.153
57.72000 15.171
57.73000 13.191
57.74000 15.108
57.75000 9.172
57.76000 15.266
57.77000 14.011
57.78000 12.318
57.79000 7.031
57.80000 9.069
57.81000 17.370
57.82000 17.178
57.83000 10.057
57.84000 11.113
57.85000 15.209
57.86000 12.199
57.87000 14.243
57.88000 10.091
57.89000 13.217
57.90000 13.115
57.91000 14.138
57.92000 10.137
57.93000 12.192
57.94000 10.158
57.95000 18.196
57.96000 19.149
57.97000 3.032
57.98000 9.043
57.99000 10.143
58.00000 10.118
58.01000 8.174
58.02000 15.263
58.03000 11.219
58.04000 7.066
58.05000 10.238
58.06000 13.172
58.07000 15.124
58.08000 9.132
58.09000 13.095
58.10000 16.173
58.11000 14.157
58.12000 14.249
58.13000 20.187
58.14000 22.185
58.15000 15.186
58.16000 10.127
58.17000 11.123
58.18000 11.061
58.19000 19.278
58.20000 11.182
58.21000 12.098
58.22000 10.098
58.23000 12.151
58.24000 13.254
58.25000 12.219
58.26000 17.192
58.27000 9.182
58.28000 8.096
58.29000 14.234
58.30000 16.224
58.31000 7.195
58.32000 8.114
58.33000 8.156
58.34000 11.230
58.35000 11.173
58.36000 11.188
58.37000 8.059
58.38000 11.096
58.39000 11.191
58.40000 14.220
58.41000 14.009
58.42000 14.124
58.43000 15.161
58.44000 13.163
58.45000 8.191
58.46000 11.090
58.47000 14.053
58.48000 8.114
58.49000 8.078
58.50000 16.027
58.51000 10.146
58.52000 8.239
58.53000 11.099
58.54000 12.089
58.55000 11.127
58.56000 13.338
58.57000 10.924
58.58000 9.192
58.59000 13.220
58.60000 10.094
58.61000 9.136
58.62000 12.118
58.63000 5.073
58.64000 18.501
58.65000 8.138
58.66000 8.123
58.67000 11.055
58.68000 7.015
58.69000 2.999
58.70000 7.964
58.71000 12.187
58.72000 9.030
58.73000 8.137
58.74000 9.105
58.75000 7.196
58.76000 12.977
58.77000 6.093
58.78000 14.154
58.79000 10.103
58.80000 15.100
58.81000 13.100
58.82000 10.165
58.83000 9.088
58.84000 15.268
58.85000 11.016
58.86000 11.049
58.87000 8.209
58.88000 9.135
58.89000 9.998
58.90000 11.131
58.91000 9.214
58.92000 15.349
58.93000 16.036
58.94000 9.151
58.95000 8.098
58.96000 14.108
58.97000 9.128
58.98000 9.148
58.99000 9.121
59.00000 11.170
59.01000 9.094
59.02000 18.148
59.03000 7.074
59.04000 13.274
59.05000 11.094
59.06000 10.272
59.07000 8.070
59.08000 8.101
59.09000 17.168
59.10000 10.155
59.11000 14.081
59.12000 14.163
59.13000 8.146
59.14000 10.110
59.15000 8.080
59.16000 12.090
59.17000 4.951
59.18000 18.321
59.19000 7.041
59.20000 11.099
59.21000 10.144
59.22000 17.188
59.23000 12.034
59.24000 9.069
59.25000 12.074
59.26000 8.029
59.27000 14.186
59.28000 10.072
59.29000 14.163
59.30000 14.122
59.31000 11.207
59.32000 10.085
59.33000 11.128
59.34000 11.209
59.35000 10.262
59.36000 8.109
59.37000 14.016
59.38000 6.072
59.39000 8.094
59.40000 12.162
59.41000 6.108
59.42000 11.054
59.43000 11.034
59.44000 14.061
59.45000 15.217
59.46000 6.106
59.47000 7.059
59.48000 15.207
59.49000 9.054
59.50000 14.189
59.51000 7.070
59.52000 13.964
59.53000 8.154
59.54000 11.098
59.55000 8.104
59.56000 9.046
59.57000 13.225
59.58000 10.047
59.59000 11.067
59.60000 6.986
59.61000 6.077
59.62000 8.155
59.63000 10.303
59.64000 9.172
59.65000 10.982
59.66000 6.980
59.67000 8.060
59.68000 10.046
59.69000 12.047
59.70000 13.272
59.71000 9.111
59.72000 10.036
59.73000 14.091
59.74000 12.167
59.75000 11.049
59.76000 13.171
59.77000 5.999
59.78000 14.303
59.79000 12.042
59.80000 13.171
59.81000 12.165
59.82000 7.049
59.83000 10.175
59.84000 8.123
59.85000 8.028
59.86000 10.336
59.87000 13.133
59.88000 11.242
59.89000 9.081
59.90000 10.154
59.91000 8.102
59.92000 13.195
59.93000 9.245
59.94000 6.125
59.95000 16.228
59.96000 13.274
59.97000 14.089
59.98000 11.150
59.99000 13.071
60.00000 9.173
60.01000 8.191
60.02000 13.225
60.03000 6.050
60.04000 8.147
60.05000 8.094
60.06000 7.094
60.07000 11.027
60.08000 9.154
60.09000 14.208
60.10000 8.167
60.11000 13.237
60.12000 12.131
60.13000 11.133
60.14000 11.309
60.15000 8.048
60.16000 12.076
60.17000 13.288
60.18000 11.000
60.19000 12.081
60.20000 9.180
60.21000 2.042
60.22000 6.141
60.23000 4.136
60.24000 15.132
60.25000 13.109
60.26000 11.196
60.27000 13.170
60.28000 10.242
60.29000 8.038
60.30000 9.114
60.31000 10.165
60.32000 7.094
60.33000 8.025
60.34000 13.205
60.35000 11.179
60.36000 6.124
60.37000 8.023
60.38000 12.162
60.39000 7.092
60.40000 10.070
60.41000 8.129
60.42000 13.137
60.43000 5.014
60.44000 8.123
60.45000 8.123
60.46000 11.121
60.47000 12.275
60.48000 8.997
60.49000 8.004
60.50000 9.095
60.51000 5.075
60.52000 9.074
60.53000 8.068
60.54000 11.189
60.55000 9.140
60.56000 8.111
60.57000 9.177
60.58000 13.115
60.59000 10.040
60.60000 7.114
60.61000 17.081
60.62000 14.294
60.63000 11.251
60.64000 6.035
60.65000 9.086
60.66000 8.030
60.67000 10.199
60.68000 9.225
60.69000 9.106
60.70000 15.130
60.71000 9.249
60.72000 11.160
60.73000 7.094
60.74000 5.081
60.75000 5.054
60.76000 12.193
60.77000 11.242
60.78000 8.041
60.79000 8.067
60.80000 7.005
60.81000 8.089
60.82000 7.003
60.83000 11.068
60.84000 11.130
60.85000 9.094
60.86000 7.156
60.87000 12.100
60.88000 15.198
60.89000 11.063
60.90000 7.205
60.91000 9.062
60.92000 7.192
60.93000 11.198
60.94000 9.165
60.95000 12.043
60.96000 5.955
60.97000 14.223
60.98000 10.215
60.99000 10.076
61.00000 11.147
61.01000 7.074
61.02000 9.217
61.03000 5.202
61.04000 12.080
61.05000 10.258
61.06000 11.170
61.07000 12.133
61.08000 12.078
61.09000 10.159
61.10000 11.221
61.11000 11.237
61.12000 6.114
61.13000 11.184
61.14000 14.146
61.15000 10.176
61.16000 13.080
61.17000 11.008
61.18000 7.059
61.19000 14.237
61.20000 10.172
61.21000 11.142
61.22000 12.234
61.23000 9.108
61.24000 16.300
61.25000 8.090
61.26000 8.093
61.27000 16.018
61.28000 12.085
61.29000 11.175
61.30000 11.305
61.31000 11.124
61.32000 7.003
61.33000 17.335
61.34000 7.054
61.35000 9.035
61.36000 15.128
61.37000 15.273
61.38000 9.147
61.39000 10.991
61.40000 10.139
61.41000 5.121
61.42000 12.292
61.43000 6.076
61.44000 11.184
61.45000 10.191
61.46000 8.037
61.47000 10.172
61.48000 10.901
61.49000 12.096
61.50000 10.078
61.51000 17.412
61.52000 5.033
61.53000 8.083
61.54000 9.072
61.55000 10.121
61.56000 11.163
61.57000 5.141
61.58000 8.084
61.59000 15.201
61.60000 12.063
61.61000 10.079
61.62000 8.065
61.63000 8.198
61.64000 11.298
61.65000 7.223
61.66000 7.015
61.67000 9.110
61.68000 9.076
61.69000 8.950
61.70000 11.964
61.71000 11.115
61.72000 13.130
61.73000 10.016
61.74000 8.061
61.75000 10.134
61.76000 11.190
61.77000 14.344
61.78000 5.981
61.79000 7.235
61.80000 9.060
61.81000 10.004
61.82000 11.123
61.83000 15.213
61.84000 10.175
61.85000 12.248
61.86000 8.039
61.87000 8.169
61.88000 7.275
61.89000 15.234
61.90000 17.149
61.91000 3.089
61.92000 12.172
61.93000 11.202
61.94000 7.121
61.95000 6.153
61.96000 4.085
61.97000 11.043
61.98000 5.952
61.99000 11.103
62.00000 8.084
62.01000 9.010
62.02000 9.097
62.03000 16.239
62.04000 10.149
62.05000 9.996
62.06000 4.098
62.07000 5.076
62.08000 14.267
62.09000 10.107
62.10000 13.160
62.11000 8.076
62.12000 7.121
62.13000 5.022
62.14000 11.136
62.15000 9.044
62.16000 6.999
62.17000 7.074
62.18000 7.184
62.19000 11.114
62.20000 4.990
62.21000 7.004
62.22000 8.216
62.23000 13.051
62.24000 11.072
62.25000 10.089
62.26000 7.091
62.27000 6.022
62.28000 12.118
62.29000 10.376
62.30000 10.060
62.31000 5.038
62.32000 8.151
62.33000 8.081
62.34000 10.202
62.35000 8.204
62.36000 8.138
62.37000 8.150
62.38000 8.184
62.39000 12.135
62.40000 6.042
62.41000 9.097
62.42000 11.103
62.43000 8.175
62.44000 6.016
62.45000 8.059
62.46000 5.027
62.47000 8.067
62.48000 10.206
62.49000 7.114
62.50000 9.115
62.51000 12.027
62.52000 7.047
62.53000 8.110
62.54000 7.192
62.55000 7.082
62.56000 10.230
62.57000 7.230
62.58000 8.115
62.59000 9.097
62.60000 7.000
62.61000 9.048
62.62000 5.160
62.63000 10.175
62.64000 5.987
62.65000 11.246
62.66000 15.292
62.67000 8.095
62.68000 13.083
62.69000 7.056
62.70000 12.190
62.71000 7.002
62.72000 10.117
62.73000 8.982
62.74000 9.003
62.75000 9.162
62.76000 10.115
62.77000 16.182
62.78000 8.077
62.79000 8.141
62.80000 10.018
62.81000 8.220
62.82000 5.952
62.83000 9.053
62.84000 8.041
62.85000 8.057
62.86000 7.026
62.87000 11.097
62.88000 6.032
62.89000 12.207
62.90000 8.038
62.91000 4.075
62.92000 11.048
62.93000 6.090
62.94000 8.989
62.95000 9.136
62.96000 4.060
62.97000 7.015
62.98000 8.065
62.99000 11.327
63.00000 12.084
63.01000 14.253
63.02000 8.085
63.03000 17.158
63.04000 7.130
63.05000 11.186
63.06000 9.124
63.07000 7.166
63.08000 11.155
63.09000 10.214
63.10000 13.102
63.11000 7.131
63.12000 7.050
63.13000 8.199
63.14000 4.069
63.15000 16.264
63.16000 7.203
63.17000 10.149
63.18000 7.173
63.19000 6.083
63.20000 13.082
63.21000 13.273
63.22000 10.117
63.23000 6.084
63.24000 4.966
63.25000 10.216
63.26000 6.989
63.27000 9.113
63.28000 11.192
63.29000 10.190
63.30000 10.193
63.31000 11.122
63.32000 10.178
63.33000 6.100
63.34000 6.091
63.35000 14.124
63.36000 5.957
63.37000 10.063
63.38000 8.124
63.39000 7.074
63.40000 15.146
63.41000 6.072
63.42000 13.250
63.43000 11.290
63.44000 2.994
63.45000 10.125
63.46000 12.062
63.47000 15.204
63.48000 7.063
63.49000 4.051
63.50000 6.005
63.51000 10.033
63.52000 13.094
63.53000 9.127
63.54000 8.030
63.55000 13.200
63.56000 11.102
63.57000 8.066
63.58000 9.199
63.59000 8.101
63.60000 7.991
63.61000 8.096
63.62000 2.067
63.63000 8.189
63.64000 8.086
63.65000 9.085
63.66000 9.209
63.67000 9.028
63.68000 10.021
63.69000 7.927
63.70000 11.190
63.71000 9.104
63.72000 10.187
63.73000 10.077
63.74000 10.123
63.75000 6.034
63.76000 14.222
63.77000 9.165
63.78000 13.158
63.79000 4.086
63.80000 5.031
63.81000 6.176
63.82000 4.036
63.83000 9.234
63.84000 16.230
63.85000 10.096
63.86000 20.209
63.87000 8.022
63.88000 10.203
63.89000 6.063
63.90000 5.141
63.91000 10.109
63.92000 8.142
63.93000 4.959
63.94000 5.050
63.95000 4.053
63.96000 7.055
63.97000 1.992
63.98000 13.168
63.99000 7.076
64.00000 10.096
64.01000 10.156
64.02000 11.086
64.03000 11.092
64.04000 10.968
64.05000 11.239
64.06000 10.167
64.07000 12.019
64.08000 13.306
64.09000 6.063
64.10000 3.010
64.11000 7.082
64.12000 6.104
64.13000 4.029
64.14000 9.991
64.15000 6.110
64.16000 14.223
64.17000 11.278
64.18000 7.139
64.19000 7.032
64.20000 11.077
64.21000 12.260
64.22000 6.026
64.23000 6.981
64.24000 9.028
64.25000 4.041
64.26000 5.086
64.27000 7.996
64.28000 7.199
64.29000 4.054
64.30000 18.357
64.31000 13.047
64.32000 9.195
64.33000 12.289
64.34000 7.087
64.35000 9.224
64.36000 10.154
64.37000 8.130
64.38000 10.189
64.39000 11.100
64.40000 15.052
64.41000 12.204
64.42000 8.168
64.43000 11.258
64.44000 11.999
64.45000 8.986
64.46000 3.063
64.47000 8.033
64.48000 6.083
64.49000 11.086
64.50000 11.168
64.51000 7.095
64.52000 3.058
64.53000 15.074
64.54000 8.142
64.55000 8.091
64.56000 5.052
64.57000 12.142
64.58000 6.122
64.59000 8.021
64.60000 13.054
64.61000 7.024
64.62000 14.040
64.63000 11.261
64.64000 7.103
64.65000 5.006
64.66000 9.023
64.67000 9.076
64.68000 7.950
64.69000 8.213
64.70000 9.129
64.71000 5.129
64.72000 13.273
64.73000 6.955
64.74000 8.007
64.75000 12.257
64.76000 12.245
64.77000 12.152
64.78000 7.051
64.79000 11.038
64.80000 6.159
64.81000 6.030
64.82000 8.084
64.83000 13.145
64.84000 8.017
64.85000 9.262
64.86000 6.058
64.87000 9.195
64.88000 9.121
64.89000 5.018
64.90000 2.990
64.91000 14.321
64.92000 11.202
64.93000 10.139
64.94000 11.176
64.95000 13.276
64.96000 10.033
64.97000 5.978
64.98000 7.214
64.99000 13.145
65.00000 10.164
