20.00000 76.965
20.01000 87.914
20.02000 67.656
20.03000 84.668
20.04000 94.807
20.05000 91.896
20.06000 82.693
20.07000 82.747
20.08000 89.845
20.09000 56.503
20.10000 91.876
20.11000 93.022
20.12000 87.463
20.13000 80.767
20.14000 83.777
20.15000 97.518
20.16000 74.529
20.17000 78.667
20.18000 78.729
20.19000 94.077
20.20000 88.799
20.21000 83.867
20.22000 87.899
20.23000 73.848
20.24000 62.973
20.25000 87.785
20.26000 80.734
20.27000 80.815
20.28000 79.945
20.29000 86.938
20.30000 73.010
20.31000 89.101
20.32000 87.661
20.33000 76.841
20.34000 90.677
20.35000 80.643
20.36000 67.689
20.37000 70.733
20.38000 68.645
20.39000 102.197
20.40000 79.077
20.41000 80.537
20.42000 68.385
20.43000 93.044
20.44000 91.897
20.45000 81.613
20.46000 72.719
20.47000 74.843
20.48000 76.741
20.49000 72.575
20.50000 67.453
20.51000 73.845
20.52000 57.594
20.53000 64.648
20.54000 68.524
20.55000 73.921
20.56000 80.875
20.57000 71.711
20.58000 73.947
20.59000 84.867
20.60000 71.475
20.61000 87.879
20.62000 64.272
20.63000 96.841
20.64000 85.903
20.65000 79.510
20.66000 69.646
20.67000 77.975
20.68000 78.475
20.69000 78.807
20.70000 64.643
20.71000 83.930
20.72000 68.931
20.73000 72.747
20.74000 66.637
20.75000 68.736
20.76000 71.891
20.77000 76.976
20.78000 68.021
20.79000 86.642
20.80000 73.576
20.81000 86.004
20.82000 72.692
20.83000 64.918
20.84000 63.788
20.85000 67.672
20.86000 70.018
20.87000 63.247
20.88000 73.964
20.89000 60.585
20.90000 72.826
20.91000 72.500
20.92000 74.768
20.93000 51.728
20.94000 65.597
20.95000 58.342
20.96000 83.985
20.97000 67.832
20.98000 67.788
20.99000 70.618
21.00000 78.869
21.01000 68.503
21.02000 60.776
21.03000 61.638
21.04000 65.706
21.05000 55.702
21.06000 56.498
21.07000 65.514
21.08000 63.051
21.09000 66.941
21.10000 54.938
21.11000 66.771
21.12000 81.792
21.13000 62.588
21.14000 68.638
21.15000 66.823
21.16000 50.355
21.17000 68.015
21.18000 74.878
21.19000 64.414
21.20000 67.687
21.21000 71.934
21.22000 67.764
21.23000 63.721
21.24000 48.353
21.25000 65.162
21.26000 71.757
21.27000 54.600
21.28000 54.718
21.29000 44.406
21.30000 64.809
21.31000 50.476
21.32000 63.874
21.33000 50.416
21.34000 65.574
21.35000 61.865
21.36000 62.572
21.37000 51.674
21.38000 65.963
21.39000 50.878
21.40000 82.746
21.41000 66.806
21.42000 55.411
21.43000 73.718
21.44000 81.997
21.45000 48.429
21.46000 54.749
21.47000 64.608
21.48000 55.318
21.49000 71.879
21.50000 53.646
21.51000 65.754
21.52000 69.420
21.53000 53.578
21.54000 63.466
21.55000 49.414
21.56000 41.535
21.57000 55.528
21.58000 51.890
21.59000 50.755
21.60000 57.483
21.61000 64.640
21.62000 66.566
21.63000 54.619
21.64000 45.662
21.65000 51.675
21.66000 52.435
21.67000 60.455
21.68000 61.529
21.69000 48.645
21.70000 56.669
21.71000 59.478
21.72000 50.552
21.73000 39.571
21.74000 52.772
21.75000 67.619
21.76000 50.202
21.77000 64.741
21.78000 56.644
21.79000 51.437
21.80000 47.331
21.81000 44.483
21.82000 55.290
21.83000 65.462
21.84000 54.662
21.85000 56.694
21.86000 44.691
21.87000 51.679
21.88000 51.451
21.89000 55.761
21.90000 49.817
21.91000 54.779
21.92000 40.390
21.93000 62.618
21.94000 49.457
21.95000 46.511
21.96000 59.743
21.97000 48.402
21.98000 50.173
21.99000 49.208
22.00000 58.832
22.01000 57.517
22.02000 46.596
22.03000 44.568
22.04000 51.510
22.05000 41.372
22.06000 45.603
22.07000 42.395
22.08000 54.460
22.09000 48.184
22.10000 49.564
22.11000 47.310
22.12000 44.342
22.13000 38.401
22.14000 51.497
22.15000 57.726
22.16000 54.311
22.17000 49.332
22.18000 47.634
22.19000 50.547
22.20000 41.348
22.21000 47.457
22.22000 44.851
22.23000 49.419
22.24000 49.318
22.25000 40.440
22.26000 38.394
22.27000 44.484
22.28000 36.442
22.29000 52.706
22.30000 46.515
22.31000 41.378
22.32000 60.638
22.33000 44.434
22.34000 40.289
22.35000 46.454
22.36000 50.452
22.37000 46.661
22.38000 43.597
22.39000 46.249
22.40000 44.353
22.41000 49.491
22.42000 38.277
22.43000 46.786
22.44000 39.329
22.45000 40.233
22.46000 49.394
22.47000 58.713
22.48000 45.462
22.49000 45.425
22.50000 32.335
22.51000 47.491
22.52000 45.415
22.53000 42.515
22.54000 39.456
22.55000 29.440
22.56000 39.498
22.57000 39.143
22.58000 46.485
22.59000 46.429
22.60000 42.390
22.61000 45.814
22.62000 42.293
22.63000 43.475
22.64000 51.602
22.65000 40.662
22.66000 43.506
22.67000 41.462
22.68000 47.587
22.69000 37.252
22.70000 53.570
22.71000 42.163
22.72000 30.405
22.73000 27.398
22.74000 39.296
22.75000 41.407
22.76000 31.379
22.77000 30.258
22.78000 34.299
22.79000 48.218
22.80000 60.245
22.81000 39.560
22.82000 41.376
22.83000 47.530
22.84000 43.269
22.85000 47.737
22.86000 47.439
22.87000 41.466
22.88000 31.132
22.89000 27.561
22.90000 48.588
22.91000 46.477
22.92000 35.867
22.93000 34.492
22.94000 32.220
22.95000 43.307
22.96000 44.751
22.97000 27.123
22.98000 40.097
22.99000 26.354
23.00000 34.501
23.01000 44.578
23.02000 26.473
23.03000 37.449
23.04000 47.341
23.05000 39.226
23.06000 35.538
23.07000 35.999
23.08000 44.799
23.09000 28.219
23.10000 31.323
23.11000 35.298
23.12000 33.328
23.13000 30.335
23.14000 35.532
23.15000 29.290
23.16000 40.367
23.17000 35.637
23.18000 39.278
23.19000 33.381
23.20000 37.604
23.21000 23.144
23.22000 31.196
23.23000 31.312
23.24000 33.092
23.25000 27.476
23.26000 30.443
23.27000 34.409
23.28000 42.748
23.29000 33.256
23.30000 41.628
23.31000 35.333
23.32000 29.297
23.33000 30.263
23.34000 28.180
23.35000 18.194
23.36000 33.296
23.37000 30.369
23.38000 42.784
23.39000 23.370
23.40000 25.283
23.41000 34.229
23.42000 25.299
23.43000 27.236
23.44000 30.269
23.45000 36.417
23.46000 35.266
23.47000 14.066
23.48000 25.353
23.49000 31.178
23.50000 29.228
23.51000 30.182
23.52000 31.452
23.53000 40.205
23.54000 23.299
23.55000 27.389
23.56000 46.626
23.57000 28.031
23.58000 25.335
23.59000 33.551
23.60000 33.477
23.61000 35.332
23.62000 35.542
23.63000 30.451
23.64000 22.057
23.65000 28.257
23.66000 18.422
23.67000 31.284
23.68000 28.227
23.69000 30.375
23.70000 35.284
23.71000 30.347
23.72000 32.233
23.73000 35.488
23.74000 20.530
23.75000 26.284
23.76000 32.141
23.77000 21.441
23.78000 26.160
23.79000 27.161
23.80000 26.202
23.81000 35.377
23.82000 17.227
23.83000 24.249
23.84000 27.158
23.85000 35.399
23.86000 21.155
23.87000 27.152
23.88000 21.273
23.89000 21.442
23.90000 23.236
23.91000 17.260
23.92000 30.398
23.93000 14.129
23.94000 19.134
23.95000 25.136
23.96000 29.447
23.97000 27.601
23.98000 29.397
23.99000 28.270
24.00000 23.342
24.01000 21.010
24.02000 28.356
24.03000 22.224
24.04000 24.265
24.05000 32.433
24.06000 28.314
24.07000 26.325
24.08000 30.340
24.09000 21.195
24.10000 15.188
24.11000 18.201
24.12000 27.494
24.13000 37.332
24.14000 26.134
24.15000 21.221
24.16000 29.342
24.17000 24.304
24.18000 25.451
24.19000 27.402
24.20000 28.270
24.21000 15.187
24.22000 24.169
24.23000 26.477
24.24000 26.274
24.25000 31.367
24.26000 21.325
24.27000 22.365
24.28000 32.413
24.29000 24.267
24.30000 23.276
24.31000 15.193
24.32000 19.299
24.33000 24.345
24.34000 31.604
24.35000 29.399
24.36000 19.052
24.37000 11.216
24.38000 18.242
24.39000 27.432
24.40000 17.177
24.41000 17.187
24.42000 29.327
24.43000 20.262
24.44000 18.141
24.45000 21.229
24.46000 16.068
24.47000 18.087
24.48000 27.314
24.49000 23.250
24.50000 21.377
24.51000 18.309
24.52000 18.415
24.53000 29.300
24.54000 25.481
24.55000 27.360
24.56000 25.259
24.57000 21.331
24.58000 28.486
24.59000 13.128
24.60000 20.311
24.61000 21.221
24.62000 18.251
24.63000 17.088
24.64000 22.508
24.65000 16.129
24.66000 20.278
24.67000 24.562
24.68000 27.442
24.69000 31.493
24.70000 21.388
24.71000 21.221
24.72000 25.273
24.73000 21.188
24.74000 13.081
24.75000 21.284
24.76000 25.323
24.77000 17.139
24.78000 20.236
24.79000 19.200
24.80000 20.146
24.81000 23.377
24.82000 19.298
24.83000 24.354
24.84000 23.386
24.85000 18.283
24.86000 16.187
24.87000 12.235
24.88000 18.393
24.89000 23.479
24.90000 14.252
24.91000 13.124
24.92000 19.953
24.93000 22.094
24.94000 17.100
24.95000 16.136
24.96000 19.225
24.97000 12.049
24.98000 17.209
24.99000 22.227
25.00000 18.148
25.01000 18.185
25.02000 19.103
25.03000 19.062
25.04000 15.343
25.05000 19.182
25.06000 16.267
25.07000 25.309
25.08000 22.347
25.09000 17.210
25.10000 16.110
25.11000 19.390
25.12000 21.340
25.13000 17.199
25.14000 14.286
25.15000 15.230
25.16000 14.278
25.17000 17.202
25.18000 19.255
25.19000 23.170
25.20000 17.357
25.21000 22.098
25.22000 24.195
25.23000 16.115
25.24000 9.151
25.25000 14.058
25.26000 16.226
25.27000 8.038
25.28000 18.142
25.29000 21.271
25.30000 13.328
25.31000 17.211
25.32000 22.281
25.33000 16.926
25.34000 19.334
25.35000 23.287
25.36000 17.220
25.37000 16.247
25.38000 17.037
25.39000 18.176
25.40000 24.358
25.41000 22.260
25.42000 24.360
25.43000 11.102
25.44000 18.007
25.45000 17.086
25.46000 14.252
25.47000 19.344
25.48000 10.164
25.49000 12.934
25.50000 24.228
25.51000 14.348
25.52000 21.333
25.53000 19.364
25.54000 22.303
25.55000 16.363
25.56000 12.288
25.57000 18.306
25.58000 14.119
25.59000 15.126
25.60000 14.157
25.61000 20.190
25.62000 13.269
25.63000 16.215
25.64000 17.198
25.65000 16.191
25.66000 12.010
25.67000 13.161
25.68000 18.479
25.69000 16.291
25.70000 17.264
25.71000 13.250
25.72000 25.235
25.73000 15.181
25.74000 12.233
25.75000 12.183
25.76000 15.021
25.77000 10.083
25.78000 20.114
25.79000 9.009
25.80000 18.312
25.81000 15.128
25.82000 18.238
25.83000 11.034
25.84000 15.277
25.85000 19.374
25.86000 16.232
25.87000 20.291
25.88000 20.374
25.89000 8.132
25.90000 17.162
25.91000 18.443
25.92000 13.251
25.93000 15.209
25.94000 14.334
25.95000 11.205
25.96000 21.339
25.97000 15.202
25.98000 14.249
25.99000 10.172
26.00000 19.226
26.01000 9.179
26.02000 17.264
26.03000 17.340
26.04000 21.371
26.05000 18.317
26.06000 15.151
26.07000 12.105
26.08000 16.268
26.09000 17.401
26.10000 12.232
26.11000 11.193
26.12000 25.504
26.13000 13.155
26.14000 18.228
26.15000 17.108
26.16000 10.180
26.17000 13.330
26.18000 13.101
26.19000 19.300
26.20000 10.271
26.21000 14.241
26.22000 12.262
26.23000 13.212
26.24000 11.064
26.25000 17.185
26.26000 9.228
26.27000 13.282
26.28000 17.114
26.29000 15.314
26.30000 14.224
26.31000 9.089
26.32000 13.119
26.33000 11.242
26.34000 17.244
26.35000 12.989
26.36000 14.222
26.37000 14.137
26.38000 12.208
26.39000 19.229
26.40000 7.138
26.41000 12.267
26.42000 17.164
26.43000 17.265
26.44000 9.210
26.45000 12.233
26.46000 13.100
26.47000 14.172
26.48000 8.061
26.49000 12.237
26.50000 9.141
26.51000 12.139
26.52000 23.404
26.53000 6.053
26.54000 11.089
26.55000 12.190
26.56000 16.302
26.57000 12.108
26.58000 8.121
26.59000 9.103
26.60000 15.196
26.61000 16.206
26.62000 12.177
26.63000 15.215
26.64000 10.104
26.65000 15.128
26.66000 16.125
26.67000 14.090
26.68000 10.074
26.69000 10.159
26.70000 9.085
26.71000 24.131
26.72000 9.124
26.73000 8.958
26.74000 12.128
26.75000 15.293
26.76000 14.355
26.77000 15.325
26.78000 12.097
26.79000 10.096
26.80000 17.356
26.81000 10.172
26.82000 13.216
26.83000 13.120
26.84000 8.147
26.85000 9.139
26.86000 8.120
26.87000 10.246
26.88000 19.188
26.89000 18.248
26.90000 12.054
26.91000 11.191
26.92000 13.264
26.93000 15.145
26.94000 15.076
26.95000 17.186
26.96000 10.191
26.97000 16.124
26.98000 7.102
26.99000 9.078
27.00000 19.273
27.01000 14.149
27.02000 11.128
27.03000 11.136
27.04000 8.179
27.05000 14.305
27.06000 14.266
27.07000 11.990
27.08000 13.344
27.09000 21.163
27.10000 7.129
27.11000 12.261
27.12000 5.013
27.13000 9.032
27.14000 11.089
27.15000 15.064
27.16000 10.177
27.17000 12.123
27.18000 8.128
27.19000 20.360
27.20000 13.211
27.21000 10.102
27.22000 15.182
27.23000 10.136
27.24000 17.245
27.25000 10.112
27.26000 10.013
27.27000 13.159
27.28000 14.149
27.29000 15.195
27.30000 9.047
27.31000 6.117
27.32000 10.129
27.33000 16.275
27.34000 8.162
27.35000 9.070
27.36000 13.168
27.37000 14.171
27.38000 9.118
27.39000 11.102
27.40000 13.095
27.41000 7.965
27.42000 6.144
27.43000 9.118
27.44000 15.182
27.45000 10.084
27.46000 13.269
27.47000 9.090
27.48000 10.113
27.49000 10.271
27.50000 11.264
27.51000 11.113
27.52000 16.290
27.53000 9.159
27.54000 13.216
27.55000 9.164
27.56000 11.180
27.57000 11.103
27.58000 15.296
27.59000 11.321
27.60000 9.142
27.61000 12.290
27.62000 20.079
27.63000 6.036
27.64000 10.080
27.65000 9.219
27.66000 13.288
27.67000 8.209
27.68000 15.158
27.69000 12.314
27.70000 11.068
27.71000 14.269
27.72000 8.110
27.73000 7.135
27.74000 12.188
27.75000 12.098
27.76000 13.096
27.77000 12.942
27.78000 11.066
27.79000 9.096
27.80000 11.160
27.81000 8.104
27.82000 15.231
27.83000 9.124
27.84000 8.123
27.85000 12.216
27.86000 9.121
27.87000 9.112
27.88000 7.135
27.89000 6.113
27.90000 11.041
27.91000 9.210
27.92000 10.201
27.93000 8.034
27.94000 12.120
27.95000 6.053
27.96000 7.075
27.97000 18.136
27.98000 13.114
27.99000 7.236
28.00000 15.129
28.01000 8.122
28.02000 13.239
28.03000 5.141
28.04000 11.081
28.05000 10.168
28.06000 14.095
28.07000 15.224
28.08000 11.115
28.09000 9.082
28.10000 11.231
28.11000 6.066
28.12000 8.193
28.13000 7.089
28.14000 10.168
28.15000 12.334
28.16000 8.155
28.17000 16.079
28.18000 11.093
28.19000 9.068
28.20000 9.103
28.21000 12.213
28.22000 9.115
28.23000 15.321
28.24000 10.972
28.25000 9.071
28.26000 10.188
28.27000 11.302
28.28000 15.227
28.29000 7.077
28.30000 13.197
28.31000 17.132
28.32000 9.245
28.33000 12.066
28.34000 9.046
28.35000 7.138
28.36000 11.202
28.37000 9.236
28.38000 3.003
28.39000 11.016
28.40000 12.166
28.41000 4.014
28.42000 12.127
28.43000 22.238
28.44000 11.218
28.45000 7.980
28.46000 14.220
28.47000 15.163
28.48000 8.242
28.49000 9.959
28.50000 10.121
28.51000 9.133
28.52000 6.106
28.53000 10.095
28.54000 7.198
28.55000 7.081
28.56000 11.261
28.57000 9.211
28.58000 7.092
28.59000 7.075
28.60000 9.033
28.61000 16.140
28.62000 14.180
28.63000 17.191
28.64000 10.180
28.65000 10.124
28.66000 12.194
28.67000 10.187
28.68000 8.083
28.69000 10.155
28.70000 4.094
28.71000 10.124
28.72000 4.056
28.73000 10.119
28.74000 6.983
28.75000 5.951
28.76000 7.119
28.77000 10.194
28.78000 10.985
28.79000 12.205
28.80000 12.056
28.81000 13.271
28.82000 11.289
28.83000 10.196
28.84000 12.187
28.85000 5.015
28.86000 10.030
28.87000 5.091
28.88000 14.128
28.89000 8.067
28.90000 6.122
28.91000 5.008
28.92000 10.134
28.93000 8.048
28.94000 7.067
28.95000 9.136
28.96000 11.292
28.97000 11.212
28.98000 5.034
28.99000 12.268
29.00000 10.231
29.01000 13.142
29.02000 13.187
29.03000 8.007
29.04000 5.075
29.05000 15.263
29.06000 9.156
29.07000 7.060
29.08000 8.137
29.09000 12.160
29.10000 8.105
29.11000 9.082
29.12000 11.100
29.13000 6.058
29.14000 8.116
29.15000 13.042
29.16000 7.118
29.17000 8.107
29.18000 16.201
29.19000 9.310
29.20000 11.098
29.21000 11.058
29.22000 8.180
29.23000 13.069
29.24000 10.169
29.25000 6.088
29.26000 7.973
29.27000 7.064
29.28000 12.077
29.29000 12.182
29.30000 10.164
29.31000 11.134
29.32000 11.134
29.33000 8.039
29.34000 4.083
29.35000 7.167
29.36000 11.210
29.37000 6.139
29.38000 11.123
29.39000 10.198
29.40000 6.007
29.41000 13.226
29.42000 12.197
29.43000 10.180
29.44000 8.970
29.45000 8.067
29.46000 6.036
29.47000 8.124
29.48000 6.126
29.49000 10.229
29.50000 10.083
29.51000 5.007
29.52000 8.300
29.53000 13.361
29.54000 7.115
29.55000 5.075
29.56000 8.081
29.57000 11.218
29.58000 7.072
29.59000 10.172
29.60000 4.018
29.61000 12.958
29.62000 6.101
29.63000 8.069
29.64000 14.145
29.65000 6.090
29.66000 7.171
29.67000 12.169
29.68000 6.111
29.69000 8.135
29.70000 6.040
29.71000 10.188
29.72000 8.072
29.73000 10.035
29.74000 14.126
29.75000 11.185
29.76000 11.292
29.77000 10.114
29.78000 6.104
29.79000 9.154
29.80000 9.265
29.81000 4.018
29.82000 11.072
29.83000 7.103
29.84000 8.129
29.85000 8.227
29.86000 13.248
29.87000 8.149
29.88000 13.188
29.89000 7.044
29.90000 10.016
29.91000 11.253
29.92000 8.222
29.93000 6.130
29.94000 14.123
29.95000 6.174
29.96000 11.073
29.97000 9.231
29.98000 9.969
29.99000 8.188
30.00000 6.056
30.01000 10.040
30.02000 12.215
30.03000 11.139
30.04000 5.043
30.05000 14.256
30.06000 6.004
30.07000 11.218
30.08000 11.232
30.09000 13.212
30.10000 12.132
30.11000 8.152
30.12000 8.127
30.13000 8.089
30.14000 9.109
30.15000 10.177
30.16000 6.117
30.17000 4.063
30.18000 5.996
30.19000 5.019
30.20000 10.204
30.21000 1.989
30.22000 8.150
30.23000 5.036
30.24000 10.061
30.25000 10.247
30.26000 9.137
30.27000 6.135
30.28000 5.064
30.29000 7.177
30.30000 8.981
30.31000 3.098
30.32000 7.027
30.33000 6.031
30.34000 8.089
30.35000 13.197
30.36000 11.262
30.37000 6.198
30.38000 14.067
30.39000 11.264
30.40000 7.008
30.41000 19.358
30.42000 8.041
30.43000 9.090
30.44000 11.061
30.45000 12.233
30.46000 6.053
30.47000 10.256
30.48000 9.161
30.49000 10.168
30.50000 7.071
30.51000 9.102
30.52000 9.080
30.53000 16.337
30.54000 6.228
30.55000 10.081
30.56000 5.122
30.57000 6.047
30.58000 8.089
30.59000 4.976
30.60000 8.102
30.61000 6.025
30.62000 8.069
30.63000 6.116
30.64000 9.102
30.65000 5.038
30.66000 7.104
30.67000 10.122
30.68000 9.149
30.69000 4.046
30.70000 12.111
30.71000 7.079
30.72000 6.074
30.73000 7.077
30.74000 9.099
30.75000 7.094
30.76000 6.068
30.77000 4.052
30.78000 8.066
30.79000 2.975
30.80000 7.033
30.81000 14.264
30.82000 7.153
30.83000 12.267
30.84000 11.143
30.85000 11.164
30.86000 10.030
30.87000 3.053
30.88000 6.076
30.89000 7.057
30.90000 4.027
30.91000 3.997
30.92000 4.117
30.93000 4.078
30.94000 6.208
30.95000 10.032
30.96000 9.220
30.97000 9.080
30.98000 9.129
30.99000 9.118
31.00000 12.199
31.01000 7.007
31.02000 10.135
31.03000 10.245
31.04000 11.206
31.05000 10.125
31.06000 5.152
31.07000 7.215
31.08000 6.145
31.09000 8.070
31.10000 7.106
31.11000 9.175
31.12000 11.284
31.13000 9.142
31.14000 8.023
31.15000 8.006
31.16000 6.034
31.17000 7.056
31.18000 3.083
31.19000 4.061
31.20000 9.117
31.21000 6.014
31.22000 14.233
31.23000 1.982
31.24000 9.079
31.25000 15.201
31.26000 5.014
31.27000 5.163
31.28000 7.064
31.29000 13.070
31.30000 10.142
31.31000 13.006
31.32000 8.156
31.33000 7.105
31.34000 4.066
31.35000 11.160
31.36000 11.201
31.37000 9.095
31.38000 6.106
31.39000 8.160
31.40000 4.032
31.41000 8.105
31.42000 8.141
31.43000 8.106
31.44000 7.146
31.45000 6.097
31.46000 7.179
31.47000 5.004
31.48000 12.168
31.49000 11.258
31.50000 7.037
31.51000 11.143
31.52000 12.272
31.53000 10.194
31.54000 2.026
31.55000 6.170
31.56000 6.037
31.57000 6.111
31.58000 8.061
31.59000 4.110
31.60000 5.063
31.61000 7.958
31.62000 11.111
31.63000 5.067
31.64000 19.372
31.65000 10.255
31.66000 6.071
31.67000 7.005
31.68000 9.187
31.69000 6.032
31.70000 6.119
31.71000 11.052
31.72000 6.056
31.73000 6.990
31.74000 8.311
31.75000 3.015
31.76000 8.987
31.77000 6.156
31.78000 11.092
31.79000 6.976
31.80000 11.182
31.81000 11.049
31.82000 3.980
31.83000 5.032
31.84000 6.002
31.85000 6.193
31.86000 7.166
31.87000 3.004
31.88000 9.159
31.89000 2.009
31.90000 6.040
31.91000 9.135
31.92000 7.090
31.93000 12.243
31.94000 7.115
31.95000 9.161
31.96000 8.053
31.97000 7.130
31.98000 6.061
31.99000 8.089
32.00000 10.096
32.01000 10.299
32.02000 7.130
32.03000 9.203
32.04000 8.199
32.05000 13.076
32.06000 10.130
32.07000 8.062
32.08000 9.317
32.09000 7.169
32.10000 7.046
32.11000 6.199
32.12000 9.229
32.13000 11.048
32.14000 5.104
32.15000 7.052
32.16000 8.099
32.17000 4.983
32.18000 10.094
32.19000 7.189
32.20000 5.041
32.21000 9.018
32.22000 5.061
32.23000 6.073
32.24000 4.051
32.25000 7.138
32.26000 4.098
32.27000 6.055
32.28000 5.080
32.29000 8.201
32.30000 4.058
32.31000 7.027
32.32000 3.972
32.33000 7.127
32.34000 8.137
32.35000 7.104
32.36000 11.133
32.37000 12.191
32.38000 5.076
32.39000 10.132
32.40000 7.162
32.41000 6.070
32.42000 8.124
32.43000 9.113
32.44000 1.994
32.45000 9.114
32.46000 10.299
32.47000 7.156
32.48000 7.008
32.49000 7.013
32.50000 6.153
32.51000 4.006
32.52000 11.112
32.53000 7.126
32.54000 4.018
32.55000 3.010
32.56000 5.049
32.57000 9.237
32.58000 8.140
32.59000 7.066
32.60000 4.975
32.61000 5.080
32.62000 9.090
32.63000 12.234
32.64000 5.090
32.65000 13.202
32.66000 7.102
32.67000 10.099
32.68000 7.083
32.69000 6.077
32.70000 10.214
32.71000 8.160
32.72000 17.286
32.73000 4.067
32.74000 8.106
32.75000 7.126
32.76000 6.095
32.77000 12.115
32.78000 8.022
32.79000 8.168
32.80000 5.091
32.81000 8.154
32.82000 7.101
32.83000 4.050
32.84000 7.083
32.85000 9.175
32.86000 7.072
32.87000 4.000
32.88000 8.067
32.89000 10.241
32.90000 8.114
32.91000 11.287
32.92000 4.165
32.93000 8.209
32.94000 11.218
32.95000 7.152
32.96000 6.125
32.97000 8.075
32.98000 3.045
32.99000 7.087
33.00000 8.173
33.01000 4.060
33.02000 5.102
33.03000 6.101
33.04000 6.136
33.05000 10.139
33.06000 9.268
33.07000 7.039
33.08000 6.091
33.09000 8.023
33.10000 7.009
33.11000 5.058
33.12000 12.117
33.13000 6.143
33.14000 5.080
33.15000 5.068
33.16000 7.147
33.17000 10.130
33.18000 4.086
33.19000 9.075
33.20000 9.180
33.21000 9.129
33.22000 7.127
33.23000 4.986
33.24000 6.020
33.25000 12.277
33.26000 5.028
33.27000 3.092
33.28000 5.117
33.29000 2.032
33.30000 6.071
33.31000 6.103
33.32000 10.053
33.33000 10.057
33.34000 9.970
33.35000 7.054
33.36000 6.137
33.37000 5.071
33.38000 7.183
33.39000 4.122
33.40000 7.042
33.41000 7.953
33.42000 3.027
33.43000 7.250
33.44000 4.087
33.45000 5.008
33.46000 3.082
33.47000 8.126
33.48000 6.082
33.49000 4.019
33.50000 6.094
33.51000 4.040
33.52000 6.097
33.53000 7.112
33.54000 7.135
33.55000 6.063
33.56000 5.012
33.57000 4.096
33.58000 0.983
33.59000 3.043
33.60000 10.037
33.61000 7.072
33.62000 11.187
33.63000 7.088
33.64000 9.161
33.65000 5.013
33.66000 6.112
33.67000 9.987
33.68000 3.045
33.69000 12.275
33.70000 5.996
33.71000 6.984
33.72000 5.018
33.73000 3.061
33.74000 2.999
33.75000 4.091
33.76000 9.109
33.77000 6.129
33.78000 3.100
33.79000 8.225
33.80000 6.067
33.81000 3.080
33.82000 6.183
33.83000 11.241
33.84000 5.030
33.85000 4.098
33.86000 8.222
33.87000 3.070
33.88000 7.125
33.89000 5.061
33.90000 5.050
33.91000 4.097
33.92000 1.035
33.93000 5.019
33.94000 10.128
33.95000 10.203
33.96000 6.062
33.97000 7.035
33.98000 11.192
33.99000 7.151
34.00000 8.191
34.01000 9.062
34.02000 3.016
34.03000 3.981
34.04000 5.108
34.05000 5.094
34.06000 10.094
34.07000 6.033
34.08000 5.103
34.09000 10.204
34.10000 6.078
34.11000 7.134
34.12000 5.081
34.13000 9.096
34.14000 7.148
34.15000 8.067
34.16000 1.975
34.17000 3.980
34.18000 6.121
34.19000 4.025
34.20000 2.048
34.21000 2.064
34.22000 14.268
34.23000 7.147
34.24000 4.053
34.25000 7.228
34.26000 8.122
34.27000 4.065
34.28000 5.107
34.29000 6.990
34.30000 3.979
34.31000 11.225
34.32000 6.096
34.33000 7.079
34.34000 6.087
34.35000 5.033
34.36000 3.072
34.37000 2.028
34.38000 2.107
34.39000 5.091
34.40000 8.218
34.41000 5.016
34.42000 5.992
34.43000 4.030
34.44000 6.033
34.45000 8.045
34.46000 10.036
34.47000 5.041
34.48000 0.987
34.49000 5.080
34.50000 3.054
34.51000 3.042
34.52000 5.072
34.53000 7.103
34.54000 7.133
34.55000 5.015
34.56000 3.050
34.57000 4.186
34.58000 4.132
34.59000 2.013
34.60000 4.054
34.61000 3.999
34.62000 10.317
34.63000 0.000
34.64000 9.347
34.65000 4.063
34.66000 5.102
34.67000 7.029
34.68000 6.038
34.69000 5.079
34.70000 3.117
34.71000 3.998
34.72000 7.101
34.73000 4.017
34.74000 9.100
34.75000 5.980
34.76000 3.046
34.77000 4.977
34.78000 7.129
34.79000 7.125
34.80000 12.248
34.81000 3.129
34.82000 3.146
34.83000 9.092
34.84000 7.045
34.85000 5.115
34.86000 10.164
34.87000 4.119
34.88000 9.182
34.89000 4.110
34.90000 7.105
34.91000 9.149
34.92000 5.162
34.93000 8.161
34.94000 3.087
34.95000 7.127
34.96000 6.112
34.97000 2.058
34.98000 9.215
34.99000 2.001
35.00000 5.991
35.01000 4.175
35.02000 6.137
35.03000 7.115
35.04000 0.990
35.05000 7.101
35.06000 7.143
35.07000 2.992
35.08000 6.096
35.09000 6.156
35.10000 6.066
35.11000 5.078
35.12000 0.000
35.13000 3.037
35.14000 10.142
35.15000 3.043
35.16000 4.003
35.17000 7.016
35.18000 6.075
35.19000 6.098
35.20000 4.939
35.21000 6.095
35.22000 5.133
35.23000 11.273
35.24000 5.071
35.25000 2.013
35.26000 4.979
35.27000 10.177
35.28000 7.105
35.29000 4.096
35.30000 2.012
35.31000 9.051
35.32000 7.015
35.33000 4.148
35.34000 2.042
35.35000 8.119
35.36000 7.213
35.37000 6.214
35.38000 4.054
35.39000 8.131
35.40000 5.016
35.41000 3.057
35.42000 4.956
35.43000 5.922
35.44000 5.032
35.45000 5.070
35.46000 7.120
35.47000 4.030
35.48000 5.095
35.49000 4.996
35.50000 6.077
35.51000 7.116
35.52000 3.019
35.53000 5.026
35.54000 9.059
35.55000 9.005
35.56000 8.087
35.57000 4.113
35.58000 4.013
35.59000 14.391
35.60000 5.065
35.61000 1.021
35.62000 7.096
35.63000 8.096
35.64000 6.103
35.65000 4.055
35.66000 8.176
35.67000 5.004
35.68000 2.970
35.69000 4.043
35.70000 5.015
35.71000 3.057
35.72000 4.046
35.73000 4.005
35.74000 7.114
35.75000 6.163
35.76000 4.070
35.77000 6.037
35.78000 9.136
35.79000 5.010
35.80000 5.053
35.81000 9.972
35.82000 6.972
35.83000 5.079
35.84000 2.062
35.85000 7.082
35.86000 7.186
35.87000 9.191
35.88000 6.098
35.89000 6.174
35.90000 6.005
35.91000 4.051
35.92000 4.030
35.93000 6.047
35.94000 4.967
35.95000 8.297
35.96000 3.036
35.97000 7.009
35.98000 10.152
35.99000 8.112
36.00000 13.227
36.01000 7.088
36.02000 7.103
36.03000 7.038
36.04000 5.086
36.05000 6.067
36.06000 0.000
36.07000 4.008
36.08000 8.058
36.09000 5.059
36.10000 5.110
36.11000 6.152
36.12000 8.057
36.13000 3.041
36.14000 12.382
36.15000 5.096
36.16000 4.052
36.17000 5.076
36.18000 6.071
36.19000 4.028
36.20000 6.201
36.21000 5.105
36.22000 5.035
36.23000 6.028
36.24000 6.094
36.25000 7.048
36.26000 4.046
36.27000 10.048
36.28000 6.058
36.29000 6.053
36.30000 4.049
36.31000 10.192
36.32000 6.094
36.33000 0.000
36.34000 5.088
36.35000 9.100
36.36000 4.053
36.37000 9.177
36.38000 6.040
36.39000 8.033
36.40000 6.112
36.41000 2.008
36.42000 6.113
36.43000 8.034
36.44000 9.156
36.45000 8.085
36.46000 4.125
36.47000 3.981
36.48000 4.020
36.49000 4.134
36.50000 1.964
36.51000 4.115
36.52000 7.189
36.53000 6.038
36.54000 6.104
36.55000 9.061
36.56000 5.052
36.57000 5.065
36.58000 3.062
36.59000 3.035
36.60000 4.093
36.61000 11.260
36.62000 6.066
36.63000 5.049
36.64000 3.985
36.65000 6.235
36.66000 3.063
36.67000 4.050
36.68000 6.131
36.69000 5.010
36.70000 8.162
36.71000 2.045
36.72000 6.006
36.73000 3.037
36.74000 3.070
36.75000 4.023
36.76000 6.032
36.77000 5.010
36.78000 10.043
36.79000 5.007
36.80000 7.051
36.81000 8.129
36.82000 3.990
36.83000 7.032
36.84000 6.094
36.85000 4.037
36.86000 8.269
36.87000 4.077
36.88000 8.034
36.89000 0.985
36.90000 5.127
36.91000 3.032
36.92000 1.985
36.93000 7.081
36.94000 4.090
36.95000 10.061
36.96000 3.044
36.97000 2.016
36.98000 3.052
36.99000 3.017
37.00000 2.050
37.01000 2.021
37.02000 9.156
37.03000 7.195
37.04000 1.095
37.05000 4.040
37.06000 8.118
37.07000 6.117
37.08000 10.169
37.09000 4.018
37.10000 7.288
37.11000 8.202
37.12000 5.105
37.13000 3.989
37.14000 5.033
37.15000 4.141
37.16000 2.019
37.17000 6.111
37.18000 7.056
37.19000 6.099
37.20000 8.133
37.21000 9.138
37.22000 1.007
37.23000 4.018
37.24000 2.116
37.25000 4.015
37.26000 5.153
37.27000 3.031
37.28000 5.982
37.29000 6.175
37.30000 8.049
37.31000 3.070
37.32000 11.187
37.33000 5.031
37.34000 2.977
37.35000 2.012
37.36000 4.043
37.37000 6.013
37.38000 5.058
37.39000 14.315
37.40000 3.044
37.41000 5.016
37.42000 5.111
37.43000 6.147
37.44000 12.058
37.45000 4.032
37.46000 2.005
37.47000 2.993
37.48000 5.098
37.49000 3.099
37.50000 4.059
37.51000 7.146
37.52000 3.068
37.53000 10.078
37.54000 4.081
37.55000 7.092
37.56000 4.023
37.57000 3.083
37.58000 3.098
37.59000 5.014
37.60000 6.288
37.61000 2.004
37.62000 9.114
37.63000 5.020
37.64000 5.059
37.65000 10.098
37.66000 4.026
37.67000 2.037
37.68000 6.162
37.69000 7.051
37.70000 7.159
37.71000 4.022
37.72000 8.234
37.73000 4.030
37.74000 3.158
37.75000 9.201
37.76000 5.122
37.77000 6.077
37.78000 5.040
37.79000 3.060
37.80000 9.096
37.81000 5.094
37.82000 4.067
37.83000 3.021
37.84000 6.066
37.85000 7.046
37.86000 9.011
37.87000 2.992
37.88000 3.102
37.89000 3.066
37.90000 6.103
37.91000 7.033
37.92000 5.095
37.93000 3.045
37.94000 8.105
37.95000 2.009
37.96000 2.006
37.97000 7.153
37.98000 8.032
37.99000 2.007
38.00000 6.141
38.01000 2.963
38.02000 4.001
38.03000 5.071
38.04000 3.116
38.05000 4.034
38.06000 6.080
38.07000 8.052
38.08000 2.009
38.09000 6.082
38.10000 8.123
38.11000 7.061
38.12000 4.061
38.13000 1.024
38.14000 6.047
38.15000 4.928
38.16000 3.006
38.17000 4.012
38.18000 3.040
38.19000 2.949
38.20000 5.076
38.21000 12.284
38.22000 4.071
38.23000 4.011
38.24000 4.072
38.25000 4.020
38.26000 5.974
38.27000 4.113
38.28000 6.051
38.29000 10.103
38.30000 7.186
38.31000 5.106
38.32000 2.975
38.33000 4.008
38.34000 4.122
38.35000 3.012
38.36000 2.033
38.37000 5.998
38.38000 3.063
38.39000 3.025
38.40000 3.019
38.41000 4.026
38.42000 6.126
38.43000 4.040
38.44000 4.989
38.45000 4.093
38.46000 1.995
38.47000 2.023
38.48000 3.098
38.49000 4.070
38.50000 2.048
38.51000 5.081
38.52000 4.035
38.53000 5.054
38.54000 7.097
38.55000 2.031
38.56000 4.017
38.57000 3.034
38.58000 2.030
38.59000 5.016
38.60000 2.011
38.61000 4.036
38.62000 5.101
38.63000 3.997
38.64000 2.050
38.65000 3.070
38.66000 3.059
38.67000 4.090
38.68000 1.971
38.69000 5.023
38.70000 1.979
38.71000 5.157
38.72000 6.141
38.73000 8.194
38.74000 6.055
38.75000 5.066
38.76000 6.223
38.77000 1.996
38.78000 6.102
38.79000 3.999
38.80000 5.061
38.81000 6.108
38.82000 3.032
38.83000 4.065
38.84000 4.090
38.85000 3.066
38.86000 5.053
38.87000 1.021
38.88000 1.038
38.89000 4.060
38.90000 6.028
38.91000 6.067
38.92000 4.126
38.93000 1.982
38.94000 6.118
38.95000 6.037
38.96000 2.017
38.97000 3.029
38.98000 6.094
38.99000 3.999
39.00000 4.116
39.01000 7.003
39.02000 2.078
39.03000 5.064
39.04000 1.988
39.05000 4.196
39.06000 3.067
39.07000 4.153
39.08000 6.077
39.09000 7.115
39.10000 3.013
39.11000 5.140
39.12000 6.121
39.13000 3.092
39.14000 1.091
39.15000 5.079
39.16000 4.161
39.17000 1.023
39.18000 3.062
39.19000 4.039
39.20000 8.171
39.21000 3.111
39.22000 2.022
39.23000 4.018
39.24000 5.097
39.25000 9.059
39.26000 2.039
39.27000 7.044
39.28000 4.041
39.29000 2.997
39.30000 7.058
39.31000 3.065
39.32000 9.348
39.33000 3.083
39.34000 3.985
39.35000 2.044
39.36000 4.040
39.37000 5.028
39.38000 4.961
39.39000 5.029
39.40000 6.087
39.41000 1.952
39.42000 3.057
39.43000 5.073
39.44000 3.013
39.45000 5.080
39.46000 2.027
39.47000 4.051
39.48000 8.055
39.49000 4.055
39.50000 3.031
39.51000 4.050
39.52000 7.061
39.53000 1.992
39.54000 2.002
39.55000 4.157
39.56000 3.059
39.57000 2.055
39.58000 6.056
39.59000 3.038
39.60000 2.052
39.61000 4.065
39.62000 2.052
39.63000 10.071
39.64000 2.059
39.65000 6.075
39.66000 0.984
39.67000 4.027
39.68000 6.959
39.69000 4.965
39.70000 1.004
39.71000 1.061
39.72000 3.978
39.73000 2.004
39.74000 2.003
39.75000 1.009
39.76000 2.044
39.77000 4.089
39.78000 9.142
39.79000 2.028
39.80000 6.025
39.81000 4.024
39.82000 3.046
39.83000 1.025
39.84000 2.032
39.85000 5.067
39.86000 9.061
39.87000 2.054
39.88000 4.015
39.89000 7.151
39.90000 2.966
39.91000 8.100
39.92000 5.966
39.93000 3.110
39.94000 2.993
39.95000 6.084
39.96000 6.083
39.97000 3.048
39.98000 2.036
39.99000 5.221
40.00000 11.126
40.01000 2.023
40.02000 7.173
40.03000 6.059
40.04000 1.989
40.05000 3.036
40.06000 2.969
40.07000 4.161
40.08000 5.057
40.09000 4.115
40.10000 3.098
40.11000 1.043
40.12000 5.079
40.13000 2.988
40.14000 6.107
40.15000 2.082
40.16000 10.125
40.17000 6.150
40.18000 2.073
40.19000 6.112
40.20000 5.018
40.21000 4.063
40.22000 5.121
40.23000 4.113
40.24000 1.000
40.25000 0.993
40.26000 7.106
40.27000 10.182
40.28000 4.002
40.29000 2.028
40.30000 3.042
40.31000 1.971
40.32000 3.030
40.33000 3.121
40.34000 7.154
40.35000 4.052
40.36000 4.124
40.37000 6.028
40.38000 4.167
40.39000 5.177
40.40000 4.031
40.41000 3.069
40.42000 3.031
40.43000 3.053
40.44000 0.985
40.45000 5.190
40.46000 5.055
40.47000 5.046
40.48000 3.018
40.49000 7.098
40.50000 1.001
40.51000 5.019
40.52000 3.024
40.53000 4.147
40.54000 5.069
40.55000 5.077
40.56000 4.094
40.57000 4.194
40.58000 7.116
40.59000 8.107
40.60000 3.008
40.61000 1.013
40.62000 1.999
40.63000 9.156
40.64000 4.035
40.65000 2.985
40.66000 3.049
40.67000 6.094
40.68000 5.188
40.69000 8.028
40.70000 3.049
40.71000 4.036
40.72000 5.041
40.73000 2.950
40.74000 7.126
40.75000 4.158
40.76000 3.061
40.77000 6.064
40.78000 3.074
40.79000 3.967
40.80000 2.108
40.81000 4.097
40.82000 2.990
40.83000 3.031
40.84000 4.096
40.85000 5.063
40.86000 4.096
40.87000 6.064
40.88000 2.022
40.89000 3.096
40.90000 8.145
40.91000 3.006
40.92000 7.085
40.93000 4.109
40.94000 0.000
40.95000 2.030
40.96000 6.124
40.97000 0.000
40.98000 5.132
40.99000 4.053
41.00000 2.017
41.01000 4.976
41.02000 4.084
41.03000 5.052
41.04000 3.072
41.05000 3.963
41.06000 5.082
41.07000 2.014
41.08000 1.961
41.09000 1.032
41.10000 4.099
41.11000 2.050
41.12000 2.029
41.13000 3.999
41.14000 9.237
41.15000 6.070
41.16000 3.980
41.17000 2.002
41.18000 0.971
41.19000 7.159
41.20000 2.041
41.21000 4.068
41.22000 4.091
41.23000 3.000
41.24000 4.036
41.25000 3.038
41.26000 4.101
41.27000 6.093
41.28000 3.021
41.29000 9.162
41.30000 2.036
41.31000 8.133
41.32000 3.066
41.33000 5.082
41.34000 4.123
41.35000 4.063
41.36000 4.042
41.37000 2.998
41.38000 5.084
41.39000 4.005
41.40000 0.000
41.41000 4.017
41.42000 4.002
41.43000 7.079
41.44000 3.041
41.45000 3.034
41.46000 3.004
41.47000 4.059
41.48000 4.011
41.49000 3.021
41.50000 5.094
41.51000 6.159
41.52000 6.075
41.53000 7.144
41.54000 6.049
41.55000 1.023
41.56000 3.042
41.57000 4.003
41.58000 4.146
41.59000 3.026
41.60000 4.046
41.61000 6.967
41.62000 1.002
41.63000 3.116
41.64000 3.016
41.65000 3.017
41.66000 9.143
41.67000 4.077
41.68000 3.074
41.69000 5.056
41.70000 5.113
41.71000 3.096
41.72000 5.102
41.73000 3.095
41.74000 2.056
41.75000 4.004
41.76000 5.099
41.77000 1.984
41.78000 3.082
41.79000 3.099
41.80000 5.045
41.81000 3.027
41.82000 4.090
41.83000 0.984
41.84000 4.974
41.85000 5.135
41.86000 1.033
41.87000 2.013
41.88000 6.092
41.89000 2.046
41.90000 4.029
41.91000 9.190
41.92000 2.045
41.93000 2.027
41.94000 6.125
41.95000 4.025
41.96000 3.971
41.97000 4.112
41.98000 2.037
41.99000 5.072
42.00000 4.170
42.01000 0.000
42.02000 3.983
42.03000 3.041
42.04000 0.000
42.05000 2.052
42.06000 1.031
42.07000 6.068
42.08000 8.194
42.09000 6.182
42.10000 3.008
42.11000 5.031
42.12000 5.183
42.13000 4.989
42.14000 5.116
42.15000 0.000
42.16000 5.139
42.17000 6.124
42.18000 6.073
42.19000 4.038
42.20000 7.045
42.21000 5.015
42.22000 2.046
42.23000 4.014
42.24000 4.090
42.25000 5.082
42.26000 2.050
42.27000 3.127
42.28000 0.977
42.29000 0.000
42.30000 3.994
42.31000 3.047
42.32000 3.017
42.33000 2.034
42.34000 3.109
42.35000 4.107
42.36000 6.074
42.37000 6.099
42.38000 3.091
42.39000 3.052
42.40000 6.101
42.41000 1.023
42.42000 3.051
42.43000 5.181
42.44000 3.062
42.45000 4.016
42.46000 2.069
42.47000 3.017
42.48000 3.026
42.49000 1.001
42.50000 6.125
42.51000 5.053
42.52000 6.047
42.53000 0.991
42.54000 5.001
42.55000 4.055
42.56000 2.016
42.57000 0.987
42.58000 4.012
42.59000 2.056
42.60000 6.099
42.61000 4.057
42.62000 2.998
42.63000 0.000
42.64000 4.018
42.65000 5.014
42.66000 2.012
42.67000 4.062
42.68000 4.038
42.69000 2.056
42.70000 1.015
42.71000 5.996
42.72000 4.080
42.73000 3.065
42.74000 4.032
42.75000 6.978
42.76000 4.087
42.77000 5.056
42.78000 3.039
42.79000 3.041
42.80000 4.149
42.81000 3.057
42.82000 6.057
42.83000 4.052
42.84000 4.987
42.85000 3.023
42.86000 4.064
42.87000 2.043
42.88000 0.986
42.89000 4.005
42.90000 5.168
42.91000 7.086
42.92000 5.073
42.93000 2.026
42.94000 3.027
42.95000 5.125
42.96000 7.112
42.97000 4.063
42.98000 7.129
42.99000 2.037
43.00000 2.986
43.01000 7.993
43.02000 2.059
43.03000 6.088
43.04000 5.076
43.05000 4.046
43.06000 2.999
43.07000 3.097
43.08000 2.040
43.09000 5.073
43.10000 5.040
43.11000 2.938
43.12000 6.090
43.13000 1.045
43.14000 4.043
43.15000 0.000
43.16000 3.954
43.17000 5.089
43.18000 6.115
43.19000 2.082
43.20000 2.995
43.21000 4.059
43.22000 3.060
43.23000 2.027
43.24000 2.016
43.25000 1.031
43.26000 1.022
43.27000 5.993
43.28000 4.078
43.29000 3.123
43.30000 1.992
43.31000 4.999
43.32000 1.047
43.33000 4.072
43.34000 6.024
43.35000 5.034
43.36000 7.202
43.37000 3.962
43.38000 3.064
43.39000 4.007
43.40000 2.076
43.41000 7.183
43.42000 2.028
43.43000 3.005
43.44000 5.013
43.45000 2.031
43.46000 2.019
43.47000 3.979
43.48000 3.995
43.49000 1.999
43.50000 2.024
43.51000 3.070
43.52000 6.096
43.53000 2.039
43.54000 2.020
43.55000 1.061
43.56000 3.062
43.57000 6.995
43.58000 3.028
43.59000 3.032
43.60000 5.002
43.61000 3.056
43.62000 4.058
43.63000 1.037
43.64000 0.990
43.65000 5.103
43.66000 6.105
43.67000 4.096
43.68000 1.024
43.69000 1.987
43.70000 0.986
43.71000 4.078
43.72000 3.126
43.73000 2.058
43.74000 1.018
43.75000 2.963
43.76000 1.026
43.77000 6.085
43.78000 2.990
43.79000 2.004
43.80000 3.043
43.81000 4.110
43.82000 0.000
43.83000 2.066
43.84000 6.008
43.85000 1.009
43.86000 1.992
43.87000 3.030
43.88000 3.039
43.89000 2.015
43.90000 3.046
43.91000 4.027
43.92000 2.955
43.93000 5.099
43.94000 4.062
43.95000 2.035
43.96000 2.017
43.97000 5.065
43.98000 2.996
43.99000 4.102
44.00000 2.958
44.01000 2.991
44.02000 0.000
44.03000 0.000
44.04000 4.013
44.05000 4.055
44.06000 1.073
44.07000 2.966
44.08000 5.055
44.09000 0.990
44.10000 2.017
44.11000 4.068
44.12000 2.075
44.13000 5.099
44.14000 3.116
44.15000 5.067
44.16000 4.039
44.17000 2.021
44.18000 3.045
44.19000 6.142
44.20000 4.031
44.21000 6.077
44.22000 3.973
44.23000 7.061
44.24000 1.015
44.25000 2.988
44.26000 1.959
44.27000 0.000
44.28000 5.090
44.29000 6.100
44.30000 3.066
44.31000 3.963
44.32000 4.042
44.33000 2.014
44.34000 0.974
44.35000 0.000
44.36000 3.063
44.37000 3.028
44.38000 1.017
44.39000 4.097
44.40000 1.990
44.41000 3.048
44.42000 9.197
44.43000 6.086
44.44000 2.997
44.45000 3.988
44.46000 4.018
44.47000 2.025
44.48000 5.052
44.49000 2.015
44.50000 3.049
44.51000 3.015
44.52000 3.069
44.53000 7.069
44.54000 2.001
44.55000 4.010
44.56000 2.001
44.57000 2.020
44.58000 2.008
44.59000 7.163
44.60000 1.031
44.61000 0.000
44.62000 3.041
44.63000 2.063
44.64000 2.032
44.65000 1.008
44.66000 7.186
44.67000 3.025
44.68000 4.024
44.69000 4.146
44.70000 4.077
44.71000 2.066
44.72000 2.011
44.73000 0.000
44.74000 3.037
44.75000 2.023
44.76000 3.058
44.77000 2.015
44.78000 2.036
44.79000 4.072
44.80000 5.129
44.81000 1.011
44.82000 5.020
44.83000 2.043
44.84000 3.030
44.85000 1.043
44.86000 6.066
44.87000 2.051
44.88000 1.979
44.89000 4.083
44.90000 5.100
44.91000 5.975
44.92000 7.036
44.93000 3.009
44.94000 2.102
44.95000 1.975
44.96000 6.032
44.97000 0.995
44.98000 3.062
44.99000 4.091
45.00000 2.039
45.01000 2.012
45.02000 3.057
45.03000 5.076
45.04000 1.982
45.05000 2.178
45.06000 3.004
45.07000 2.999
45.08000 4.050
45.09000 2.957
45.10000 3.090
45.11000 3.097
45.12000 5.161
45.13000 5.050
45.14000 5.104
45.15000 5.001
45.16000 6.029
45.17000 2.043
45.18000 2.972
45.19000 2.023
45.20000 4.053
45.21000 4.022
45.22000 4.085
45.23000 0.000
45.24000 2.995
45.25000 1.016
45.26000 5.060
45.27000 3.062
45.28000 6.138
45.29000 1.990
45.30000 1.051
45.31000 2.992
45.32000 3.989
45.33000 3.105
45.34000 1.017
45.35000 5.002
45.36000 4.062
45.37000 2.020
45.38000 3.082
45.39000 3.083
45.40000 2.040
45.41000 0.983
45.42000 4.086
45.43000 4.014
45.44000 3.008
45.45000 5.132
45.46000 1.008
45.47000 5.043
45.48000 1.006
45.49000 3.063
45.50000 0.997
45.51000 1.014
45.52000 3.101
45.53000 6.081
45.54000 3.992
45.55000 5.017
45.56000 0.000
45.57000 2.059
45.58000 1.989
45.59000 1.031
45.60000 1.999
45.61000 1.970
45.62000 3.017
45.63000 8.152
45.64000 3.025
45.65000 2.072
45.66000 6.135
45.67000 3.158
45.68000 5.089
45.69000 1.986
45.70000 7.013
45.71000 3.021
45.72000 3.082
45.73000 4.024
45.74000 1.006
45.75000 2.030
45.76000 6.101
45.77000 4.064
45.78000 4.079
45.79000 1.038
45.80000 3.995
45.81000 3.015
45.82000 1.040
45.83000 2.058
45.84000 0.000
45.85000 1.990
45.86000 5.160
45.87000 3.036
45.88000 0.000
45.89000 0.000
45.90000 4.012
45.91000 4.075
45.92000 4.038
45.93000 2.984
45.94000 1.040
45.95000 3.943
45.96000 6.082
45.97000 4.012
45.98000 2.007
45.99000 5.076
46.00000 0.988
46.01000 1.006
46.02000 3.031
46.03000 5.017
46.04000 4.088
46.05000 3.043
46.06000 1.982
46.07000 3.061
46.08000 0.000
46.09000 2.063
46.10000 2.028
46.11000 0.000
46.12000 4.036
46.13000 2.066
46.14000 0.975
46.15000 2.056
46.16000 8.061
46.17000 1.967
46.18000 3.026
46.19000 2.039
46.20000 1.993
46.21000 0.000
46.22000 1.038
46.23000 2.021
46.24000 5.020
46.25000 0.000
46.26000 1.995
46.27000 0.000
46.28000 1.030
46.29000 2.038
46.30000 5.038
46.31000 1.000
46.32000 4.042
46.33000 9.073
46.34000 4.005
46.35000 3.003
46.36000 1.035
46.37000 2.011
46.38000 1.979
46.39000 1.020
46.40000 2.006
46.41000 4.047
46.42000 2.017
46.43000 1.021
46.44000 3.091
46.45000 4.007
46.46000 0.992
46.47000 3.039
46.48000 4.078
46.49000 6.098
46.50000 2.020
46.51000 0.979
46.52000 3.196
46.53000 3.078
46.54000 5.990
46.55000 0.000
46.56000 0.983
46.57000 4.020
46.58000 4.029
46.59000 3.027
46.60000 2.989
46.61000 2.073
46.62000 3.066
46.63000 1.985
46.64000 1.041
46.65000 6.134
46.66000 7.135
46.67000 1.014
46.68000 1.027
46.69000 2.066
46.70000 6.140
46.71000 2.003
46.72000 3.040
46.73000 4.016
46.74000 0.991
46.75000 5.087
46.76000 5.028
46.77000 1.014
46.78000 3.061
46.79000 1.043
46.80000 0.000
46.81000 3.014
46.82000 0.000
46.83000 1.958
46.84000 6.069
46.85000 0.000
46.86000 4.004
46.87000 1.042
46.88000 4.121
46.89000 3.023
46.90000 2.048
46.91000 1.016
46.92000 1.972
46.93000 2.041
46.94000 3.024
46.95000 5.952
46.96000 4.056
46.97000 4.112
46.98000 0.985
46.99000 3.050
47.00000 5.052
47.01000 6.002
47.02000 0.994
47.03000 4.068
47.04000 4.120
47.05000 3.067
47.06000 2.032
47.07000 2.048
47.08000 0.000
47.09000 1.007
47.10000 6.034
47.11000 7.100
47.12000 3.036
47.13000 4.080
47.14000 4.146
47.15000 1.057
47.16000 0.000
47.17000 3.035
47.18000 3.055
47.19000 3.097
47.20000 1.976
47.21000 2.053
47.22000 1.048
47.23000 1.043
47.24000 0.986
47.25000 2.066
47.26000 7.120
47.27000 1.998
47.28000 1.031
47.29000 0.000
47.30000 4.018
47.31000 2.990
47.32000 6.105
47.33000 0.000
47.34000 6.124
47.35000 3.111
47.36000 1.041
47.37000 2.044
47.38000 1.005
47.39000 6.077
47.40000 5.100
47.41000 0.000
47.42000 2.040
47.43000 4.061
47.44000 2.035
47.45000 2.946
47.46000 7.079
47.47000 5.034
47.48000 5.044
47.49000 3.070
47.50000 2.022
47.51000 2.029
47.52000 1.979
47.53000 0.000
47.54000 0.000
47.55000 3.976
47.56000 2.028
47.57000 0.998
47.58000 1.956
47.59000 6.064
47.60000 3.046
47.61000 4.088
47.62000 3.020
47.63000 0.000
47.64000 0.000
47.65000 3.108
47.66000 0.000
47.67000 1.976
47.68000 2.050
47.69000 0.000
47.70000 5.065
47.71000 6.018
47.72000 3.067
47.73000 3.138
47.74000 2.984
47.75000 3.963
47.76000 3.072
47.77000 6.070
47.78000 3.034
47.79000 3.060
47.80000 2.093
47.81000 0.000
47.82000 0.000
47.83000 3.043
47.84000 3.016
47.85000 1.981
47.86000 1.990
47.87000 3.014
47.88000 6.060
47.89000 1.010
47.90000 2.029
47.91000 0.987
47.92000 5.081
47.93000 4.127
47.94000 2.988
47.95000 1.019
47.96000 1.030
47.97000 3.045
47.98000 3.020
47.99000 0.000
48.00000 5.086
48.01000 1.031
48.02000 0.000
48.03000 2.019
48.04000 2.020
48.05000 2.089
48.06000 1.004
48.07000 0.000
48.08000 4.011
48.09000 0.000
48.10000 2.019
48.11000 1.018
48.12000 3.081
48.13000 2.983
48.14000 4.047
48.15000 1.997
48.16000 5.042
48.17000 8.036
48.18000 1.008
48.19000 6.085
48.20000 3.096
48.21000 4.056
48.22000 2.971
48.23000 6.079
48.24000 0.000
48.25000 2.996
48.26000 4.084
48.27000 1.040
48.28000 0.000
48.29000 3.010
48.30000 1.022
48.31000 3.002
48.32000 3.019
48.33000 1.082
48.34000 6.143
48.35000 1.006
48.36000 2.082
48.37000 3.030
48.38000 1.976
48.39000 4.057
48.40000 0.992
48.41000 1.076
48.42000 2.059
48.43000 3.048
48.44000 4.054
48.45000 5.021
48.46000 2.982
48.47000 3.041
48.48000 3.060
48.49000 2.070
48.50000 2.972
48.51000 3.033
48.52000 4.013
48.53000 4.010
48.54000 5.032
48.55000 2.014
48.56000 5.082
48.57000 0.984
48.58000 1.021
48.59000 1.065
48.60000 2.022
48.61000 0.968
48.62000 4.111
48.63000 1.032
48.64000 3.043
48.65000 6.218
48.66000 2.027
48.67000 4.071
48.68000 3.018
48.69000 5.082
48.70000 1.028
48.71000 2.070
48.72000 5.024
48.73000 4.056
48.74000 5.019
48.75000 0.982
48.76000 2.084
48.77000 2.022
48.78000 4.051
48.79000 2.063
48.80000 2.050
48.81000 0.994
48.82000 1.000
48.83000 0.000
48.84000 1.002
48.85000 2.087
48.86000 2.025
48.87000 2.980
48.88000 1.999
48.89000 1.978
48.90000 1.019
48.91000 2.953
48.92000 3.000
48.93000 2.010
48.94000 6.090
48.95000 3.022
48.96000 2.029
48.97000 0.999
48.98000 4.042
48.99000 3.021
49.00000 4.011
49.01000 2.038
49.02000 2.021
49.03000 4.056
49.04000 2.020
49.05000 4.023
49.06000 1.069
49.07000 4.048
49.08000 0.968
49.09000 3.038
49.10000 3.073
49.11000 2.014
49.12000 4.073
49.13000 2.018
49.14000 1.973
49.15000 3.052
49.16000 2.079
49.17000 3.968
49.18000 0.000
49.19000 3.095
49.20000 3.026
49.21000 2.039
49.22000 1.008
49.23000 2.039
49.24000 1.021
49.25000 2.073
49.26000 2.002
49.27000 5.051
49.28000 2.054
49.29000 0.998
49.30000 2.068
49.31000 1.035
49.32000 1.044
49.33000 0.991
49.34000 0.000
49.35000 3.095
49.36000 4.026
49.37000 4.059
49.38000 2.023
49.39000 3.072
49.40000 3.058
49.41000 2.010
49.42000 1.992
49.43000 3.145
49.44000 2.020
49.45000 1.996
49.46000 1.019
49.47000 3.009
49.48000 1.047
49.49000 1.047
49.50000 1.046
49.51000 5.094
49.52000 3.110
49.53000 2.040
49.54000 1.004
49.55000 4.053
49.56000 2.008
49.57000 5.016
49.58000 3.027
49.59000 1.974
49.60000 1.043
49.61000 5.168
49.62000 3.002
49.63000 3.059
49.64000 2.032
49.65000 3.100
49.66000 3.020
49.67000 3.066
49.68000 3.128
49.69000 3.105
49.70000 5.006
49.71000 5.068
49.72000 4.023
49.73000 2.010
49.74000 2.061
49.75000 4.056
49.76000 2.015
49.77000 1.005
49.78000 0.000
49.79000 3.047
49.80000 2.018
49.81000 3.047
49.82000 1.965
49.83000 2.053
49.84000 1.997
49.85000 4.121
49.86000 3.017
49.87000 2.037
49.88000 3.001
49.89000 3.001
49.90000 3.987
49.91000 4.027
49.92000 2.991
49.93000 0.994
49.94000 1.974
49.95000 3.060
49.96000 1.984
49.97000 3.036
49.98000 1.016
49.99000 4.017
50.00000 1.012
50.01000 3.034
50.02000 4.043
50.03000 1.011
50.04000 1.048
50.05000 2.045
50.06000 1.981
50.07000 2.046
50.08000 2.002
50.09000 3.068
50.10000 4.134
50.11000 0.995
50.12000 3.040
50.13000 1.013
50.14000 4.051
50.15000 2.025
50.16000 2.018
50.17000 1.018
50.18000 2.960
50.19000 3.062
50.20000 0.000
50.21000 2.076
50.22000 0.000
50.23000 3.029
50.24000 3.052
50.25000 0.000
50.26000 1.003
50.27000 1.025
50.28000 4.030
50.29000 2.077
50.30000 1.045
50.31000 2.042
50.32000 2.027
50.33000 1.055
50.34000 0.998
50.35000 2.060
50.36000 1.998
50.37000 2.038
50.38000 2.082
50.39000 3.043
50.40000 5.053
50.41000 0.984
50.42000 3.013
50.43000 0.994
50.44000 1.015
50.45000 1.020
50.46000 1.057
50.47000 4.076
50.48000 2.028
50.49000 2.012
50.50000 1.015
50.51000 2.035
50.52000 2.996
50.53000 1.981
50.54000 3.032
50.55000 3.043
50.56000 0.000
50.57000 4.104
50.58000 1.002
50.59000 6.100
50.60000 2.015
50.61000 3.011
50.62000 2.114
50.63000 0.995
50.64000 1.994
50.65000 2.029
50.66000 1.055
50.67000 3.040
50.68000 2.063
50.69000 3.067
50.70000 0.980
50.71000 3.050
50.72000 2.016
50.73000 1.024
50.74000 2.012
50.75000 1.022
50.76000 1.031
50.77000 1.025
50.78000 3.991
50.79000 0.990
50.80000 2.009
50.81000 6.114
50.82000 2.109
50.83000 0.000
50.84000 2.072
50.85000 0.992
50.86000 2.025
50.87000 3.990
50.88000 3.022
50.89000 3.025
50.90000 3.001
50.91000 3.020
50.92000 4.069
50.93000 2.067
50.94000 4.162
50.95000 2.006
50.96000 5.157
50.97000 1.991
50.98000 0.995
50.99000 2.062
51.00000 4.037
51.01000 5.103
51.02000 2.979
51.03000 4.069
51.04000 2.007
51.05000 0.000
51.06000 1.973
51.07000 2.021
51.08000 2.035
51.09000 3.069
51.10000 0.000
51.11000 0.000
51.12000 1.997
51.13000 0.984
51.14000 1.979
51.15000 1.948
51.16000 1.006
51.17000 6.014
51.18000 2.028
51.19000 2.044
51.20000 0.000
51.21000 1.007
51.22000 0.000
51.23000 2.066
51.24000 1.967
51.25000 0.000
51.26000 2.024
51.27000 4.114
51.28000 3.068
51.29000 1.994
51.30000 2.016
51.31000 1.027
51.32000 5.028
51.33000 6.091
51.34000 4.051
51.35000 0.000
51.36000 5.061
51.37000 2.055
51.38000 1.008
51.39000 3.022
51.40000 3.035
51.41000 2.052
51.42000 0.994
51.43000 1.005
51.44000 4.058
51.45000 2.087
51.46000 2.064
51.47000 1.994
51.48000 2.039
51.49000 0.000
51.50000 4.042
51.51000 2.029
51.52000 1.033
51.53000 0.992
51.54000 2.042
51.55000 5.174
51.56000 5.046
51.57000 5.087
51.58000 5.068
51.59000 3.978
51.60000 3.064
51.61000 2.032
51.62000 4.080
51.63000 6.056
51.64000 2.064
51.65000 1.024
51.66000 1.012
51.67000 4.019
51.68000 1.994
51.69000 2.973
51.70000 7.019
51.71000 3.960
51.72000 0.000
51.73000 4.089
51.74000 3.102
51.75000 1.015
51.76000 3.025
51.77000 4.064
51.78000 2.088
51.79000 1.022
51.80000 4.038
51.81000 4.018
51.82000 3.019
51.83000 0.000
51.84000 2.027
51.85000 0.000
51.86000 0.981
51.87000 2.055
51.88000 1.996
51.89000 2.025
51.90000 0.991
51.91000 0.982
51.92000 4.058
51.93000 0.960
51.94000 2.036
51.95000 6.148
51.96000 0.991
51.97000 1.053
51.98000 4.148
51.99000 3.004
52.00000 3.028
52.01000 2.033
52.02000 0.000
52.03000 2.042
52.04000 2.020
52.05000 5.162
52.06000 1.990
52.07000 0.000
52.08000 2.083
52.09000 3.982
52.10000 3.056
52.11000 5.123
52.12000 2.066
52.13000 1.015
52.14000 0.000
52.15000 3.033
52.16000 4.017
52.17000 1.998
52.18000 1.022
52.19000 3.039
52.20000 7.127
52.21000 1.004
52.22000 2.056
52.23000 2.076
52.24000 0.992
52.25000 1.011
52.26000 2.024
52.27000 0.000
52.28000 3.056
52.29000 0.990
52.30000 1.002
52.31000 2.964
52.32000 4.038
52.33000 3.070
52.34000 1.995
52.35000 2.972
52.36000 0.000
52.37000 3.961
52.38000 4.044
52.39000 2.071
52.40000 1.017
52.41000 2.983
52.42000 6.171
52.43000 1.979
52.44000 5.133
52.45000 0.000
52.46000 4.060
52.47000 3.020
52.48000 2.999
52.49000 2.015
52.50000 2.071
52.51000 5.078
52.52000 2.008
52.53000 2.025
52.54000 2.993
52.55000 2.048
52.56000 2.082
52.57000 0.983
52.58000 2.008
52.59000 1.025
52.60000 6.015
52.61000 0.000
52.62000 2.981
52.63000 3.144
52.64000 3.039
52.65000 4.086
52.66000 4.005
52.67000 3.010
52.68000 6.057
52.69000 2.025
52.70000 0.989
52.71000 3.063
52.72000 6.112
52.73000 2.991
52.74000 1.999
52.75000 0.986
52.76000 5.088
52.77000 3.020
52.78000 2.985
52.79000 1.072
52.80000 2.041
52.81000 1.060
52.82000 3.068
52.83000 3.098
52.84000 1.994
52.85000 2.000
52.86000 1.030
52.87000 3.002
52.88000 3.032
52.89000 0.000
52.90000 3.056
52.91000 0.000
52.92000 4.022
52.93000 1.004
52.94000 3.008
52.95000 4.097
52.96000 5.042
52.97000 3.053
52.98000 0.000
52.99000 1.045
53.00000 1.054
53.01000 1.998
53.02000 2.031
53.03000 0.000
53.04000 3.044
53.05000 0.000
53.06000 1.990
53.07000 2.045
53.08000 0.989
53.09000 2.066
53.10000 4.057
53.11000 2.997
53.12000 3.093
53.13000 0.000
53.14000 1.986
53.15000 2.031
53.16000 1.979
53.17000 0.992
53.18000 4.006
53.19000 3.082
53.20000 3.100
53.21000 3.961
53.22000 1.989
53.23000 3.064
53.24000 3.021
53.25000 2.955
53.26000 2.057
53.27000 0.989
53.28000 0.000
53.29000 3.999
53.30000 5.141
53.31000 4.102
53.32000 0.000
53.33000 4.045
53.34000 2.007
53.35000 0.000
53.36000 4.066
53.37000 4.028
53.38000 5.067
53.39000 4.039
53.40000 0.985
53.41000 0.000
53.42000 1.980
53.43000 2.057
53.44000 2.063
53.45000 3.057
53.46000 3.005
53.47000 0.000
53.48000 2.980
53.49000 2.053
53.50000 2.044
53.51000 2.053
53.52000 0.974
53.53000 2.051
53.54000 2.093
53.55000 4.034
53.56000 2.991
53.57000 1.058
53.58000 2.064
53.59000 1.028
53.60000 3.060
53.61000 5.036
53.62000 2.042
53.63000 0.000
53.64000 6.105
53.65000 1.002
53.66000 2.040
53.67000 1.989
53.68000 3.003
53.69000 3.025
53.70000 2.011
53.71000 1.000
53.72000 2.991
53.73000 5.011
53.74000 1.974
53.75000 5.129
53.76000 1.074
53.77000 4.090
53.78000 0.000
53.79000 2.059
53.80000 0.995
53.81000 1.012
53.82000 2.114
53.83000 0.999
53.84000 1.000
53.85000 0.995
53.86000 1.041
53.87000 0.000
53.88000 2.995
53.89000 0.999
53.90000 3.026
53.91000 3.052
53.92000 2.987
53.93000 1.001
53.94000 1.007
53.95000 1.013
53.96000 2.021
53.97000 1.005
53.98000 2.024
53.99000 4.035
54.00000 1.976
54.01000 0.000
54.02000 1.987
54.03000 1.007
54.04000 0.997
54.05000 4.033
54.06000 2.024
54.07000 1.058
54.08000 2.024
54.09000 2.043
54.10000 3.992
54.11000 1.942
54.12000 3.115
54.13000 0.000
54.14000 2.052
54.15000 1.986
54.16000 4.085
54.17000 0.000
54.18000 1.017
54.19000 1.012
54.20000 0.000
54.21000 1.049
54.22000 3.981
54.23000 0.972
54.24000 1.973
54.25000 2.008
54.26000 0.000
54.27000 1.023
54.28000 1.005
54.29000 2.952
54.30000 4.101
54.31000 4.058
54.32000 1.977
54.33000 1.027
54.34000 7.114
54.35000 1.968
54.36000 1.980
54.37000 3.063
54.38000 0.987
54.39000 2.995
54.40000 2.019
54.41000 2.983
54.42000 1.019
54.43000 3.001
54.44000 3.074
54.45000 0.987
54.46000 4.062
54.47000 0.000
54.48000 1.012
54.49000 2.084
54.50000 0.000
54.51000 3.963
54.52000 0.000
54.53000 1.039
54.54000 0.000
54.55000 2.998
54.56000 2.970
54.57000 1.997
54.58000 5.055
54.59000 3.006
54.60000 1.993
54.61000 5.069
54.62000 0.999
54.63000 2.033
54.64000 2.999
54.65000 3.061
54.66000 1.045
54.67000 3.057
54.68000 0.989
54.69000 2.043
54.70000 3.050
54.71000 4.062
54.72000 4.077
54.73000 1.061
54.74000 1.990
54.75000 0.979
54.76000 0.997
54.77000 2.047
54.78000 1.991
54.79000 5.071
54.80000 2.023
54.81000 4.078
54.82000 2.974
54.83000 0.000
54.84000 2.085
54.85000 0.000
54.86000 3.084
54.87000 0.000
54.88000 2.975
54.89000 4.092
54.90000 5.042
54.91000 3.066
54.92000 1.021
54.93000 2.970
54.94000 3.064
54.95000 3.006
54.96000 2.096
54.97000 2.027
54.98000 4.060
54.99000 2.968
55.00000 3.037
55.01000 0.998
55.02000 3.037
55.03000 2.021
55.04000 1.021
55.05000 0.000
55.06000 2.014
55.07000 0.999
55.08000 4.005
55.09000 1.995
55.10000 1.008
55.11000 2.003
55.12000 0.000
55.13000 1.016
55.14000 2.066
55.15000 3.048
55.16000 2.057
55.17000 2.012
55.18000 2.055
55.19000 1.979
55.20000 5.014
55.21000 0.954
55.22000 1.985
55.23000 3.092
55.24000 1.984
55.25000 4.024
55.26000 4.995
55.27000 0.999
55.28000 2.021
55.29000 1.012
55.30000 1.001
55.31000 2.048
55.32000 4.043
55.33000 2.042
55.34000 1.027
55.35000 0.000
55.36000 5.084
55.37000 2.010
55.38000 2.040
55.39000 2.060
55.40000 2.069
55.41000 1.991
55.42000 2.061
55.43000 1.046
55.44000 0.000
55.45000 1.041
55.46000 3.043
55.47000 0.000
55.48000 0.000
55.49000 0.000
55.50000 1.015
55.51000 3.073
55.52000 0.000
55.53000 3.013
55.54000 1.010
55.55000 3.020
55.56000 1.002
55.57000 2.047
55.58000 2.024
55.59000 2.050
55.60000 2.978
55.61000 0.000
55.62000 0.994
55.63000 3.033
55.64000 0.000
55.65000 1.036
55.66000 1.055
55.67000 3.962
55.68000 2.049
55.69000 2.036
55.70000 3.027
55.71000 2.045
55.72000 2.012
55.73000 2.980
55.74000 0.000
55.75000 2.050
55.76000 1.975
55.77000 3.024
55.78000 0.000
55.79000 1.023
55.80000 1.998
55.81000 1.996
55.82000 4.063
55.83000 0.000
55.84000 2.016
55.85000 3.079
55.86000 1.008
55.87000 0.000
55.88000 1.001
55.89000 0.000
55.90000 1.024
55.91000 1.977
55.92000 1.009
55.93000 3.035
55.94000 2.997
55.95000 3.014
55.96000 0.000
55.97000 0.000
55.98000 4.135
55.99000 4.037
56.00000 3.007
56.01000 3.040
56.02000 0.000
56.03000 0.976
56.04000 0.000
56.05000 1.025
56.06000 2.014
56.07000 2.987
56.08000 1.985
56.09000 3.083
56.10000 0.000
56.11000 2.074
56.12000 0.000
56.13000 2.045
56.14000 0.000
56.15000 1.962
56.16000 2.004
56.17000 1.982
56.18000 0.981
56.19000 0.000
56.20000 2.048
56.21000 2.010
56.22000 0.000
56.23000 0.000
56.24000 0.993
56.25000 3.020
56.26000 3.118
56.27000 0.000
56.28000 2.030
56.29000 1.036
56.30000 0.000
56.31000 1.986
56.32000 6.029
56.33000 1.010
56.34000 0.000
56.35000 2.052
56.36000 1.017
56.37000 0.000
56.38000 2.089
56.39000 4.048
56.40000 5.085
56.41000 2.998
56.42000 3.010
56.43000 1.027
56.44000 0.000
56.45000 0.993
56.46000 2.034
56.47000 2.012
56.48000 1.978
56.49000 2.029
56.50000 3.015
56.51000 5.005
56.52000 4.041
56.53000 4.117
56.54000 4.128
56.55000 4.078
56.56000 5.016
56.57000 2.057
56.58000 0.000
56.59000 2.011
56.60000 2.061
56.61000 0.979
56.62000 2.041
56.63000 2.040
56.64000 2.014
56.65000 1.991
56.66000 2.056
56.67000 2.087
56.68000 2.987
56.69000 2.019
56.70000 2.032
56.71000 4.019
56.72000 2.077
56.73000 0.000
56.74000 1.021
56.75000 5.005
56.76000 2.007
56.77000 3.048
56.78000 0.990
56.79000 2.029
56.80000 0.000
56.81000 4.037
56.82000 0.000
56.83000 5.168
56.84000 6.027
56.85000 2.039
56.86000 1.042
56.87000 4.010
56.88000 1.058
56.89000 0.986
56.90000 5.107
56.91000 2.013
56.92000 0.990
56.93000 1.027
56.94000 0.000
56.95000 2.031
56.96000 0.000
56.97000 2.011
56.98000 3.049
56.99000 1.004
57.00000 1.019
57.01000 2.016
57.02000 3.047
57.03000 3.019
57.04000 1.010
57.05000 4.052
57.06000 0.988
57.07000 2.054
57.08000 1.002
57.09000 1.095
57.10000 2.042
57.11000 3.057
57.12000 2.026
57.13000 0.000
57.14000 1.994
57.15000 2.010
57.16000 1.019
57.17000 2.021
57.18000 0.000
57.19000 0.979
57.20000 2.040
57.21000 4.095
57.22000 1.040
57.23000 2.026
57.24000 3.984
57.25000 1.013
57.26000 2.062
57.27000 2.991
57.28000 3.123
57.29000 1.034
57.30000 1.976
57.31000 1.007
57.32000 2.073
57.33000 0.000
57.34000 1.024
57.35000 1.971
57.36000 1.041
57.37000 1.049
57.38000 2.019
57.39000 1.004
57.40000 1.963
57.41000 2.020
57.42000 0.992
57.43000 3.097
57.44000 0.000
57.45000 9.151
57.46000 2.948
57.47000 0.000
57.48000 0.987
57.49000 0.000
57.50000 2.074
57.51000 1.002
57.52000 2.008
57.53000 2.013
57.54000 2.008
57.55000 2.018
57.56000 0.998
57.57000 0.000
57.58000 0.000
57.59000 3.059
57.60000 0.000
57.61000 3.046
57.62000 0.995
57.63000 1.009
57.64000 2.011
57.65000 1.051
57.66000 1.002
57.67000 0.984
57.68000 1.988
57.69000 3.079
57.70000 1.003
57.71000 0.984
57.72000 1.972
57.73000 0.999
57.74000 0.000
57.75000 2.058
57.76000 0.987
57.77000 1.983
57.78000 2.013
57.79000 2.033
57.80000 1.004
57.81000 0.000
57.82000 0.000
57.83000 2.067
57.84000 0.997
57.85000 1.975
57.86000 1.051
57.87000 3.009
57.88000 2.040
57.89000 0.000
57.90000 2.004
57.91000 2.005
57.92000 0.000
57.93000 7.049
57.94000 5.046
57.95000 2.979
57.96000 1.995
57.97000 4.089
57.98000 5.075
57.99000 5.099
58.00000 3.014
58.01000 1.025
58.02000 0.998
58.03000 1.019
58.04000 2.998
58.05000 0.000
58.06000 3.058
58.07000 2.031
58.08000 2.042
58.09000 0.000
58.10000 1.991
58.11000 2.025
58.12000 2.043
58.13000 3.069
58.14000 3.097
58.15000 0.996
58.16000 2.019
58.17000 1.043
58.18000 1.021
58.19000 1.983
58.20000 2.004
58.21000 5.030
58.22000 0.000
58.23000 2.006
58.24000 5.020
58.25000 1.042
58.26000 1.002
58.27000 0.994
58.28000 0.000
58.29000 0.000
58.30000 1.056
58.31000 1.996
58.32000 0.000
58.33000 2.001
58.34000 0.982
58.35000 3.127
58.36000 0.000
58.37000 0.000
58.38000 2.031
58.39000 0.994
58.40000 2.982
58.41000 0.000
58.42000 0.990
58.43000 2.010
58.44000 2.002
58.45000 3.083
58.46000 1.022
58.47000 0.000
58.48000 2.062
58.49000 5.085
58.50000 0.000
58.51000 2.067
58.52000 0.994
58.53000 3.072
58.54000 1.988
58.55000 0.000
58.56000 3.000
58.57000 2.058
58.58000 1.002
58.59000 4.048
58.60000 3.099
58.61000 3.028
58.62000 1.030
58.63000 1.062
58.64000 1.031
58.65000 1.017
58.66000 6.016
58.67000 0.000
58.68000 1.024
58.69000 3.043
58.70000 3.024
58.71000 0.980
58.72000 0.000
58.73000 2.055
58.74000 2.098
58.75000 1.000
58.76000 1.004
58.77000 3.018
58.78000 1.038
58.79000 1.000
58.80000 3.072
58.81000 0.000
58.82000 0.982
58.83000 1.004
58.84000 2.016
58.85000 3.048
58.86000 1.973
58.87000 1.014
58.88000 3.074
58.89000 0.988
58.90000 1.026
58.91000 5.034
58.92000 2.000
58.93000 3.077
58.94000 1.015
58.95000 3.003
58.96000 2.078
58.97000 3.060
58.98000 2.993
58.99000 0.000
59.00000 4.099
59.01000 4.016
59.02000 2.068
59.03000 2.105
59.04000 5.095
59.05000 4.026
59.06000 4.068
59.07000 0.000
59.08000 0.978
59.09000 2.002
59.10000 2.050
59.11000 6.075
59.12000 1.019
59.13000 2.995
59.14000 2.004
59.15000 0.989
59.16000 1.014
59.17000 2.995
59.18000 2.012
59.19000 4.020
59.20000 1.036
59.21000 0.000
59.22000 4.117
59.23000 1.024
59.24000 3.038
59.25000 0.967
59.26000 2.060
59.27000 1.003
59.28000 2.044
59.29000 2.069
59.30000 2.044
59.31000 3.072
59.32000 3.030
59.33000 2.087
59.34000 4.105
59.35000 0.000
59.36000 1.016
59.37000 0.000
59.38000 2.057
59.39000 1.036
59.40000 2.019
59.41000 0.990
59.42000 1.000
59.43000 3.060
59.44000 3.968
59.45000 0.000
59.46000 0.983
59.47000 1.026
59.48000 0.000
59.49000 0.987
59.50000 1.005
59.51000 3.021
59.52000 1.994
59.53000 1.033
59.54000 1.016
59.55000 1.984
59.56000 0.000
59.57000 0.000
59.58000 0.990
59.59000 2.054
59.60000 1.015
59.61000 0.000
59.62000 2.046
59.63000 1.009
59.64000 0.992
59.65000 0.983
59.66000 1.967
59.67000 2.018
59.68000 0.000
59.69000 3.040
59.70000 0.000
59.71000 2.014
59.72000 3.101
59.73000 2.041
59.74000 0.000
59.75000 3.052
59.76000 2.011
59.77000 0.000
59.78000 1.029
59.79000 1.004
59.80000 0.990
59.81000 1.970
59.82000 1.009
59.83000 0.000
59.84000 3.071
59.85000 3.014
59.86000 5.085
59.87000 0.000
59.88000 1.037
59.89000 2.051
59.90000 0.981
59.91000 2.018
59.92000 2.002
59.93000 0.000
59.94000 2.967
59.95000 1.032
59.96000 0.000
59.97000 1.040
59.98000 1.032
59.99000 0.000
60.00000 1.983
60.01000 2.075
60.02000 2.029
60.03000 2.037
60.04000 2.058
60.05000 0.986
60.06000 3.025
60.07000 0.000
60.08000 2.037
60.09000 1.002
60.10000 0.987
60.11000 3.043
60.12000 1.996
60.13000 4.005
60.14000 0.986
60.15000 1.009
60.16000 0.000
60.17000 6.019
60.18000 0.998
60.19000 2.964
60.20000 1.010
60.21000 1.022
60.22000 3.041
60.23000 2.075
60.24000 1.044
60.25000 2.034
60.26000 2.038
60.27000 3.062
60.28000 2.030
60.29000 5.044
60.30000 1.039
60.31000 2.973
60.32000 0.990
60.33000 3.050
60.34000 2.048
60.35000 2.022
60.36000 3.024
60.37000 2.031
60.38000 2.029
60.39000 0.974
60.40000 4.052
60.41000 1.029
60.42000 0.000
60.43000 3.033
60.44000 2.011
60.45000 1.045
60.46000 0.000
60.47000 0.995
60.48000 2.045
60.49000 2.048
60.50000 0.000
60.51000 1.978
60.52000 0.998
60.53000 1.014
60.54000 0.000
60.55000 2.048
60.56000 2.055
60.57000 2.047
60.58000 0.000
60.59000 1.946
60.60000 2.029
60.61000 3.012
60.62000 3.023
60.63000 1.004
60.64000 0.000
60.65000 0.000
60.66000 0.000
60.67000 5.014
60.68000 1.037
60.69000 2.054
60.70000 1.014
60.71000 1.008
60.72000 2.045
60.73000 0.995
60.74000 0.000
60.75000 5.002
60.76000 5.028
60.77000 2.968
60.78000 3.997
60.79000 1.001
60.80000 2.060
60.81000 3.067
60.82000 2.002
60.83000 2.059
60.84000 2.019
60.85000 3.032
60.86000 4.164
60.87000 1.009
60.88000 1.012
60.89000 0.000
60.90000 2.063
60.91000 2.010
60.92000 3.029
60.93000 0.000
60.94000 2.069
60.95000 0.000
60.96000 4.097
60.97000 2.047
60.98000 2.997
60.99000 4.046
61.00000 3.012
61.01000 0.998
61.02000 1.998
61.03000 2.020
61.04000 0.000
61.05000 3.079
61.06000 0.973
61.07000 1.013
61.08000 0.000
61.09000 1.983
61.10000 2.054
61.11000 3.106
61.12000 1.038
61.13000 1.023
61.14000 4.043
61.15000 2.002
61.16000 0.988
61.17000 0.000
61.18000 1.987
61.19000 0.000
61.20000 3.082
61.21000 4.030
61.22000 1.991
61.23000 2.034
61.24000 0.988
61.25000 2.087
61.26000 0.000
61.27000 2.035
61.28000 0.991
61.29000 2.001
61.30000 0.998
61.31000 0.000
61.32000 1.007
61.33000 0.994
61.34000 1.040
61.35000 0.976
61.36000 2.023
61.37000 1.011
61.38000 1.057
61.39000 0.000
61.40000 1.005
61.41000 1.053
61.42000 0.000
61.43000 1.019
61.44000 1.997
61.45000 2.978
61.46000 0.000
61.47000 2.106
61.48000 0.000
61.49000 2.035
61.50000 2.038
61.51000 0.997
61.52000 1.070
61.53000 0.000
61.54000 1.054
61.55000 0.000
61.56000 2.023
61.57000 1.988
61.58000 0.984
61.59000 1.006
61.60000 2.048
61.61000 2.001
61.62000 0.996
61.63000 2.055
61.64000 1.019
61.65000 4.044
61.66000 2.005
61.67000 1.005
61.68000 5.165
61.69000 1.055
61.70000 1.997
61.71000 1.010
61.72000 1.014
61.73000 2.023
61.74000 0.000
61.75000 1.031
61.76000 4.967
61.77000 1.046
61.78000 1.061
61.79000 2.012
61.80000 1.020
61.81000 1.023
61.82000 4.039
61.83000 0.000
61.84000 1.976
61.85000 3.072
61.86000 4.036
61.87000 1.022
61.88000 0.983
61.89000 1.006
61.90000 0.999
61.91000 2.077
61.92000 1.017
61.93000 0.000
61.94000 0.988
61.95000 5.083
61.96000 2.042
61.97000 1.003
61.98000 0.000
61.99000 1.027
62.00000 0.000
62.01000 1.996
62.02000 1.050
62.03000 2.031
62.04000 0.000
62.05000 3.006
62.06000 2.053
62.07000 5.019
62.08000 0.990
62.09000 3.055
62.10000 0.000
62.11000 3.055
62.12000 2.012
62.13000 2.034
62.14000 1.005
62.15000 1.002
62.16000 0.000
62.17000 0.000
62.18000 2.077
62.19000 1.025
62.20000 0.992
62.21000 2.055
62.22000 1.038
62.23000 2.047
62.24000 2.955
62.25000 2.003
62.26000 1.011
62.27000 2.010
62.28000 4.177
62.29000 1.056
62.30000 1.040
62.31000 0.000
62.32000 2.029
62.33000 3.000
62.34000 2.033
62.35000 0.000
62.36000 3.031
62.37000 1.024
62.38000 4.036
62.39000 0.000
62.40000 1.021
62.41000 2.021
62.42000 2.055
62.43000 1.066
62.44000 3.061
62.45000 1.041
62.46000 1.011
62.47000 2.056
62.48000 1.019
62.49000 3.008
62.50000 1.020
62.51000 0.997
62.52000 1.001
62.53000 0.968
62.54000 0.989
62.55000 5.032
62.56000 0.000
62.57000 0.000
62.58000 2.006
62.59000 4.111
62.60000 4.042
62.61000 3.083
62.62000 3.004
62.63000 2.077
62.64000 0.000
62.65000 0.984
62.66000 0.000
62.67000 0.000
62.68000 1.034
62.69000 0.000
62.70000 2.004
62.71000 2.029
62.72000 0.000
62.73000 2.074
62.74000 2.015
62.75000 0.000
62.76000 0.982
62.77000 1.000
62.78000 2.074
62.79000 1.067
62.80000 1.985
62.81000 0.000
62.82000 0.999
62.83000 1.019
62.84000 3.064
62.85000 0.995
62.86000 0.000
62.87000 1.057
62.88000 1.988
62.89000 0.980
62.90000 1.001
62.91000 0.000
62.92000 0.000
62.93000 1.013
62.94000 1.048
62.95000 0.000
62.96000 0.978
62.97000 2.056
62.98000 3.006
62.99000 1.051
63.00000 2.078
63.01000 1.007
63.02000 0.000
63.03000 1.981
63.04000 1.055
63.05000 0.000
63.06000 2.015
63.07000 0.991
63.08000 2.015
63.09000 1.967
63.10000 0.000
63.11000 0.998
63.12000 0.000
63.13000 0.998
63.14000 1.012
63.15000 3.058
63.16000 2.002
63.17000 1.008
63.18000 0.000
63.19000 1.018
63.20000 0.997
63.21000 3.039
63.22000 2.047
63.23000 1.005
63.24000 1.020
63.25000 2.057
63.26000 2.008
63.27000 1.011
63.28000 2.046
63.29000 0.000
63.30000 0.000
63.31000 2.086
63.32000 3.031
63.33000 2.040
63.34000 3.040
63.35000 0.000
63.36000 0.997
63.37000 1.004
63.38000 0.991
63.39000 1.995
63.40000 3.011
63.41000 1.013
63.42000 4.018
63.43000 2.008
63.44000 1.065
63.45000 0.000
63.46000 0.000
63.47000 1.014
63.48000 1.019
63.49000 2.026
63.50000 3.018
63.51000 3.060
63.52000 5.058
63.53000 5.017
63.54000 1.013
63.55000 0.000
63.56000 0.000
63.57000 1.035
63.58000 3.036
63.59000 0.000
63.60000 0.991
63.61000 1.039
63.62000 1.066
63.63000 2.966
63.64000 2.116
63.65000 3.028
63.66000 1.047
63.67000 0.000
63.68000 3.048
63.69000 1.974
63.70000 3.036
63.71000 1.004
63.72000 0.989
63.73000 1.016
63.74000 1.015
63.75000 3.000
63.76000 3.010
63.77000 4.029
63.78000 4.141
63.79000 1.010
63.80000 1.034
63.81000 0.982
63.82000 3.027
63.83000 2.006
63.84000 2.986
63.85000 0.000
63.86000 1.004
63.87000 1.981
63.88000 1.986
63.89000 0.000
63.90000 0.000
63.91000 2.026
63.92000 0.000
63.93000 2.026
63.94000 3.990
63.95000 0.000
63.96000 1.013
63.97000 1.010
63.98000 0.983
63.99000 2.022
64.00000 0.999
64.01000 5.063
64.02000 4.093
64.03000 2.003
64.04000 2.027
64.05000 1.987
64.06000 0.982
64.07000 0.000
64.08000 0.000
64.09000 3.011
64.10000 1.015
64.11000 0.000
64.12000 1.009
64.13000 2.013
64.14000 0.000
64.15000 0.000
64.16000 1.033
64.17000 0.000
64.18000 4.106
64.19000 1.027
64.20000 2.041
64.21000 3.059
64.22000 0.998
64.23000 2.072
64.24000 1.999
64.25000 1.054
64.26000 3.050
64.27000 1.041
64.28000 1.076
64.29000 2.067
64.30000 2.029
64.31000 1.009
64.32000 0.983
64.33000 3.031
64.34000 0.000
64.35000 3.073
64.36000 0.986
64.37000 2.072
64.38000 4.005
64.39000 0.992
64.40000 3.076
64.41000 2.086
64.42000 2.012
64.43000 3.004
64.44000 1.002
64.45000 0.000
64.46000 0.987
64.47000 0.987
64.48000 1.015
64.49000 1.025
64.50000 3.079
64.51000 0.000
64.52000 0.995
64.53000 5.044
64.54000 1.008
64.55000 1.988
64.56000 0.000
64.57000 1.994
64.58000 3.076
64.59000 3.070
64.60000 4.028
64.61000 0.995
64.62000 2.087
64.63000 2.027
64.64000 1.010
64.65000 1.966
64.66000 2.100
64.67000 3.081
64.68000 1.005
64.69000 4.061
64.70000 2.059
64.71000 0.000
64.72000 1.030
64.73000 1.983
64.74000 1.986
64.75000 3.069
64.76000 0.000
64.77000 4.037
64.78000 2.040
64.79000 1.017
64.80000 3.041
64.81000 1.007
64.82000 1.051
64.83000 2.026
64.84000 1.002
64.85000 0.000
64.86000 0.000
64.87000 3.040
64.88000 0.000
64.89000 3.012
64.90000 3.087
64.91000 2.073
64.92000 2.977
64.93000 1.000
64.94000 4.091
64.95000 2.000
64.96000 1.023
64.97000 3.083
64.98000 0.000
64.99000 1.043
65.00000 1.999
