20.00000 174.960
20.01000 155.355
20.02000 173.706
20.03000 177.573
20.04000 188.206
20.05000 167.033
20.06000 158.294
20.07000 163.149
20.08000 159.979
20.09000 150.451
20.10000 164.883
20.11000 160.517
20.12000 160.650
20.13000 183.361
20.14000 167.792
20.15000 163.709
20.16000 174.433
20.17000 179.109
20.18000 157.367
20.19000 167.477
20.20000 166.728
20.21000 183.505
20.22000 168.385
20.23000 183.243
20.24000 160.371
20.25000 156.641
20.26000 133.064
20.27000 138.916
20.28000 165.235
20.29000 157.167
20.30000 159.521
20.31000 158.520
20.32000 166.743
20.33000 157.693
20.34000 156.368
20.35000 154.332
20.36000 155.328
20.37000 150.319
20.38000 159.966
20.39000 137.151
20.40000 155.093
20.41000 142.280
20.42000 151.478
20.43000 165.257
20.44000 175.095
20.45000 162.595
20.46000 155.447
20.47000 156.783
20.48000 165.951
20.49000 144.433
20.50000 130.617
20.51000 149.255
20.52000 161.980
20.53000 143.472
20.54000 159.973
20.55000 136.088
20.56000 151.470
20.57000 158.872
20.58000 153.390
20.59000 137.049
20.60000 160.871
20.61000 140.086
20.62000 155.279
20.63000 149.348
20.64000 156.473
20.65000 162.498
20.66000 148.327
20.67000 134.573
20.68000 125.368
20.69000 132.144
20.70000 149.267
20.71000 131.718
20.72000 149.469
20.73000 145.206
20.74000 132.648
20.75000 134.391
20.76000 150.321
20.77000 171.574
20.78000 121.909
20.79000 141.117
20.80000 132.248
20.81000 136.737
20.82000 126.279
20.83000 146.680
20.84000 153.758
20.85000 132.099
20.86000 140.555
20.87000 150.207
20.88000 116.129
20.89000 153.106
20.90000 158.131
20.91000 146.635
20.92000 118.120
20.93000 131.338
20.94000 144.991
20.95000 131.380
20.96000 149.704
20.97000 139.516
20.98000 125.121
20.99000 138.924
21.00000 110.359
21.01000 128.759
21.02000 137.069
21.03000 121.305
21.04000 132.697
21.05000 121.799
21.06000 113.771
21.07000 107.425
21.08000 125.649
21.09000 131.056
21.10000 138.846
21.11000 122.479
21.12000 120.225
21.13000 113.235
21.14000 126.192
21.15000 127.309
21.16000 104.826
21.17000 106.067
21.18000 145.239
21.19000 121.057
21.20000 127.341
21.21000 126.035
21.22000 148.668
21.23000 106.744
21.24000 107.219
21.25000 97.135
21.26000 133.315
21.27000 112.312
21.28000 121.027
21.29000 128.741
21.30000 122.097
21.31000 123.279
21.32000 123.047
21.33000 100.086
21.34000 98.779
21.35000 113.958
21.36000 109.983
21.37000 102.855
21.38000 107.165
21.39000 107.792
21.40000 99.921
21.41000 105.868
21.42000 114.164
21.43000 116.144
21.44000 110.056
21.45000 92.726
21.46000 96.900
21.47000 103.006
21.48000 107.094
21.49000 116.359
21.50000 122.266
21.51000 112.988
21.52000 96.674
21.53000 108.190
21.54000 109.051
21.55000 104.048
21.56000 106.089
21.57000 99.843
21.58000 85.827
21.59000 87.007
21.60000 86.779
21.61000 142.419
21.62000 100.911
21.63000 112.127
21.64000 106.238
21.65000 122.498
21.66000 113.834
21.67000 73.267
21.68000 98.881
21.69000 103.187
21.70000 98.866
21.71000 100.808
21.72000 93.040
21.73000 94.979
21.74000 101.897
21.75000 87.918
21.76000 109.205
21.77000 112.279
21.78000 93.227
21.79000 99.818
21.80000 91.716
21.81000 91.891
21.82000 101.071
21.83000 104.920
21.84000 90.826
21.85000 83.099
21.86000 100.669
21.87000 76.007
21.88000 90.869
21.89000 97.281
21.90000 87.907
21.91000 100.838
21.92000 94.858
21.93000 87.179
21.94000 73.957
21.95000 90.295
21.96000 92.038
21.97000 94.065
21.98000 98.976
21.99000 85.808
22.00000 82.632
22.01000 94.590
22.02000 61.481
22.03000 92.027
22.04000 96.088
22.05000 86.544
22.06000 87.930
22.07000 79.838
22.08000 79.943
22.09000 83.554
22.10000 78.372
22.11000 71.661
22.12000 84.998
22.13000 61.587
22.14000 95.887
22.15000 74.503
22.16000 80.075
22.17000 97.726
22.18000 73.711
22.19000 78.729
22.20000 83.280
22.21000 72.059
22.22000 81.909
22.23000 76.813
22.24000 82.541
22.25000 80.755
22.26000 77.812
22.27000 75.847
22.28000 68.763
22.29000 72.394
22.30000 74.533
22.31000 66.855
22.32000 93.046
22.33000 62.825
22.34000 85.048
22.35000 72.941
22.36000 73.594
22.37000 80.538
22.38000 79.650
22.39000 63.736
22.40000 73.829
22.41000 81.779
22.42000 60.983
22.43000 66.718
22.44000 55.512
22.45000 76.078
22.46000 62.662
22.47000 78.793
22.48000 78.642
22.49000 67.495
22.50000 84.686
22.51000 72.670
22.52000 74.699
22.53000 74.794
22.54000 76.127
22.55000 74.494
22.56000 68.611
22.57000 64.571
22.58000 56.718
22.59000 69.697
22.60000 63.340
22.61000 72.404
22.62000 66.464
22.63000 66.552
22.64000 67.962
22.65000 52.544
22.66000 51.806
22.67000 72.762
22.68000 65.765
22.69000 58.775
22.70000 63.618
22.71000 67.525
22.72000 67.501
22.73000 48.554
22.74000 71.873
22.75000 59.373
22.76000 71.504
22.77000 67.652
22.78000 72.506
22.79000 67.612
22.80000 61.607
22.81000 56.394
22.82000 65.333
22.83000 63.656
22.84000 57.479
22.85000 46.422
22.86000 68.947
22.87000 63.621
22.88000 54.360
22.89000 49.600
22.90000 43.324
22.91000 67.484
22.92000 73.600
22.93000 57.546
22.94000 59.545
22.95000 49.258
22.96000 59.381
22.97000 50.435
22.98000 61.001
22.99000 47.270
23.00000 47.747
23.01000 57.587
23.02000 61.866
23.03000 49.582
23.04000 64.638
23.05000 59.432
23.06000 69.629
23.07000 43.302
23.08000 53.730
23.09000 52.372
23.10000 43.542
23.11000 49.568
23.12000 51.523
23.13000 49.460
23.14000 52.686
23.15000 53.652
23.16000 41.566
23.17000 57.742
23.18000 44.568
23.19000 62.734
23.20000 50.369
23.21000 45.559
23.22000 47.417
23.23000 50.401
23.24000 43.454
23.25000 51.451
23.26000 53.257
23.27000 53.447
23.28000 48.624
23.29000 54.598
23.30000 45.494
23.31000 45.560
23.32000 50.535
23.33000 55.741
23.34000 50.582
23.35000 44.370
23.36000 45.492
23.37000 45.709
23.38000 54.385
23.39000 53.595
23.40000 39.329
23.41000 53.702
23.42000 54.486
23.43000 50.327
23.44000 44.424
23.45000 56.539
23.46000 57.774
23.47000 51.626
23.48000 42.331
23.49000 40.251
23.50000 42.461
23.51000 45.322
23.52000 44.405
23.53000 44.441
23.54000 42.520
23.55000 42.469
23.56000 34.388
23.57000 49.497
23.58000 57.470
23.59000 42.486
23.60000 46.123
23.61000 40.501
23.62000 33.331
23.63000 31.426
23.64000 48.543
23.65000 39.255
23.66000 37.522
23.67000 36.663
23.68000 36.397
23.69000 35.342
23.70000 37.658
23.71000 34.563
23.72000 43.726
23.73000 30.198
23.74000 30.216
23.75000 37.551
23.76000 37.544
23.77000 50.454
23.78000 40.564
23.79000 40.246
23.80000 32.563
23.81000 33.300
23.82000 43.633
23.83000 35.232
23.84000 51.705
23.85000 36.196
23.86000 40.594
23.87000 41.487
23.88000 45.908
23.89000 47.471
23.90000 31.481
23.91000 32.438
23.92000 35.324
23.93000 38.373
23.94000 36.477
23.95000 41.488
23.96000 35.272
23.97000 38.375
23.98000 33.365
23.99000 45.273
24.00000 29.223
24.01000 30.344
24.02000 40.506
24.03000 34.337
24.04000 45.517
24.05000 35.427
24.06000 30.086
24.07000 30.352
24.08000 32.374
24.09000 35.220
24.10000 32.253
24.11000 27.294
24.12000 31.319
24.13000 28.481
24.14000 26.379
24.15000 34.482
24.16000 30.694
24.17000 26.077
24.18000 40.420
24.19000 33.244
24.20000 25.223
24.21000 38.375
24.22000 33.452
24.23000 37.421
24.24000 24.138
24.25000 32.429
24.26000 31.540
24.27000 29.428
24.28000 35.610
24.29000 38.284
24.30000 31.597
24.31000 37.495
24.32000 36.238
24.33000 36.158
24.34000 27.441
24.35000 32.388
24.36000 34.358
24.37000 29.354
24.38000 30.325
24.39000 24.281
24.40000 35.294
24.41000 24.096
24.42000 31.268
24.43000 29.170
24.44000 23.213
24.45000 25.357
24.46000 36.417
24.47000 30.589
24.48000 31.320
24.49000 25.280
24.50000 30.437
24.51000 32.216
24.52000 31.108
24.53000 29.309
24.54000 26.214
24.55000 31.392
24.56000 23.084
24.57000 25.417
24.58000 33.531
24.59000 26.279
24.60000 31.398
24.61000 36.313
24.62000 29.240
24.63000 20.328
24.64000 24.384
24.65000 24.261
24.66000 21.359
24.67000 33.474
24.68000 23.295
24.69000 31.219
24.70000 31.349
24.71000 25.348
24.72000 21.183
24.73000 29.286
24.74000 22.325
24.75000 21.194
24.76000 26.495
24.77000 26.127
24.78000 26.361
24.79000 21.235
24.80000 16.166
24.81000 21.282
24.82000 29.235
24.83000 26.503
24.84000 24.495
24.85000 24.292
24.86000 19.041
24.87000 20.085
24.88000 22.301
24.89000 26.671
24.90000 20.190
24.91000 24.154
24.92000 23.322
24.93000 23.342
24.94000 22.148
24.95000 28.271
24.96000 17.052
24.97000 34.328
24.98000 22.364
24.99000 26.232
25.00000 25.406
25.01000 30.319
25.02000 12.271
25.03000 24.368
25.04000 25.377
25.05000 26.273
25.06000 22.334
25.07000 30.340
25.08000 21.191
25.09000 14.091
25.10000 24.293
25.11000 19.188
25.12000 26.389
25.13000 25.131
25.14000 24.197
25.15000 15.144
25.16000 21.231
25.17000 22.242
25.18000 30.373
25.19000 19.142
25.20000 20.213
25.21000 25.352
25.22000 26.296
25.23000 26.400
25.24000 28.171
25.25000 22.359
25.26000 29.309
25.27000 24.146
25.28000 20.190
25.29000 26.248
25.30000 27.347
25.31000 21.296
25.32000 30.095
25.33000 21.165
25.34000 25.174
25.35000 22.368
25.36000 27.156
25.37000 26.234
25.38000 22.144
25.39000 18.193
25.40000 21.093
25.41000 28.402
25.42000 11.165
25.43000 11.368
25.44000 23.348
25.45000 32.257
25.46000 22.224
25.47000 25.069
25.48000 28.350
25.49000 19.191
25.50000 22.427
25.51000 16.150
25.52000 13.225
25.53000 20.306
25.54000 11.160
25.55000 19.285
25.56000 17.194
25.57000 16.113
25.58000 18.252
25.59000 15.108
25.60000 16.157
25.61000 17.253
25.62000 20.326
25.63000 12.239
25.64000 17.171
25.65000 22.112
25.66000 23.270
25.67000 20.300
25.68000 13.043
25.69000 22.028
25.70000 18.302
25.71000 21.215
25.72000 13.076
25.73000 17.409
25.74000 13.071
25.75000 28.420
25.76000 23.402
25.77000 18.161
25.78000 26.355
25.79000 15.212
25.80000 21.305
25.81000 16.059
25.82000 20.264
25.83000 19.220
25.84000 13.094
25.85000 18.207
25.86000 13.093
25.87000 16.224
25.88000 12.997
25.89000 21.132
25.90000 19.224
25.91000 15.205
25.92000 14.234
25.93000 17.146
25.94000 17.207
25.95000 22.326
25.96000 23.323
25.97000 18.124
25.98000 16.217
25.99000 21.542
26.00000 17.294
26.01000 13.180
26.02000 14.164
26.03000 15.280
26.04000 11.078
26.05000 23.097
26.06000 13.076
26.07000 13.123
26.08000 12.089
26.09000 11.131
26.10000 16.149
26.11000 21.365
26.12000 26.258
26.13000 13.193
26.14000 14.061
26.15000 13.175
26.16000 17.322
26.17000 11.050
26.18000 16.311
26.19000 14.138
26.20000 22.331
26.21000 16.148
26.22000 12.153
26.23000 14.083
26.24000 18.187
26.25000 13.241
26.26000 13.374
26.27000 11.130
26.28000 20.051
26.29000 17.384
26.30000 15.178
26.31000 18.297
26.32000 9.090
26.33000 13.117
26.34000 13.204
26.35000 29.045
26.36000 16.220
26.37000 9.103
26.38000 21.216
26.39000 15.232
26.40000 11.992
26.41000 14.244
26.42000 18.211
26.43000 10.136
26.44000 20.207
26.45000 14.218
26.46000 19.336
26.47000 17.360
26.48000 12.279
26.49000 11.194
26.50000 21.036
26.51000 10.038
26.52000 19.082
26.53000 13.189
26.54000 11.203
26.55000 23.118
26.56000 15.295
26.57000 12.013
26.58000 13.201
26.59000 13.160
26.60000 13.153
26.61000 18.251
26.62000 15.137
26.63000 21.285
26.64000 17.246
26.65000 22.227
26.66000 9.183
26.67000 14.206
26.68000 10.096
26.69000 16.183
26.70000 15.275
26.71000 12.298
26.72000 19.004
26.73000 14.179
26.74000 18.310
26.75000 14.158
26.76000 18.412
26.77000 15.116
26.78000 14.147
26.79000 22.257
26.80000 22.174
26.81000 11.065
26.82000 13.216
26.83000 13.154
26.84000 12.232
26.85000 10.197
26.86000 15.152
26.87000 10.178
26.88000 12.169
26.89000 10.010
26.90000 12.051
26.91000 11.194
26.92000 14.252
26.93000 13.084
26.94000 17.147
26.95000 8.103
26.96000 17.323
26.97000 13.301
26.98000 7.086
26.99000 16.054
27.00000 11.237
27.01000 19.201
27.02000 17.160
27.03000 18.262
27.04000 12.985
27.05000 12.105
27.06000 12.156
27.07000 14.163
27.08000 15.339
27.09000 7.071
27.10000 10.068
27.11000 3.037
27.12000 20.412
27.13000 23.233
27.14000 16.195
27.15000 19.314
27.16000 17.168
27.17000 12.160
27.18000 11.170
27.19000 10.146
27.20000 11.057
27.21000 18.367
27.22000 16.161
27.23000 10.092
27.24000 16.200
27.25000 18.233
27.26000 13.191
27.27000 10.032
27.28000 12.221
27.29000 13.334
27.30000 13.205
27.31000 14.164
27.32000 29.192
27.33000 10.108
27.34000 14.034
27.35000 11.127
27.36000 11.245
27.37000 10.095
27.38000 15.147
27.39000 22.428
27.40000 13.223
27.41000 13.094
27.42000 19.354
27.43000 14.193
27.44000 20.217
27.45000 13.081
27.46000 9.149
27.47000 13.251
27.48000 10.104
27.49000 6.929
27.50000 14.112
27.51000 11.086
27.52000 12.166
27.53000 12.258
27.54000 6.047
27.55000 19.096
27.56000 11.127
27.57000 14.170
27.58000 14.290
27.59000 11.162
27.60000 10.097
27.61000 15.248
27.62000 14.035
27.63000 13.163
27.64000 15.157
27.65000 13.394
27.66000 17.306
27.67000 12.204
27.68000 13.164
27.69000 10.062
27.70000 6.987
27.71000 12.259
27.72000 10.179
27.73000 9.909
27.74000 12.139
27.75000 10.097
27.76000 11.114
27.77000 15.070
27.78000 18.287
27.79000 11.082
27.80000 22.379
27.81000 12.094
27.82000 12.131
27.83000 14.314
27.84000 16.222
27.85000 9.150
27.86000 12.212
27.87000 6.116
27.88000 5.065
27.89000 12.197
27.90000 12.200
27.91000 11.093
27.92000 8.041
27.93000 11.037
27.94000 9.050
27.95000 9.073
27.96000 14.124
27.97000 8.127
27.98000 17.158
27.99000 9.053
28.00000 14.238
28.01000 13.195
28.02000 14.068
28.03000 15.284
28.04000 10.125
28.05000 18.079
28.06000 11.199
28.07000 14.247
28.08000 13.060
28.09000 19.321
28.10000 14.969
28.11000 8.200
28.12000 11.050
28.13000 10.057
28.14000 9.127
28.15000 9.088
28.16000 11.195
28.17000 16.215
28.18000 11.155
28.19000 10.152
28.20000 16.256
28.21000 18.287
28.22000 12.375
28.23000 9.209
28.24000 14.313
28.25000 11.107
28.26000 16.269
28.27000 17.249
28.28000 11.091
28.29000 17.131
28.30000 16.332
28.31000 13.201
28.32000 8.993
28.33000 14.198
28.34000 14.155
28.35000 10.024
28.36000 8.199
28.37000 10.148
28.38000 12.144
28.39000 20.303
28.40000 11.054
28.41000 6.990
28.42000 11.248
28.43000 15.194
28.44000 18.096
28.45000 9.070
28.46000 5.996
28.47000 13.133
28.48000 15.186
28.49000 17.184
28.50000 15.341
28.51000 12.127
28.52000 13.151
28.53000 13.284
28.54000 10.047
28.55000 9.183
28.56000 10.080
28.57000 9.194
28.58000 7.122
28.59000 4.036
28.60000 11.100
28.61000 5.096
28.62000 10.180
28.63000 8.216
28.64000 11.204
28.65000 19.253
28.66000 17.179
28.67000 12.135
28.68000 20.310
28.69000 8.093
28.70000 15.110
28.71000 11.139
28.72000 11.141
28.73000 10.122
28.74000 9.005
28.75000 10.175
28.76000 6.140
28.77000 10.067
28.78000 11.025
28.79000 6.057
28.80000 12.120
28.81000 9.135
28.82000 10.148
28.83000 15.280
28.84000 15.251
28.85000 9.094
28.86000 12.154
28.87000 9.075
28.88000 20.183
28.89000 7.094
28.90000 8.360
28.91000 11.159
28.92000 14.122
28.93000 4.985
28.94000 16.289
28.95000 10.987
28.96000 9.991
28.97000 11.357
28.98000 11.093
28.99000 4.039
29.00000 19.265
29.01000 8.123
29.02000 7.204
29.03000 13.193
29.04000 17.276
29.05000 8.235
29.06000 10.111
29.07000 10.087
29.08000 15.269
29.09000 6.050
29.10000 12.190
29.11000 17.153
29.12000 5.110
29.13000 9.119
29.14000 12.118
29.15000 8.081
29.16000 7.083
29.17000 10.142
29.18000 8.955
29.19000 13.191
29.20000 17.144
29.21000 10.099
29.22000 9.151
29.23000 10.147
29.24000 6.065
29.25000 11.140
29.26000 6.167
29.27000 7.039
29.28000 10.163
29.29000 11.091
29.30000 13.125
29.31000 5.063
29.32000 9.067
29.33000 8.171
29.34000 16.200
29.35000 8.170
29.36000 13.210
29.37000 16.245
29.38000 10.200
29.39000 6.048
29.40000 11.244
29.41000 9.099
29.42000 9.108
29.43000 16.230
29.44000 9.040
29.45000 4.026
29.46000 12.180
29.47000 9.015
29.48000 10.221
29.49000 12.164
29.50000 8.025
29.51000 12.315
29.52000 3.988
29.53000 15.297
29.54000 7.122
29.55000 16.169
29.56000 10.103
29.57000 14.231
29.58000 13.061
29.59000 7.130
29.60000 7.104
29.61000 13.074
29.62000 7.086
29.63000 11.209
29.64000 10.129
29.65000 12.185
29.66000 12.112
29.67000 10.146
29.68000 11.288
29.69000 18.191
29.70000 13.240
29.71000 10.119
29.72000 9.056
29.73000 10.131
29.74000 13.357
29.75000 5.019
29.76000 10.099
29.77000 9.960
29.78000 17.261
29.79000 9.090
29.80000 8.151
29.81000 5.061
29.82000 8.147
29.83000 13.164
29.84000 12.142
29.85000 11.193
29.86000 14.155
29.87000 11.172
29.88000 7.982
29.89000 6.137
29.90000 10.140
29.91000 11.141
29.92000 7.967
29.93000 9.036
29.94000 8.167
29.95000 14.163
29.96000 11.156
29.97000 7.004
29.98000 11.099
29.99000 11.002
30.00000 14.214
30.01000 13.133
30.02000 7.149
30.03000 7.223
30.04000 8.129
30.05000 10.121
30.06000 7.129
30.07000 12.143
30.08000 9.112
30.09000 5.039
30.10000 9.168
30.11000 10.096
30.12000 10.174
30.13000 5.094
30.14000 12.279
30.15000 14.271
30.16000 6.088
30.17000 11.226
30.18000 9.095
30.19000 10.189
30.20000 15.298
30.21000 11.302
30.22000 11.059
30.23000 10.232
30.24000 8.105
30.25000 6.107
30.26000 9.050
30.27000 9.088
30.28000 14.203
30.29000 4.080
30.30000 13.215
30.31000 13.092
30.32000 6.982
30.33000 5.160
30.34000 11.044
30.35000 8.063
30.36000 5.084
30.37000 8.018
30.38000 3.989
30.39000 5.128
30.40000 14.233
30.41000 6.122
30.42000 9.081
30.43000 9.220
30.44000 9.316
30.45000 8.039
30.46000 7.078
30.47000 13.161
30.48000 9.116
30.49000 10.259
30.50000 9.105
30.51000 13.233
30.52000 9.179
30.53000 6.043
30.54000 9.149
30.55000 13.099
30.56000 12.981
30.57000 5.982
30.58000 10.124
30.59000 7.078
30.60000 10.019
30.61000 9.160
30.62000 12.215
30.63000 5.983
30.64000 8.083
30.65000 7.092
30.66000 12.222
30.67000 11.151
30.68000 6.106
30.69000 4.042
30.70000 12.126
30.71000 10.159
30.72000 8.028
30.73000 10.190
30.74000 8.010
30.75000 6.047
30.76000 5.144
30.77000 8.102
30.78000 9.040
30.79000 4.065
30.80000 12.038
30.81000 7.160
30.82000 6.125
30.83000 9.319
30.84000 10.209
30.85000 8.105
30.86000 7.002
30.87000 3.009
30.88000 6.933
30.89000 11.063
30.90000 8.172
30.91000 9.126
30.92000 8.220
30.93000 9.225
30.94000 12.250
30.95000 8.081
30.96000 16.082
30.97000 8.076
30.98000 10.095
30.99000 10.111
31.00000 10.035
31.01000 8.056
31.02000 7.076
31.03000 6.120
31.04000 9.213
31.05000 7.031
31.06000 11.152
31.07000 7.159
31.08000 8.227
31.09000 3.938
31.10000 14.271
31.11000 11.245
31.12000 3.066
31.13000 10.099
31.14000 10.182
31.15000 6.108
31.16000 12.176
31.17000 13.183
31.18000 6.131
31.19000 9.038
31.20000 9.087
31.21000 12.140
31.22000 5.062
31.23000 6.162
31.24000 4.985
31.25000 3.095
31.26000 11.228
31.27000 9.216
31.28000 7.072
31.29000 9.081
31.30000 10.162
31.31000 9.130
31.32000 5.990
31.33000 9.203
31.34000 8.124
31.35000 9.104
31.36000 11.209
31.37000 7.156
31.38000 8.041
31.39000 14.229
31.40000 8.113
31.41000 7.102
31.42000 7.054
31.43000 8.267
31.44000 9.086
31.45000 5.124
31.46000 8.110
31.47000 12.232
31.48000 14.177
31.49000 6.144
31.50000 1.023
31.51000 5.155
31.52000 12.263
31.53000 12.044
31.54000 7.139
31.55000 5.055
31.56000 5.206
31.57000 10.132
31.58000 7.077
31.59000 6.159
31.60000 8.071
31.61000 15.316
31.62000 8.078
31.63000 11.113
31.64000 11.174
31.65000 11.204
31.66000 11.079
31.67000 4.034
31.68000 9.201
31.69000 9.142
31.70000 3.079
31.71000 12.198
31.72000 5.092
31.73000 7.064
31.74000 11.087
31.75000 7.053
31.76000 5.032
31.77000 8.118
31.78000 7.970
31.79000 8.132
31.80000 9.179
31.81000 7.156
31.82000 6.159
31.83000 10.148
31.84000 7.042
31.85000 6.158
31.86000 10.084
31.87000 6.091
31.88000 8.094
31.89000 8.035
31.90000 7.105
31.91000 11.209
31.92000 5.159
31.93000 6.061
31.94000 3.056
31.95000 7.152
31.96000 7.088
31.97000 10.107
31.98000 8.332
31.99000 14.116
32.00000 6.158
32.01000 10.226
32.02000 10.201
32.03000 3.042
32.04000 8.146
32.05000 10.126
32.06000 9.073
32.07000 4.019
32.08000 10.088
32.09000 16.073
32.10000 7.140
32.11000 6.064
32.12000 3.030
32.13000 6.061
32.14000 7.172
32.15000 10.105
32.16000 7.107
32.17000 5.126
32.18000 7.068
32.19000 10.214
32.20000 6.042
32.21000 5.096
32.22000 13.159
32.23000 8.018
32.24000 11.158
32.25000 7.098
32.26000 5.058
32.27000 12.055
32.28000 11.167
32.29000 7.240
32.30000 7.157
32.31000 5.054
32.32000 11.107
32.33000 9.036
32.34000 8.078
32.35000 3.981
32.36000 7.125
32.37000 3.015
32.38000 9.049
32.39000 12.290
32.40000 11.067
32.41000 12.281
32.42000 13.164
32.43000 12.209
32.44000 7.100
32.45000 5.089
32.46000 10.187
32.47000 6.094
32.48000 6.039
32.49000 7.079
32.50000 5.015
32.51000 7.128
32.52000 13.317
32.53000 9.063
32.54000 7.073
32.55000 6.057
32.56000 4.064
32.57000 9.141
32.58000 6.107
32.59000 8.129
32.60000 6.116
32.61000 11.088
32.62000 9.137
32.63000 5.001
32.64000 8.135
32.65000 4.151
32.66000 9.134
32.67000 9.126
32.68000 5.115
32.69000 13.259
32.70000 8.205
32.71000 7.129
32.72000 7.075
32.73000 10.061
32.74000 4.082
32.75000 2.052
32.76000 9.151
32.77000 5.086
32.78000 7.081
32.79000 9.128
32.80000 5.153
32.81000 7.005
32.82000 12.077
32.83000 10.300
32.84000 6.163
32.85000 10.194
32.86000 10.997
32.87000 13.992
32.88000 6.153
32.89000 3.021
32.90000 3.985
32.91000 8.119
32.92000 10.196
32.93000 5.102
32.94000 9.228
32.95000 7.084
32.96000 6.162
32.97000 7.156
32.98000 7.953
32.99000 6.157
33.00000 5.181
33.01000 7.104
33.02000 14.308
33.03000 7.928
33.04000 8.073
33.05000 13.141
33.06000 7.131
33.07000 5.085
33.08000 12.248
33.09000 6.100
33.10000 3.042
33.11000 9.024
33.12000 2.032
33.13000 6.077
33.14000 7.071
33.15000 3.001
33.16000 10.180
33.17000 6.077
33.18000 12.055
33.19000 10.214
33.20000 7.150
33.21000 7.204
33.22000 4.045
33.23000 2.976
33.24000 10.128
33.25000 8.044
33.26000 8.051
33.27000 7.104
33.28000 6.219
33.29000 7.091
33.30000 12.146
33.31000 8.092
33.32000 7.125
33.33000 8.133
33.34000 7.020
33.35000 6.002
33.36000 7.021
33.37000 6.028
33.38000 10.121
33.39000 7.137
33.40000 9.151
33.41000 9.154
33.42000 3.072
33.43000 11.262
33.44000 9.070
33.45000 1.984
33.46000 7.167
33.47000 9.000
33.48000 8.156
33.49000 5.144
33.50000 9.157
33.51000 7.092
33.52000 7.082
33.53000 5.107
33.54000 12.102
33.55000 4.098
33.56000 6.029
33.57000 4.050
33.58000 6.215
33.59000 7.093
33.60000 2.003
33.61000 10.158
33.62000 9.122
33.63000 11.094
33.64000 6.066
33.65000 5.133
33.66000 5.004
33.67000 4.017
33.68000 5.108
33.69000 5.036
33.70000 6.070
33.71000 9.122
33.72000 5.979
33.73000 12.094
33.74000 9.144
33.75000 7.053
33.76000 7.053
33.77000 6.109
33.78000 7.983
33.79000 7.075
33.80000 12.102
33.81000 7.024
33.82000 6.109
33.83000 4.046
33.84000 3.023
33.85000 8.192
33.86000 9.015
33.87000 6.026
33.88000 3.063
33.89000 10.116
33.90000 8.249
33.91000 7.076
33.92000 5.037
33.93000 6.027
33.94000 6.011
33.95000 5.110
33.96000 5.157
33.97000 7.116
33.98000 6.034
33.99000 4.936
34.00000 11.216
34.01000 10.194
34.02000 5.076
34.03000 5.134
34.04000 4.079
34.05000 15.133
34.06000 6.120
34.07000 3.052
34.08000 2.024
34.09000 7.116
34.10000 8.035
34.11000 9.071
34.12000 8.104
34.13000 1.983
34.14000 9.180
34.15000 4.036
34.16000 7.110
34.17000 7.150
34.18000 9.064
34.19000 11.322
34.20000 1.005
34.21000 5.069
34.22000 10.120
34.23000 5.115
34.24000 7.109
34.25000 10.191
34.26000 1.032
34.27000 5.132
34.28000 6.995
34.29000 14.131
34.30000 5.960
34.31000 7.123
34.32000 4.093
34.33000 13.052
34.34000 6.045
34.35000 8.288
34.36000 7.935
34.37000 5.008
34.38000 3.965
34.39000 4.068
34.40000 8.967
34.41000 8.138
34.42000 7.074
34.43000 7.107
34.44000 7.069
34.45000 5.112
34.46000 9.132
34.47000 9.149
34.48000 3.032
34.49000 6.072
34.50000 8.262
34.51000 7.064
34.52000 5.068
34.53000 13.199
34.54000 10.172
34.55000 5.126
34.56000 4.990
34.57000 2.016
34.58000 11.174
34.59000 7.053
34.60000 10.210
34.61000 8.079
34.62000 4.084
34.63000 6.093
34.64000 5.132
34.65000 7.012
34.66000 8.096
34.67000 8.118
34.68000 7.037
34.69000 3.000
34.70000 4.025
34.71000 6.084
34.72000 12.302
34.73000 9.207
34.74000 5.959
34.75000 8.050
34.76000 10.177
34.77000 3.978
34.78000 7.088
34.79000 6.206
34.80000 8.161
34.81000 10.127
34.82000 10.248
34.83000 6.069
34.84000 8.080
34.85000 9.164
34.86000 10.136
34.87000 10.211
34.88000 4.099
34.89000 3.026
34.90000 3.006
34.91000 5.149
34.92000 7.078
34.93000 6.166
34.94000 4.020
34.95000 6.012
34.96000 5.973
34.97000 5.091
34.98000 5.080
34.99000 4.056
35.00000 7.193
35.01000 5.095
35.02000 10.150
35.03000 9.198
35.04000 6.100
35.05000 5.050
35.06000 8.104
35.07000 9.113
35.08000 8.074
35.09000 7.016
35.10000 2.012
35.11000 5.094
35.12000 7.139
35.13000 7.023
35.14000 5.103
35.15000 4.032
35.16000 4.052
35.17000 7.131
35.18000 9.075
35.19000 7.019
35.20000 9.047
35.21000 4.098
35.22000 5.105
35.23000 7.285
35.24000 7.127
35.25000 10.066
35.26000 5.087
35.27000 4.015
35.28000 0.992
35.29000 4.944
35.30000 9.034
35.31000 8.144
35.32000 4.026
35.33000 6.094
35.34000 11.172
35.35000 9.124
35.36000 3.005
35.37000 5.107
35.38000 6.088
35.39000 7.966
35.40000 6.059
35.41000 2.028
35.42000 0.000
35.43000 4.125
35.44000 6.099
35.45000 7.040
35.46000 4.005
35.47000 7.064
35.48000 3.064
35.49000 6.034
35.50000 3.030
35.51000 6.135
35.52000 12.121
35.53000 10.042
35.54000 4.042
35.55000 8.098
35.56000 5.959
35.57000 8.128
35.58000 4.072
35.59000 7.999
35.60000 4.051
35.61000 6.065
35.62000 6.114
35.63000 2.000
35.64000 6.081
35.65000 6.079
35.66000 7.114
35.67000 4.011
35.68000 3.060
35.69000 5.121
35.70000 4.023
35.71000 5.030
35.72000 12.171
35.73000 11.073
35.74000 5.110
35.75000 6.162
35.76000 5.068
35.77000 5.108
35.78000 4.004
35.79000 11.159
35.80000 7.100
35.81000 6.122
35.82000 9.145
35.83000 9.060
35.84000 5.044
35.85000 8.135
35.86000 7.025
35.87000 6.976
35.88000 10.110
35.89000 4.033
35.90000 7.141
35.91000 8.173
35.92000 8.076
35.93000 6.032
35.94000 13.008
35.95000 2.026
35.96000 6.065
35.97000 5.032
35.98000 5.103
35.99000 5.045
36.00000 7.114
36.01000 5.139
36.02000 9.247
36.03000 3.053
36.04000 8.060
36.05000 9.189
36.06000 7.091
36.07000 9.079
36.08000 5.052
36.09000 3.042
36.10000 3.034
36.11000 9.243
36.12000 8.091
36.13000 3.965
36.14000 5.073
36.15000 3.021
36.16000 3.951
36.17000 4.017
36.18000 6.054
36.19000 10.194
36.20000 3.031
36.21000 6.161
36.22000 7.014
36.23000 3.998
36.24000 2.004
36.25000 10.983
36.26000 7.192
36.27000 6.178
36.28000 4.006
36.29000 5.079
36.30000 3.011
36.31000 3.000
36.32000 9.132
36.33000 9.193
36.34000 3.043
36.35000 7.280
36.36000 7.071
36.37000 9.110
36.38000 4.055
36.39000 8.089
36.40000 9.148
36.41000 8.071
36.42000 5.131
36.43000 8.090
36.44000 7.018
36.45000 6.049
36.46000 6.126
36.47000 7.114
36.48000 5.074
36.49000 5.013
36.50000 5.105
36.51000 3.094
36.52000 10.021
36.53000 7.053
36.54000 9.181
36.55000 6.134
36.56000 5.038
36.57000 7.041
36.58000 8.194
36.59000 8.087
36.60000 9.112
36.61000 5.059
36.62000 6.074
36.63000 6.031
36.64000 6.173
36.65000 7.038
36.66000 2.000
36.67000 4.044
36.68000 2.040
36.69000 3.010
36.70000 8.045
36.71000 7.150
36.72000 7.127
36.73000 9.098
36.74000 0.999
36.75000 7.002
36.76000 3.116
36.77000 6.118
36.78000 7.983
36.79000 7.149
36.80000 3.047
36.81000 4.952
36.82000 3.987
36.83000 7.102
36.84000 8.062
36.85000 5.050
36.86000 2.027
36.87000 6.092
36.88000 2.059
36.89000 4.068
36.90000 3.053
36.91000 9.193
36.92000 2.980
36.93000 6.017
36.94000 2.960
36.95000 8.049
36.96000 2.011
36.97000 6.085
36.98000 7.100
36.99000 8.077
37.00000 1.994
37.01000 5.036
37.02000 4.033
37.03000 7.016
37.04000 9.084
37.05000 3.991
37.06000 3.016
37.07000 8.205
37.08000 8.152
37.09000 7.007
37.10000 3.979
37.11000 6.049
37.12000 5.060
37.13000 4.105
37.14000 4.043
37.15000 9.071
37.16000 8.221
37.17000 4.056
37.18000 4.118
37.19000 7.126
37.20000 6.175
37.21000 4.066
37.22000 8.029
37.23000 5.116
37.24000 5.032
37.25000 12.157
37.26000 8.079
37.27000 7.251
37.28000 3.086
37.29000 7.054
37.30000 3.087
37.31000 5.041
37.32000 5.043
37.33000 5.121
37.34000 4.113
37.35000 5.085
37.36000 6.162
37.37000 7.149
37.38000 4.089
37.39000 4.081
37.40000 3.952
37.41000 3.075
37.42000 7.040
37.43000 3.081
37.44000 3.114
37.45000 4.064
37.46000 3.984
37.47000 14.267
37.48000 6.139
37.49000 4.005
37.50000 6.013
37.51000 4.041
37.52000 6.094
37.53000 3.954
37.54000 9.193
37.55000 5.027
37.56000 2.035
37.57000 5.063
37.58000 7.097
37.59000 7.103
37.60000 9.136
37.61000 4.055
37.62000 7.162
37.63000 5.107
37.64000 6.075
37.65000 8.196
37.66000 4.041
37.67000 7.102
37.68000 8.097
37.69000 4.087
37.70000 4.110
37.71000 3.946
37.72000 7.059
37.73000 4.085
37.74000 2.011
37.75000 6.080
37.76000 2.995
37.77000 7.028
37.78000 7.098
37.79000 3.004
37.80000 2.014
37.81000 5.067
37.82000 5.059
37.83000 6.125
37.84000 5.101
37.85000 4.041
37.86000 5.050
37.87000 1.971
37.88000 5.091
37.89000 5.041
37.90000 5.111
37.91000 6.168
37.92000 6.040
37.93000 5.063
37.94000 7.042
37.95000 11.154
37.96000 9.120
37.97000 9.082
37.98000 8.151
37.99000 6.089
38.00000 7.066
38.01000 5.015
38.02000 2.976
38.03000 3.019
38.04000 5.058
38.05000 6.040
38.06000 2.009
38.07000 9.079
38.08000 5.035
38.09000 11.178
38.10000 5.058
38.11000 4.029
38.12000 5.108
38.13000 8.153
38.14000 10.075
38.15000 6.022
38.16000 4.054
38.17000 6.074
38.18000 7.053
38.19000 1.032
38.20000 3.075
38.21000 5.963
38.22000 4.050
38.23000 6.102
38.24000 5.962
38.25000 5.067
38.26000 8.076
38.27000 5.129
38.28000 5.097
38.29000 5.116
38.30000 4.042
38.31000 3.119
38.32000 3.090
38.33000 7.153
38.34000 5.097
38.35000 2.038
38.36000 7.154
38.37000 4.132
38.38000 6.261
38.39000 4.029
38.40000 5.112
38.41000 3.024
38.42000 8.067
38.43000 4.088
38.44000 1.010
38.45000 4.122
38.46000 6.065
38.47000 3.050
38.48000 3.032
38.49000 6.024
38.50000 3.020
38.51000 9.071
38.52000 5.146
38.53000 5.974
38.54000 7.192
38.55000 5.020
38.56000 5.119
38.57000 9.023
38.58000 8.027
38.59000 5.093
38.60000 5.098
38.61000 4.056
38.62000 10.112
38.63000 9.066
38.64000 2.092
38.65000 7.123
38.66000 5.016
38.67000 7.154
38.68000 5.095
38.69000 9.088
38.70000 4.045
38.71000 6.085
38.72000 6.060
38.73000 1.038
38.74000 7.001
38.75000 10.034
38.76000 5.103
38.77000 4.083
38.78000 5.023
38.79000 3.002
38.80000 7.198
38.81000 5.094
38.82000 5.991
38.83000 6.082
38.84000 3.048
38.85000 1.023
38.86000 1.998
38.87000 3.093
38.88000 4.120
38.89000 9.222
38.90000 4.995
38.91000 1.997
38.92000 3.086
38.93000 11.243
38.94000 6.086
38.95000 7.098
38.96000 5.080
38.97000 3.065
38.98000 5.053
38.99000 2.112
39.00000 6.019
39.01000 5.034
39.02000 3.086
39.03000 4.233
39.04000 4.011
39.05000 7.101
39.06000 4.021
39.07000 5.103
39.08000 8.023
39.09000 7.033
39.10000 6.066
39.11000 4.059
39.12000 2.073
39.13000 6.004
39.14000 4.033
39.15000 5.012
39.16000 4.070
39.17000 3.018
39.18000 5.994
39.19000 6.115
39.20000 4.003
39.21000 8.087
39.22000 5.075
39.23000 3.975
39.24000 6.068
39.25000 2.991
39.26000 6.080
39.27000 5.072
39.28000 5.009
39.29000 4.032
39.30000 0.984
39.31000 7.017
39.32000 8.122
39.33000 5.008
39.34000 8.199
39.35000 1.993
39.36000 6.111
39.37000 5.041
39.38000 6.044
39.39000 4.004
39.40000 8.124
39.41000 7.003
39.42000 8.059
39.43000 7.161
39.44000 4.047
39.45000 10.051
39.46000 0.995
39.47000 4.099
39.48000 6.998
39.49000 10.155
39.50000 4.065
39.51000 5.066
39.52000 7.109
39.53000 5.981
39.54000 8.213
39.55000 4.123
39.56000 9.036
39.57000 6.108
39.58000 6.014
39.59000 5.101
39.60000 3.058
39.61000 6.046
39.62000 5.080
39.63000 2.010
39.64000 3.011
39.65000 2.942
39.66000 4.011
39.67000 7.052
39.68000 5.990
39.69000 2.967
39.70000 4.043
39.71000 4.953
39.72000 7.112
39.73000 9.245
39.74000 6.034
39.75000 5.053
39.76000 3.029
39.77000 4.012
39.78000 1.976
39.79000 5.074
39.80000 4.152
39.81000 3.030
39.82000 5.005
39.83000 6.136
39.84000 8.126
39.85000 5.050
39.86000 7.064
39.87000 2.994
39.88000 1.013
39.89000 0.987
39.90000 2.010
39.91000 6.077
39.92000 5.132
39.93000 7.032
39.94000 5.108
39.95000 7.090
39.96000 2.046
39.97000 3.040
39.98000 4.127
39.99000 5.161
40.00000 4.087
40.01000 8.135
40.02000 2.032
40.03000 3.014
40.04000 5.043
40.05000 3.971
40.06000 2.021
40.07000 2.012
40.08000 1.041
40.09000 6.997
40.10000 2.005
40.11000 4.039
40.12000 7.018
40.13000 2.999
40.14000 3.044
40.15000 4.072
40.16000 6.174
40.17000 4.018
40.18000 6.091
40.19000 4.024
40.20000 5.041
40.21000 8.072
40.22000 4.074
40.23000 5.083
40.24000 7.004
40.25000 2.985
40.26000 4.069
40.27000 4.033
40.28000 6.089
40.29000 6.037
40.30000 2.078
40.31000 2.010
40.32000 3.048
40.33000 8.070
40.34000 5.089
40.35000 0.000
40.36000 4.977
40.37000 2.128
40.38000 5.986
40.39000 5.075
40.40000 6.133
40.41000 5.044
40.42000 5.050
40.43000 3.000
40.44000 3.027
40.45000 3.034
40.46000 6.138
40.47000 5.111
40.48000 4.051
40.49000 6.089
40.50000 4.060
40.51000 2.093
40.52000 4.066
40.53000 6.042
40.54000 3.046
40.55000 1.022
40.56000 4.043
40.57000 3.015
40.58000 3.025
40.59000 3.009
40.60000 0.995
40.61000 5.105
40.62000 2.032
40.63000 5.026
40.64000 3.990
40.65000 5.098
40.66000 4.101
40.67000 4.050
40.68000 5.078
40.69000 4.096
40.70000 2.022
40.71000 7.101
40.72000 6.102
40.73000 5.027
40.74000 6.105
40.75000 1.017
40.76000 4.060
40.77000 5.072
40.78000 4.073
40.79000 4.125
40.80000 9.095
40.81000 6.028
40.82000 3.005
40.83000 6.062
40.84000 6.060
40.85000 6.088
40.86000 7.158
40.87000 1.022
40.88000 3.111
40.89000 6.209
40.90000 4.014
40.91000 4.978
40.92000 3.057
40.93000 7.058
40.94000 6.093
40.95000 4.083
40.96000 3.127
40.97000 3.029
40.98000 5.094
40.99000 5.025
41.00000 3.000
41.01000 7.020
41.02000 8.097
41.03000 3.127
41.04000 4.979
41.05000 6.049
41.06000 3.055
41.07000 4.037
41.08000 4.060
41.09000 0.996
41.10000 1.973
41.11000 4.962
41.12000 3.081
41.13000 5.064
41.14000 3.037
41.15000 5.002
41.16000 3.036
41.17000 3.103
41.18000 4.064
41.19000 7.043
41.20000 2.069
41.21000 5.083
41.22000 7.112
41.23000 6.093
41.24000 4.040
41.25000 3.971
41.26000 3.010
41.27000 7.042
41.28000 4.963
41.29000 5.109
41.30000 8.150
41.31000 5.104
41.32000 5.974
41.33000 5.103
41.34000 3.010
41.35000 8.105
41.36000 6.036
41.37000 4.074
41.38000 5.096
41.39000 0.982
41.40000 8.225
41.41000 0.975
41.42000 9.122
41.43000 2.055
41.44000 4.063
41.45000 7.097
41.46000 5.100
41.47000 8.172
41.48000 1.998
41.49000 2.007
41.50000 11.169
41.51000 1.974
41.52000 7.036
41.53000 5.128
41.54000 4.040
41.55000 6.163
41.56000 2.015
41.57000 7.018
41.58000 3.977
41.59000 6.034
41.60000 4.986
41.61000 7.097
41.62000 10.135
41.63000 4.056
41.64000 6.083
41.65000 8.111
41.66000 1.014
41.67000 4.953
41.68000 3.072
41.69000 6.066
41.70000 3.014
41.71000 1.975
41.72000 2.048
41.73000 2.034
41.74000 2.003
41.75000 3.062
41.76000 4.034
41.77000 4.039
41.78000 0.000
41.79000 5.035
41.80000 1.989
41.81000 2.027
41.82000 5.048
41.83000 4.083
41.84000 2.089
41.85000 7.101
41.86000 3.053
41.87000 5.088
41.88000 9.055
41.89000 6.040
41.90000 6.067
41.91000 2.043
41.92000 2.016
41.93000 6.010
41.94000 2.069
41.95000 4.126
41.96000 4.150
41.97000 5.075
41.98000 4.051
41.99000 7.090
42.00000 7.059
42.01000 7.038
42.02000 2.971
42.03000 2.063
42.04000 2.998
42.05000 5.131
42.06000 4.056
42.07000 2.100
42.08000 3.065
42.09000 1.015
42.10000 5.067
42.11000 7.107
42.12000 7.029
42.13000 3.064
42.14000 6.042
42.15000 6.050
42.16000 3.048
42.17000 1.051
42.18000 1.973
42.19000 3.014
42.20000 4.111
42.21000 6.056
42.22000 1.956
42.23000 7.122
42.24000 4.100
42.25000 4.089
42.26000 6.060
42.27000 6.067
42.28000 2.030
42.29000 2.982
42.30000 4.010
42.31000 1.001
42.32000 7.125
42.33000 5.062
42.34000 3.021
42.35000 6.077
42.36000 2.032
42.37000 4.061
42.38000 2.067
42.39000 3.141
42.40000 2.051
42.41000 4.066
42.42000 4.025
42.43000 2.002
42.44000 5.057
42.45000 7.006
42.46000 6.049
42.47000 1.970
42.48000 9.041
42.49000 5.134
42.50000 7.076
42.51000 1.016
42.52000 5.096
42.53000 3.042
42.54000 4.126
42.55000 8.153
42.56000 3.988
42.57000 5.020
42.58000 2.963
42.59000 2.985
42.60000 5.042
42.61000 2.019
42.62000 3.039
42.63000 8.149
42.64000 5.101
42.65000 4.037
42.66000 2.007
42.67000 3.086
42.68000 3.023
42.69000 6.084
42.70000 6.097
42.71000 6.116
42.72000 3.093
42.73000 4.012
42.74000 0.000
42.75000 4.036
42.76000 2.972
42.77000 5.009
42.78000 8.054
42.79000 2.096
42.80000 7.052
42.81000 6.083
42.82000 2.112
42.83000 2.065
42.84000 0.000
42.85000 8.165
42.86000 4.111
42.87000 4.101
42.88000 3.073
42.89000 3.981
42.90000 4.050
42.91000 10.171
42.92000 0.000
42.93000 3.029
42.94000 8.067
42.95000 7.156
42.96000 2.035
42.97000 3.989
42.98000 7.175
42.99000 2.032
43.00000 3.050
43.01000 5.117
43.02000 2.006
43.03000 7.093
43.04000 3.055
43.05000 2.037
43.06000 0.000
43.07000 6.087
43.08000 2.010
43.09000 1.019
43.10000 4.074
43.11000 4.033
43.12000 6.066
43.13000 4.093
43.14000 3.940
43.15000 5.079
43.16000 7.182
43.17000 5.097
43.18000 3.964
43.19000 2.066
43.20000 4.041
43.21000 4.999
43.22000 2.987
43.23000 4.065
43.24000 3.010
43.25000 6.066
43.26000 7.193
43.27000 5.187
43.28000 0.981
43.29000 3.020
43.30000 6.031
43.31000 6.085
43.32000 6.029
43.33000 3.062
43.34000 7.050
43.35000 2.028
43.36000 6.951
43.37000 4.101
43.38000 6.130
43.39000 4.058
43.40000 5.107
43.41000 4.075
43.42000 3.066
43.43000 4.004
43.44000 8.226
43.45000 5.048
43.46000 2.002
43.47000 3.977
43.48000 4.087
43.49000 2.983
43.50000 4.079
43.51000 1.001
43.52000 4.032
43.53000 5.039
43.54000 4.032
43.55000 2.063
43.56000 2.031
43.57000 2.046
43.58000 2.037
43.59000 7.170
43.60000 3.102
43.61000 3.062
43.62000 4.043
43.63000 4.064
43.64000 4.045
43.65000 4.024
43.66000 4.058
43.67000 3.032
43.68000 0.997
43.69000 3.010
43.70000 7.001
43.71000 5.030
43.72000 0.000
43.73000 6.143
43.74000 7.102
43.75000 3.110
43.76000 0.000
43.77000 4.084
43.78000 4.123
43.79000 3.990
43.80000 0.000
43.81000 7.059
43.82000 2.966
43.83000 4.031
43.84000 4.061
43.85000 4.103
43.86000 1.984
43.87000 2.072
43.88000 1.985
43.89000 5.087
43.90000 4.118
43.91000 4.083
43.92000 1.035
43.93000 0.999
43.94000 6.103
43.95000 1.015
43.96000 7.177
43.97000 2.020
43.98000 3.000
43.99000 3.078
44.00000 5.092
44.01000 1.008
44.02000 6.089
44.03000 1.033
44.04000 8.175
44.05000 4.118
44.06000 1.011
44.07000 4.030
44.08000 2.033
44.09000 5.146
44.10000 2.030
44.11000 2.048
44.12000 4.064
44.13000 5.241
44.14000 5.044
44.15000 3.023
44.16000 3.009
44.17000 5.060
44.18000 5.134
44.19000 2.012
44.20000 7.029
44.21000 4.099
44.22000 3.989
44.23000 3.064
44.24000 3.045
44.25000 2.076
44.26000 4.011
44.27000 3.058
44.28000 0.996
44.29000 3.042
44.30000 7.138
44.31000 6.103
44.32000 5.046
44.33000 4.997
44.34000 2.053
44.35000 4.070
44.36000 3.013
44.37000 1.978
44.38000 2.005
44.39000 8.137
44.40000 3.993
44.41000 4.068
44.42000 2.002
44.43000 4.030
44.44000 4.122
44.45000 4.998
44.46000 5.083
44.47000 7.994
44.48000 1.978
44.49000 6.071
44.50000 3.027
44.51000 3.066
44.52000 3.005
44.53000 4.081
44.54000 5.052
44.55000 6.040
44.56000 0.000
44.57000 2.029
44.58000 0.997
44.59000 3.008
44.60000 6.077
44.61000 1.986
44.62000 6.092
44.63000 4.104
44.64000 0.995
44.65000 1.007
44.66000 2.045
44.67000 1.007
44.68000 6.015
44.69000 4.111
44.70000 5.080
44.71000 3.080
44.72000 2.011
44.73000 2.032
44.74000 2.074
44.75000 2.983
44.76000 9.228
44.77000 2.001
44.78000 3.092
44.79000 2.045
44.80000 2.077
44.81000 6.120
44.82000 0.993
44.83000 6.076
44.84000 3.945
44.85000 3.059
44.86000 4.043
44.87000 1.995
44.88000 3.008
44.89000 6.974
44.90000 4.061
44.91000 6.099
44.92000 2.014
44.93000 4.981
44.94000 3.059
44.95000 2.087
44.96000 2.994
44.97000 2.062
44.98000 2.988
44.99000 5.093
45.00000 2.021
45.01000 4.978
45.02000 5.107
45.03000 1.016
45.04000 3.041
45.05000 1.996
45.06000 0.984
45.07000 3.031
45.08000 3.007
45.09000 4.028
45.10000 5.068
45.11000 10.035
45.12000 3.052
45.13000 1.943
45.14000 2.057
45.15000 2.034
45.16000 0.000
45.17000 6.067
45.18000 4.005
45.19000 6.053
45.20000 1.006
45.21000 8.094
45.22000 0.990
45.23000 4.003
45.24000 3.086
45.25000 5.104
45.26000 3.050
45.27000 4.124
45.28000 2.990
45.29000 4.072
45.30000 3.001
45.31000 2.152
45.32000 1.027
45.33000 3.030
45.34000 1.999
45.35000 0.000
45.36000 2.029
45.37000 5.110
45.38000 3.049
45.39000 4.021
45.40000 3.010
45.41000 5.050
45.42000 5.106
45.43000 6.139
45.44000 4.000
45.45000 5.041
45.46000 7.053
45.47000 3.028
45.48000 6.119
45.49000 6.037
45.50000 3.996
45.51000 4.029
45.52000 0.000
45.53000 13.241
45.54000 3.036
45.55000 4.141
45.56000 5.020
45.57000 2.025
45.58000 2.004
45.59000 5.008
45.60000 7.148
45.61000 2.091
45.62000 3.061
45.63000 0.000
45.64000 2.966
45.65000 4.981
45.66000 1.024
45.67000 2.006
45.68000 2.051
45.69000 5.080
45.70000 3.067
45.71000 5.213
45.72000 3.942
45.73000 3.117
45.74000 5.081
45.75000 3.941
45.76000 2.032
45.77000 5.036
45.78000 3.085
45.79000 6.091
45.80000 3.062
45.81000 5.101
45.82000 3.003
45.83000 3.012
45.84000 3.010
45.85000 2.985
45.86000 3.029
45.87000 8.103
45.88000 3.015
45.89000 3.076
45.90000 2.984
45.91000 1.010
45.92000 4.047
45.93000 4.013
45.94000 2.023
45.95000 3.993
45.96000 2.015
45.97000 0.000
45.98000 3.044
45.99000 1.018
46.00000 1.005
46.01000 4.069
46.02000 1.049
46.03000 3.064
46.04000 7.143
46.05000 5.077
46.06000 3.970
46.07000 1.025
46.08000 6.092
46.09000 0.000
46.10000 4.952
46.11000 2.978
46.12000 2.023
46.13000 6.187
46.14000 2.038
46.15000 3.005
46.16000 3.083
46.17000 6.046
46.18000 4.008
46.19000 3.026
46.20000 3.129
46.21000 0.000
46.22000 4.996
46.23000 2.002
46.24000 5.046
46.25000 3.100
46.26000 1.978
46.27000 8.118
46.28000 0.995
46.29000 1.005
46.30000 2.988
46.31000 6.033
46.32000 3.129
46.33000 3.038
46.34000 1.032
46.35000 5.083
46.36000 3.936
46.37000 6.982
46.38000 4.035
46.39000 1.006
46.40000 3.053
46.41000 1.006
46.42000 6.086
46.43000 0.000
46.44000 2.017
46.45000 2.990
46.46000 6.232
46.47000 4.019
46.48000 2.046
46.49000 4.007
46.50000 3.053
46.51000 5.096
46.52000 5.080
46.53000 3.023
46.54000 2.000
46.55000 5.111
46.56000 7.113
46.57000 4.112
46.58000 6.012
46.59000 2.009
46.60000 5.002
46.61000 1.035
46.62000 3.049
46.63000 1.021
46.64000 5.057
46.65000 5.092
46.66000 4.085
46.67000 3.034
46.68000 5.021
46.69000 3.013
46.70000 8.019
46.71000 6.043
46.72000 3.032
46.73000 4.043
46.74000 5.064
46.75000 4.059
46.76000 4.004
46.77000 5.026
46.78000 3.107
46.79000 6.086
46.80000 5.056
46.81000 1.037
46.82000 1.944
46.83000 6.061
46.84000 1.058
46.85000 1.985
46.86000 4.002
46.87000 2.062
46.88000 3.020
46.89000 7.154
46.90000 5.077
46.91000 3.059
46.92000 6.056
46.93000 3.036
46.94000 2.040
46.95000 6.106
46.96000 3.046
46.97000 2.993
46.98000 0.000
46.99000 4.024
47.00000 3.038
47.01000 5.031
47.02000 0.000
47.03000 4.057
47.04000 5.028
47.05000 3.131
47.06000 1.055
47.07000 3.989
47.08000 3.089
47.09000 3.042
47.10000 0.000
47.11000 7.028
47.12000 5.986
47.13000 3.058
47.14000 1.023
47.15000 3.039
47.16000 1.034
47.17000 4.018
47.18000 3.080
47.19000 3.099
47.20000 5.082
47.21000 1.039
47.22000 2.106
47.23000 1.976
47.24000 3.112
47.25000 1.954
47.26000 7.050
47.27000 2.067
47.28000 4.020
47.29000 3.069
47.30000 3.041
47.31000 5.080
47.32000 2.028
47.33000 2.981
47.34000 2.031
47.35000 3.133
47.36000 7.070
47.37000 1.011
47.38000 0.000
47.39000 2.007
47.40000 4.071
47.41000 4.064
47.42000 3.024
47.43000 3.965
47.44000 0.000
47.45000 1.024
47.46000 5.129
47.47000 2.020
47.48000 2.031
47.49000 5.043
47.50000 5.063
47.51000 4.007
47.52000 2.009
47.53000 3.077
47.54000 2.971
47.55000 4.084
47.56000 0.000
47.57000 3.017
47.58000 7.105
47.59000 3.006
47.60000 6.061
47.61000 9.024
47.62000 5.005
47.63000 2.041
47.64000 5.068
47.65000 6.080
47.66000 3.991
47.67000 5.126
47.68000 1.018
47.69000 1.029
47.70000 4.016
47.71000 1.996
47.72000 2.993
47.73000 6.115
47.74000 2.982
47.75000 1.996
47.76000 3.026
47.77000 5.039
47.78000 2.996
47.79000 2.979
47.80000 3.028
47.81000 4.106
47.82000 5.004
47.83000 3.002
47.84000 2.011
47.85000 2.040
47.86000 3.029
47.87000 3.031
47.88000 2.072
47.89000 5.126
47.90000 1.001
47.91000 2.033
47.92000 3.984
47.93000 5.103
47.94000 0.000
47.95000 3.016
47.96000 0.992
47.97000 4.100
47.98000 2.971
47.99000 3.029
48.00000 6.015
48.01000 2.004
48.02000 0.995
48.03000 3.012
48.04000 3.013
48.05000 3.011
48.06000 8.018
48.07000 4.070
48.08000 3.054
48.09000 4.002
48.10000 1.989
48.11000 6.012
48.12000 4.076
48.13000 6.030
48.14000 9.033
48.15000 4.008
48.16000 4.101
48.17000 3.012
48.18000 3.032
48.19000 1.050
48.20000 6.188
48.21000 2.992
48.22000 5.058
48.23000 0.000
48.24000 7.043
48.25000 2.001
48.26000 4.060
48.27000 1.991
48.28000 3.145
48.29000 3.041
48.30000 1.042
48.31000 3.052
48.32000 4.058
48.33000 0.989
48.34000 2.972
48.35000 8.074
48.36000 4.085
48.37000 4.022
48.38000 1.004
48.39000 3.059
48.40000 0.000
48.41000 1.037
48.42000 0.998
48.43000 0.995
48.44000 1.033
48.45000 6.114
48.46000 0.974
48.47000 3.968
48.48000 2.044
48.49000 7.160
48.50000 3.000
48.51000 2.060
48.52000 4.027
48.53000 2.994
48.54000 2.953
48.55000 4.155
48.56000 2.013
48.57000 2.012
48.58000 2.026
48.59000 3.024
48.60000 0.993
48.61000 2.972
48.62000 0.000
48.63000 2.019
48.64000 3.023
48.65000 3.999
48.66000 3.082
48.67000 1.030
48.68000 7.051
48.69000 3.098
48.70000 5.021
48.71000 0.976
48.72000 2.079
48.73000 0.000
48.74000 2.000
48.75000 3.086
48.76000 0.988
48.77000 2.989
48.78000 2.053
48.79000 3.021
48.80000 1.956
48.81000 0.000
48.82000 2.017
48.83000 3.064
48.84000 2.005
48.85000 0.000
48.86000 2.996
48.87000 2.044
48.88000 2.029
48.89000 6.104
48.90000 0.000
48.91000 3.019
48.92000 0.995
48.93000 1.034
48.94000 0.000
48.95000 3.053
48.96000 3.019
48.97000 2.028
48.98000 2.069
48.99000 1.022
49.00000 2.995
49.01000 5.118
49.02000 5.056
49.03000 3.065
49.04000 5.197
49.05000 3.027
49.06000 3.000
49.07000 3.060
49.08000 1.018
49.09000 3.037
49.10000 2.990
49.11000 7.060
49.12000 0.000
49.13000 1.018
49.14000 2.008
49.15000 5.028
49.16000 1.955
49.17000 5.054
49.18000 2.995
49.19000 4.048
49.20000 3.036
49.21000 2.052
49.22000 2.983
49.23000 0.000
49.24000 3.019
49.25000 0.991
49.26000 2.018
49.27000 2.027
49.28000 1.049
49.29000 1.963
49.30000 2.047
49.31000 3.071
49.32000 7.098
49.33000 1.020
49.34000 3.119
49.35000 3.022
49.36000 1.042
49.37000 6.063
49.38000 4.090
49.39000 5.046
49.40000 3.000
49.41000 5.000
49.42000 4.088
49.43000 4.149
49.44000 3.043
49.45000 6.025
49.46000 0.000
49.47000 6.036
49.48000 4.039
49.49000 1.036
49.50000 3.053
49.51000 4.119
49.52000 7.076
49.53000 2.040
49.54000 5.039
49.55000 4.036
49.56000 5.048
49.57000 4.983
49.58000 2.990
49.59000 2.064
49.60000 1.016
49.61000 5.096
49.62000 4.007
49.63000 5.080
49.64000 3.072
49.65000 1.958
49.66000 2.005
49.67000 5.017
49.68000 6.039
49.69000 3.004
49.70000 2.989
49.71000 0.000
49.72000 0.986
49.73000 3.037
49.74000 0.983
49.75000 4.146
49.76000 4.014
49.77000 3.019
49.78000 2.003
49.79000 3.043
49.80000 5.107
49.81000 0.000
49.82000 2.024
49.83000 1.004
49.84000 2.030
49.85000 2.042
49.86000 2.073
49.87000 1.990
49.88000 5.095
49.89000 1.966
49.90000 3.044
49.91000 3.051
49.92000 2.069
49.93000 2.006
49.94000 2.973
49.95000 5.106
49.96000 1.077
49.97000 1.053
49.98000 7.100
49.99000 0.993
50.00000 1.998
50.01000 0.000
50.02000 0.000
50.03000 1.995
50.04000 1.048
50.05000 0.000
50.06000 4.075
50.07000 1.030
50.08000 3.047
50.09000 5.108
50.10000 1.992
50.11000 2.014
50.12000 5.022
50.13000 5.074
50.14000 2.963
50.15000 2.024
50.16000 2.085
50.17000 8.037
50.18000 2.017
50.19000 5.145
50.20000 2.983
50.21000 2.029
50.22000 1.010
50.23000 0.974
50.24000 2.064
50.25000 3.019
50.26000 2.030
50.27000 3.029
50.28000 5.972
50.29000 3.060
50.30000 4.028
50.31000 3.103
50.32000 1.992
50.33000 1.968
50.34000 2.005
50.35000 3.025
50.36000 0.993
50.37000 2.086
50.38000 0.995
50.39000 1.971
50.40000 5.096
50.41000 3.008
50.42000 5.042
50.43000 2.013
50.44000 2.038
50.45000 4.118
50.46000 0.992
50.47000 2.033
50.48000 0.994
50.49000 7.111
50.50000 4.047
50.51000 2.982
50.52000 6.057
50.53000 0.997
50.54000 5.026
50.55000 0.982
50.56000 2.076
50.57000 4.107
50.58000 0.999
50.59000 4.064
50.60000 0.000
50.61000 6.952
50.62000 3.032
50.63000 5.028
50.64000 3.035
50.65000 4.056
50.66000 3.996
50.67000 3.999
50.68000 1.009
50.69000 2.023
50.70000 1.014
50.71000 4.075
50.72000 1.063
50.73000 1.998
50.74000 4.090
50.75000 0.000
50.76000 3.985
50.77000 2.993
50.78000 2.015
50.79000 1.061
50.80000 1.964
50.81000 4.081
50.82000 2.964
50.83000 4.037
50.84000 3.136
50.85000 3.050
50.86000 4.036
50.87000 2.026
50.88000 4.119
50.89000 2.015
50.90000 0.997
50.91000 2.016
50.92000 6.947
50.93000 4.040
50.94000 1.980
50.95000 5.055
50.96000 1.013
50.97000 4.091
50.98000 0.995
50.99000 2.022
51.00000 5.027
51.01000 2.015
51.02000 3.069
51.03000 1.978
51.04000 3.058
51.05000 7.191
51.06000 1.056
51.07000 5.006
51.08000 1.012
51.09000 4.063
51.10000 4.126
51.11000 1.982
51.12000 3.054
51.13000 2.068
51.14000 6.104
51.15000 3.983
51.16000 2.020
51.17000 2.076
51.18000 2.984
51.19000 1.002
51.20000 2.012
51.21000 3.010
51.22000 1.993
51.23000 0.984
51.24000 1.976
51.25000 1.014
51.26000 3.017
51.27000 0.000
51.28000 2.075
51.29000 3.064
51.30000 4.044
51.31000 2.040
51.32000 5.009
51.33000 0.000
51.34000 0.000
51.35000 2.998
51.36000 1.019
51.37000 5.060
51.38000 3.037
51.39000 1.997
51.40000 3.008
51.41000 1.031
51.42000 2.051
51.43000 0.000
51.44000 1.008
51.45000 1.051
51.46000 2.998
51.47000 5.058
51.48000 2.000
51.49000 2.044
51.50000 4.034
51.51000 0.000
51.52000 5.031
51.53000 4.005
51.54000 3.042
51.55000 1.986
51.56000 2.994
51.57000 4.030
51.58000 0.000
51.59000 1.985
51.60000 4.022
51.61000 0.000
51.62000 1.014
51.63000 2.079
51.64000 3.052
51.65000 3.034
51.66000 4.080
51.67000 6.047
51.68000 3.027
51.69000 1.015
51.70000 2.003
51.71000 2.031
51.72000 2.037
51.73000 1.996
51.74000 3.059
51.75000 4.998
51.76000 3.011
51.77000 2.038
51.78000 4.049
51.79000 3.049
51.80000 3.050
51.81000 3.024
51.82000 2.041
51.83000 1.035
51.84000 1.046
51.85000 1.008
51.86000 5.175
51.87000 4.024
51.88000 2.115
51.89000 2.033
51.90000 3.112
51.91000 2.016
51.92000 2.045
51.93000 3.073
51.94000 2.029
51.95000 1.985
51.96000 2.002
51.97000 3.025
51.98000 2.058
51.99000 4.079
52.00000 2.025
52.01000 3.996
52.02000 1.054
52.03000 3.008
52.04000 2.009
52.05000 4.077
52.06000 0.993
52.07000 3.018
52.08000 0.999
52.09000 2.063
52.10000 2.062
52.11000 3.999
52.12000 1.988
52.13000 6.052
52.14000 1.053
52.15000 0.000
52.16000 1.015
52.17000 1.994
52.18000 2.023
52.19000 0.973
52.20000 6.983
52.21000 0.000
52.22000 4.020
52.23000 3.045
52.24000 0.975
52.25000 2.986
52.26000 1.026
52.27000 1.026
52.28000 3.072
52.29000 2.016
52.30000 2.005
52.31000 4.030
52.32000 4.055
52.33000 3.056
52.34000 3.031
52.35000 3.096
52.36000 3.019
52.37000 9.126
52.38000 2.012
52.39000 2.053
52.40000 4.037
52.41000 4.015
52.42000 1.017
52.43000 2.054
52.44000 4.068
52.45000 6.124
52.46000 3.110
52.47000 3.051
52.48000 2.080
52.49000 3.039
52.50000 3.068
52.51000 0.000
52.52000 0.000
52.53000 3.014
52.54000 2.993
52.55000 2.013
52.56000 3.980
52.57000 2.030
52.58000 3.041
52.59000 4.031
52.60000 3.038
52.61000 2.019
52.62000 4.058
52.63000 3.013
52.64000 2.058
52.65000 3.049
52.66000 3.022
52.67000 4.090
52.68000 4.100
52.69000 4.063
52.70000 2.038
52.71000 3.994
52.72000 3.055
52.73000 1.060
52.74000 3.018
52.75000 2.064
52.76000 3.099
52.77000 3.032
52.78000 3.008
52.79000 2.064
52.80000 1.008
52.81000 3.009
52.82000 2.021
52.83000 1.001
52.84000 2.023
52.85000 1.033
52.86000 1.040
52.87000 3.033
52.88000 2.034
52.89000 3.043
52.90000 2.021
52.91000 7.094
52.92000 3.989
52.93000 5.035
52.94000 3.968
52.95000 0.000
52.96000 1.041
52.97000 0.998
52.98000 4.080
52.99000 4.141
53.00000 0.985
53.01000 0.000
53.02000 2.012
53.03000 0.991
53.04000 3.012
53.05000 1.012
53.06000 4.104
53.07000 2.005
53.08000 0.986
53.09000 2.034
53.10000 3.019
53.11000 2.018
53.12000 2.050
53.13000 2.059
53.14000 4.068
53.15000 7.150
53.16000 2.991
53.17000 5.077
53.18000 3.014
53.19000 0.993
53.20000 2.074
53.21000 4.081
53.22000 0.000
53.23000 1.986
53.24000 2.014
53.25000 0.983
53.26000 4.032
53.27000 5.009
53.28000 3.045
53.29000 4.142
53.30000 4.032
53.31000 5.055
53.32000 4.052
53.33000 2.064
53.34000 4.031
53.35000 0.000
53.36000 1.027
53.37000 2.098
53.38000 3.050
53.39000 4.134
53.40000 5.082
53.41000 0.000
53.42000 2.016
53.43000 3.041
53.44000 3.067
53.45000 0.000
53.46000 1.009
53.47000 4.027
53.48000 1.008
53.49000 0.000
53.50000 5.098
53.51000 0.000
53.52000 4.051
53.53000 4.070
53.54000 0.989
53.55000 3.022
53.56000 3.000
53.57000 3.063
53.58000 1.043
53.59000 1.974
53.60000 3.086
53.61000 5.035
53.62000 6.126
53.63000 1.054
53.64000 2.002
53.65000 1.012
53.66000 4.097
53.67000 0.000
53.68000 2.976
53.69000 2.026
53.70000 2.018
53.71000 0.000
53.72000 2.030
53.73000 2.054
53.74000 2.002
53.75000 1.036
53.76000 3.003
53.77000 3.002
53.78000 2.056
53.79000 1.017
53.80000 2.993
53.81000 3.013
53.82000 2.022
53.83000 4.021
53.84000 6.140
53.85000 6.037
53.86000 0.000
53.87000 0.993
53.88000 3.028
53.89000 3.116
53.90000 6.021
53.91000 0.993
53.92000 3.071
53.93000 3.022
53.94000 2.029
53.95000 0.994
53.96000 0.982
53.97000 0.000
53.98000 2.054
53.99000 4.018
54.00000 2.068
54.01000 2.983
54.02000 4.002
54.03000 4.075
54.04000 2.039
54.05000 2.014
54.06000 4.043
54.07000 5.090
54.08000 1.983
54.09000 0.000
54.10000 0.000
54.11000 1.997
54.12000 1.000
54.13000 2.055
54.14000 3.043
54.15000 0.992
54.16000 3.081
54.17000 1.980
54.18000 2.013
54.19000 1.007
54.20000 1.015
54.21000 3.117
54.22000 1.988
54.23000 2.991
54.24000 1.071
54.25000 1.963
54.26000 4.069
54.27000 4.055
54.28000 4.053
54.29000 0.997
54.30000 0.000
54.31000 3.010
54.32000 1.996
54.33000 4.050
54.34000 1.963
54.35000 0.000
54.36000 3.955
54.37000 2.044
54.38000 1.997
54.39000 1.992
54.40000 2.020
54.41000 6.077
54.42000 0.000
54.43000 4.059
54.44000 1.968
54.45000 0.000
54.46000 3.115
54.47000 0.000
54.48000 1.992
54.49000 2.105
54.50000 3.021
54.51000 4.055
54.52000 2.036
54.53000 4.029
54.54000 3.031
54.55000 4.038
54.56000 1.025
54.57000 1.016
54.58000 3.079
54.59000 1.990
54.60000 5.239
54.61000 2.072
54.62000 4.010
54.63000 0.000
54.64000 2.004
54.65000 0.000
54.66000 0.000
54.67000 1.987
54.68000 2.035
54.69000 0.000
54.70000 2.001
54.71000 3.011
54.72000 3.998
54.73000 2.048
54.74000 0.000
54.75000 5.084
54.76000 2.006
54.77000 2.030
54.78000 2.027
54.79000 2.036
54.80000 0.000
54.81000 2.987
54.82000 1.958
54.83000 0.000
54.84000 2.001
54.85000 5.083
54.86000 2.996
54.87000 3.974
54.88000 2.997
54.89000 7.154
54.90000 7.162
54.91000 1.010
54.92000 4.033
54.93000 0.000
54.94000 3.116
54.95000 0.000
54.96000 1.006
54.97000 4.120
54.98000 4.963
54.99000 1.040
55.00000 2.084
55.01000 3.047
55.02000 3.119
55.03000 3.101
55.04000 3.031
55.05000 3.007
55.06000 2.003
55.07000 1.040
55.08000 3.003
55.09000 4.109
55.10000 5.075
55.11000 1.993
55.12000 0.000
55.13000 2.997
55.14000 0.000
55.15000 2.018
55.16000 4.016
55.17000 1.009
55.18000 4.059
55.19000 4.001
55.20000 3.083
55.21000 1.997
55.22000 2.993
55.23000 3.054
55.24000 0.000
55.25000 1.025
55.26000 1.971
55.27000 2.027
55.28000 0.996
55.29000 6.104
55.30000 3.048
55.31000 0.996
55.32000 2.102
55.33000 1.009
55.34000 2.048
55.35000 1.029
55.36000 2.996
55.37000 0.000
55.38000 0.996
55.39000 5.019
55.40000 4.067
55.41000 0.000
55.42000 2.049
55.43000 0.992
55.44000 5.092
55.45000 1.999
55.46000 4.044
55.47000 1.019
55.48000 0.964
55.49000 2.011
55.50000 0.000
55.51000 4.042
55.52000 1.967
55.53000 3.028
55.54000 1.051
55.55000 1.012
55.56000 1.992
55.57000 2.010
55.58000 1.001
55.59000 3.055
55.60000 5.018
55.61000 4.105
55.62000 1.059
55.63000 4.063
55.64000 2.046
55.65000 0.000
55.66000 4.055
55.67000 0.000
55.68000 2.039
55.69000 0.999
55.70000 4.081
55.71000 7.063
55.72000 3.067
55.73000 3.050
55.74000 1.005
55.75000 0.000
55.76000 2.030
55.77000 1.043
55.78000 5.039
55.79000 2.026
55.80000 0.977
55.81000 0.990
55.82000 1.031
55.83000 1.953
55.84000 1.039
55.85000 3.958
55.86000 1.004
55.87000 1.022
55.88000 2.997
55.89000 1.007
55.90000 5.977
55.91000 2.006
55.92000 2.013
55.93000 0.000
55.94000 3.023
55.95000 0.000
55.96000 0.000
55.97000 3.052
55.98000 2.995
55.99000 0.000
56.00000 3.044
56.01000 5.041
56.02000 1.061
56.03000 1.025
56.04000 1.002
56.05000 0.000
56.06000 1.955
56.07000 2.059
56.08000 0.000
56.09000 2.017
56.10000 1.053
56.11000 3.047
56.12000 2.025
56.13000 3.074
56.14000 0.974
56.15000 3.042
56.16000 2.038
56.17000 4.028
56.18000 3.068
56.19000 1.993
56.20000 4.005
56.21000 3.077
56.22000 3.054
56.23000 0.000
56.24000 3.059
56.25000 0.985
56.26000 4.040
56.27000 2.068
56.28000 0.000
56.29000 0.000
56.30000 4.067
56.31000 1.970
56.32000 2.069
56.33000 2.018
56.34000 3.070
56.35000 1.043
56.36000 3.042
56.37000 0.000
56.38000 0.000
56.39000 6.981
56.40000 2.037
56.41000 2.022
56.42000 5.127
56.43000 2.021
56.44000 9.118
56.45000 4.079
56.46000 1.037
56.47000 0.994
56.48000 2.035
56.49000 2.035
56.50000 1.039
56.51000 1.014
56.52000 5.050
56.53000 0.982
56.54000 2.029
56.55000 2.034
56.56000 2.031
56.57000 2.039
56.58000 6.088
56.59000 0.000
56.60000 0.997
56.61000 2.034
56.62000 6.180
56.63000 1.008
56.64000 1.011
56.65000 3.039
56.66000 0.998
56.67000 2.055
56.68000 2.995
56.69000 2.145
56.70000 3.984
56.71000 1.998
56.72000 2.988
56.73000 1.039
56.74000 4.046
56.75000 0.988
56.76000 1.986
56.77000 2.993
56.78000 4.004
56.79000 0.998
56.80000 2.021
56.81000 3.118
56.82000 4.106
56.83000 0.000
56.84000 0.000
56.85000 0.000
56.86000 2.058
56.87000 0.000
56.88000 1.994
56.89000 3.038
56.90000 4.038
56.91000 4.017
56.92000 0.990
56.93000 3.037
56.94000 2.004
56.95000 3.997
56.96000 2.040
56.97000 2.990
56.98000 6.085
56.99000 3.987
57.00000 4.067
57.01000 2.061
57.02000 4.060
57.03000 1.025
57.04000 2.996
57.05000 3.078
57.06000 0.997
57.07000 0.000
57.08000 2.025
57.09000 5.016
57.10000 3.055
57.11000 4.113
57.12000 1.008
57.13000 3.027
57.14000 5.008
57.15000 1.946
57.16000 1.957
57.17000 5.144
57.18000 6.125
57.19000 3.055
57.20000 0.000
57.21000 1.040
57.22000 1.012
57.23000 1.011
57.24000 2.014
57.25000 2.027
57.26000 4.122
57.27000 2.052
57.28000 5.070
57.29000 2.014
57.30000 5.006
57.31000 2.050
57.32000 3.062
57.33000 2.026
57.34000 5.137
57.35000 1.003
57.36000 2.045
57.37000 1.020
57.38000 1.993
57.39000 0.988
57.40000 2.990
57.41000 2.962
57.42000 4.143
57.43000 1.983
57.44000 2.982
57.45000 0.000
57.46000 0.000
57.47000 2.043
57.48000 4.155
57.49000 3.003
57.50000 2.965
57.51000 0.000
57.52000 1.018
57.53000 4.045
57.54000 2.980
57.55000 1.983
57.56000 4.972
57.57000 1.032
57.58000 0.977
57.59000 3.011
57.60000 6.030
57.61000 5.070
57.62000 3.020
57.63000 5.030
57.64000 1.048
57.65000 0.000
57.66000 3.040
57.67000 2.959
57.68000 1.993
57.69000 3.078
57.70000 3.076
57.71000 4.014
57.72000 4.030
57.73000 1.011
57.74000 0.000
57.75000 3.168
57.76000 2.990
57.77000 1.016
57.78000 3.079
57.79000 0.000
57.80000 0.000
57.81000 3.111
57.82000 2.046
57.83000 3.071
57.84000 3.023
57.85000 2.048
57.86000 2.023
57.87000 3.021
57.88000 2.063
57.89000 1.024
57.90000 2.994
57.91000 2.045
57.92000 3.090
57.93000 2.046
57.94000 4.062
57.95000 3.995
57.96000 3.022
57.97000 4.138
57.98000 4.144
57.99000 6.011
58.00000 1.018
58.01000 5.944
58.02000 0.983
58.03000 4.988
58.04000 3.016
58.05000 1.011
58.06000 3.997
58.07000 0.999
58.08000 3.057
58.09000 3.034
58.10000 2.016
58.11000 3.009
58.12000 4.014
58.13000 2.026
58.14000 3.080
58.15000 1.012
58.16000 3.027
58.17000 0.000
58.18000 3.031
58.19000 1.969
58.20000 3.026
58.21000 1.007
58.22000 3.111
58.23000 3.018
58.24000 0.998
58.25000 2.027
58.26000 1.026
58.27000 3.010
58.28000 3.067
58.29000 6.043
58.30000 0.000
58.31000 0.980
58.32000 3.020
58.33000 0.000
58.34000 1.012
58.35000 1.998
58.36000 0.000
58.37000 0.000
58.38000 1.008
58.39000 3.053
58.40000 4.040
58.41000 3.027
58.42000 5.993
58.43000 3.000
58.44000 1.016
58.45000 2.044
58.46000 0.000
58.47000 2.026
58.48000 0.998
58.49000 4.002
58.50000 1.970
58.51000 6.051
58.52000 4.105
58.53000 0.000
58.54000 1.008
58.55000 0.000
58.56000 2.975
58.57000 0.999
58.58000 2.018
58.59000 3.152
58.60000 2.028
58.61000 1.020
58.62000 1.001
58.63000 3.144
58.64000 0.985
58.65000 2.996
58.66000 2.032
58.67000 3.115
58.68000 1.026
58.69000 4.023
58.70000 0.997
58.71000 2.982
58.72000 1.999
58.73000 3.015
58.74000 2.997
58.75000 4.043
58.76000 1.015
58.77000 7.136
58.78000 1.038
58.79000 1.010
58.80000 3.020
58.81000 1.019
58.82000 3.019
58.83000 0.986
58.84000 3.025
58.85000 2.001
58.86000 0.000
58.87000 1.993
58.88000 0.986
58.89000 4.060
58.90000 0.000
58.91000 5.103
58.92000 3.022
58.93000 1.994
58.94000 2.045
58.95000 0.977
58.96000 3.993
58.97000 1.967
58.98000 1.006
58.99000 0.990
59.00000 1.999
59.01000 4.075
59.02000 5.000
59.03000 0.000
59.04000 2.999
59.05000 4.023
59.06000 3.020
59.07000 0.000
59.08000 2.043
59.09000 1.035
59.10000 2.992
59.11000 0.997
59.12000 0.000
59.13000 2.984
59.14000 2.050
59.15000 2.019
59.16000 4.118
59.17000 2.980
59.18000 3.050
59.19000 2.030
59.20000 0.995
59.21000 2.023
59.22000 4.031
59.23000 1.001
59.24000 1.991
59.25000 2.048
59.26000 3.034
59.27000 1.038
59.28000 5.087
59.29000 2.049
59.30000 0.000
59.31000 1.050
59.32000 2.090
59.33000 0.000
59.34000 1.994
59.35000 4.106
59.36000 2.021
59.37000 1.048
59.38000 3.027
59.39000 1.983
59.40000 4.049
59.41000 2.984
59.42000 2.001
59.43000 0.000
59.44000 5.041
59.45000 1.973
59.46000 0.000
59.47000 0.993
59.48000 1.993
59.49000 1.005
59.50000 3.029
59.51000 1.013
59.52000 1.003
59.53000 3.071
59.54000 0.985
59.55000 0.989
59.56000 2.978
59.57000 5.074
59.58000 1.043
59.59000 0.000
59.60000 6.065
59.61000 4.046
59.62000 0.000
59.63000 5.121
59.64000 3.062
59.65000 0.999
59.66000 1.011
59.67000 0.998
59.68000 1.004
59.69000 0.000
59.70000 0.000
59.71000 2.040
59.72000 3.051
59.73000 4.046
59.74000 3.039
59.75000 1.018
59.76000 1.972
59.77000 3.132
59.78000 1.980
59.79000 4.076
59.80000 1.010
59.81000 2.036
59.82000 0.988
59.83000 2.009
59.84000 3.054
59.85000 2.034
59.86000 3.038
59.87000 2.022
59.88000 0.000
59.89000 3.088
59.90000 3.109
59.91000 0.992
59.92000 1.006
59.93000 1.012
59.94000 4.146
59.95000 1.997
59.96000 1.015
59.97000 0.999
59.98000 3.980
59.99000 2.125
60.00000 1.001
60.01000 1.023
60.02000 0.000
60.03000 2.092
60.04000 1.015
60.05000 2.037
60.06000 3.012
60.07000 0.994
60.08000 1.012
60.09000 1.029
60.10000 4.049
60.11000 3.067
60.12000 4.074
60.13000 0.993
60.14000 3.067
60.15000 2.038
60.16000 1.071
60.17000 0.993
60.18000 2.035
60.19000 5.047
60.20000 3.106
60.21000 3.130
60.22000 1.013
60.23000 3.047
60.24000 0.000
60.25000 3.033
60.26000 2.057
60.27000 4.067
60.28000 3.013
60.29000 0.995
60.30000 0.995
60.31000 0.000
60.32000 4.992
60.33000 1.033
60.34000 2.042
60.35000 4.058
60.36000 1.993
60.37000 6.997
60.38000 0.990
60.39000 2.014
60.40000 2.004
60.41000 3.027
60.42000 0.000
60.43000 2.025
60.44000 2.069
60.45000 2.009
60.46000 0.000
60.47000 4.094
60.48000 2.961
60.49000 4.134
60.50000 3.027
60.51000 4.140
60.52000 0.000
60.53000 3.026
60.54000 2.033
60.55000 3.037
60.56000 4.049
60.57000 2.036
60.58000 4.067
60.59000 1.015
60.60000 0.992
60.61000 0.000
60.62000 2.053
60.63000 3.041
60.64000 1.042
60.65000 2.023
60.66000 1.947
60.67000 2.065
60.68000 5.097
60.69000 1.001
60.70000 0.992
60.71000 4.059
60.72000 2.036
60.73000 2.041
60.74000 3.031
60.75000 4.013
60.76000 0.000
60.77000 2.042
60.78000 2.035
60.79000 3.023
60.80000 2.004
60.81000 2.086
60.82000 0.000
60.83000 2.042
60.84000 1.029
60.85000 12.198
60.86000 2.020
60.87000 2.050
60.88000 0.975
60.89000 1.058
60.90000 4.079
60.91000 1.006
60.92000 1.024
60.93000 3.057
60.94000 1.051
60.95000 2.065
60.96000 0.991
60.97000 3.059
60.98000 4.975
60.99000 0.000
61.00000 2.085
61.01000 6.086
61.02000 0.998
61.03000 1.019
61.04000 2.078
61.05000 4.048
61.06000 2.011
61.07000 1.976
61.08000 1.020
61.09000 2.091
61.10000 3.993
61.11000 2.070
61.12000 0.981
61.13000 3.053
61.14000 0.000
61.15000 0.984
61.16000 2.000
61.17000 4.128
61.18000 2.002
61.19000 1.016
61.20000 0.000
61.21000 4.086
61.22000 1.022
61.23000 2.067
61.24000 0.000
61.25000 0.000
61.26000 4.128
61.27000 4.135
61.28000 3.039
61.29000 1.002
61.30000 0.986
61.31000 1.006
61.32000 2.081
61.33000 4.031
61.34000 2.021
61.35000 5.119
61.36000 2.010
61.37000 2.980
61.38000 1.005
61.39000 1.000
61.40000 4.171
61.41000 2.006
61.42000 0.991
61.43000 5.092
61.44000 1.010
61.45000 0.000
61.46000 1.017
61.47000 3.067
61.48000 0.000
61.49000 4.064
61.50000 2.023
61.51000 0.000
61.52000 3.053
61.53000 0.000
61.54000 1.036
61.55000 0.999
61.56000 2.008
61.57000 2.023
61.58000 3.955
61.59000 4.012
61.60000 1.977
61.61000 4.057
61.62000 5.044
61.63000 2.026
61.64000 3.050
61.65000 0.989
61.66000 3.064
61.67000 3.067
61.68000 2.025
61.69000 0.000
61.70000 4.038
61.71000 1.014
61.72000 1.014
61.73000 1.006
61.74000 1.966
61.75000 4.105
61.76000 4.045
61.77000 0.980
61.78000 5.048
61.79000 0.000
61.80000 2.008
61.81000 3.033
61.82000 2.020
61.83000 3.071
61.84000 3.091
61.85000 1.002
61.86000 1.993
61.87000 2.038
61.88000 2.013
61.89000 2.060
61.90000 2.015
61.91000 4.074
61.92000 2.056
61.93000 2.966
61.94000 4.018
61.95000 2.037
61.96000 4.011
61.97000 0.989
61.98000 5.129
61.99000 0.000
62.00000 5.019
62.01000 1.027
62.02000 2.044
62.03000 3.052
62.04000 4.981
62.05000 4.020
62.06000 3.073
62.07000 2.075
62.08000 7.135
62.09000 0.000
62.10000 0.000
62.11000 2.009
62.12000 1.992
62.13000 2.046
62.14000 1.028
62.15000 1.012
62.16000 1.043
62.17000 0.000
62.18000 2.068
62.19000 3.006
62.20000 0.969
62.21000 3.976
62.22000 0.000
62.23000 1.024
62.24000 2.059
62.25000 1.018
62.26000 0.998
62.27000 5.086
62.28000 4.033
62.29000 1.022
62.30000 3.031
62.31000 0.000
62.32000 2.000
62.33000 5.125
62.34000 1.010
62.35000 2.018
62.36000 2.003
62.37000 1.010
62.38000 3.027
62.39000 1.997
62.40000 1.962
62.41000 2.018
62.42000 0.980
62.43000 0.000
62.44000 2.016
62.45000 2.014
62.46000 5.121
62.47000 4.084
62.48000 1.059
62.49000 4.046
62.50000 1.996
62.51000 0.000
62.52000 2.020
62.53000 2.980
62.54000 0.000
62.55000 2.037
62.56000 0.000
62.57000 1.012
62.58000 2.096
62.59000 3.039
62.60000 3.041
62.61000 2.075
62.62000 4.016
62.63000 0.000
62.64000 4.091
62.65000 0.992
62.66000 2.968
62.67000 0.982
62.68000 2.036
62.69000 2.985
62.70000 1.025
62.71000 5.043
62.72000 2.027
62.73000 2.036
62.74000 2.003
62.75000 3.975
62.76000 2.017
62.77000 1.043
62.78000 0.000
62.79000 6.058
62.80000 1.997
62.81000 3.073
62.82000 2.039
62.83000 2.025
62.84000 1.001
62.85000 1.033
62.86000 0.000
62.87000 0.000
62.88000 3.037
62.89000 1.993
62.90000 0.000
62.91000 2.991
62.92000 2.109
62.93000 0.000
62.94000 1.985
62.95000 1.984
62.96000 0.000
62.97000 0.990
62.98000 0.987
62.99000 0.996
63.00000 4.085
63.01000 2.992
63.02000 2.041
63.03000 1.001
63.04000 1.025
63.05000 3.014
63.06000 2.006
63.07000 2.062
63.08000 2.967
63.09000 0.000
63.10000 1.992
63.11000 2.988
63.12000 4.065
63.13000 0.984
63.14000 1.988
63.15000 2.005
63.16000 5.924
63.17000 2.001
63.18000 2.052
63.19000 1.999
63.20000 2.009
63.21000 1.039
63.22000 0.000
63.23000 0.000
63.24000 1.025
63.25000 1.008
63.26000 1.023
63.27000 2.019
63.28000 3.073
63.29000 4.083
63.30000 1.000
63.31000 0.995
63.32000 1.992
63.33000 1.008
63.34000 1.983
63.35000 3.063
63.36000 0.000
63.37000 0.990
63.38000 0.000
63.39000 1.012
63.40000 4.066
63.41000 2.001
63.42000 5.089
63.43000 2.044
63.44000 3.033
63.45000 1.995
63.46000 0.000
63.47000 0.992
63.48000 0.000
63.49000 4.146
63.50000 1.061
63.51000 2.059
63.52000 2.013
63.53000 1.040
63.54000 3.065
63.55000 1.010
63.56000 1.009
63.57000 2.069
63.58000 0.000
63.59000 1.028
63.60000 0.985
63.61000 0.000
63.62000 1.017
63.63000 1.018
63.64000 1.986
63.65000 3.095
63.66000 0.000
63.67000 4.040
63.68000 2.995
63.69000 3.029
63.70000 3.084
63.71000 2.065
63.72000 2.030
63.73000 3.042
63.74000 0.978
63.75000 2.020
63.76000 2.008
63.77000 3.031
63.78000 0.996
63.79000 2.022
63.80000 2.023
63.81000 2.008
63.82000 2.020
63.83000 2.984
63.84000 3.003
63.85000 1.057
63.86000 2.027
63.87000 1.002
63.88000 0.992
63.89000 0.000
63.90000 1.973
63.91000 2.057
63.92000 3.119
63.93000 0.000
63.94000 1.993
63.95000 1.011
63.96000 4.066
63.97000 4.046
63.98000 1.950
63.99000 5.063
64.00000 1.991
64.01000 2.033
64.02000 2.061
64.03000 4.999
64.04000 0.972
64.05000 5.072
64.06000 1.018
64.07000 2.078
64.08000 2.032
64.09000 1.979
64.10000 3.108
64.11000 2.010
64.12000 1.042
64.13000 3.131
64.14000 3.020
64.15000 3.075
64.16000 3.041
64.17000 1.991
64.18000 2.153
64.19000 1.032
64.20000 0.998
64.21000 0.000
64.22000 2.998
64.23000 1.057
64.24000 4.081
64.25000 0.000
64.26000 0.000
64.27000 1.000
64.28000 2.977
64.29000 1.982
64.30000 4.145
64.31000 0.000
64.32000 3.013
64.33000 0.998
64.34000 2.004
64.35000 0.999
64.36000 2.048
64.37000 1.967
64.38000 1.027
64.39000 1.977
64.40000 1.003
64.41000 2.003
64.42000 2.041
64.43000 1.049
64.44000 0.000
64.45000 2.002
64.46000 1.022
64.47000 2.098
64.48000 0.000
64.49000 0.974
64.50000 1.009
64.51000 1.046
64.52000 3.034
64.53000 5.036
64.54000 3.984
64.55000 1.020
64.56000 3.993
64.57000 1.001
64.58000 3.024
64.59000 3.016
64.60000 1.066
64.61000 1.020
64.62000 2.000
64.63000 4.037
64.64000 1.001
64.65000 4.116
64.66000 0.992
64.67000 4.050
64.68000 1.017
64.69000 5.035
64.70000 0.994
64.71000 1.020
64.72000 1.014
64.73000 3.054
64.74000 0.996
64.75000 2.035
64.76000 1.011
64.77000 2.044
64.78000 0.000
64.79000 3.045
64.80000 5.017
64.81000 3.057
64.82000 0.000
64.83000 3.106
64.84000 0.000
64.85000 2.000
64.86000 3.063
64.87000 3.065
64.88000 2.015
64.89000 1.010
64.90000 2.021
64.91000 0.000
64.92000 1.983
64.93000 5.026
64.94000 1.009
64.95000 3.041
64.96000 1.995
64.97000 0.996
64.98000 0.982
64.99000 1.999
65.00000 2.027
