20.00000 11.093
20.01000 9.117
20.02000 16.415
20.03000 17.235
20.04000 16.043
20.05000 9.297
20.06000 19.329
20.07000 13.407
20.08000 10.200
20.09000 19.439
20.10000 11.184
20.11000 19.263
20.12000 19.247
20.13000 16.302
20.14000 7.087
20.15000 15.223
20.16000 12.164
20.17000 12.172
20.18000 12.102
20.19000 4.048
20.20000 17.299
20.21000 19.240
20.22000 13.073
20.23000 11.239
20.24000 9.184
20.25000 16.218
20.26000 6.032
20.27000 14.358
20.28000 15.144
20.29000 15.152
20.30000 2.993
20.31000 13.270
20.32000 19.440
20.33000 7.093
20.34000 18.127
20.35000 8.180
20.36000 15.275
20.37000 12.201
20.38000 11.102
20.39000 14.243
20.40000 8.179
20.41000 21.426
20.42000 21.288
20.43000 19.479
20.44000 15.282
20.45000 20.390
20.46000 20.143
20.47000 13.358
20.48000 17.267
20.49000 19.321
20.50000 20.519
20.51000 13.199
20.52000 13.119
20.53000 13.166
20.54000 17.108
20.55000 13.248
20.56000 12.183
20.57000 8.042
20.58000 21.146
20.59000 20.172
20.60000 21.056
20.61000 16.355
20.62000 18.478
20.63000 7.951
20.64000 19.216
20.65000 7.070
20.66000 13.131
20.67000 21.200
20.68000 17.247
20.69000 18.160
20.70000 11.293
20.71000 19.343
20.72000 13.096
20.73000 20.153
20.74000 16.250
20.75000 23.318
20.76000 14.178
20.77000 13.142
20.78000 13.125
20.79000 10.076
20.80000 17.297
20.81000 10.221
20.82000 13.249
20.83000 15.198
20.84000 15.076
20.85000 9.179
20.86000 18.183
20.87000 25.405
20.88000 17.303
20.89000 16.206
20.90000 16.477
20.91000 12.174
20.92000 16.308
20.93000 14.105
20.94000 11.237
20.95000 16.296
20.96000 17.933
20.97000 21.226
20.98000 18.039
20.99000 12.108
21.00000 13.164
21.01000 13.120
21.02000 18.014
21.03000 19.160
21.04000 13.372
21.05000 10.043
21.06000 15.161
21.07000 20.340
21.08000 20.276
21.09000 15.116
21.10000 17.196
21.11000 11.179
21.12000 21.221
21.13000 11.242
21.14000 12.129
21.15000 13.140
21.16000 10.052
21.17000 8.049
21.18000 16.130
21.19000 11.132
21.20000 8.027
21.21000 16.188
21.22000 15.190
21.23000 13.179
21.24000 21.168
21.25000 14.342
21.26000 15.261
21.27000 6.068
21.28000 10.161
21.29000 12.198
21.30000 18.414
21.31000 11.089
21.32000 17.154
21.33000 11.079
21.34000 21.295
21.35000 18.094
21.36000 12.268
21.37000 13.206
21.38000 9.042
21.39000 15.250
21.40000 13.072
21.41000 11.111
21.42000 13.254
21.43000 16.223
21.44000 16.218
21.45000 18.232
21.46000 19.404
21.47000 17.313
21.48000 16.180
21.49000 19.117
21.50000 10.013
21.51000 14.316
21.52000 8.089
21.53000 11.027
21.54000 23.450
21.55000 18.296
21.56000 9.119
21.57000 16.223
21.58000 13.192
21.59000 18.417
21.60000 15.170
21.61000 19.405
21.62000 15.159
21.63000 14.038
21.64000 13.178
21.65000 19.325
21.66000 15.322
21.67000 14.374
21.68000 12.143
21.69000 12.078
21.70000 15.188
21.71000 21.396
21.72000 16.177
21.73000 9.938
21.74000 14.233
21.75000 11.213
21.76000 14.261
21.77000 19.175
21.78000 11.104
21.79000 15.304
21.80000 13.124
21.81000 14.197
21.82000 22.340
21.83000 25.396
21.84000 13.247
21.85000 12.132
21.86000 10.055
21.87000 18.281
21.88000 22.271
21.89000 15.324
21.90000 13.152
21.91000 21.152
21.92000 14.255
21.93000 10.995
21.94000 20.387
21.95000 11.039
21.96000 16.140
21.97000 15.123
21.98000 12.156
21.99000 16.218
22.00000 13.322
22.01000 20.276
22.02000 13.103
22.03000 12.207
22.04000 10.193
22.05000 19.092
22.06000 16.334
22.07000 14.065
22.08000 20.279
22.09000 13.080
22.10000 15.233
22.11000 15.028
22.12000 12.185
22.13000 16.325
22.14000 17.509
22.15000 12.101
22.16000 8.109
22.17000 19.214
22.18000 11.190
22.19000 15.058
22.20000 16.449
22.21000 12.238
22.22000 18.303
22.23000 7.984
22.24000 13.189
22.25000 15.197
22.26000 14.095
22.27000 18.162
22.28000 13.220
22.29000 25.248
22.30000 18.142
22.31000 16.278
22.32000 11.984
22.33000 20.314
22.34000 21.320
22.35000 15.207
22.36000 14.122
22.37000 15.248
22.38000 10.106
22.39000 21.134
22.40000 16.131
22.41000 18.255
22.42000 14.363
22.43000 16.235
22.44000 18.400
22.45000 14.222
22.46000 23.284
22.47000 19.232
22.48000 18.255
22.49000 19.376
22.50000 13.150
22.51000 14.288
22.52000 24.309
22.53000 13.198
22.54000 18.220
22.55000 13.192
22.56000 17.205
22.57000 24.437
22.58000 15.156
22.59000 14.175
22.60000 15.334
22.61000 19.308
22.62000 18.189
22.63000 15.105
22.64000 25.503
22.65000 23.340
22.66000 16.959
22.67000 18.291
22.68000 22.342
22.69000 15.177
22.70000 8.131
22.71000 13.313
22.72000 17.228
22.73000 12.107
22.74000 18.257
22.75000 10.177
22.76000 16.018
22.77000 14.090
22.78000 12.141
22.79000 11.095
22.80000 19.261
22.81000 15.280
22.82000 14.092
22.83000 9.192
22.84000 14.234
22.85000 21.294
22.86000 21.362
22.87000 14.027
22.88000 27.404
22.89000 14.239
22.90000 16.236
22.91000 24.329
22.92000 17.169
22.93000 18.212
22.94000 14.210
22.95000 16.330
22.96000 10.109
22.97000 21.293
22.98000 27.376
22.99000 17.149
23.00000 16.202
23.01000 20.299
23.02000 14.237
23.03000 16.385
23.04000 16.356
23.05000 19.272
23.06000 16.240
23.07000 17.299
23.08000 18.272
23.09000 17.244
23.10000 17.073
23.11000 13.170
23.12000 12.059
23.13000 21.210
23.14000 12.222
23.15000 15.127
23.16000 21.223
23.17000 24.192
23.18000 8.163
23.19000 14.252
23.20000 13.208
23.21000 15.037
23.22000 16.252
23.23000 23.262
23.24000 11.085
23.25000 21.238
23.26000 12.109
23.27000 16.237
23.28000 13.182
23.29000 15.176
23.30000 14.234
23.31000 14.216
23.32000 15.282
23.33000 14.196
23.34000 22.207
23.35000 18.316
23.36000 21.271
23.37000 12.909
23.38000 18.291
23.39000 18.284
23.40000 9.982
23.41000 24.262
23.42000 16.310
23.43000 14.233
23.44000 20.179
23.45000 13.150
23.46000 17.303
23.47000 20.297
23.48000 23.194
23.49000 24.401
23.50000 22.187
23.51000 19.306
23.52000 19.219
23.53000 12.130
23.54000 19.097
23.55000 23.259
23.56000 24.352
23.57000 21.055
23.58000 14.346
23.59000 16.050
23.60000 25.490
23.61000 32.244
23.62000 20.545
23.63000 15.094
23.64000 14.131
23.65000 19.297
23.66000 14.253
23.67000 22.218
23.68000 11.020
23.69000 20.315
23.70000 11.143
23.71000 25.217
23.72000 17.427
23.73000 19.322
23.74000 21.609
23.75000 14.250
23.76000 20.986
23.77000 22.200
23.78000 17.139
23.79000 22.320
23.80000 19.317
23.81000 16.124
23.82000 14.230
23.83000 23.273
23.84000 26.411
23.85000 13.201
23.86000 16.179
23.87000 17.285
23.88000 20.269
23.89000 15.206
23.90000 17.434
23.91000 27.425
23.92000 18.127
23.93000 19.354
23.94000 19.268
23.95000 23.521
23.96000 17.077
23.97000 18.371
23.98000 20.239
23.99000 20.303
24.00000 20.258
24.01000 18.450
24.02000 22.241
24.03000 17.262
24.04000 28.282
24.05000 17.421
24.06000 14.037
24.07000 15.126
24.08000 16.025
24.09000 17.156
24.10000 16.140
24.11000 23.199
24.12000 15.189
24.13000 17.482
24.14000 16.245
24.15000 19.220
24.16000 13.120
24.17000 21.251
24.18000 20.320
24.19000 21.108
24.20000 19.331
24.21000 20.275
24.22000 26.315
24.23000 17.182
24.24000 21.314
24.25000 15.351
24.26000 16.503
24.27000 17.146
24.28000 23.534
24.29000 25.360
24.30000 17.375
24.31000 27.224
24.32000 23.367
24.33000 12.074
24.34000 20.172
24.35000 21.271
24.36000 19.199
24.37000 26.238
24.38000 19.221
24.39000 17.440
24.40000 16.205
24.41000 28.283
24.42000 14.265
24.43000 26.444
24.44000 18.095
24.45000 22.395
24.46000 24.328
24.47000 20.318
24.48000 31.396
24.49000 20.491
24.50000 19.201
24.51000 22.165
24.52000 19.174
24.53000 24.256
24.54000 30.301
24.55000 22.364
24.56000 26.400
24.57000 24.448
24.58000 27.251
24.59000 15.987
24.60000 34.473
24.61000 16.184
24.62000 20.345
24.63000 20.300
24.64000 25.244
24.65000 21.249
24.66000 24.230
24.67000 20.290
24.68000 25.229
24.69000 26.423
24.70000 27.257
24.71000 19.178
24.72000 21.203
24.73000 25.591
24.74000 20.280
24.75000 18.240
24.76000 21.282
24.77000 23.098
24.78000 22.226
24.79000 26.395
24.80000 18.340
24.81000 20.346
24.82000 26.366
24.83000 21.402
24.84000 31.615
24.85000 26.431
24.86000 24.472
24.87000 20.272
24.88000 17.286
24.89000 20.399
24.90000 18.199
24.91000 25.377
24.92000 21.181
24.93000 21.629
24.94000 21.145
24.95000 25.351
24.96000 20.442
24.97000 23.339
24.98000 17.407
24.99000 24.105
25.00000 18.210
25.01000 21.458
25.02000 19.155
25.03000 17.294
25.04000 33.330
25.05000 27.436
25.06000 23.505
25.07000 19.323
25.08000 23.456
25.09000 23.300
25.10000 23.374
25.11000 21.159
25.12000 20.196
25.13000 26.470
25.14000 24.510
25.15000 21.272
25.16000 9.143
25.17000 19.292
25.18000 24.396
25.19000 36.121
25.20000 18.142
25.21000 17.298
25.22000 22.119
25.23000 29.372
25.24000 24.430
25.25000 24.419
25.26000 22.485
25.27000 22.517
25.28000 24.372
25.29000 24.515
25.30000 25.379
25.31000 24.517
25.32000 33.383
25.33000 22.244
25.34000 23.250
25.35000 30.368
25.36000 25.445
25.37000 17.359
25.38000 17.337
25.39000 20.260
25.40000 21.474
25.41000 42.557
25.42000 27.437
25.43000 16.097
25.44000 17.273
25.45000 24.294
25.46000 29.498
25.47000 32.446
25.48000 27.318
25.49000 22.353
25.50000 13.196
25.51000 23.432
25.52000 29.371
25.53000 20.168
25.54000 23.528
25.55000 26.370
25.56000 20.254
25.57000 25.351
25.58000 23.343
25.59000 24.209
25.60000 24.327
25.61000 33.313
25.62000 29.407
25.63000 23.195
25.64000 17.543
25.65000 35.586
25.66000 19.051
25.67000 27.283
25.68000 18.297
25.69000 25.356
25.70000 33.336
25.71000 26.436
25.72000 26.574
25.73000 31.417
25.74000 28.341
25.75000 32.507
25.76000 31.383
25.77000 26.270
25.78000 33.562
25.79000 26.216
25.80000 36.492
25.81000 34.484
25.82000 26.453
25.83000 26.268
25.84000 17.090
25.85000 22.393
25.86000 27.449
25.87000 24.236
25.88000 19.231
25.89000 28.296
25.90000 18.287
25.91000 30.488
25.92000 23.484
25.93000 27.440
25.94000 29.633
25.95000 23.569
25.96000 21.313
25.97000 30.366
25.98000 20.312
25.99000 27.260
26.00000 37.582
26.01000 25.196
26.02000 27.461
26.03000 24.455
26.04000 36.632
26.05000 30.451
26.06000 26.373
26.07000 19.426
26.08000 38.575
26.09000 25.226
26.10000 36.638
26.11000 38.711
26.12000 21.095
26.13000 14.238
26.14000 26.371
26.15000 44.782
26.16000 37.448
26.17000 28.228
26.18000 27.327
26.19000 27.420
26.20000 22.248
26.21000 28.356
26.22000 22.509
26.23000 25.309
26.24000 35.407
26.25000 24.305
26.26000 28.495
26.27000 18.226
26.28000 28.265
26.29000 23.482
26.30000 33.435
26.31000 19.202
26.32000 25.284
26.33000 25.162
26.34000 32.303
26.35000 31.498
26.36000 36.486
26.37000 26.218
26.38000 22.138
26.39000 27.487
26.40000 33.398
26.41000 37.377
26.42000 29.503
26.43000 32.773
26.44000 28.116
26.45000 33.651
26.46000 29.188
26.47000 42.616
26.48000 31.359
26.49000 31.601
26.50000 31.187
26.51000 31.727
26.52000 29.277
26.53000 31.368
26.54000 35.540
26.55000 29.330
26.56000 33.619
26.57000 27.554
26.58000 32.493
26.59000 23.277
26.60000 23.342
26.61000 30.413
26.62000 24.250
26.63000 32.220
26.64000 37.412
26.65000 32.242
26.66000 31.385
26.67000 41.584
26.68000 44.573
26.69000 31.552
26.70000 31.476
26.71000 26.175
26.72000 26.310
26.73000 26.272
26.74000 34.466
26.75000 34.448
26.76000 27.685
26.77000 44.455
26.78000 31.263
26.79000 43.410
26.80000 31.613
26.81000 30.369
26.82000 29.531
26.83000 42.482
26.84000 33.396
26.85000 27.421
26.86000 26.258
26.87000 31.379
26.88000 23.270
26.89000 28.368
26.90000 31.458
26.91000 33.857
26.92000 39.563
26.93000 31.312
26.94000 40.333
26.95000 37.406
26.96000 28.583
26.97000 47.533
26.98000 34.711
26.99000 28.482
27.00000 41.681
27.01000 38.660
27.02000 40.495
27.03000 31.449
27.04000 29.547
27.05000 37.434
27.06000 30.119
27.07000 34.748
27.08000 37.425
27.09000 35.512
27.10000 30.444
27.11000 33.426
27.12000 41.486
27.13000 37.588
27.14000 32.266
27.15000 37.645
27.16000 42.613
27.17000 44.760
27.18000 44.590
27.19000 35.392
27.20000 31.435
27.21000 32.439
27.22000 32.567
27.23000 44.785
27.24000 39.731
27.25000 33.318
27.26000 33.616
27.27000 32.410
27.28000 37.455
27.29000 32.467
27.30000 42.559
27.31000 36.488
27.32000 26.442
27.33000 35.489
27.34000 22.430
27.35000 37.606
27.36000 42.689
27.37000 40.550
27.38000 29.356
27.39000 36.646
27.40000 21.179
27.41000 33.225
27.42000 34.583
27.43000 30.559
27.44000 24.073
27.45000 32.219
27.46000 28.606
27.47000 43.651
27.48000 26.338
27.49000 33.674
27.50000 34.467
27.51000 28.419
27.52000 31.418
27.53000 41.797
27.54000 43.757
27.55000 28.389
27.56000 34.230
27.57000 32.346
27.58000 44.722
27.59000 34.523
27.60000 41.864
27.61000 34.537
27.62000 37.742
27.63000 50.473
27.64000 47.972
27.65000 27.372
27.66000 34.597
27.67000 37.474
27.68000 40.483
27.69000 46.480
27.70000 38.464
27.71000 39.885
27.72000 36.610
27.73000 32.209
27.74000 36.402
27.75000 30.437
27.76000 53.883
27.77000 45.967
27.78000 36.469
27.79000 30.500
27.80000 35.805
27.81000 29.336
27.82000 29.473
27.83000 34.650
27.84000 28.466
27.85000 39.759
27.86000 35.503
27.87000 40.629
27.88000 33.423
27.89000 34.445
27.90000 30.614
27.91000 27.502
27.92000 29.527
27.93000 34.168
27.94000 40.516
27.95000 41.704
27.96000 32.153
27.97000 41.922
27.98000 36.180
27.99000 34.294
28.00000 34.559
28.01000 26.371
28.02000 39.722
28.03000 29.170
28.04000 40.392
28.05000 41.586
28.06000 27.242
28.07000 38.671
28.08000 39.530
28.09000 29.343
28.10000 22.374
28.11000 35.261
28.12000 39.648
28.13000 28.332
28.14000 36.383
28.15000 32.521
28.16000 22.307
28.17000 40.947
28.18000 26.333
28.19000 38.677
28.20000 36.317
28.21000 31.369
28.22000 31.238
28.23000 36.762
28.24000 32.563
28.25000 37.457
28.26000 31.497
28.27000 25.184
28.28000 44.622
28.29000 27.569
28.30000 31.193
28.31000 33.300
28.32000 45.756
28.33000 37.414
28.34000 29.572
28.35000 31.409
28.36000 32.334
28.37000 40.670
28.38000 32.765
28.39000 43.700
28.40000 32.529
28.41000 27.300
28.42000 33.681
28.43000 34.563
28.44000 45.852
28.45000 32.355
28.46000 29.501
28.47000 23.239
28.48000 36.553
28.49000 37.582
28.50000 40.152
28.51000 32.463
28.52000 31.368
28.53000 31.328
28.54000 39.546
28.55000 43.575
28.56000 34.274
28.57000 34.714
28.58000 26.344
28.59000 31.562
28.60000 43.651
28.61000 31.514
28.62000 27.313
28.63000 32.540
28.64000 35.339
28.65000 36.781
28.66000 41.607
28.67000 35.710
28.68000 39.519
28.69000 25.319
28.70000 42.606
28.71000 25.329
28.72000 30.273
28.73000 26.554
28.74000 32.493
28.75000 31.569
28.76000 33.090
28.77000 34.646
28.78000 33.390
28.79000 38.379
28.80000 33.480
28.81000 31.457
28.82000 27.441
28.83000 33.308
28.84000 33.386
28.85000 37.540
28.86000 28.511
28.87000 48.786
28.88000 28.413
28.89000 24.375
28.90000 30.459
28.91000 34.363
28.92000 29.400
28.93000 36.499
28.94000 29.528
28.95000 36.530
28.96000 31.388
28.97000 39.450
28.98000 30.102
28.99000 31.471
29.00000 24.141
29.01000 27.452
29.02000 39.373
29.03000 43.874
29.04000 38.564
29.05000 31.326
29.06000 32.461
29.07000 30.388
29.08000 36.450
29.09000 40.769
29.10000 25.155
29.11000 23.289
29.12000 37.360
29.13000 31.567
29.14000 33.484
29.15000 36.403
29.16000 23.191
29.17000 38.498
29.18000 37.767
29.19000 40.731
29.20000 40.485
29.21000 32.281
29.22000 24.345
29.23000 22.119
29.24000 30.446
29.25000 33.523
29.26000 41.732
29.27000 25.259
29.28000 37.763
29.29000 26.664
29.30000 41.423
29.31000 25.292
29.32000 32.675
29.33000 40.856
29.34000 34.631
29.35000 34.405
29.36000 33.387
29.37000 39.369
29.38000 29.292
29.39000 27.581
29.40000 30.650
29.41000 40.650
29.42000 25.101
29.43000 23.493
29.44000 41.481
29.45000 23.328
29.46000 32.397
29.47000 24.165
29.48000 43.421
29.49000 31.267
29.50000 39.606
29.51000 24.172
29.52000 33.287
29.53000 34.517
29.54000 34.462
29.55000 28.328
29.56000 35.389
29.57000 30.442
29.58000 47.454
29.59000 27.279
29.60000 37.526
29.61000 33.243
29.62000 27.325
29.63000 35.414
29.64000 34.244
29.65000 32.434
29.66000 23.314
29.67000 24.419
29.68000 29.251
29.69000 25.393
29.70000 24.339
29.71000 24.172
29.72000 28.574
29.73000 23.531
29.74000 22.399
29.75000 38.603
29.76000 40.793
29.77000 22.363
29.78000 31.446
29.79000 22.107
29.80000 26.423
29.81000 22.351
29.82000 33.437
29.83000 36.427
29.84000 39.504
29.85000 29.629
29.86000 40.521
29.87000 21.153
29.88000 27.210
29.89000 25.328
29.90000 30.233
29.91000 35.382
29.92000 33.507
29.93000 26.253
29.94000 29.648
29.95000 34.467
29.96000 23.219
29.97000 32.536
29.98000 29.395
29.99000 20.187
30.00000 23.086
30.01000 25.291
30.02000 26.438
30.03000 21.165
30.04000 33.566
30.05000 25.384
30.06000 25.269
30.07000 30.249
30.08000 20.278
30.09000 20.389
30.10000 34.582
30.11000 21.089
30.12000 22.090
30.13000 30.402
30.14000 27.382
30.15000 26.429
30.16000 25.367
30.17000 20.141
30.18000 19.241
30.19000 22.260
30.20000 24.361
30.21000 28.572
30.22000 26.478
30.23000 32.384
30.24000 26.213
30.25000 20.203
30.26000 29.297
30.27000 34.490
30.28000 20.151
30.29000 27.339
30.30000 34.642
30.31000 24.458
30.32000 34.813
30.33000 21.255
30.34000 26.602
30.35000 28.164
30.36000 23.384
30.37000 26.347
30.38000 21.282
30.39000 28.424
30.40000 30.341
30.41000 18.230
30.42000 20.371
30.43000 16.118
30.44000 27.348
30.45000 19.350
30.46000 27.518
30.47000 21.241
30.48000 30.569
30.49000 20.208
30.50000 24.320
30.51000 24.481
30.52000 26.261
30.53000 21.352
30.54000 23.445
30.55000 24.440
30.56000 26.272
30.57000 23.416
30.58000 21.373
30.59000 14.033
30.60000 20.156
30.61000 30.286
30.62000 27.353
30.63000 20.386
30.64000 25.275
30.65000 25.482
30.66000 31.412
30.67000 20.143
30.68000 31.289
30.69000 27.162
30.70000 23.193
30.71000 24.612
30.72000 23.237
30.73000 22.393
30.74000 27.492
30.75000 23.445
30.76000 22.242
30.77000 24.361
30.78000 20.196
30.79000 19.227
30.80000 14.238
30.81000 29.217
30.82000 26.524
30.83000 22.491
30.84000 20.346
30.85000 26.628
30.86000 17.066
30.87000 21.212
30.88000 26.378
30.89000 18.299
30.90000 20.094
30.91000 22.447
30.92000 23.387
30.93000 22.391
30.94000 21.475
30.95000 20.296
30.96000 22.382
30.97000 16.064
30.98000 24.237
30.99000 19.303
31.00000 19.306
31.01000 23.050
31.02000 15.068
31.03000 21.467
31.04000 19.232
31.05000 25.176
31.06000 26.596
31.07000 21.198
31.08000 12.107
31.09000 25.363
31.10000 26.318
31.11000 23.359
31.12000 17.139
31.13000 21.410
31.14000 21.135
31.15000 14.315
31.16000 31.490
31.17000 20.210
31.18000 20.276
31.19000 20.242
31.20000 16.383
31.21000 20.266
31.22000 31.623
31.23000 10.072
31.24000 26.225
31.25000 23.297
31.26000 19.152
31.27000 14.253
31.28000 34.483
31.29000 17.142
31.30000 13.090
31.31000 24.318
31.32000 21.301
31.33000 12.253
31.34000 13.227
31.35000 24.586
31.36000 20.202
31.37000 18.259
31.38000 19.370
31.39000 22.224
31.40000 17.176
31.41000 28.420
31.42000 25.305
31.43000 30.538
31.44000 16.192
31.45000 15.110
31.46000 17.050
31.47000 22.398
31.48000 18.258
31.49000 27.388
31.50000 23.504
31.51000 16.293
31.52000 17.348
31.53000 22.262
31.54000 12.160
31.55000 24.265
31.56000 19.201
31.57000 22.192
31.58000 16.217
31.59000 16.334
31.60000 22.257
31.61000 26.307
31.62000 20.420
31.63000 29.541
31.64000 15.301
31.65000 15.119
31.66000 18.146
31.67000 28.394
31.68000 31.538
31.69000 17.203
31.70000 27.285
31.71000 15.213
31.72000 24.424
31.73000 17.193
31.74000 18.432
31.75000 18.329
31.76000 12.135
31.77000 15.266
31.78000 17.248
31.79000 17.133
31.80000 22.245
31.81000 21.420
31.82000 19.184
31.83000 20.266
31.84000 16.158
31.85000 15.208
31.86000 17.042
31.87000 22.328
31.88000 15.266
31.89000 17.246
31.90000 5.026
31.91000 15.089
31.92000 20.197
31.93000 16.063
31.94000 23.163
31.95000 17.168
31.96000 16.274
31.97000 22.353
31.98000 18.057
31.99000 13.131
32.00000 13.270
32.01000 23.392
32.02000 22.326
32.03000 11.258
32.04000 24.284
32.05000 19.370
32.06000 11.238
32.07000 19.119
32.08000 15.351
32.09000 18.124
32.10000 20.296
32.11000 13.115
32.12000 18.099
32.13000 23.275
32.14000 20.233
32.15000 14.260
32.16000 15.063
32.17000 17.082
32.18000 18.346
32.19000 19.471
32.20000 9.101
32.21000 9.194
32.22000 19.236
32.23000 22.324
32.24000 20.272
32.25000 19.388
32.26000 15.166
32.27000 19.250
32.28000 22.363
32.29000 9.147
32.30000 20.262
32.31000 13.082
32.32000 15.093
32.33000 16.315
32.34000 21.249
32.35000 14.310
32.36000 11.158
32.37000 16.233
32.38000 22.526
32.39000 17.276
32.40000 14.168
32.41000 12.202
32.42000 16.278
32.43000 17.185
32.44000 13.076
32.45000 13.094
32.46000 14.218
32.47000 11.062
32.48000 23.317
32.49000 15.148
32.50000 25.407
32.51000 15.301
32.52000 22.333
32.53000 24.258
32.54000 16.161
32.55000 15.450
32.56000 17.162
32.57000 11.218
32.58000 17.154
32.59000 14.147
32.60000 13.171
32.61000 13.168
32.62000 14.207
32.63000 9.190
32.64000 16.137
32.65000 16.200
32.66000 14.178
32.67000 18.256
32.68000 19.313
32.69000 16.356
32.70000 17.231
32.71000 18.455
32.72000 15.344
32.73000 16.041
32.74000 14.038
32.75000 14.221
32.76000 14.147
32.77000 18.261
32.78000 15.139
32.79000 14.199
32.80000 9.241
32.81000 19.241
32.82000 18.313
32.83000 10.197
32.84000 11.278
32.85000 9.063
32.86000 15.212
32.87000 9.218
32.88000 14.123
32.89000 8.133
32.90000 14.067
32.91000 16.213
32.92000 20.172
32.93000 12.178
32.94000 17.174
32.95000 16.265
32.96000 15.313
32.97000 18.326
32.98000 12.099
32.99000 11.113
33.00000 15.248
33.01000 19.196
33.02000 12.356
33.03000 17.337
33.04000 15.087
33.05000 12.149
33.06000 13.211
33.07000 10.285
33.08000 13.120
33.09000 14.292
33.10000 15.247
33.11000 13.122
33.12000 18.488
33.13000 13.108
33.14000 12.128
33.15000 9.105
33.16000 25.256
33.17000 12.154
33.18000 14.307
33.19000 11.115
33.20000 10.122
33.21000 18.280
33.22000 11.036
33.23000 18.181
33.24000 10.085
33.25000 11.196
33.26000 14.283
33.27000 17.098
33.28000 9.144
33.29000 19.270
33.30000 12.360
33.31000 7.980
33.32000 14.256
33.33000 10.115
33.34000 14.222
33.35000 17.263
33.36000 16.222
33.37000 13.053
33.38000 16.097
33.39000 13.203
33.40000 14.247
33.41000 10.178
33.42000 16.205
33.43000 9.111
33.44000 9.112
33.45000 11.142
33.46000 13.238
33.47000 17.244
33.48000 12.266
33.49000 12.128
33.50000 13.227
33.51000 22.221
33.52000 12.229
33.53000 12.315
33.54000 16.241
33.55000 8.149
33.56000 14.184
33.57000 16.238
33.58000 11.180
33.59000 11.071
33.60000 19.080
33.61000 9.151
33.62000 12.293
33.63000 11.149
33.64000 14.200
33.65000 16.174
33.66000 12.079
33.67000 13.250
33.68000 9.034
33.69000 14.055
33.70000 20.377
33.71000 10.145
33.72000 10.046
33.73000 12.160
33.74000 9.083
33.75000 16.145
33.76000 12.286
33.77000 8.268
33.78000 7.034
33.79000 14.143
33.80000 11.047
33.81000 9.104
33.82000 15.981
33.83000 11.113
33.84000 8.032
33.85000 9.998
33.86000 15.212
33.87000 9.155
33.88000 14.292
33.89000 16.122
33.90000 13.201
33.91000 18.283
33.92000 12.354
33.93000 14.151
33.94000 15.057
33.95000 9.086
33.96000 15.136
33.97000 18.387
33.98000 18.207
33.99000 7.173
34.00000 9.048
34.01000 15.186
34.02000 14.150
34.03000 13.140
34.04000 9.064
34.05000 15.310
34.06000 14.226
34.07000 7.158
34.08000 12.135
34.09000 18.117
34.10000 7.271
34.11000 11.037
34.12000 13.082
34.13000 10.039
34.14000 16.135
34.15000 8.116
34.16000 14.158
34.17000 14.270
34.18000 6.097
34.19000 15.126
34.20000 14.169
34.21000 12.303
34.22000 11.038
34.23000 11.290
34.24000 11.189
34.25000 9.084
34.26000 13.107
34.27000 10.162
34.28000 19.399
34.29000 10.060
34.30000 17.131
34.31000 5.101
34.32000 8.052
34.33000 13.052
34.34000 9.192
34.35000 9.044
34.36000 12.068
34.37000 13.190
34.38000 10.287
34.39000 7.124
34.40000 12.170
34.41000 16.205
34.42000 10.138
34.43000 12.119
34.44000 12.104
34.45000 8.093
34.46000 9.155
34.47000 12.134
34.48000 13.255
34.49000 13.256
34.50000 19.305
34.51000 6.116
34.52000 16.157
34.53000 8.167
34.54000 11.202
34.55000 12.163
34.56000 9.120
34.57000 8.102
34.58000 14.302
34.59000 7.081
34.60000 9.278
34.61000 12.310
34.62000 10.075
34.63000 9.181
34.64000 10.181
34.65000 10.181
34.66000 11.191
34.67000 8.960
34.68000 11.160
34.69000 11.094
34.70000 16.151
34.71000 12.237
34.72000 14.177
34.73000 7.006
34.74000 12.259
34.75000 16.286
34.76000 10.216
34.77000 9.186
34.78000 12.979
34.79000 9.127
34.80000 6.131
34.81000 12.133
34.82000 8.066
34.83000 6.107
34.84000 11.122
34.85000 9.046
34.86000 13.262
34.87000 10.182
34.88000 20.393
34.89000 11.189
34.90000 13.312
34.91000 10.228
34.92000 15.288
34.93000 9.026
34.94000 9.139
34.95000 8.980
34.96000 4.039
34.97000 8.059
34.98000 17.097
34.99000 12.348
35.00000 13.164
35.01000 12.139
35.02000 6.110
35.03000 14.063
35.04000 13.249
35.05000 11.144
35.06000 6.117
35.07000 8.163
35.08000 10.191
35.09000 12.039
35.10000 14.307
35.11000 15.204
35.12000 12.230
35.13000 13.279
35.14000 12.095
35.15000 16.268
35.16000 8.110
35.17000 7.072
35.18000 12.240
35.19000 13.108
35.20000 11.097
35.21000 5.035
35.22000 11.072
35.23000 8.109
35.24000 7.012
35.25000 16.235
35.26000 11.147
35.27000 12.219
35.28000 16.369
35.29000 7.155
35.30000 11.183
35.31000 15.244
35.32000 14.266
35.33000 12.165
35.34000 10.100
35.35000 15.513
35.36000 7.085
35.37000 17.218
35.38000 13.148
35.39000 13.102
35.40000 11.081
35.41000 17.218
35.42000 9.113
35.43000 10.139
35.44000 7.123
35.45000 14.173
35.46000 11.123
35.47000 12.143
35.48000 11.240
35.49000 16.159
35.50000 15.119
35.51000 12.143
35.52000 14.224
35.53000 16.165
35.54000 17.075
35.55000 8.120
35.56000 13.126
35.57000 12.111
35.58000 12.332
35.59000 14.115
35.60000 7.070
35.61000 7.113
35.62000 14.276
35.63000 12.139
35.64000 13.135
35.65000 7.962
35.66000 14.321
35.67000 11.180
35.68000 9.049
35.69000 19.234
35.70000 15.278
35.71000 5.077
35.72000 10.940
35.73000 11.151
35.74000 14.192
35.75000 15.124
35.76000 6.082
35.77000 18.283
35.78000 21.273
35.79000 13.271
35.80000 13.046
35.81000 12.110
35.82000 18.292
35.83000 16.184
35.84000 12.299
35.85000 11.160
35.86000 6.112
35.87000 15.360
35.88000 16.230
35.89000 9.229
35.90000 16.281
35.91000 18.167
35.92000 7.938
35.93000 10.182
35.94000 8.236
35.95000 8.023
35.96000 10.136
35.97000 16.153
35.98000 13.282
35.99000 13.195
36.00000 13.163
36.01000 11.151
36.02000 6.086
36.03000 12.096
36.04000 16.194
36.05000 9.035
36.06000 16.125
36.07000 10.059
36.08000 11.171
36.09000 13.311
36.10000 13.221
36.11000 6.143
36.12000 10.252
36.13000 10.152
36.14000 10.119
36.15000 6.042
36.16000 18.080
36.17000 11.088
36.18000 10.083
36.19000 12.187
36.20000 13.290
36.21000 16.139
36.22000 7.047
36.23000 7.195
36.24000 8.998
36.25000 9.202
36.26000 14.103
36.27000 12.193
36.28000 15.216
36.29000 18.185
36.30000 13.386
36.31000 16.264
36.32000 8.009
36.33000 6.023
36.34000 10.225
36.35000 20.298
36.36000 10.105
36.37000 16.339
36.38000 13.080
36.39000 8.185
36.40000 9.142
36.41000 14.068
36.42000 10.101
36.43000 10.123
36.44000 10.201
36.45000 4.047
36.46000 18.032
36.47000 10.211
36.48000 8.131
36.49000 13.162
36.50000 10.092
36.51000 9.184
36.52000 5.989
36.53000 10.208
36.54000 10.081
36.55000 9.211
36.56000 11.074
36.57000 7.122
36.58000 11.001
36.59000 10.112
36.60000 13.100
36.61000 12.201
36.62000 10.156
36.63000 9.265
36.64000 8.045
36.65000 18.392
36.66000 20.114
36.67000 9.306
36.68000 10.243
36.69000 11.250
36.70000 14.097
36.71000 15.216
36.72000 15.280
36.73000 17.165
36.74000 8.160
36.75000 7.962
36.76000 12.158
36.77000 10.172
36.78000 11.132
36.79000 14.086
36.80000 6.078
36.81000 14.274
36.82000 12.129
36.83000 14.063
36.84000 6.190
36.85000 10.994
36.86000 19.235
36.87000 13.291
36.88000 19.374
36.89000 8.263
36.90000 11.152
36.91000 14.332
36.92000 8.229
36.93000 8.120
36.94000 12.934
36.95000 8.981
36.96000 13.179
36.97000 11.162
36.98000 11.183
36.99000 11.095
37.00000 16.194
37.01000 17.094
37.02000 7.064
37.03000 6.931
37.04000 19.192
37.05000 10.381
37.06000 6.060
37.07000 18.140
37.08000 10.015
37.09000 13.139
37.10000 8.187
37.11000 21.263
37.12000 10.166
37.13000 17.175
37.14000 13.063
37.15000 11.293
37.16000 9.213
37.17000 7.049
37.18000 10.093
37.19000 9.212
37.20000 11.118
37.21000 14.199
37.22000 21.207
37.23000 18.183
37.24000 17.244
37.25000 15.244
37.26000 11.189
37.27000 16.244
37.28000 13.060
37.29000 11.154
37.30000 11.071
37.31000 7.054
37.32000 16.436
37.33000 12.196
37.34000 13.114
37.35000 12.158
37.36000 18.068
37.37000 15.085
37.38000 9.078
37.39000 10.053
37.40000 6.067
37.41000 10.261
37.42000 10.162
37.43000 11.171
37.44000 14.339
37.45000 13.154
37.46000 5.208
37.47000 14.226
37.48000 17.261
37.49000 16.300
37.50000 10.299
37.51000 18.360
37.52000 9.264
37.53000 7.165
37.54000 17.109
37.55000 13.222
37.56000 14.220
37.57000 13.074
37.58000 12.233
37.59000 9.195
37.60000 9.120
37.61000 9.127
37.62000 10.082
37.63000 12.105
37.64000 13.194
37.65000 13.320
37.66000 12.231
37.67000 10.225
37.68000 17.229
37.69000 17.143
37.70000 10.109
37.71000 15.172
37.72000 17.264
37.73000 17.191
37.74000 15.290
37.75000 11.176
37.76000 7.154
37.77000 14.307
37.78000 15.114
37.79000 14.165
37.80000 15.257
37.81000 13.286
37.82000 15.358
37.83000 16.027
37.84000 10.150
37.85000 11.079
37.86000 13.080
37.87000 14.255
37.88000 21.310
37.89000 10.225
37.90000 15.112
37.91000 12.165
37.92000 8.147
37.93000 11.149
37.94000 12.321
37.95000 19.165
37.96000 9.098
37.97000 10.057
37.98000 15.346
37.99000 13.290
38.00000 13.039
38.01000 9.146
38.02000 11.137
38.03000 4.151
38.04000 11.163
38.05000 15.054
38.06000 12.180
38.07000 17.047
38.08000 14.284
38.09000 18.236
38.10000 11.229
38.11000 8.167
38.12000 6.967
38.13000 16.169
38.14000 5.984
38.15000 11.200
38.16000 7.105
38.17000 9.077
38.18000 9.142
38.19000 14.039
38.20000 12.143
38.21000 12.156
38.22000 15.235
38.23000 7.067
38.24000 16.186
38.25000 9.055
38.26000 12.369
38.27000 17.155
38.28000 13.227
38.29000 17.259
38.30000 15.269
38.31000 16.375
38.32000 16.337
38.33000 13.300
38.34000 9.089
38.35000 7.053
38.36000 15.955
38.37000 21.567
38.38000 11.984
38.39000 14.250
38.40000 11.075
38.41000 16.254
38.42000 10.134
38.43000 14.207
38.44000 8.064
38.45000 14.246
38.46000 9.168
38.47000 21.185
38.48000 14.147
38.49000 16.130
38.50000 7.184
38.51000 15.285
38.52000 17.099
38.53000 14.144
38.54000 9.132
38.55000 19.293
38.56000 15.105
38.57000 9.029
38.58000 10.156
38.59000 17.214
38.60000 11.256
38.61000 6.028
38.62000 11.170
38.63000 19.073
38.64000 17.341
38.65000 15.183
38.66000 6.038
38.67000 16.270
38.68000 8.150
38.69000 14.200
38.70000 14.131
38.71000 10.214
38.72000 16.285
38.73000 9.007
38.74000 14.228
38.75000 13.950
38.76000 15.001
38.77000 9.071
38.78000 13.376
38.79000 13.221
38.80000 14.172
38.81000 19.371
38.82000 10.292
38.83000 18.342
38.84000 14.088
38.85000 12.135
38.86000 11.129
38.87000 10.199
38.88000 6.001
38.89000 12.224
38.90000 12.091
38.91000 15.045
38.92000 13.113
38.93000 13.153
38.94000 5.992
38.95000 16.348
38.96000 17.210
38.97000 19.291
38.98000 13.064
38.99000 16.337
39.00000 18.149
39.01000 11.066
39.02000 13.178
39.03000 6.973
39.04000 12.171
39.05000 12.128
39.06000 16.222
39.07000 11.133
39.08000 12.226
39.09000 13.221
39.10000 15.188
39.11000 16.095
39.12000 12.045
39.13000 13.152
39.14000 11.094
39.15000 10.097
39.16000 10.194
39.17000 12.163
39.18000 11.149
39.19000 9.240
39.20000 16.215
39.21000 13.190
39.22000 8.072
39.23000 14.305
39.24000 19.283
39.25000 15.323
39.26000 16.216
39.27000 11.230
39.28000 15.360
39.29000 15.171
39.30000 14.122
39.31000 8.104
39.32000 13.463
39.33000 14.282
39.34000 17.129
39.35000 21.349
39.36000 13.166
39.37000 11.219
39.38000 7.189
39.39000 15.266
39.40000 9.210
39.41000 17.295
39.42000 15.295
39.43000 12.076
39.44000 16.351
39.45000 13.225
39.46000 12.199
39.47000 16.413
39.48000 7.020
39.49000 15.323
39.50000 13.227
39.51000 14.206
39.52000 15.166
39.53000 11.298
39.54000 9.162
39.55000 10.117
39.56000 8.074
39.57000 15.248
39.58000 8.988
39.59000 15.124
39.60000 9.102
39.61000 7.080
39.62000 9.004
39.63000 15.216
39.64000 9.121
39.65000 15.115
39.66000 15.363
39.67000 13.247
39.68000 14.243
39.69000 11.218
39.70000 11.156
39.71000 20.439
39.72000 18.297
39.73000 9.200
39.74000 13.273
39.75000 15.289
39.76000 11.099
39.77000 16.062
39.78000 10.255
39.79000 17.290
39.80000 16.098
39.81000 12.239
39.82000 14.194
39.83000 23.547
39.84000 10.202
39.85000 13.120
39.86000 6.105
39.87000 12.085
39.88000 16.171
39.89000 16.117
39.90000 10.078
39.91000 14.110
39.92000 19.334
39.93000 17.232
39.94000 14.189
39.95000 13.127
39.96000 14.348
39.97000 14.140
39.98000 10.164
39.99000 9.124
40.00000 12.162
40.01000 16.245
40.02000 15.185
40.03000 10.269
40.04000 13.911
40.05000 22.299
40.06000 11.019
40.07000 16.240
40.08000 8.165
40.09000 12.074
40.10000 15.363
40.11000 19.273
40.12000 6.101
40.13000 18.073
40.14000 22.130
40.15000 12.119
40.16000 17.222
40.17000 12.260
40.18000 17.204
40.19000 15.319
40.20000 20.433
40.21000 13.227
40.22000 16.167
40.23000 11.203
40.24000 7.046
40.25000 13.029
40.26000 16.160
40.27000 14.148
40.28000 8.164
40.29000 9.130
40.30000 14.282
40.31000 17.193
40.32000 12.270
40.33000 18.124
40.34000 13.193
40.35000 9.223
40.36000 13.118
40.37000 15.064
40.38000 13.052
40.39000 11.154
40.40000 8.079
40.41000 11.180
40.42000 15.175
40.43000 9.096
40.44000 16.094
40.45000 13.054
40.46000 11.249
40.47000 13.115
40.48000 17.206
40.49000 16.122
40.50000 20.039
40.51000 5.048
40.52000 17.279
40.53000 12.076
40.54000 12.221
40.55000 17.399
40.56000 13.011
40.57000 11.144
40.58000 15.415
40.59000 11.249
40.60000 14.053
40.61000 15.987
40.62000 10.175
40.63000 14.185
40.64000 12.125
40.65000 10.014
40.66000 17.421
40.67000 14.072
40.68000 16.228
40.69000 18.268
40.70000 14.225
40.71000 18.354
40.72000 18.254
40.73000 9.142
40.74000 16.392
40.75000 25.282
40.76000 14.282
40.77000 10.146
40.78000 11.127
40.79000 17.254
40.80000 19.176
40.81000 20.114
40.82000 12.024
40.83000 17.005
40.84000 19.407
40.85000 16.086
40.86000 9.103
40.87000 13.156
40.88000 12.308
40.89000 17.392
40.90000 12.089
40.91000 12.201
40.92000 12.076
40.93000 8.109
40.94000 9.174
40.95000 15.570
40.96000 16.211
40.97000 14.339
40.98000 9.103
40.99000 13.188
41.00000 12.207
41.01000 18.130
41.02000 18.202
41.03000 11.203
41.04000 13.017
41.05000 10.105
41.06000 14.436
41.07000 16.260
41.08000 12.160
41.09000 17.116
41.10000 13.078
41.11000 23.300
41.12000 20.407
41.13000 15.154
41.14000 13.381
41.15000 17.314
41.16000 13.394
41.17000 9.067
41.18000 12.021
41.19000 18.305
41.20000 17.346
41.21000 15.235
41.22000 20.323
41.23000 11.189
41.24000 3.985
41.25000 9.088
41.26000 13.260
41.27000 10.124
41.28000 18.084
41.29000 8.023
41.30000 16.233
41.31000 17.115
41.32000 16.194
41.33000 19.244
41.34000 8.175
41.35000 11.184
41.36000 19.556
41.37000 9.240
41.38000 17.179
41.39000 10.174
41.40000 15.201
41.41000 19.416
41.42000 8.117
41.43000 14.249
41.44000 12.216
41.45000 16.077
41.46000 15.256
41.47000 14.082
41.48000 15.274
41.49000 12.291
41.50000 16.140
41.51000 16.115
41.52000 14.083
41.53000 15.054
41.54000 11.153
41.55000 18.287
41.56000 16.257
41.57000 13.263
41.58000 20.371
41.59000 15.113
41.60000 18.246
41.61000 12.064
41.62000 14.347
41.63000 11.268
41.64000 26.444
41.65000 15.132
41.66000 9.126
41.67000 7.076
41.68000 10.053
41.69000 11.144
41.70000 18.139
41.71000 22.377
41.72000 13.254
41.73000 18.370
41.74000 15.131
41.75000 9.166
41.76000 12.165
41.77000 16.164
41.78000 21.267
41.79000 14.369
41.80000 14.004
41.81000 14.315
41.82000 8.971
41.83000 18.282
41.84000 19.370
41.85000 8.144
41.86000 15.121
41.87000 13.228
41.88000 19.202
41.89000 10.214
41.90000 20.341
41.91000 14.147
41.92000 13.042
41.93000 15.123
41.94000 12.229
41.95000 14.013
41.96000 19.105
41.97000 8.129
41.98000 14.102
41.99000 17.255
42.00000 17.267
42.01000 18.421
42.02000 20.229
42.03000 15.231
42.04000 13.101
42.05000 12.109
42.06000 8.090
42.07000 12.033
42.08000 17.264
42.09000 14.184
42.10000 14.233
42.11000 15.314
42.12000 13.177
42.13000 11.068
42.14000 7.071
42.15000 15.156
42.16000 17.317
42.17000 19.460
42.18000 14.063
42.19000 12.155
42.20000 12.148
42.21000 10.122
42.22000 12.286
42.23000 18.083
42.24000 11.286
42.25000 12.103
42.26000 16.330
42.27000 19.258
42.28000 11.137
42.29000 14.069
42.30000 18.078
42.31000 15.209
42.32000 9.287
42.33000 20.394
42.34000 11.099
42.35000 11.111
42.36000 14.359
42.37000 12.190
42.38000 11.019
42.39000 14.195
42.40000 17.478
42.41000 24.443
42.42000 17.094
42.43000 17.436
42.44000 19.456
42.45000 11.182
42.46000 25.361
42.47000 18.226
42.48000 20.215
42.49000 16.251
42.50000 12.123
42.51000 17.165
42.52000 12.201
42.53000 12.178
42.54000 14.108
42.55000 16.347
42.56000 23.291
42.57000 13.147
42.58000 14.104
42.59000 14.325
42.60000 9.983
42.61000 10.124
42.62000 15.256
42.63000 12.225
42.64000 15.172
42.65000 13.311
42.66000 13.267
42.67000 14.108
42.68000 13.219
42.69000 18.258
42.70000 14.291
42.71000 8.000
42.72000 9.109
42.73000 19.116
42.74000 15.032
42.75000 16.319
42.76000 21.158
42.77000 17.152
42.78000 24.384
42.79000 16.203
42.80000 13.288
42.81000 5.038
42.82000 10.084
42.83000 10.331
42.84000 10.105
42.85000 7.117
42.86000 16.159
42.87000 14.178
42.88000 10.182
42.89000 7.101
42.90000 12.202
42.91000 18.383
42.92000 27.185
42.93000 19.328
42.94000 14.182
42.95000 19.404
42.96000 14.197
42.97000 14.166
42.98000 10.235
42.99000 17.186
43.00000 19.387
43.01000 16.236
43.02000 12.134
43.03000 10.014
43.04000 16.404
43.05000 15.016
43.06000 17.202
43.07000 9.031
43.08000 16.283
43.09000 11.221
43.10000 17.333
43.11000 14.210
43.12000 16.091
43.13000 12.234
43.14000 12.087
43.15000 22.269
43.16000 16.292
43.17000 12.023
43.18000 8.133
43.19000 19.282
43.20000 12.234
43.21000 14.175
43.22000 13.192
43.23000 4.013
43.24000 13.053
43.25000 11.214
43.26000 15.305
43.27000 14.442
43.28000 13.127
43.29000 17.171
43.30000 16.132
43.31000 12.145
43.32000 13.222
43.33000 12.223
43.34000 13.331
43.35000 11.154
43.36000 19.313
43.37000 12.104
43.38000 10.010
43.39000 14.205
43.40000 18.128
43.41000 13.228
43.42000 12.294
43.43000 25.705
43.44000 15.424
43.45000 11.225
43.46000 17.172
43.47000 13.152
43.48000 16.247
43.49000 17.072
43.50000 14.317
43.51000 18.252
43.52000 21.334
43.53000 16.300
43.54000 19.413
43.55000 12.273
43.56000 11.098
43.57000 21.253
43.58000 13.003
43.59000 12.253
43.60000 12.245
43.61000 17.021
43.62000 15.289
43.63000 12.997
43.64000 9.280
43.65000 9.208
43.66000 18.089
43.67000 7.099
43.68000 16.240
43.69000 11.153
43.70000 15.094
43.71000 10.265
43.72000 11.041
43.73000 7.042
43.74000 15.174
43.75000 13.245
43.76000 15.250
43.77000 10.065
43.78000 15.174
43.79000 19.222
43.80000 10.085
43.81000 14.247
43.82000 12.090
43.83000 17.218
43.84000 9.141
43.85000 10.175
43.86000 15.132
43.87000 15.223
43.88000 14.238
43.89000 24.430
43.90000 10.141
43.91000 16.159
43.92000 18.307
43.93000 13.100
43.94000 14.315
43.95000 9.113
43.96000 13.176
43.97000 19.034
43.98000 15.038
43.99000 14.194
44.00000 10.137
44.01000 15.112
44.02000 12.217
44.03000 17.377
44.04000 13.150
44.05000 17.157
44.06000 13.221
44.07000 12.155
44.08000 13.122
44.09000 11.377
44.10000 19.036
44.11000 8.159
44.12000 20.378
44.13000 11.185
44.14000 9.002
44.15000 19.122
44.16000 16.166
44.17000 9.041
44.18000 11.136
44.19000 15.210
44.20000 13.161
44.21000 16.191
44.22000 11.286
44.23000 21.392
44.24000 13.170
44.25000 15.242
44.26000 11.135
44.27000 19.308
44.28000 9.125
44.29000 6.101
44.30000 14.220
44.31000 10.126
44.32000 12.262
44.33000 8.146
44.34000 19.316
44.35000 15.244
44.36000 8.066
44.37000 17.422
44.38000 10.229
44.39000 12.112
44.40000 15.181
44.41000 16.141
44.42000 14.136
44.43000 22.192
44.44000 16.300
44.45000 14.166
44.46000 9.166
44.47000 13.091
44.48000 11.095
44.49000 17.270
44.50000 13.123
44.51000 13.157
44.52000 24.322
44.53000 10.098
44.54000 12.093
44.55000 9.152
44.56000 26.251
44.57000 15.324
44.58000 12.154
44.59000 15.257
44.60000 8.027
44.61000 13.149
44.62000 20.173
44.63000 14.200
44.64000 13.172
44.65000 11.174
44.66000 17.131
44.67000 14.054
44.68000 9.189
44.69000 16.138
44.70000 14.042
44.71000 5.050
44.72000 10.166
44.73000 9.043
44.74000 16.202
44.75000 13.267
44.76000 20.253
44.77000 13.198
44.78000 12.144
44.79000 17.271
44.80000 16.090
44.81000 16.198
44.82000 9.085
44.83000 13.327
44.84000 15.346
44.85000 11.255
44.86000 10.060
44.87000 11.998
44.88000 17.449
44.89000 15.243
44.90000 13.064
44.91000 14.180
44.92000 16.010
44.93000 15.130
44.94000 17.386
44.95000 9.088
44.96000 18.215
44.97000 13.175
44.98000 6.129
44.99000 11.223
45.00000 20.346
45.01000 15.141
45.02000 17.400
45.03000 13.230
45.04000 10.069
45.05000 8.186
45.06000 8.203
45.07000 19.376
45.08000 10.056
45.09000 12.126
45.10000 18.238
45.11000 10.162
45.12000 15.263
45.13000 15.377
45.14000 8.080
45.15000 18.266
45.16000 11.266
45.17000 12.131
45.18000 16.100
45.19000 16.166
45.20000 13.138
45.21000 10.175
45.22000 15.080
45.23000 12.208
45.24000 14.207
45.25000 8.138
45.26000 11.138
45.27000 16.402
45.28000 19.399
45.29000 14.158
45.30000 11.068
45.31000 12.257
45.32000 11.134
45.33000 8.162
45.34000 16.448
45.35000 11.006
45.36000 14.271
45.37000 13.022
45.38000 16.207
45.39000 14.192
45.40000 18.266
45.41000 16.354
45.42000 19.197
45.43000 18.255
45.44000 14.300
45.45000 15.096
45.46000 14.173
45.47000 14.156
45.48000 13.247
45.49000 17.228
45.50000 13.165
45.51000 16.123
45.52000 20.212
45.53000 15.165
45.54000 14.368
45.55000 11.153
45.56000 17.272
45.57000 17.175
45.58000 21.323
45.59000 14.236
45.60000 11.022
45.61000 14.158
45.62000 15.253
45.63000 15.237
45.64000 19.159
45.65000 21.573
45.66000 10.242
45.67000 7.130
45.68000 17.132
45.69000 13.049
45.70000 16.087
45.71000 14.185
45.72000 11.183
45.73000 9.121
45.74000 13.107
45.75000 19.185
45.76000 18.268
45.77000 20.361
45.78000 15.275
45.79000 19.168
45.80000 11.124
45.81000 11.101
45.82000 17.247
45.83000 15.218
45.84000 13.093
45.85000 12.234
45.86000 19.344
45.87000 17.340
45.88000 21.241
45.89000 13.071
45.90000 13.188
45.91000 14.448
45.92000 13.286
45.93000 11.150
45.94000 17.340
45.95000 9.071
45.96000 12.087
45.97000 9.047
45.98000 14.137
45.99000 19.060
46.00000 13.128
46.01000 15.162
46.02000 14.196
46.03000 15.269
46.04000 20.227
46.05000 12.173
46.06000 14.211
46.07000 16.306
46.08000 11.159
46.09000 18.133
46.10000 14.135
46.11000 10.950
46.12000 17.259
46.13000 14.148
46.14000 14.114
46.15000 12.236
46.16000 16.268
46.17000 23.252
46.18000 16.149
46.19000 13.055
46.20000 17.348
46.21000 13.059
46.22000 14.186
46.23000 12.179
46.24000 13.087
46.25000 16.220
46.26000 20.157
46.27000 18.081
46.28000 14.182
46.29000 17.125
46.30000 15.403
46.31000 15.435
46.32000 14.012
46.33000 8.230
46.34000 14.228
46.35000 23.265
46.36000 17.238
46.37000 15.298
46.38000 18.144
46.39000 15.051
46.40000 13.029
46.41000 15.221
46.42000 15.154
46.43000 13.140
46.44000 12.219
46.45000 4.038
46.46000 11.254
46.47000 20.432
46.48000 14.096
46.49000 10.273
46.50000 15.138
46.51000 12.242
46.52000 14.225
46.53000 12.242
46.54000 10.081
46.55000 18.411
46.56000 10.171
46.57000 9.073
46.58000 14.115
46.59000 17.205
46.60000 20.247
46.61000 11.119
46.62000 16.345
46.63000 18.160
46.64000 18.421
46.65000 19.133
46.66000 20.468
46.67000 14.187
46.68000 9.037
46.69000 12.213
46.70000 15.329
46.71000 19.451
46.72000 17.302
46.73000 9.198
46.74000 16.218
46.75000 10.127
46.76000 14.131
46.77000 13.279
46.78000 13.085
46.79000 15.249
46.80000 9.085
46.81000 22.227
46.82000 19.235
46.83000 20.216
46.84000 12.117
46.85000 11.140
46.86000 18.332
46.87000 12.085
46.88000 11.020
46.89000 16.317
46.90000 14.110
46.91000 15.099
46.92000 16.330
46.93000 16.129
46.94000 15.232
46.95000 8.135
46.96000 18.122
46.97000 14.254
46.98000 13.151
46.99000 15.311
47.00000 15.181
47.01000 21.257
47.02000 13.089
47.03000 16.245
47.04000 17.085
47.05000 16.068
47.06000 14.153
47.07000 17.154
47.08000 12.339
47.09000 11.167
47.10000 6.025
47.11000 16.313
47.12000 10.077
47.13000 22.357
47.14000 19.118
47.15000 12.180
47.16000 16.229
47.17000 10.142
47.18000 19.281
47.19000 12.088
47.20000 14.427
47.21000 12.146
47.22000 15.173
47.23000 14.129
47.24000 8.070
47.25000 14.199
47.26000 12.032
47.27000 8.049
47.28000 12.134
47.29000 19.318
47.30000 19.317
47.31000 18.280
47.32000 15.266
47.33000 7.044
47.34000 15.034
47.35000 8.066
47.36000 16.956
47.37000 11.079
47.38000 9.220
47.39000 14.134
47.40000 13.279
47.41000 17.309
47.42000 13.083
47.43000 11.003
47.44000 13.267
47.45000 14.063
47.46000 15.130
47.47000 11.250
47.48000 15.180
47.49000 13.000
47.50000 17.253
47.51000 17.257
47.52000 14.162
47.53000 11.217
47.54000 8.069
47.55000 13.288
47.56000 16.128
47.57000 14.080
47.58000 13.213
47.59000 14.252
47.60000 12.132
47.61000 15.261
47.62000 14.127
47.63000 10.185
47.64000 14.425
47.65000 19.399
47.66000 19.073
47.67000 18.209
47.68000 12.297
47.69000 11.218
47.70000 17.195
47.71000 15.270
47.72000 10.046
47.73000 13.065
47.74000 18.254
47.75000 11.117
47.76000 15.184
47.77000 15.213
47.78000 12.151
47.79000 20.531
47.80000 12.112
47.81000 17.269
47.82000 14.258
47.83000 14.302
47.84000 5.098
47.85000 17.173
47.86000 10.285
47.87000 13.247
47.88000 10.169
47.89000 16.090
47.90000 14.106
47.91000 11.054
47.92000 15.164
47.93000 18.136
47.94000 18.214
47.95000 11.221
47.96000 16.177
47.97000 12.347
47.98000 16.287
47.99000 11.074
48.00000 11.242
48.01000 7.051
48.02000 15.128
48.03000 15.211
48.04000 14.135
48.05000 11.127
48.06000 7.054
48.07000 12.091
48.08000 11.135
48.09000 10.242
48.10000 19.178
48.11000 14.153
48.12000 11.198
48.13000 16.166
48.14000 12.058
48.15000 11.111
48.16000 11.050
48.17000 17.058
48.18000 10.162
48.19000 14.147
48.20000 8.056
48.21000 14.206
48.22000 13.193
48.23000 11.122
48.24000 21.256
48.25000 11.144
48.26000 16.143
48.27000 19.216
48.28000 12.024
48.29000 15.163
48.30000 19.176
48.31000 13.090
48.32000 14.202
48.33000 6.143
48.34000 8.198
48.35000 18.112
48.36000 17.243
48.37000 16.369
48.38000 10.994
48.39000 15.037
48.40000 9.040
48.41000 11.177
48.42000 16.199
48.43000 9.213
48.44000 15.149
48.45000 9.237
48.46000 12.184
48.47000 8.166
48.48000 17.136
48.49000 12.114
48.50000 14.174
48.51000 13.167
48.52000 7.094
48.53000 12.141
48.54000 14.294
48.55000 18.068
48.56000 12.301
48.57000 11.101
48.58000 12.263
48.59000 21.026
48.60000 13.042
48.61000 16.330
48.62000 18.129
48.63000 14.071
48.64000 13.197
48.65000 15.235
48.66000 21.297
48.67000 7.062
48.68000 12.279
48.69000 15.322
48.70000 12.086
48.71000 15.145
48.72000 14.170
48.73000 15.251
48.74000 14.405
48.75000 8.117
48.76000 9.227
48.77000 17.235
48.78000 21.253
48.79000 10.093
48.80000 16.242
48.81000 15.284
48.82000 12.141
48.83000 14.235
48.84000 12.027
48.85000 11.152
48.86000 17.253
48.87000 24.274
48.88000 11.201
48.89000 18.208
48.90000 17.033
48.91000 6.095
48.92000 8.061
48.93000 12.133
48.94000 4.135
48.95000 15.110
48.96000 16.291
48.97000 14.244
48.98000 9.018
48.99000 10.196
49.00000 14.149
49.01000 14.982
49.02000 16.193
49.03000 18.278
49.04000 18.247
49.05000 19.256
49.06000 8.169
49.07000 18.342
49.08000 12.028
49.09000 10.091
49.10000 9.113
49.11000 18.132
49.12000 10.266
49.13000 15.303
49.14000 15.169
49.15000 17.274
49.16000 12.353
49.17000 9.277
49.18000 13.228
49.19000 15.184
49.20000 18.339
49.21000 15.353
49.22000 6.118
49.23000 15.263
49.24000 18.257
49.25000 12.102
49.26000 12.244
49.27000 12.129
49.28000 15.251
49.29000 16.360
49.30000 12.184
49.31000 13.091
49.32000 14.164
49.33000 12.153
49.34000 15.208
49.35000 8.124
49.36000 12.161
49.37000 9.087
49.38000 7.178
49.39000 14.219
49.40000 12.960
49.41000 12.216
49.42000 13.292
49.43000 12.204
49.44000 18.132
49.45000 15.311
49.46000 15.411
49.47000 6.985
49.48000 9.150
49.49000 19.215
49.50000 10.129
49.51000 9.169
49.52000 12.162
49.53000 11.208
49.54000 7.097
49.55000 13.087
49.56000 10.192
49.57000 10.059
49.58000 11.178
49.59000 13.221
49.60000 13.146
49.61000 18.253
49.62000 13.016
49.63000 13.103
49.64000 5.166
49.65000 9.093
49.66000 13.252
49.67000 18.126
49.68000 11.102
49.69000 10.154
49.70000 11.188
49.71000 14.122
49.72000 14.117
49.73000 8.245
49.74000 13.084
49.75000 12.064
49.76000 18.308
49.77000 18.268
49.78000 16.332
49.79000 4.048
49.80000 15.243
49.81000 10.296
49.82000 14.084
49.83000 16.179
49.84000 20.280
49.85000 11.049
49.86000 15.214
49.87000 18.319
49.88000 15.111
49.89000 9.037
49.90000 7.121
49.91000 8.142
49.92000 11.092
49.93000 11.094
49.94000 14.161
49.95000 11.215
49.96000 12.215
49.97000 9.096
49.98000 10.133
49.99000 17.244
50.00000 16.353
50.01000 21.261
50.02000 13.039
50.03000 10.154
50.04000 16.345
50.05000 17.310
50.06000 10.164
50.07000 15.147
50.08000 12.262
50.09000 17.104
50.10000 12.078
50.11000 7.097
50.12000 7.070
50.13000 12.302
50.14000 15.331
50.15000 11.240
50.16000 6.060
50.17000 17.170
50.18000 13.127
50.19000 14.152
50.20000 20.368
50.21000 14.113
50.22000 10.081
50.23000 8.018
50.24000 7.011
50.25000 15.322
50.26000 12.156
50.27000 12.054
50.28000 13.179
50.29000 14.207
50.30000 13.217
50.31000 9.986
50.32000 14.228
50.33000 14.187
50.34000 14.179
50.35000 11.166
50.36000 11.139
50.37000 11.138
50.38000 14.276
50.39000 7.030
50.40000 8.105
50.41000 8.091
50.42000 12.174
50.43000 14.052
50.44000 12.190
50.45000 9.098
50.46000 11.241
50.47000 14.100
50.48000 18.299
50.49000 10.990
50.50000 11.073
50.51000 12.228
50.52000 14.132
50.53000 18.191
50.54000 21.485
50.55000 18.280
50.56000 16.379
50.57000 17.112
50.58000 11.140
50.59000 16.155
50.60000 12.109
50.61000 16.355
50.62000 16.229
50.63000 12.258
50.64000 20.203
50.65000 15.017
50.66000 6.052
50.67000 10.209
50.68000 10.178
50.69000 9.159
50.70000 17.231
50.71000 10.188
50.72000 9.044
50.73000 18.203
50.74000 9.128
50.75000 12.141
50.76000 14.073
50.77000 20.103
50.78000 10.151
50.79000 10.983
50.80000 10.100
50.81000 13.208
50.82000 13.177
50.83000 10.986
50.84000 9.107
50.85000 11.282
50.86000 13.284
50.87000 16.199
50.88000 11.023
50.89000 10.122
50.90000 7.187
50.91000 12.188
50.92000 7.100
50.93000 6.016
50.94000 3.990
50.95000 9.116
50.96000 12.173
50.97000 15.093
50.98000 16.226
50.99000 15.259
51.00000 18.134
51.01000 12.164
51.02000 14.196
51.03000 17.233
51.04000 11.145
51.05000 12.123
51.06000 10.240
51.07000 9.064
51.08000 9.083
51.09000 13.119
51.10000 13.225
51.11000 11.079
51.12000 13.224
51.13000 11.149
51.14000 14.056
51.15000 9.064
51.16000 15.190
51.17000 12.109
51.18000 18.340
51.19000 12.093
51.20000 11.281
51.21000 16.275
51.22000 17.311
51.23000 13.220
51.24000 15.237
51.25000 10.125
51.26000 12.334
51.27000 11.108
51.28000 10.100
51.29000 10.089
51.30000 15.135
51.31000 13.203
51.32000 10.154
51.33000 21.210
51.34000 12.935
51.35000 19.344
51.36000 16.354
51.37000 17.295
51.38000 19.387
51.39000 7.080
51.40000 9.213
51.41000 13.423
51.42000 15.221
51.43000 8.040
51.44000 13.262
51.45000 11.200
51.46000 7.144
51.47000 12.091
51.48000 13.306
51.49000 9.228
51.50000 17.273
51.51000 15.137
51.52000 9.065
51.53000 10.255
51.54000 12.149
51.55000 12.225
51.56000 14.022
51.57000 9.229
51.58000 14.159
51.59000 10.101
51.60000 7.046
51.61000 11.073
51.62000 11.173
51.63000 10.212
51.64000 8.131
51.65000 13.089
51.66000 16.212
51.67000 12.092
51.68000 4.021
51.69000 12.316
51.70000 13.980
51.71000 11.172
51.72000 12.191
51.73000 13.080
51.74000 17.285
51.75000 10.076
51.76000 9.115
51.77000 12.224
51.78000 6.059
51.79000 3.024
51.80000 16.107
51.81000 19.196
51.82000 21.302
51.83000 13.220
51.84000 12.249
51.85000 8.131
51.86000 9.161
51.87000 8.191
51.88000 11.225
51.89000 11.204
51.90000 16.219
51.91000 13.989
51.92000 17.136
51.93000 9.083
51.94000 14.196
51.95000 10.983
51.96000 10.157
51.97000 7.225
51.98000 11.077
51.99000 12.087
52.00000 11.325
52.01000 14.208
52.02000 4.112
52.03000 12.180
52.04000 6.909
52.05000 11.243
52.06000 11.129
52.07000 11.104
52.08000 11.128
52.09000 8.185
52.10000 18.083
52.11000 13.111
52.12000 11.087
52.13000 11.177
52.14000 15.123
52.15000 11.103
52.16000 10.199
52.17000 4.048
52.18000 10.981
52.19000 14.224
52.20000 10.034
52.21000 7.192
52.22000 16.363
52.23000 13.359
52.24000 12.036
52.25000 10.267
52.26000 7.951
52.27000 9.092
52.28000 11.225
52.29000 6.153
52.30000 16.221
52.31000 19.298
52.32000 10.128
52.33000 12.216
52.34000 9.115
52.35000 8.073
52.36000 13.164
52.37000 16.253
52.38000 14.246
52.39000 10.194
52.40000 8.157
52.41000 11.218
52.42000 12.139
52.43000 13.147
52.44000 15.481
52.45000 11.076
52.46000 11.155
52.47000 17.121
52.48000 17.225
52.49000 14.214
52.50000 17.433
52.51000 9.120
52.52000 11.182
52.53000 9.110
52.54000 17.262
52.55000 8.078
52.56000 11.085
52.57000 15.162
52.58000 16.279
52.59000 11.019
52.60000 9.257
52.61000 17.163
52.62000 12.162
52.63000 13.082
52.64000 12.330
52.65000 12.165
52.66000 9.011
52.67000 15.129
52.68000 15.337
52.69000 11.086
52.70000 15.122
52.71000 12.304
52.72000 16.177
52.73000 11.017
52.74000 6.085
52.75000 9.181
52.76000 7.165
52.77000 10.087
52.78000 13.153
52.79000 11.246
52.80000 11.120
52.81000 13.161
52.82000 12.198
52.83000 13.272
52.84000 17.155
52.85000 15.363
52.86000 14.210
52.87000 12.081
52.88000 9.113
52.89000 11.208
52.90000 17.107
52.91000 8.121
52.92000 10.209
52.93000 6.104
52.94000 13.118
52.95000 5.116
52.96000 12.101
52.97000 19.298
52.98000 6.175
52.99000 15.175
53.00000 9.056
53.01000 18.081
53.02000 12.217
53.03000 6.015
53.04000 13.176
53.05000 9.059
53.06000 12.165
53.07000 19.168
53.08000 7.182
53.09000 10.084
53.10000 4.068
53.11000 12.116
53.12000 10.121
53.13000 8.106
53.14000 11.201
53.15000 8.080
53.16000 12.190
53.17000 12.169
53.18000 8.043
53.19000 8.046
53.20000 12.136
53.21000 7.111
53.22000 13.125
53.23000 9.078
53.24000 12.093
53.25000 4.980
53.26000 11.049
53.27000 11.034
53.28000 10.102
53.29000 15.183
53.30000 15.987
53.31000 10.069
53.32000 10.076
53.33000 11.162
53.34000 14.167
53.35000 13.337
53.36000 11.078
53.37000 10.188
53.38000 6.033
53.39000 13.319
53.40000 16.370
53.41000 14.296
53.42000 13.076
53.43000 12.149
53.44000 9.042
53.45000 11.251
53.46000 10.003
53.47000 10.081
53.48000 9.167
53.49000 5.072
53.50000 11.018
53.51000 9.092
53.52000 12.225
53.53000 9.061
53.54000 10.136
53.55000 13.040
53.56000 12.078
53.57000 17.217
53.58000 10.215
53.59000 8.057
53.60000 10.115
53.61000 10.139
53.62000 11.140
53.63000 13.034
53.64000 10.231
53.65000 9.226
53.66000 10.097
53.67000 7.929
53.68000 14.144
53.69000 9.118
53.70000 13.263
53.71000 8.077
53.72000 14.304
53.73000 15.281
53.74000 11.157
53.75000 13.230
53.76000 9.367
53.77000 15.269
53.78000 13.227
53.79000 12.230
53.80000 15.264
53.81000 9.100
53.82000 11.289
53.83000 11.198
53.84000 9.151
53.85000 12.289
53.86000 9.083
53.87000 11.199
53.88000 9.097
53.89000 12.112
53.90000 13.079
53.91000 11.146
53.92000 13.170
53.93000 9.071
53.94000 14.212
53.95000 13.168
53.96000 7.090
53.97000 18.249
53.98000 8.092
53.99000 12.279
54.00000 9.300
54.01000 9.095
54.02000 16.250
54.03000 9.193
54.04000 13.153
54.05000 4.011
54.06000 16.251
54.07000 14.202
54.08000 11.252
54.09000 12.208
54.10000 11.146
54.11000 15.159
54.12000 12.244
54.13000 10.214
54.14000 9.157
54.15000 13.137
54.16000 7.015
54.17000 10.220
54.18000 9.048
54.19000 10.005
54.20000 8.136
54.21000 16.010
54.22000 14.147
54.23000 17.218
54.24000 12.191
54.25000 15.237
54.26000 2.016
54.27000 14.320
54.28000 15.173
54.29000 10.125
54.30000 11.089
54.31000 13.356
54.32000 7.124
54.33000 6.054
54.34000 8.089
54.35000 16.226
54.36000 11.167
54.37000 12.106
54.38000 7.975
54.39000 14.188
54.40000 11.063
54.41000 10.056
54.42000 10.124
54.43000 6.028
54.44000 10.218
54.45000 5.062
54.46000 12.179
54.47000 20.201
54.48000 8.013
54.49000 14.115
54.50000 11.273
54.51000 13.180
54.52000 5.036
54.53000 11.143
54.54000 7.154
54.55000 10.082
54.56000 9.314
54.57000 10.443
54.58000 11.083
54.59000 9.207
54.60000 6.028
54.61000 4.986
54.62000 16.042
54.63000 15.217
54.64000 11.173
54.65000 10.141
54.66000 6.159
54.67000 13.311
54.68000 5.192
54.69000 15.236
54.70000 10.095
54.71000 10.281
54.72000 14.013
54.73000 7.107
54.74000 19.267
54.75000 4.026
54.76000 4.018
54.77000 13.300
54.78000 9.095
54.79000 13.319
54.80000 7.071
54.81000 10.093
54.82000 10.186
54.83000 9.141
54.84000 15.304
54.85000 12.172
54.86000 9.135
54.87000 8.124
54.88000 11.098
54.89000 7.117
54.90000 12.114
54.91000 14.099
54.92000 15.225
54.93000 16.274
54.94000 9.060
54.95000 13.163
54.96000 12.217
54.97000 9.321
54.98000 10.116
54.99000 14.292
55.00000 10.166
55.01000 11.060
55.02000 12.300
55.03000 6.052
55.04000 6.104
55.05000 16.347
55.06000 10.093
55.07000 5.953
55.08000 9.175
55.09000 11.087
55.10000 9.889
55.11000 10.104
55.12000 6.224
55.13000 9.214
55.14000 10.250
55.15000 5.977
55.16000 7.062
55.17000 10.197
55.18000 7.073
55.19000 12.158
55.20000 7.034
55.21000 11.163
55.22000 10.048
55.23000 8.067
55.24000 7.108
55.25000 13.299
55.26000 9.175
55.27000 10.086
55.28000 11.243
55.29000 7.174
55.30000 9.097
55.31000 12.191
55.32000 8.096
55.33000 7.042
55.34000 8.192
55.35000 8.098
55.36000 9.098
55.37000 12.222
55.38000 10.184
55.39000 12.179
55.40000 8.060
55.41000 10.339
55.42000 9.185
55.43000 4.019
55.44000 14.281
55.45000 11.032
55.46000 13.122
55.47000 9.026
55.48000 12.133
55.49000 5.002
55.50000 11.019
55.51000 11.091
55.52000 10.175
55.53000 11.101
55.54000 12.054
55.55000 7.123
55.56000 14.359
55.57000 7.172
55.58000 10.175
55.59000 7.161
55.60000 11.239
55.61000 7.032
55.62000 5.123
55.63000 16.409
55.64000 5.986
55.65000 10.332
55.66000 6.111
55.67000 5.038
55.68000 13.245
55.69000 9.067
55.70000 13.216
55.71000 13.062
55.72000 11.135
55.73000 11.062
55.74000 12.099
55.75000 7.281
55.76000 11.034
55.77000 9.115
55.78000 9.084
55.79000 6.118
55.80000 9.070
55.81000 11.998
55.82000 9.144
55.83000 12.081
55.84000 10.157
55.85000 9.220
55.86000 12.233
55.87000 12.185
55.88000 11.070
55.89000 10.071
55.90000 15.185
55.91000 12.137
55.92000 14.228
55.93000 13.160
55.94000 10.178
55.95000 13.099
55.96000 11.124
55.97000 11.247
55.98000 9.066
55.99000 6.038
56.00000 8.061
56.01000 14.287
56.02000 8.985
56.03000 9.193
56.04000 11.220
56.05000 15.053
56.06000 3.018
56.07000 8.109
56.08000 11.168
56.09000 4.093
56.10000 12.028
56.11000 8.083
56.12000 11.227
56.13000 14.149
56.14000 10.267
56.15000 8.075
56.16000 6.992
56.17000 4.070
56.18000 15.220
56.19000 7.032
56.20000 14.153
56.21000 14.099
56.22000 10.278
56.23000 10.115
56.24000 10.235
56.25000 15.110
56.26000 8.146
56.27000 15.313
56.28000 8.100
56.29000 9.114
56.30000 12.177
56.31000 9.172
56.32000 14.150
56.33000 13.098
56.34000 19.235
56.35000 9.052
56.36000 10.042
56.37000 8.051
56.38000 7.014
56.39000 7.088
56.40000 7.191
56.41000 11.034
56.42000 12.117
56.43000 10.245
56.44000 14.219
56.45000 16.205
56.46000 10.087
56.47000 9.251
56.48000 1.032
56.49000 12.197
56.50000 12.327
56.51000 9.171
56.52000 11.055
56.53000 12.158
56.54000 9.091
56.55000 10.147
56.56000 8.140
56.57000 6.186
56.58000 11.279
56.59000 13.302
56.60000 13.166
56.61000 11.172
56.62000 12.093
56.63000 14.125
56.64000 7.130
56.65000 7.122
56.66000 10.165
56.67000 12.106
56.68000 6.203
56.69000 10.099
56.70000 9.054
56.71000 8.058
56.72000 17.241
56.73000 14.252
56.74000 7.126
56.75000 9.979
56.76000 11.087
56.77000 8.038
56.78000 7.079
56.79000 9.126
56.80000 7.046
56.81000 3.986
56.82000 8.104
56.83000 10.160
56.84000 2.962
56.85000 9.138
56.86000 10.166
56.87000 5.170
56.88000 8.258
56.89000 11.168
56.90000 9.047
56.91000 5.004
56.92000 12.044
56.93000 7.102
56.94000 8.072
56.95000 6.925
56.96000 7.278
56.97000 10.088
56.98000 6.052
56.99000 9.208
57.00000 6.082
57.01000 11.298
57.02000 3.063
57.03000 16.269
57.04000 11.127
57.05000 6.125
57.06000 7.040
57.07000 9.116
57.08000 8.184
57.09000 9.983
57.10000 5.078
57.11000 6.126
57.12000 7.045
57.13000 5.061
57.14000 5.062
57.15000 5.180
57.16000 10.077
57.17000 6.026
57.18000 6.970
57.19000 6.164
57.20000 10.202
57.21000 10.075
57.22000 9.998
57.23000 7.135
57.24000 11.243
57.25000 14.223
57.26000 4.110
57.27000 6.094
57.28000 6.994
57.29000 14.143
57.30000 9.097
57.31000 9.997
57.32000 7.124
57.33000 6.996
57.34000 12.087
57.35000 6.018
57.36000 8.090
57.37000 8.113
57.38000 10.205
57.39000 10.170
57.40000 6.057
57.41000 14.214
57.42000 5.065
57.43000 4.031
57.44000 5.090
57.45000 6.020
57.46000 13.186
57.47000 14.208
57.48000 6.090
57.49000 7.052
57.50000 6.123
57.51000 11.068
57.52000 11.112
57.53000 7.132
57.54000 8.004
57.55000 10.172
57.56000 9.122
57.57000 6.075
57.58000 14.218
57.59000 6.093
57.60000 11.117
57.61000 3.980
57.62000 4.099
57.63000 7.094
57.64000 8.036
57.65000 6.102
57.66000 12.347
57.67000 10.158
57.68000 8.121
57.69000 10.055
57.70000 11.989
57.71000 12.012
57.72000 9.160
57.73000 10.256
57.74000 4.973
57.75000 12.241
57.76000 13.107
57.77000 6.211
57.78000 11.225
57.79000 7.123
57.80000 8.151
57.81000 6.048
57.82000 8.138
57.83000 10.142
57.84000 7.250
57.85000 6.996
57.86000 7.197
57.87000 7.035
57.88000 8.053
57.89000 10.117
57.90000 3.030
57.91000 12.221
57.92000 4.117
57.93000 8.145
57.94000 8.145
57.95000 10.128
57.96000 7.070
57.97000 7.078
57.98000 7.087
57.99000 8.036
58.00000 7.161
58.01000 10.111
58.02000 8.100
58.03000 7.040
58.04000 5.178
58.05000 18.212
58.06000 13.320
58.07000 15.133
58.08000 8.152
58.09000 9.100
58.10000 8.096
58.11000 3.054
58.12000 10.209
58.13000 11.149
58.14000 8.101
58.15000 7.168
58.16000 7.181
58.17000 7.102
58.18000 8.047
58.19000 9.151
58.20000 16.286
58.21000 7.113
58.22000 10.182
58.23000 11.117
58.24000 4.066
58.25000 8.140
58.26000 10.087
58.27000 6.112
58.28000 10.075
58.29000 9.175
58.30000 8.013
58.31000 3.005
58.32000 12.268
58.33000 4.972
58.34000 10.148
58.35000 6.025
58.36000 5.119
58.37000 10.113
58.38000 5.990
58.39000 14.188
58.40000 10.107
58.41000 10.155
58.42000 8.037
58.43000 11.135
58.44000 9.028
58.45000 5.059
58.46000 13.115
58.47000 6.023
58.48000 12.097
58.49000 6.062
58.50000 11.110
58.51000 4.036
58.52000 9.134
58.53000 9.162
58.54000 3.062
58.55000 14.454
58.56000 10.125
58.57000 4.992
58.58000 5.027
58.59000 8.172
58.60000 3.991
58.61000 7.064
58.62000 9.076
58.63000 13.130
58.64000 8.223
58.65000 17.176
58.66000 7.157
58.67000 10.030
58.68000 8.236
58.69000 6.135
58.70000 8.062
58.71000 7.107
58.72000 5.066
58.73000 4.180
58.74000 10.083
58.75000 7.153
58.76000 7.074
58.77000 9.029
58.78000 5.050
58.79000 12.140
58.80000 13.162
58.81000 9.144
58.82000 7.007
58.83000 11.129
58.84000 12.129
58.85000 11.089
58.86000 10.056
58.87000 14.166
58.88000 7.122
58.89000 9.129
58.90000 7.030
58.91000 8.038
58.92000 7.136
58.93000 8.079
58.94000 5.032
58.95000 7.017
58.96000 9.028
58.97000 16.205
58.98000 7.032
58.99000 8.074
59.00000 10.065
59.01000 5.056
59.02000 11.045
59.03000 6.061
59.04000 7.018
59.05000 9.254
59.06000 4.022
59.07000 14.104
59.08000 6.055
59.09000 10.027
59.10000 8.069
59.11000 6.138
59.12000 8.057
59.13000 7.150
59.14000 8.153
59.15000 7.080
59.16000 11.162
59.17000 7.054
59.18000 5.062
59.19000 6.087
59.20000 9.056
59.21000 12.123
59.22000 5.082
59.23000 10.020
59.24000 6.096
59.25000 4.983
59.26000 12.209
59.27000 10.149
59.28000 8.226
59.29000 2.028
59.30000 5.078
59.31000 6.080
59.32000 8.039
59.33000 9.132
59.34000 6.106
59.35000 6.093
59.36000 5.223
59.37000 9.117
59.38000 6.127
59.39000 9.218
59.40000 6.134
59.41000 11.147
59.42000 10.186
59.43000 10.018
59.44000 5.040
59.45000 8.163
59.46000 8.059
59.47000 5.166
59.48000 6.094
59.49000 4.130
59.50000 13.166
59.51000 6.003
59.52000 8.010
59.53000 12.194
59.54000 5.055
59.55000 10.124
59.56000 7.177
59.57000 1.961
59.58000 12.211
59.59000 13.215
59.60000 10.018
59.61000 11.189
59.62000 7.061
59.63000 4.022
59.64000 11.982
59.65000 12.076
59.66000 7.126
59.67000 6.230
59.68000 6.070
59.69000 14.216
59.70000 8.020
59.71000 6.955
59.72000 7.024
59.73000 6.032
59.74000 14.027
59.75000 7.159
59.76000 5.077
59.77000 6.171
59.78000 11.012
59.79000 4.034
59.80000 11.098
59.81000 8.036
59.82000 8.177
59.83000 8.088
59.84000 8.096
59.85000 10.003
59.86000 8.999
59.87000 11.199
59.88000 9.168
59.89000 11.182
59.90000 11.041
59.91000 11.079
59.92000 6.048
59.93000 5.078
59.94000 7.114
59.95000 10.089
59.96000 11.176
59.97000 5.062
59.98000 9.114
59.99000 2.004
60.00000 5.013
60.01000 6.051
60.02000 9.144
60.03000 3.995
60.04000 13.097
60.05000 9.168
60.06000 13.191
60.07000 8.199
60.08000 7.154
60.09000 13.216
60.10000 8.112
60.11000 8.004
60.12000 11.194
60.13000 5.018
60.14000 7.060
60.15000 10.128
60.16000 10.099
60.17000 9.061
60.18000 6.064
60.19000 4.117
60.20000 7.040
60.21000 7.092
60.22000 10.292
60.23000 4.109
60.24000 3.045
60.25000 4.088
60.26000 7.157
60.27000 6.062
60.28000 5.135
60.29000 11.205
60.30000 8.133
60.31000 12.131
60.32000 2.982
60.33000 6.033
60.34000 9.192
60.35000 11.095
60.36000 4.028
60.37000 4.025
60.38000 6.070
60.39000 11.222
60.40000 12.272
60.41000 15.215
60.42000 7.190
60.43000 10.047
60.44000 2.058
60.45000 6.991
60.46000 10.005
60.47000 9.220
60.48000 5.019
60.49000 13.253
60.50000 8.154
60.51000 9.036
60.52000 10.071
60.53000 13.271
60.54000 9.235
60.55000 6.186
60.56000 7.030
60.57000 11.227
60.58000 8.142
60.59000 5.130
60.60000 12.115
60.61000 4.070
60.62000 7.063
60.63000 4.090
60.64000 12.006
60.65000 9.150
60.66000 6.001
60.67000 4.032
60.68000 6.192
60.69000 2.974
60.70000 7.085
60.71000 7.116
60.72000 6.106
60.73000 7.134
60.74000 5.056
60.75000 11.239
60.76000 5.137
60.77000 8.098
60.78000 11.367
60.79000 11.102
60.80000 9.101
60.81000 7.114
60.82000 8.139
60.83000 3.102
60.84000 7.198
60.85000 7.025
60.86000 8.235
60.87000 8.050
60.88000 11.126
60.89000 9.106
60.90000 7.063
60.91000 5.068
60.92000 11.110
60.93000 10.031
60.94000 5.084
60.95000 16.215
60.96000 8.040
60.97000 8.189
60.98000 10.225
60.99000 6.071
61.00000 9.046
61.01000 9.255
61.02000 5.129
61.03000 12.091
61.04000 10.226
61.05000 9.098
61.06000 5.017
61.07000 3.996
61.08000 5.111
61.09000 8.158
61.10000 5.069
61.11000 9.135
61.12000 4.027
61.13000 8.067
61.14000 3.049
61.15000 4.159
61.16000 8.110
61.17000 12.159
61.18000 2.996
61.19000 6.119
61.20000 5.987
61.21000 8.172
61.22000 11.031
61.23000 0.995
61.24000 11.077
61.25000 9.025
61.26000 7.048
61.27000 9.229
61.28000 8.061
61.29000 9.182
61.30000 2.000
61.31000 4.038
61.32000 8.066
61.33000 6.990
61.34000 3.998
61.35000 7.082
61.36000 4.025
61.37000 2.025
61.38000 8.995
61.39000 6.154
61.40000 8.054
61.41000 3.098
61.42000 9.036
61.43000 7.118
61.44000 7.115
61.45000 2.977
61.46000 7.018
61.47000 5.049
61.48000 13.057
61.49000 2.012
61.50000 7.068
61.51000 11.237
61.52000 7.111
61.53000 10.101
61.54000 6.059
61.55000 2.996
61.56000 9.070
61.57000 8.125
61.58000 4.005
61.59000 10.117
61.60000 10.063
61.61000 9.173
61.62000 5.045
61.63000 3.054
61.64000 5.076
61.65000 5.062
61.66000 6.982
61.67000 6.091
61.68000 6.079
61.69000 6.056
61.70000 12.100
61.71000 7.097
61.72000 6.185
61.73000 9.194
61.74000 5.066
61.75000 8.129
61.76000 6.088
61.77000 5.035
61.78000 7.104
61.79000 3.047
61.80000 7.113
61.81000 6.141
61.82000 4.035
61.83000 10.159
61.84000 8.135
61.85000 9.072
61.86000 6.045
61.87000 5.020
61.88000 5.058
61.89000 10.145
61.90000 3.039
61.91000 7.152
61.92000 8.127
61.93000 5.107
61.94000 8.995
61.95000 3.015
61.96000 6.240
61.97000 6.106
61.98000 4.105
61.99000 7.101
62.00000 7.004
62.01000 2.989
62.02000 8.126
62.03000 7.223
62.04000 8.047
62.05000 6.095
62.06000 3.063
62.07000 7.169
62.08000 5.066
62.09000 7.175
62.10000 11.282
62.11000 8.145
62.12000 5.175
62.13000 6.970
62.14000 12.079
62.15000 9.187
62.16000 7.101
62.17000 6.135
62.18000 7.000
62.19000 8.059
62.20000 7.037
62.21000 12.044
62.22000 2.992
62.23000 11.243
62.24000 8.226
62.25000 6.070
62.26000 6.105
62.27000 9.116
62.28000 7.180
62.29000 5.008
62.30000 10.218
62.31000 5.077
62.32000 8.222
62.33000 5.156
62.34000 4.201
62.35000 6.108
62.36000 3.072
62.37000 9.154
62.38000 11.298
62.39000 3.954
62.40000 9.206
62.41000 11.091
62.42000 0.986
62.43000 2.031
62.44000 8.014
62.45000 3.993
62.46000 7.155
62.47000 4.040
62.48000 8.110
62.49000 5.066
62.50000 7.144
62.51000 3.059
62.52000 9.154
62.53000 3.080
62.54000 3.082
62.55000 4.029
62.56000 5.189
62.57000 5.151
62.58000 3.124
62.59000 7.093
62.60000 7.033
62.61000 5.055
62.62000 6.092
62.63000 5.132
62.64000 7.238
62.65000 11.103
62.66000 9.180
62.67000 8.190
62.68000 3.059
62.69000 11.279
62.70000 6.146
62.71000 7.121
62.72000 1.044
62.73000 5.017
62.74000 5.035
62.75000 7.155
62.76000 11.169
62.77000 5.117
62.78000 8.076
62.79000 7.183
62.80000 6.000
62.81000 3.000
62.82000 5.149
62.83000 5.101
62.84000 6.100
62.85000 5.037
62.86000 7.136
62.87000 3.999
62.88000 9.083
62.89000 11.028
62.90000 8.178
62.91000 9.228
62.92000 9.994
62.93000 6.100
62.94000 3.003
62.95000 8.212
62.96000 3.051
62.97000 5.101
62.98000 3.995
62.99000 1.990
63.00000 7.200
63.01000 10.053
63.02000 6.089
63.03000 5.025
63.04000 11.081
63.05000 0.000
63.06000 6.190
63.07000 7.038
63.08000 5.054
63.09000 7.142
63.10000 5.980
63.11000 7.094
63.12000 9.181
63.13000 6.023
63.14000 6.126
63.15000 9.227
63.16000 8.187
63.17000 7.104
63.18000 6.006
63.19000 5.140
63.20000 7.131
63.21000 8.200
63.22000 6.047
63.23000 9.168
63.24000 10.150
63.25000 3.918
63.26000 5.026
63.27000 9.156
63.28000 8.129
63.29000 6.082
63.30000 7.062
63.31000 6.979
63.32000 6.140
63.33000 6.092
63.34000 8.070
63.35000 6.124
63.36000 9.055
63.37000 12.282
63.38000 9.077
63.39000 4.020
63.40000 8.041
63.41000 7.079
63.42000 8.037
63.43000 17.321
63.44000 2.954
63.45000 7.143
63.46000 2.968
63.47000 6.133
63.48000 6.035
63.49000 5.017
63.50000 5.125
63.51000 9.985
63.52000 5.010
63.53000 6.138
63.54000 5.104
63.55000 14.242
63.56000 6.172
63.57000 7.055
63.58000 9.058
63.59000 5.043
63.60000 6.063
63.61000 4.046
63.62000 3.023
63.63000 6.101
63.64000 1.026
63.65000 4.073
63.66000 4.104
63.67000 4.018
63.68000 7.125
63.69000 7.082
63.70000 6.026
63.71000 9.125
63.72000 4.027
63.73000 10.140
63.74000 8.112
63.75000 9.183
63.76000 3.034
63.77000 4.024
63.78000 7.037
63.79000 10.232
63.80000 1.985
63.81000 3.040
63.82000 8.057
63.83000 9.050
63.84000 5.012
63.85000 4.115
63.86000 6.956
63.87000 9.078
63.88000 3.986
63.89000 3.091
63.90000 3.974
63.91000 7.132
63.92000 7.052
63.93000 6.080
63.94000 4.049
63.95000 10.138
63.96000 10.113
63.97000 8.164
63.98000 4.037
63.99000 6.047
64.00000 9.225
64.01000 5.072
64.02000 3.979
64.03000 4.986
64.04000 4.150
64.05000 7.011
64.06000 6.033
64.07000 3.006
64.08000 11.187
64.09000 7.123
64.10000 3.086
64.11000 5.027
64.12000 8.116
64.13000 5.069
64.14000 3.011
64.15000 7.120
64.16000 6.218
64.17000 2.997
64.18000 5.022
64.19000 7.157
64.20000 6.123
64.21000 6.001
64.22000 0.999
64.23000 5.135
64.24000 5.053
64.25000 11.163
64.26000 6.206
64.27000 2.970
64.28000 11.082
64.29000 6.165
64.30000 5.044
64.31000 8.128
64.32000 5.217
64.33000 9.088
64.34000 11.229
64.35000 9.066
64.36000 4.032
64.37000 2.980
64.38000 8.048
64.39000 5.061
64.40000 5.037
64.41000 7.992
64.42000 6.113
64.43000 4.098
64.44000 4.984
64.45000 6.978
64.46000 3.021
64.47000 2.966
64.48000 7.041
64.49000 6.096
64.50000 9.233
64.51000 5.087
64.52000 2.104
64.53000 3.051
64.54000 9.250
64.55000 9.270
64.56000 7.143
64.57000 2.992
64.58000 6.198
64.59000 7.107
64.60000 8.126
64.61000 8.115
64.62000 5.071
64.63000 5.080
64.64000 4.042
64.65000 5.097
64.66000 8.024
64.67000 9.125
64.68000 3.001
64.69000 4.950
64.70000 9.147
64.71000 7.098
64.72000 4.079
64.73000 8.037
64.74000 4.128
64.75000 7.092
64.76000 6.014
64.77000 7.038
64.78000 6.085
64.79000 5.063
64.80000 7.077
64.81000 2.976
64.82000 5.961
64.83000 7.081
64.84000 7.214
64.85000 6.229
64.86000 11.016
64.87000 10.076
64.88000 10.067
64.89000 12.064
64.90000 7.118
64.91000 4.082
64.92000 5.041
64.93000 0.982
64.94000 8.132
64.95000 10.079
64.96000 3.986
64.97000 8.052
64.98000 7.035
64.99000 7.071
65.00000 6.037
