20.00000 14.241
20.01000 15.144
20.02000 16.063
20.03000 23.086
20.04000 12.251
20.05000 14.239
20.06000 14.014
20.07000 24.331
20.08000 22.402
20.09000 14.021
20.10000 22.334
20.11000 11.094
20.12000 20.150
20.13000 17.212
20.14000 21.231
20.15000 15.170
20.16000 13.202
20.17000 13.111
20.18000 17.067
20.19000 11.082
20.20000 15.234
20.21000 14.112
20.22000 20.290
20.23000 13.153
20.24000 15.266
20.25000 12.272
20.26000 13.178
20.27000 6.087
20.28000 20.275
20.29000 13.239
20.30000 17.440
20.31000 15.337
20.32000 19.338
20.33000 24.160
20.34000 9.130
20.35000 24.345
20.36000 15.286
20.37000 16.167
20.38000 14.190
20.39000 13.159
20.40000 19.168
20.41000 18.372
20.42000 15.109
20.43000 11.127
20.44000 13.059
20.45000 13.314
20.46000 17.411
20.47000 17.185
20.48000 20.406
20.49000 13.224
20.50000 18.168
20.51000 12.107
20.52000 19.192
20.53000 14.242
20.54000 9.016
20.55000 17.331
20.56000 12.210
20.57000 17.165
20.58000 13.254
20.59000 19.303
20.60000 15.216
20.61000 20.234
20.62000 14.247
20.63000 19.277
20.64000 15.256
20.65000 14.160
20.66000 17.233
20.67000 15.269
20.68000 12.128
20.69000 11.991
20.70000 12.202
20.71000 17.282
20.72000 19.357
20.73000 22.512
20.74000 21.423
20.75000 15.303
20.76000 24.569
20.77000 14.383
20.78000 23.428
20.79000 19.374
20.80000 14.259
20.81000 18.061
20.82000 16.325
20.83000 12.216
20.84000 16.427
20.85000 14.459
20.86000 14.121
20.87000 15.146
20.88000 14.132
20.89000 13.133
20.90000 19.171
20.91000 16.421
20.92000 18.276
20.93000 19.042
20.94000 19.411
20.95000 15.096
20.96000 25.176
20.97000 16.157
20.98000 18.177
20.99000 17.072
21.00000 7.092
21.01000 15.264
21.02000 14.355
21.03000 19.263
21.04000 19.277
21.05000 13.111
21.06000 12.251
21.07000 24.234
21.08000 16.375
21.09000 17.118
21.10000 12.064
21.11000 17.160
21.12000 14.139
21.13000 17.265
21.14000 12.115
21.15000 19.339
21.16000 15.129
21.17000 14.210
21.18000 10.058
21.19000 20.024
21.20000 20.062
21.21000 22.489
21.22000 19.161
21.23000 10.072
21.24000 11.985
21.25000 6.090
21.26000 24.063
21.27000 15.105
21.28000 17.154
21.29000 27.312
21.30000 21.279
21.31000 20.340
21.32000 10.144
21.33000 13.247
21.34000 16.346
21.35000 17.253
21.36000 15.311
21.37000 12.105
21.38000 20.035
21.39000 17.340
21.40000 10.225
21.41000 18.331
21.42000 17.242
21.43000 13.092
21.44000 22.208
21.45000 13.073
21.46000 23.312
21.47000 11.124
21.48000 13.097
21.49000 21.389
21.50000 19.229
21.51000 14.244
21.52000 13.013
21.53000 14.362
21.54000 19.359
21.55000 15.183
21.56000 13.137
21.57000 20.255
21.58000 10.072
21.59000 22.243
21.60000 13.071
21.61000 19.400
21.62000 13.106
21.63000 9.074
21.64000 17.237
21.65000 26.233
21.66000 18.131
21.67000 13.242
21.68000 16.216
21.69000 21.093
21.70000 17.295
21.71000 13.133
21.72000 14.200
21.73000 10.120
21.74000 15.163
21.75000 13.044
21.76000 17.356
21.77000 19.186
21.78000 15.218
21.79000 17.254
21.80000 21.705
21.81000 19.157
21.82000 21.199
21.83000 15.213
21.84000 12.214
21.85000 14.126
21.86000 19.263
21.87000 12.062
21.88000 10.052
21.89000 18.182
21.90000 21.299
21.91000 12.102
21.92000 13.162
21.93000 15.181
21.94000 14.092
21.95000 19.436
21.96000 13.378
21.97000 12.136
21.98000 10.057
21.99000 17.376
22.00000 23.508
22.01000 16.213
22.02000 17.330
22.03000 16.199
22.04000 15.062
22.05000 22.223
22.06000 15.098
22.07000 17.134
22.08000 14.192
22.09000 22.267
22.10000 18.485
22.11000 14.193
22.12000 23.146
22.13000 15.096
22.14000 17.240
22.15000 20.125
22.16000 15.211
22.17000 14.072
22.18000 18.486
22.19000 18.292
22.20000 19.234
22.21000 14.082
22.22000 18.348
22.23000 18.261
22.24000 18.261
22.25000 22.293
22.26000 17.357
22.27000 26.290
22.28000 22.329
22.29000 12.147
22.30000 18.339
22.31000 13.136
22.32000 20.214
22.33000 17.343
22.34000 15.029
22.35000 17.379
22.36000 15.130
22.37000 8.035
22.38000 14.120
22.39000 12.223
22.40000 18.240
22.41000 11.094
22.42000 13.060
22.43000 17.401
22.44000 21.253
22.45000 12.144
22.46000 15.267
22.47000 10.191
22.48000 25.166
22.49000 19.283
22.50000 25.335
22.51000 19.402
22.52000 15.009
22.53000 17.209
22.54000 23.211
22.55000 15.241
22.56000 19.149
22.57000 13.038
22.58000 14.194
22.59000 18.058
22.60000 22.282
22.61000 27.164
22.62000 16.191
22.63000 20.320
22.64000 17.354
22.65000 17.267
22.66000 17.296
22.67000 16.200
22.68000 24.312
22.69000 18.181
22.70000 18.174
22.71000 16.381
22.72000 18.260
22.73000 20.276
22.74000 8.099
22.75000 21.514
22.76000 29.096
22.77000 18.339
22.78000 15.235
22.79000 24.293
22.80000 16.424
22.81000 19.375
22.82000 16.236
22.83000 19.165
22.84000 17.260
22.85000 29.347
22.86000 20.314
22.87000 13.215
22.88000 18.128
22.89000 20.210
22.90000 18.437
22.91000 13.347
22.92000 19.088
22.93000 18.234
22.94000 17.257
22.95000 19.338
22.96000 18.121
22.97000 14.229
22.98000 21.281
22.99000 26.349
23.00000 10.146
23.01000 22.045
23.02000 22.307
23.03000 26.607
23.04000 20.312
23.05000 20.355
23.06000 11.270
23.07000 13.273
23.08000 14.102
23.09000 23.183
23.10000 15.104
23.11000 22.323
23.12000 18.375
23.13000 24.286
23.14000 17.279
23.15000 26.828
23.16000 22.412
23.17000 19.332
23.18000 20.219
23.19000 22.309
23.20000 25.428
23.21000 18.296
23.22000 13.267
23.23000 19.265
23.24000 21.216
23.25000 17.080
23.26000 17.295
23.27000 15.138
23.28000 19.295
23.29000 15.180
23.30000 18.511
23.31000 28.251
23.32000 21.311
23.33000 20.519
23.34000 19.347
23.35000 14.138
23.36000 26.106
23.37000 26.270
23.38000 21.098
23.39000 12.129
23.40000 20.098
23.41000 16.987
23.42000 13.116
23.43000 19.268
23.44000 14.111
23.45000 23.198
23.46000 23.236
23.47000 22.485
23.48000 12.220
23.49000 16.097
23.50000 20.183
23.51000 18.256
23.52000 26.415
23.53000 16.076
23.54000 22.378
23.55000 19.651
23.56000 18.206
23.57000 17.157
23.58000 14.219
23.59000 26.288
23.60000 21.394
23.61000 16.167
23.62000 13.161
23.63000 24.456
23.64000 15.149
23.65000 20.200
23.66000 18.307
23.67000 22.299
23.68000 18.315
23.69000 23.457
23.70000 17.304
23.71000 22.374
23.72000 15.072
23.73000 21.300
23.74000 26.619
23.75000 32.366
23.76000 17.464
23.77000 16.255
23.78000 23.135
23.79000 14.226
23.80000 20.240
23.81000 27.093
23.82000 30.409
23.83000 16.375
23.84000 22.437
23.85000 21.278
23.86000 19.195
23.87000 17.272
23.88000 18.250
23.89000 22.484
23.90000 29.313
23.91000 29.500
23.92000 23.182
23.93000 14.174
23.94000 18.185
23.95000 17.361
23.96000 22.159
23.97000 20.253
23.98000 21.140
23.99000 19.278
24.00000 25.191
24.01000 17.174
24.02000 21.168
24.03000 15.144
24.04000 16.172
24.05000 23.403
24.06000 16.478
24.07000 30.187
24.08000 21.354
24.09000 12.110
24.10000 15.150
24.11000 18.301
24.12000 31.367
24.13000 12.177
24.14000 17.274
24.15000 29.352
24.16000 20.361
24.17000 33.422
24.18000 17.151
24.19000 17.287
24.20000 21.202
24.21000 24.351
24.22000 11.141
24.23000 26.376
24.24000 15.431
24.25000 20.261
24.26000 19.177
24.27000 15.074
24.28000 20.258
24.29000 21.407
24.30000 14.364
24.31000 21.212
24.32000 18.424
24.33000 24.402
24.34000 25.608
24.35000 20.295
24.36000 12.277
24.37000 22.217
24.38000 26.276
24.39000 15.221
24.40000 18.212
24.41000 20.267
24.42000 25.193
24.43000 24.542
24.44000 21.214
24.45000 24.242
24.46000 18.321
24.47000 20.461
24.48000 24.182
24.49000 23.325
24.50000 29.465
24.51000 30.120
24.52000 19.503
24.53000 21.244
24.54000 22.353
24.55000 23.254
24.56000 26.264
24.57000 23.262
24.58000 28.541
24.59000 21.443
24.60000 25.372
24.61000 22.237
24.62000 20.480
24.63000 31.336
24.64000 25.386
24.65000 26.306
24.66000 23.265
24.67000 24.108
24.68000 23.651
24.69000 25.263
24.70000 22.095
24.71000 25.203
24.72000 26.294
24.73000 17.301
24.74000 26.250
24.75000 13.189
24.76000 22.332
24.77000 23.131
24.78000 23.135
24.79000 28.434
24.80000 20.100
24.81000 28.413
24.82000 22.278
24.83000 24.324
24.84000 22.329
24.85000 20.272
24.86000 17.270
24.87000 18.222
24.88000 17.128
24.89000 22.153
24.90000 23.511
24.91000 17.328
24.92000 22.248
24.93000 28.303
24.94000 19.291
24.95000 24.342
24.96000 23.420
24.97000 15.186
24.98000 30.574
24.99000 26.518
25.00000 30.303
25.01000 29.631
25.02000 22.447
25.03000 30.550
25.04000 21.306
25.05000 22.346
25.06000 18.150
25.07000 24.067
25.08000 29.102
25.09000 15.294
25.10000 21.237
25.11000 33.628
25.12000 28.046
25.13000 24.305
25.14000 35.463
25.15000 35.380
25.16000 30.287
25.17000 30.426
25.18000 24.510
25.19000 32.354
25.20000 32.691
25.21000 29.483
25.22000 31.125
25.23000 25.393
25.24000 24.372
25.25000 26.242
25.26000 22.029
25.27000 24.531
25.28000 29.448
25.29000 31.341
25.30000 23.285
25.31000 31.546
25.32000 29.256
25.33000 35.567
25.34000 27.196
25.35000 29.388
25.36000 22.296
25.37000 21.292
25.38000 25.318
25.39000 18.204
25.40000 29.541
25.41000 19.360
25.42000 31.306
25.43000 18.098
25.44000 34.540
25.45000 26.344
25.46000 27.512
25.47000 19.266
25.48000 19.404
25.49000 20.189
25.50000 41.595
25.51000 32.407
25.52000 42.505
25.53000 27.527
25.54000 29.315
25.55000 25.039
25.56000 28.360
25.57000 25.209
25.58000 21.510
25.59000 25.381
25.60000 26.360
25.61000 25.479
25.62000 35.453
25.63000 34.350
25.64000 33.465
25.65000 30.224
25.66000 22.397
25.67000 28.369
25.68000 31.378
25.69000 25.481
25.70000 33.443
25.71000 35.517
25.72000 35.636
25.73000 27.550
25.74000 30.291
25.75000 27.515
25.76000 34.490
25.77000 40.592
25.78000 27.330
25.79000 28.408
25.80000 31.276
25.81000 19.293
25.82000 28.518
25.83000 26.559
25.84000 30.532
25.85000 32.401
25.86000 24.188
25.87000 36.819
25.88000 22.059
25.89000 30.430
25.90000 34.358
25.91000 31.670
25.92000 34.367
25.93000 23.184
25.94000 34.513
25.95000 25.424
25.96000 31.343
25.97000 33.291
25.98000 32.638
25.99000 31.311
26.00000 25.311
26.01000 35.242
26.02000 29.189
26.03000 22.254
26.04000 33.375
26.05000 24.147
26.06000 31.449
26.07000 25.294
26.08000 22.222
26.09000 30.505
26.10000 38.374
26.11000 29.468
26.12000 25.618
26.13000 42.617
26.14000 29.687
26.15000 42.562
26.16000 18.205
26.17000 42.718
26.18000 35.324
26.19000 30.481
26.20000 25.294
26.21000 38.495
26.22000 27.336
26.23000 31.666
26.24000 37.513
26.25000 32.354
26.26000 24.336
26.27000 33.788
26.28000 25.110
26.29000 35.249
26.30000 41.829
26.31000 36.410
26.32000 32.234
26.33000 30.185
26.34000 35.520
26.35000 32.333
26.36000 42.536
26.37000 31.268
26.38000 27.333
26.39000 30.370
26.40000 32.375
26.41000 26.369
26.42000 30.474
26.43000 27.174
26.44000 30.393
26.45000 27.370
26.46000 37.311
26.47000 23.314
26.48000 34.383
26.49000 33.452
26.50000 29.642
26.51000 44.442
26.52000 36.550
26.53000 37.402
26.54000 44.856
26.55000 23.184
26.56000 31.466
26.57000 31.541
26.58000 36.450
26.59000 20.162
26.60000 26.392
26.61000 41.585
26.62000 32.248
26.63000 34.523
26.64000 28.238
26.65000 29.487
26.66000 30.273
26.67000 37.539
26.68000 27.470
26.69000 32.304
26.70000 30.419
26.71000 28.367
26.72000 46.703
26.73000 31.480
26.74000 32.430
26.75000 37.344
26.76000 45.697
26.77000 41.853
26.78000 37.364
26.79000 35.637
26.80000 40.624
26.81000 28.565
26.82000 27.421
26.83000 42.368
26.84000 34.619
26.85000 35.538
26.86000 38.480
26.87000 32.573
26.88000 42.498
26.89000 38.419
26.90000 35.639
26.91000 35.586
26.92000 45.750
26.93000 34.426
26.94000 31.705
26.95000 36.570
26.96000 31.302
26.97000 34.540
26.98000 41.661
26.99000 28.271
27.00000 29.160
27.01000 28.212
27.02000 45.603
27.03000 36.677
27.04000 34.169
27.05000 33.497
27.06000 28.191
27.07000 31.565
27.08000 33.338
27.09000 43.656
27.10000 42.461
27.11000 44.529
27.12000 33.346
27.13000 39.587
27.14000 38.334
27.15000 35.508
27.16000 29.388
27.17000 38.546
27.18000 29.540
27.19000 31.339
27.20000 34.367
27.21000 31.553
27.22000 28.486
27.23000 35.504
27.24000 37.309
27.25000 39.715
27.26000 30.174
27.27000 21.230
27.28000 34.330
27.29000 34.501
27.30000 45.587
27.31000 33.485
27.32000 31.461
27.33000 38.442
27.34000 39.302
27.35000 37.504
27.36000 26.159
27.37000 37.577
27.38000 48.463
27.39000 37.347
27.40000 33.474
27.41000 28.125
27.42000 35.251
27.43000 39.392
27.44000 38.424
27.45000 45.417
27.46000 33.444
27.47000 40.423
27.48000 30.291
27.49000 33.499
27.50000 40.513
27.51000 46.474
27.52000 30.256
27.53000 39.739
27.54000 46.599
27.55000 33.315
27.56000 32.670
27.57000 37.679
27.58000 30.494
27.59000 45.767
27.60000 34.464
27.61000 35.549
27.62000 42.651
27.63000 41.423
27.64000 42.868
27.65000 37.384
27.66000 44.536
27.67000 37.470
27.68000 32.450
27.69000 33.534
27.70000 24.644
27.71000 49.001
27.72000 41.723
27.73000 53.825
27.74000 38.618
27.75000 36.635
27.76000 34.617
27.77000 40.680
27.78000 43.714
27.79000 28.422
27.80000 42.466
27.81000 36.332
27.82000 35.365
27.83000 43.613
27.84000 31.474
27.85000 36.734
27.86000 30.310
27.87000 26.348
27.88000 22.067
27.89000 31.516
27.90000 36.555
27.91000 30.424
27.92000 35.403
27.93000 31.230
27.94000 25.370
27.95000 37.354
27.96000 44.843
27.97000 31.590
27.98000 41.501
27.99000 36.567
28.00000 40.656
28.01000 31.546
28.02000 40.462
28.03000 34.453
28.04000 39.582
28.05000 44.654
28.06000 23.178
28.07000 30.171
28.08000 33.401
28.09000 39.436
28.10000 34.311
28.11000 36.533
28.12000 26.229
28.13000 27.274
28.14000 32.562
28.15000 36.467
28.16000 50.632
28.17000 27.472
28.18000 42.534
28.19000 46.725
28.20000 37.551
28.21000 30.385
28.22000 33.659
28.23000 32.281
28.24000 37.400
28.25000 38.630
28.26000 35.507
28.27000 28.257
28.28000 48.776
28.29000 42.924
28.30000 27.360
28.31000 34.591
28.32000 29.405
28.33000 29.338
28.34000 32.348
28.35000 43.650
28.36000 30.558
28.37000 38.135
28.38000 30.447
28.39000 41.483
28.40000 36.407
28.41000 39.618
28.42000 37.649
28.43000 36.385
28.44000 27.300
28.45000 29.194
28.46000 33.445
28.47000 37.608
28.48000 32.269
28.49000 35.549
28.50000 29.209
28.51000 41.414
28.52000 27.399
28.53000 38.531
28.54000 32.500
28.55000 34.625
28.56000 30.431
28.57000 40.411
28.58000 39.499
28.59000 32.805
28.60000 33.694
28.61000 31.185
28.62000 50.436
28.63000 31.125
28.64000 23.201
28.65000 31.355
28.66000 39.386
28.67000 35.625
28.68000 41.461
28.69000 27.175
28.70000 34.541
28.71000 32.376
28.72000 29.362
28.73000 38.561
28.74000 25.288
28.75000 31.410
28.76000 39.684
28.77000 23.388
28.78000 19.155
28.79000 39.625
28.80000 19.258
28.81000 35.292
28.82000 25.514
28.83000 35.280
28.84000 37.438
28.85000 40.589
28.86000 37.433
28.87000 25.286
28.88000 40.474
28.89000 40.384
28.90000 38.433
28.91000 30.205
28.92000 39.320
28.93000 34.251
28.94000 28.476
28.95000 42.767
28.96000 21.092
28.97000 34.397
28.98000 35.329
28.99000 43.663
29.00000 40.536
29.01000 39.526
29.02000 32.460
29.03000 35.354
29.04000 28.353
29.05000 35.255
29.06000 37.753
29.07000 36.363
29.08000 30.223
29.09000 25.477
29.10000 33.438
29.11000 25.413
29.12000 33.399
29.13000 30.649
29.14000 29.271
29.15000 33.341
29.16000 22.139
29.17000 44.431
29.18000 30.559
29.19000 28.426
29.20000 33.492
29.21000 33.500
29.22000 37.624
29.23000 39.276
29.24000 29.320
29.25000 23.466
29.26000 40.376
29.27000 30.385
29.28000 28.283
29.29000 34.223
29.30000 34.525
29.31000 34.562
29.32000 27.425
29.33000 17.235
29.34000 32.320
29.35000 22.198
29.36000 31.137
29.37000 24.256
29.38000 26.393
29.39000 38.441
29.40000 29.477
29.41000 35.508
29.42000 37.552
29.43000 24.487
29.44000 39.500
29.45000 31.536
29.46000 33.727
29.47000 24.418
29.48000 27.278
29.49000 38.321
29.50000 25.090
29.51000 21.343
29.52000 24.473
29.53000 35.513
29.54000 19.224
29.55000 34.434
29.56000 32.368
29.57000 27.266
29.58000 33.513
29.59000 31.787
29.60000 36.734
29.61000 18.226
29.62000 28.463
29.63000 38.624
29.64000 24.355
29.65000 25.262
29.66000 23.425
29.67000 21.317
29.68000 36.352
29.69000 30.132
29.70000 36.467
29.71000 37.500
29.72000 23.252
29.73000 39.509
29.74000 37.574
29.75000 29.550
29.76000 37.579
29.77000 20.133
29.78000 18.095
29.79000 29.448
29.80000 26.208
29.81000 39.408
29.82000 30.269
29.83000 30.353
29.84000 29.353
29.85000 29.233
29.86000 36.222
29.87000 28.353
29.88000 17.189
29.89000 27.221
29.90000 32.318
29.91000 26.191
29.92000 26.221
29.93000 18.314
29.94000 23.355
29.95000 31.179
29.96000 26.338
29.97000 36.748
29.98000 27.185
29.99000 26.395
30.00000 32.392
30.01000 26.368
30.02000 28.410
30.03000 25.536
30.04000 31.300
30.05000 30.287
30.06000 28.381
30.07000 23.182
30.08000 31.337
30.09000 24.268
30.10000 21.406
30.11000 34.365
30.12000 27.564
30.13000 27.278
30.14000 20.293
30.15000 23.245
30.16000 20.177
30.17000 43.380
30.18000 25.337
30.19000 26.608
30.20000 23.271
30.21000 33.600
30.22000 22.174
30.23000 19.436
30.24000 33.312
30.25000 27.414
30.26000 30.377
30.27000 22.200
30.28000 33.304
30.29000 24.481
30.30000 30.272
30.31000 27.342
30.32000 35.241
30.33000 27.354
30.34000 21.192
30.35000 24.129
30.36000 24.153
30.37000 21.153
30.38000 29.325
30.39000 29.351
30.40000 27.350
30.41000 18.270
30.42000 20.320
30.43000 28.250
30.44000 23.432
30.45000 30.467
30.46000 23.229
30.47000 20.223
30.48000 19.259
30.49000 20.435
30.50000 28.423
30.51000 21.386
30.52000 24.356
30.53000 19.231
30.54000 24.326
30.55000 14.075
30.56000 24.398
30.57000 17.106
30.58000 23.095
30.59000 17.337
30.60000 22.263
30.61000 18.333
30.62000 25.386
30.63000 22.328
30.64000 19.202
30.65000 14.161
30.66000 19.225
30.67000 18.270
30.68000 30.155
30.69000 24.281
30.70000 21.325
30.71000 18.395
30.72000 19.060
30.73000 18.375
30.74000 28.497
30.75000 20.182
30.76000 17.067
30.77000 27.303
30.78000 11.166
30.79000 23.135
30.80000 23.285
30.81000 21.262
30.82000 32.280
30.83000 24.422
30.84000 12.083
30.85000 22.084
30.86000 30.261
30.87000 21.205
30.88000 13.211
30.89000 27.358
30.90000 23.243
30.91000 26.406
30.92000 24.365
30.93000 22.150
30.94000 23.365
30.95000 26.425
30.96000 26.204
30.97000 25.198
30.98000 21.390
30.99000 29.555
31.00000 30.367
31.01000 19.173
31.02000 22.129
31.03000 18.213
31.04000 20.222
31.05000 19.252
31.06000 23.170
31.07000 17.214
31.08000 21.203
31.09000 20.122
31.10000 23.222
31.11000 11.267
31.12000 30.568
31.13000 22.148
31.14000 12.212
31.15000 25.399
31.16000 11.153
31.17000 16.269
31.18000 23.439
31.19000 18.123
31.20000 20.295
31.21000 18.112
31.22000 22.303
31.23000 17.207
31.24000 25.373
31.25000 27.355
31.26000 21.172
31.27000 14.161
31.28000 19.275
31.29000 14.350
31.30000 15.114
31.31000 17.160
31.32000 21.111
31.33000 23.406
31.34000 13.259
31.35000 20.171
31.36000 18.195
31.37000 24.203
31.38000 23.369
31.39000 23.261
31.40000 16.171
31.41000 16.152
31.42000 15.193
31.43000 13.246
31.44000 13.276
31.45000 25.575
31.46000 15.291
31.47000 21.069
31.48000 17.292
31.49000 16.159
31.50000 20.224
31.51000 16.186
31.52000 18.384
31.53000 21.166
31.54000 14.279
31.55000 23.150
31.56000 27.583
31.57000 21.375
31.58000 23.385
31.59000 22.224
31.60000 13.211
31.61000 16.196
31.62000 15.149
31.63000 25.537
31.64000 15.335
31.65000 21.198
31.66000 26.468
31.67000 18.243
31.68000 21.401
31.69000 21.272
31.70000 20.507
31.71000 16.161
31.72000 15.167
31.73000 11.191
31.74000 16.256
31.75000 18.162
31.76000 18.199
31.77000 11.255
31.78000 18.027
31.79000 18.253
31.80000 12.241
31.81000 23.461
31.82000 17.307
31.83000 17.319
31.84000 7.041
31.85000 19.192
31.86000 22.216
31.87000 15.277
31.88000 23.273
31.89000 26.533
31.90000 17.182
31.91000 19.156
31.92000 13.335
31.93000 22.343
31.94000 11.304
31.95000 21.153
31.96000 15.298
31.97000 21.293
31.98000 17.238
31.99000 19.278
32.00000 14.988
32.01000 10.052
32.02000 20.224
32.03000 12.111
32.04000 11.946
32.05000 16.289
32.06000 24.538
32.07000 19.258
32.08000 19.171
32.09000 18.340
32.10000 16.152
32.11000 18.186
32.12000 16.456
32.13000 17.209
32.14000 21.270
32.15000 18.285
32.16000 19.139
32.17000 24.245
32.18000 17.054
32.19000 23.199
32.20000 16.274
32.21000 19.142
32.22000 13.285
32.23000 15.162
32.24000 21.181
32.25000 22.195
32.26000 15.208
32.27000 19.217
32.28000 13.030
32.29000 19.197
32.30000 18.199
32.31000 27.403
32.32000 21.435
32.33000 26.287
32.34000 20.403
32.35000 34.225
32.36000 23.407
32.37000 18.154
32.38000 27.251
32.39000 13.163
32.40000 12.081
32.41000 29.462
32.42000 21.376
32.43000 26.210
32.44000 14.153
32.45000 15.171
32.46000 20.303
32.47000 22.216
32.48000 17.191
32.49000 19.106
32.50000 30.203
32.51000 19.079
32.52000 19.338
32.53000 16.240
32.54000 14.206
32.55000 18.217
32.56000 18.270
32.57000 20.326
32.58000 18.313
32.59000 20.349
32.60000 19.210
32.61000 23.254
32.62000 15.152
32.63000 11.117
32.64000 15.123
32.65000 19.416
32.66000 22.352
32.67000 16.135
32.68000 11.260
32.69000 21.181
32.70000 10.977
32.71000 13.311
32.72000 18.199
32.73000 19.316
32.74000 17.285
32.75000 15.034
32.76000 14.076
32.77000 18.227
32.78000 6.112
32.79000 24.368
32.80000 7.068
32.81000 14.195
32.82000 14.395
32.83000 20.177
32.84000 16.169
32.85000 19.273
32.86000 22.330
32.87000 15.014
32.88000 14.176
32.89000 19.255
32.90000 17.180
32.91000 11.036
32.92000 19.456
32.93000 14.234
32.94000 10.085
32.95000 21.291
32.96000 21.280
32.97000 12.193
32.98000 19.223
32.99000 17.163
33.00000 11.182
33.01000 15.205
33.02000 13.190
33.03000 18.275
33.04000 11.163
33.05000 12.151
33.06000 14.206
33.07000 17.122
33.08000 12.033
33.09000 14.339
33.10000 15.331
33.11000 14.159
33.12000 16.255
33.13000 14.174
33.14000 15.162
33.15000 13.063
33.16000 14.205
33.17000 21.320
33.18000 13.230
33.19000 20.126
33.20000 9.084
33.21000 7.105
33.22000 15.171
33.23000 11.216
33.24000 16.254
33.25000 9.127
33.26000 10.036
33.27000 9.186
33.28000 13.227
33.29000 17.274
33.30000 21.105
33.31000 9.107
33.32000 11.257
33.33000 9.065
33.34000 15.111
33.35000 17.251
33.36000 12.296
33.37000 14.263
33.38000 13.235
33.39000 14.030
33.40000 14.155
33.41000 15.188
33.42000 12.287
33.43000 17.246
33.44000 13.189
33.45000 11.178
33.46000 14.153
33.47000 14.239
33.48000 19.206
33.49000 8.183
33.50000 12.295
33.51000 16.328
33.52000 4.990
33.53000 11.103
33.54000 9.102
33.55000 10.157
33.56000 17.249
33.57000 8.063
33.58000 13.220
33.59000 15.237
33.60000 12.124
33.61000 17.230
33.62000 14.074
33.63000 11.135
33.64000 9.210
33.65000 13.177
33.66000 12.260
33.67000 15.257
33.68000 12.187
33.69000 18.303
33.70000 16.155
33.71000 18.382
33.72000 16.262
33.73000 14.141
33.74000 6.073
33.75000 11.233
33.76000 15.299
33.77000 11.319
33.78000 13.951
33.79000 16.220
33.80000 16.123
33.81000 17.320
33.82000 22.252
33.83000 9.152
33.84000 15.135
33.85000 11.172
33.86000 7.075
33.87000 13.097
33.88000 15.210
33.89000 16.317
33.90000 8.176
33.91000 7.163
33.92000 18.236
33.93000 7.042
33.94000 9.033
33.95000 6.071
33.96000 8.074
33.97000 14.068
33.98000 9.049
33.99000 11.231
34.00000 10.006
34.01000 8.136
34.02000 10.097
34.03000 12.995
34.04000 7.159
34.05000 22.319
34.06000 7.030
34.07000 14.250
34.08000 12.119
34.09000 16.124
34.10000 13.308
34.11000 8.105
34.12000 14.971
34.13000 12.080
34.14000 20.313
34.15000 6.052
34.16000 13.192
34.17000 21.331
34.18000 8.328
34.19000 10.081
34.20000 11.077
34.21000 11.217
34.22000 11.084
34.23000 9.173
34.24000 14.254
34.25000 8.079
34.26000 13.139
34.27000 10.096
34.28000 8.027
34.29000 12.206
34.30000 16.160
34.31000 10.143
34.32000 13.113
34.33000 9.123
34.34000 10.170
34.35000 15.187
34.36000 17.200
34.37000 10.025
34.38000 9.015
34.39000 9.175
34.40000 9.247
34.41000 18.287
34.42000 11.095
34.43000 10.244
34.44000 16.236
34.45000 9.066
34.46000 5.082
34.47000 7.043
34.48000 5.081
34.49000 15.072
34.50000 15.218
34.51000 7.070
34.52000 11.208
34.53000 9.077
34.54000 12.182
34.55000 7.210
34.56000 11.207
34.57000 8.043
34.58000 9.126
34.59000 21.130
34.60000 8.098
34.61000 17.280
34.62000 8.085
34.63000 14.319
34.64000 16.361
34.65000 13.076
34.66000 12.129
34.67000 10.196
34.68000 10.232
34.69000 15.017
34.70000 11.321
34.71000 8.059
34.72000 9.135
34.73000 12.253
34.74000 10.972
34.75000 10.150
34.76000 14.246
34.77000 11.226
34.78000 5.040
34.79000 11.132
34.80000 14.145
34.81000 8.124
34.82000 16.240
34.83000 9.058
34.84000 13.302
34.85000 9.243
34.86000 12.097
34.87000 11.136
34.88000 9.071
34.89000 7.002
34.90000 10.182
34.91000 12.992
34.92000 6.163
34.93000 14.122
34.94000 14.127
34.95000 13.369
34.96000 11.072
34.97000 9.064
34.98000 12.116
34.99000 11.075
35.00000 8.174
35.01000 16.096
35.02000 17.153
35.03000 12.204
35.04000 10.154
35.05000 5.019
35.06000 15.015
35.07000 5.004
35.08000 8.064
35.09000 16.117
35.10000 12.216
35.11000 15.188
35.12000 14.227
35.13000 15.244
35.14000 15.372
35.15000 9.143
35.16000 8.229
35.17000 12.261
35.18000 13.104
35.19000 12.190
35.20000 11.170
35.21000 14.037
35.22000 9.029
35.23000 11.176
35.24000 7.029
35.25000 15.304
35.26000 7.183
35.27000 10.147
35.28000 12.253
35.29000 17.116
35.30000 8.200
35.31000 15.112
35.32000 10.042
35.33000 20.342
35.34000 15.350
35.35000 9.157
35.36000 9.087
35.37000 12.157
35.38000 10.200
35.39000 18.179
35.40000 7.083
35.41000 9.027
35.42000 11.193
35.43000 16.328
35.44000 7.109
35.45000 11.329
35.46000 15.216
35.47000 16.279
35.48000 10.118
35.49000 12.103
35.50000 10.168
35.51000 8.216
35.52000 11.106
35.53000 14.130
35.54000 12.109
35.55000 14.062
35.56000 15.164
35.57000 12.072
35.58000 14.226
35.59000 13.296
35.60000 19.217
35.61000 13.124
35.62000 8.073
35.63000 3.947
35.64000 11.187
35.65000 6.053
35.66000 15.123
35.67000 12.153
35.68000 12.042
35.69000 16.000
35.70000 13.201
35.71000 11.176
35.72000 10.105
35.73000 8.263
35.74000 11.213
35.75000 10.173
35.76000 8.103
35.77000 12.189
35.78000 14.150
35.79000 11.111
35.80000 5.193
35.81000 15.139
35.82000 20.329
35.83000 10.177
35.84000 8.107
35.85000 15.196
35.86000 12.280
35.87000 11.269
35.88000 15.068
35.89000 9.090
35.90000 12.086
35.91000 11.222
35.92000 8.126
35.93000 14.307
35.94000 10.083
35.95000 15.201
35.96000 10.170
35.97000 13.179
35.98000 15.341
35.99000 10.139
36.00000 15.191
36.01000 11.163
36.02000 17.417
36.03000 9.141
36.04000 10.242
36.05000 11.135
36.06000 10.175
36.07000 8.151
36.08000 14.174
36.09000 12.178
36.10000 14.192
36.11000 9.188
36.12000 14.142
36.13000 7.052
36.14000 14.245
36.15000 13.045
36.16000 8.214
36.17000 10.122
36.18000 9.075
36.19000 12.120
36.20000 14.168
36.21000 6.090
36.22000 12.275
36.23000 13.174
36.24000 12.111
36.25000 11.043
36.26000 8.108
36.27000 14.190
36.28000 9.106
36.29000 6.026
36.30000 15.154
36.31000 13.146
36.32000 16.286
36.33000 9.991
36.34000 9.135
36.35000 15.231
36.36000 12.202
36.37000 14.225
36.38000 5.999
36.39000 10.088
36.40000 16.098
36.41000 12.174
36.42000 8.049
36.43000 12.113
36.44000 7.090
36.45000 9.126
36.46000 15.258
36.47000 13.191
36.48000 13.185
36.49000 12.013
36.50000 19.322
36.51000 12.128
36.52000 13.056
36.53000 10.172
36.54000 11.033
36.55000 11.176
36.56000 12.066
36.57000 8.163
36.58000 10.021
36.59000 10.036
36.60000 6.152
36.61000 7.086
36.62000 11.124
36.63000 8.029
36.64000 7.172
36.65000 19.164
36.66000 15.257
36.67000 11.154
36.68000 10.140
36.69000 11.184
36.70000 10.090
36.71000 12.280
36.72000 14.146
36.73000 13.160
36.74000 8.079
36.75000 10.147
36.76000 12.095
36.77000 8.024
36.78000 14.467
36.79000 13.173
36.80000 10.147
36.81000 12.100
36.82000 9.210
36.83000 8.204
36.84000 11.052
36.85000 20.246
36.86000 8.034
36.87000 12.063
36.88000 10.101
36.89000 19.180
36.90000 12.122
36.91000 10.130
36.92000 7.047
36.93000 10.106
36.94000 11.200
36.95000 12.060
36.96000 14.317
36.97000 13.015
36.98000 15.185
36.99000 11.243
37.00000 7.048
37.01000 13.166
37.02000 9.038
37.03000 13.047
37.04000 16.155
37.05000 6.084
37.06000 17.172
37.07000 15.259
37.08000 13.269
37.09000 5.985
37.10000 8.118
37.11000 18.379
37.12000 14.157
37.13000 11.240
37.14000 11.043
37.15000 12.046
37.16000 12.163
37.17000 13.088
37.18000 12.317
37.19000 8.032
37.20000 15.309
37.21000 15.158
37.22000 10.183
37.23000 11.251
37.24000 18.267
37.25000 14.201
37.26000 11.164
37.27000 12.999
37.28000 11.155
37.29000 13.050
37.30000 11.034
37.31000 20.227
37.32000 14.134
37.33000 15.176
37.34000 7.080
37.35000 19.005
37.36000 14.280
37.37000 13.215
37.38000 15.992
37.39000 13.119
37.40000 12.262
37.41000 8.204
37.42000 16.024
37.43000 16.311
37.44000 10.062
37.45000 8.092
37.46000 15.370
37.47000 15.147
37.48000 8.053
37.49000 8.068
37.50000 7.113
37.51000 11.157
37.52000 11.271
37.53000 13.129
37.54000 10.207
37.55000 10.959
37.56000 17.250
37.57000 10.161
37.58000 9.141
37.59000 11.174
37.60000 13.058
37.61000 6.083
37.62000 9.167
37.63000 17.196
37.64000 14.204
37.65000 8.011
37.66000 14.100
37.67000 9.168
37.68000 17.076
37.69000 18.299
37.70000 17.089
37.71000 14.267
37.72000 10.133
37.73000 7.078
37.74000 11.195
37.75000 10.155
37.76000 15.177
37.77000 13.176
37.78000 12.201
37.79000 15.244
37.80000 11.114
37.81000 7.028
37.82000 10.263
37.83000 10.136
37.84000 11.099
37.85000 21.354
37.86000 12.119
37.87000 19.270
37.88000 5.013
37.89000 12.983
37.90000 7.959
37.91000 11.189
37.92000 14.120
37.93000 12.304
37.94000 11.158
37.95000 13.189
37.96000 17.222
37.97000 12.165
37.98000 13.184
37.99000 11.146
38.00000 11.213
38.01000 12.230
38.02000 15.229
38.03000 19.360
38.04000 6.187
38.05000 15.064
38.06000 18.198
38.07000 8.205
38.08000 9.177
38.09000 9.132
38.10000 11.069
38.11000 11.234
38.12000 16.041
38.13000 14.182
38.14000 14.176
38.15000 14.233
38.16000 7.112
38.17000 9.079
38.18000 14.215
38.19000 11.022
38.20000 7.070
38.21000 9.139
38.22000 9.088
38.23000 9.165
38.24000 14.148
38.25000 11.071
38.26000 10.035
38.27000 12.188
38.28000 11.047
38.29000 13.252
38.30000 14.251
38.31000 12.153
38.32000 14.065
38.33000 16.389
38.34000 9.054
38.35000 11.144
38.36000 16.231
38.37000 8.253
38.38000 10.306
38.39000 12.177
38.40000 13.192
38.41000 15.187
38.42000 17.188
38.43000 16.146
38.44000 10.037
38.45000 22.401
38.46000 12.095
38.47000 6.989
38.48000 6.095
38.49000 12.163
38.50000 13.111
38.51000 8.021
38.52000 10.109
38.53000 13.191
38.54000 6.032
38.55000 13.083
38.56000 16.196
38.57000 14.236
38.58000 14.089
38.59000 8.106
38.60000 8.071
38.61000 20.270
38.62000 12.201
38.63000 8.064
38.64000 13.221
38.65000 10.092
38.66000 14.373
38.67000 15.154
38.68000 10.993
38.69000 10.076
38.70000 12.147
38.71000 20.152
38.72000 12.103
38.73000 19.128
38.74000 12.218
38.75000 14.019
38.76000 19.430
38.77000 12.068
38.78000 11.182
38.79000 13.260
38.80000 9.172
38.81000 15.061
38.82000 12.143
38.83000 13.075
38.84000 10.137
38.85000 10.125
38.86000 13.294
38.87000 15.157
38.88000 7.104
38.89000 14.169
38.90000 10.000
38.91000 7.045
38.92000 14.216
38.93000 10.239
38.94000 16.170
38.95000 22.320
38.96000 14.122
38.97000 10.180
38.98000 8.099
38.99000 17.174
39.00000 13.980
39.01000 10.076
39.02000 7.054
39.03000 16.225
39.04000 18.317
39.05000 10.028
39.06000 10.090
39.07000 14.159
39.08000 23.257
39.09000 17.311
39.10000 16.244
39.11000 9.163
39.12000 8.089
39.13000 6.020
39.14000 10.021
39.15000 8.029
39.16000 4.040
39.17000 5.103
39.18000 16.076
39.19000 10.041
39.20000 19.433
39.21000 10.165
39.22000 9.057
39.23000 9.107
39.24000 12.157
39.25000 9.139
39.26000 8.115
39.27000 15.275
39.28000 13.223
39.29000 14.123
39.30000 21.321
39.31000 6.147
39.32000 14.043
39.33000 14.085
39.34000 17.316
39.35000 11.077
39.36000 13.273
39.37000 10.099
39.38000 18.024
39.39000 13.214
39.40000 10.066
39.41000 13.312
39.42000 10.063
39.43000 15.260
39.44000 16.293
39.45000 17.240
39.46000 14.242
39.47000 10.187
39.48000 13.130
39.49000 8.087
39.50000 12.224
39.51000 10.394
39.52000 10.213
39.53000 17.036
39.54000 19.251
39.55000 15.136
39.56000 14.160
39.57000 19.262
39.58000 10.127
39.59000 12.109
39.60000 8.188
39.61000 10.162
39.62000 10.053
39.63000 8.069
39.64000 14.257
39.65000 11.020
39.66000 12.214
39.67000 18.414
39.68000 11.151
39.69000 14.179
39.70000 15.263
39.71000 8.160
39.72000 17.217
39.73000 12.199
39.74000 18.094
39.75000 14.174
39.76000 18.174
39.77000 6.022
39.78000 20.273
39.79000 17.159
39.80000 13.208
39.81000 15.175
39.82000 14.269
39.83000 20.405
39.84000 12.232
39.85000 16.409
39.86000 17.124
39.87000 18.299
39.88000 10.115
39.89000 16.219
39.90000 11.145
39.91000 18.202
39.92000 16.320
39.93000 12.112
39.94000 13.118
39.95000 7.081
39.96000 7.258
39.97000 10.162
39.98000 17.177
39.99000 11.057
40.00000 17.399
40.01000 13.084
40.02000 15.279
40.03000 23.307
40.04000 14.260
40.05000 12.991
40.06000 11.176
40.07000 15.242
40.08000 14.136
40.09000 9.263
40.10000 18.176
40.11000 10.133
40.12000 17.119
40.13000 8.090
40.14000 19.201
40.15000 8.080
40.16000 9.048
40.17000 15.347
40.18000 5.127
40.19000 17.371
40.20000 17.249
40.21000 14.308
40.22000 8.102
40.23000 15.186
40.24000 7.097
40.25000 12.158
40.26000 13.061
40.27000 11.236
40.28000 13.124
40.29000 11.143
40.30000 15.115
40.31000 14.135
40.32000 8.069
40.33000 12.152
40.34000 13.279
40.35000 13.170
40.36000 14.205
40.37000 10.115
40.38000 13.087
40.39000 18.300
40.40000 11.262
40.41000 16.353
40.42000 10.046
40.43000 17.182
40.44000 13.286
40.45000 17.308
40.46000 10.165
40.47000 17.308
40.48000 9.091
40.49000 12.201
40.50000 12.272
40.51000 6.014
40.52000 11.118
40.53000 14.254
40.54000 15.165
40.55000 12.275
40.56000 14.143
40.57000 9.042
40.58000 17.049
40.59000 16.440
40.60000 12.176
40.61000 18.094
40.62000 15.239
40.63000 22.316
40.64000 10.122
40.65000 6.163
40.66000 7.225
40.67000 18.188
40.68000 19.147
40.69000 12.286
40.70000 11.099
40.71000 18.138
40.72000 11.067
40.73000 9.125
40.74000 14.175
40.75000 12.053
40.76000 10.051
40.77000 10.206
40.78000 18.180
40.79000 11.209
40.80000 9.118
40.81000 13.260
40.82000 10.149
40.83000 12.272
40.84000 8.250
40.85000 11.194
40.86000 11.219
40.87000 9.139
40.88000 13.047
40.89000 12.231
40.90000 10.071
40.91000 15.271
40.92000 22.236
40.93000 20.305
40.94000 12.156
40.95000 15.072
40.96000 16.166
40.97000 17.243
40.98000 16.145
40.99000 13.160
41.00000 12.338
41.01000 13.989
41.02000 14.052
41.03000 11.189
41.04000 6.110
41.05000 12.138
41.06000 15.135
41.07000 9.157
41.08000 12.171
41.09000 14.204
41.10000 13.991
41.11000 10.035
41.12000 6.088
41.13000 10.078
41.14000 9.176
41.15000 16.078
41.16000 13.146
41.17000 15.122
41.18000 11.142
41.19000 9.116
41.20000 9.069
41.21000 11.265
41.22000 16.097
41.23000 15.137
41.24000 15.049
41.25000 14.131
41.26000 9.114
41.27000 11.145
41.28000 11.173
41.29000 18.187
41.30000 8.074
41.31000 19.322
41.32000 15.040
41.33000 9.979
41.34000 14.205
41.35000 19.226
41.36000 11.160
41.37000 17.236
41.38000 14.226
41.39000 11.106
41.40000 19.292
41.41000 16.220
41.42000 13.318
41.43000 14.273
41.44000 12.055
41.45000 15.256
41.46000 13.177
41.47000 6.045
41.48000 16.128
41.49000 10.123
41.50000 11.194
41.51000 13.241
41.52000 13.119
41.53000 18.290
41.54000 7.014
41.55000 10.142
41.56000 18.129
41.57000 13.217
41.58000 12.108
41.59000 16.177
41.60000 4.999
41.61000 11.159
41.62000 15.476
41.63000 16.186
41.64000 12.184
41.65000 9.142
41.66000 12.153
41.67000 16.278
41.68000 2.079
41.69000 15.210
41.70000 12.248
41.71000 13.279
41.72000 13.216
41.73000 14.177
41.74000 12.100
41.75000 12.090
41.76000 13.208
41.77000 15.301
41.78000 13.114
41.79000 14.223
41.80000 17.345
41.81000 18.310
41.82000 15.080
41.83000 12.133
41.84000 14.110
41.85000 3.110
41.86000 13.273
41.87000 11.185
41.88000 9.176
41.89000 17.105
41.90000 12.070
41.91000 14.094
41.92000 12.090
41.93000 13.251
41.94000 13.214
41.95000 12.233
41.96000 10.001
41.97000 13.133
41.98000 8.225
41.99000 8.114
42.00000 9.122
42.01000 16.172
42.02000 18.073
42.03000 16.162
42.04000 11.175
42.05000 14.112
42.06000 17.293
42.07000 10.235
42.08000 11.056
42.09000 11.144
42.10000 10.249
42.11000 9.148
42.12000 17.134
42.13000 13.191
42.14000 12.117
42.15000 18.084
42.16000 12.087
42.17000 13.214
42.18000 8.966
42.19000 12.174
42.20000 10.207
42.21000 10.032
42.22000 13.149
42.23000 14.161
42.24000 7.059
42.25000 10.013
42.26000 15.170
42.27000 7.034
42.28000 18.179
42.29000 9.074
42.30000 11.126
42.31000 14.188
42.32000 12.071
42.33000 2.051
42.34000 7.034
42.35000 15.283
42.36000 14.011
42.37000 17.258
42.38000 12.218
42.39000 15.251
42.40000 16.236
42.41000 11.300
42.42000 12.250
42.43000 11.275
42.44000 12.299
42.45000 17.153
42.46000 13.180
42.47000 11.186
42.48000 16.334
42.49000 12.276
42.50000 13.188
42.51000 14.183
42.52000 13.062
42.53000 15.179
42.54000 10.178
42.55000 13.268
42.56000 16.223
42.57000 16.179
42.58000 12.190
42.59000 8.171
42.60000 18.261
42.61000 16.214
42.62000 14.237
42.63000 8.140
42.64000 16.137
42.65000 11.064
42.66000 9.197
42.67000 11.061
42.68000 20.286
42.69000 17.243
42.70000 11.156
42.71000 14.204
42.72000 18.339
42.73000 13.097
42.74000 16.236
42.75000 14.233
42.76000 16.108
42.77000 14.228
42.78000 8.063
42.79000 7.134
42.80000 6.051
42.81000 21.104
42.82000 11.141
42.83000 21.228
42.84000 13.205
42.85000 22.263
42.86000 7.960
42.87000 18.445
42.88000 8.185
42.89000 13.012
42.90000 12.144
42.91000 13.126
42.92000 14.151
42.93000 14.100
42.94000 12.213
42.95000 14.336
42.96000 9.005
42.97000 17.143
42.98000 15.247
42.99000 8.975
43.00000 15.174
43.01000 16.267
43.02000 10.195
43.03000 17.096
43.04000 19.234
43.05000 12.198
43.06000 8.074
43.07000 6.063
43.08000 12.084
43.09000 10.269
43.10000 18.152
43.11000 20.372
43.12000 7.162
43.13000 8.064
43.14000 11.270
43.15000 19.414
43.16000 16.276
43.17000 15.282
43.18000 18.141
43.19000 16.518
43.20000 11.086
43.21000 14.117
43.22000 10.194
43.23000 12.196
43.24000 12.134
43.25000 15.289
43.26000 15.332
43.27000 15.136
43.28000 14.017
43.29000 12.035
43.30000 10.012
43.31000 7.087
43.32000 13.272
43.33000 18.362
43.34000 16.144
43.35000 8.014
43.36000 20.251
43.37000 15.121
43.38000 16.380
43.39000 13.310
43.40000 4.065
43.41000 11.251
43.42000 12.173
43.43000 8.153
43.44000 14.266
43.45000 14.343
43.46000 14.385
43.47000 7.047
43.48000 12.166
43.49000 17.217
43.50000 12.482
43.51000 8.990
43.52000 11.149
43.53000 7.983
43.54000 16.175
43.55000 8.290
43.56000 8.042
43.57000 8.119
43.58000 16.115
43.59000 14.117
43.60000 7.104
43.61000 5.141
43.62000 10.275
43.63000 14.277
43.64000 12.085
43.65000 17.329
43.66000 17.209
43.67000 13.108
43.68000 19.382
43.69000 17.358
43.70000 8.054
43.71000 16.296
43.72000 18.362
43.73000 12.194
43.74000 9.143
43.75000 9.114
43.76000 14.263
43.77000 13.213
43.78000 11.160
43.79000 17.197
43.80000 14.407
43.81000 19.331
43.82000 11.116
43.83000 15.341
43.84000 17.190
43.85000 16.334
43.86000 16.121
43.87000 5.108
43.88000 18.168
43.89000 8.093
43.90000 9.107
43.91000 14.186
43.92000 13.038
43.93000 18.170
43.94000 10.078
43.95000 10.222
43.96000 15.422
43.97000 12.212
43.98000 13.187
43.99000 4.037
44.00000 13.226
44.01000 10.074
44.02000 8.115
44.03000 11.048
44.04000 11.231
44.05000 10.240
44.06000 18.294
44.07000 11.062
44.08000 13.158
44.09000 14.279
44.10000 14.179
44.11000 12.153
44.12000 14.113
44.13000 12.206
44.14000 15.306
44.15000 12.229
44.16000 19.229
44.17000 15.170
44.18000 14.152
44.19000 10.113
44.20000 20.287
44.21000 7.142
44.22000 20.220
44.23000 15.073
44.24000 10.165
44.25000 14.277
44.26000 14.197
44.27000 6.014
44.28000 10.231
44.29000 10.106
44.30000 15.070
44.31000 13.973
44.32000 11.162
44.33000 8.108
44.34000 6.028
44.35000 6.984
44.36000 7.095
44.37000 10.237
44.38000 14.151
44.39000 12.241
44.40000 16.178
44.41000 9.252
44.42000 15.204
44.43000 11.150
44.44000 15.242
44.45000 14.186
44.46000 14.166
44.47000 10.146
44.48000 9.274
44.49000 12.037
44.50000 12.324
44.51000 9.067
44.52000 8.272
44.53000 13.160
44.54000 10.081
44.55000 10.167
44.56000 13.190
44.57000 7.121
44.58000 8.147
44.59000 14.125
44.60000 17.269
44.61000 18.286
44.62000 17.379
44.63000 15.300
44.64000 11.178
44.65000 8.130
44.66000 9.028
44.67000 13.183
44.68000 11.075
44.69000 10.175
44.70000 13.321
44.71000 13.105
44.72000 13.085
44.73000 5.992
44.74000 10.208
44.75000 15.232
44.76000 20.334
44.77000 3.987
44.78000 23.457
44.79000 10.133
44.80000 20.349
44.81000 16.280
44.82000 13.027
44.83000 10.170
44.84000 10.180
44.85000 19.300
44.86000 7.076
44.87000 16.132
44.88000 10.080
44.89000 11.114
44.90000 12.291
44.91000 9.122
44.92000 19.506
44.93000 18.285
44.94000 11.353
44.95000 6.066
44.96000 19.122
44.97000 14.115
44.98000 15.241
44.99000 12.130
45.00000 12.175
45.01000 10.148
45.02000 8.055
45.03000 13.011
45.04000 11.126
45.05000 12.074
45.06000 14.141
45.07000 13.266
45.08000 10.162
45.09000 10.107
45.10000 7.141
45.11000 15.239
45.12000 11.242
45.13000 6.064
45.14000 12.132
45.15000 17.126
45.16000 10.216
45.17000 11.141
45.18000 18.188
45.19000 8.112
45.20000 10.136
45.21000 14.265
45.22000 6.167
45.23000 10.977
45.24000 9.080
45.25000 7.110
45.26000 12.019
45.27000 14.122
45.28000 9.070
45.29000 20.235
45.30000 8.043
45.31000 11.219
45.32000 9.212
45.33000 10.163
45.34000 12.210
45.35000 17.265
45.36000 15.161
45.37000 7.105
45.38000 9.099
45.39000 9.051
45.40000 10.069
45.41000 9.105
45.42000 17.216
45.43000 15.175
45.44000 17.176
45.45000 12.289
45.46000 9.183
45.47000 11.203
45.48000 11.400
45.49000 8.094
45.50000 18.302
45.51000 21.441
45.52000 11.123
45.53000 14.153
45.54000 8.086
45.55000 10.121
45.56000 15.227
45.57000 19.365
45.58000 5.997
45.59000 9.043
45.60000 14.196
45.61000 12.085
45.62000 13.111
45.63000 9.123
45.64000 10.156
45.65000 18.233
45.66000 16.345
45.67000 4.042
45.68000 10.266
45.69000 11.118
45.70000 8.071
45.71000 16.159
45.72000 8.045
45.73000 16.173
45.74000 8.148
45.75000 13.240
45.76000 11.133
45.77000 9.149
45.78000 7.156
45.79000 14.225
45.80000 13.297
45.81000 11.030
45.82000 7.080
45.83000 15.309
45.84000 9.058
45.85000 10.176
45.86000 12.149
45.87000 14.145
45.88000 9.193
45.89000 19.281
45.90000 3.991
45.91000 14.276
45.92000 11.262
45.93000 5.096
45.94000 9.285
45.95000 5.044
45.96000 9.178
45.97000 20.248
45.98000 11.109
45.99000 16.247
46.00000 15.144
46.01000 15.346
46.02000 14.235
46.03000 7.116
46.04000 18.358
46.05000 8.118
46.06000 6.112
46.07000 14.361
46.08000 14.120
46.09000 15.196
46.10000 13.107
46.11000 13.992
46.12000 5.134
46.13000 14.247
46.14000 14.196
46.15000 10.191
46.16000 14.210
46.17000 8.220
46.18000 12.143
46.19000 9.199
46.20000 14.409
46.21000 20.342
46.22000 13.056
46.23000 13.196
46.24000 12.149
46.25000 16.293
46.26000 9.992
46.27000 25.396
46.28000 16.300
46.29000 15.280
46.30000 14.138
46.31000 13.222
46.32000 15.227
46.33000 21.337
46.34000 15.325
46.35000 17.161
46.36000 19.340
46.37000 18.138
46.38000 14.232
46.39000 10.222
46.40000 15.209
46.41000 14.083
46.42000 15.131
46.43000 12.057
46.44000 17.236
46.45000 7.045
46.46000 12.134
46.47000 20.209
46.48000 13.119
46.49000 14.198
46.50000 16.306
46.51000 14.217
46.52000 13.215
46.53000 14.137
46.54000 6.054
46.55000 10.065
46.56000 13.205
46.57000 16.262
46.58000 14.209
46.59000 15.068
46.60000 15.086
46.61000 8.083
46.62000 7.181
46.63000 12.077
46.64000 13.066
46.65000 8.070
46.66000 12.161
46.67000 17.020
46.68000 8.984
46.69000 11.056
46.70000 11.143
46.71000 14.236
46.72000 15.157
46.73000 11.174
46.74000 10.002
46.75000 7.073
46.76000 12.258
46.77000 10.185
46.78000 15.115
46.79000 9.133
46.80000 13.014
46.81000 8.132
46.82000 12.228
46.83000 14.304
46.84000 16.253
46.85000 13.082
46.86000 13.084
46.87000 14.186
46.88000 8.063
46.89000 8.076
46.90000 13.214
46.91000 10.091
46.92000 11.069
46.93000 10.026
46.94000 16.390
46.95000 18.123
46.96000 12.166
46.97000 17.186
46.98000 12.242
46.99000 11.074
47.00000 11.145
47.01000 8.145
47.02000 9.169
47.03000 8.144
47.04000 15.168
47.05000 13.223
47.06000 12.099
47.07000 14.155
47.08000 10.196
47.09000 16.239
47.10000 13.221
47.11000 12.216
47.12000 10.115
47.13000 9.195
47.14000 9.069
47.15000 14.154
47.16000 16.242
47.17000 16.168
47.18000 12.144
47.19000 15.043
47.20000 12.023
47.21000 8.068
47.22000 12.439
47.23000 19.121
47.24000 5.003
47.25000 18.207
47.26000 14.229
47.27000 11.054
47.28000 16.154
47.29000 12.196
47.30000 13.157
47.31000 12.031
47.32000 12.109
47.33000 12.037
47.34000 12.141
47.35000 9.176
47.36000 10.125
47.37000 12.138
47.38000 8.086
47.39000 14.247
47.40000 7.103
47.41000 15.199
47.42000 15.314
47.43000 14.284
47.44000 13.202
47.45000 16.239
47.46000 11.331
47.47000 12.069
47.48000 8.203
47.49000 6.963
47.50000 13.101
47.51000 11.253
47.52000 16.244
47.53000 7.057
47.54000 14.208
47.55000 10.155
47.56000 18.069
47.57000 16.272
47.58000 8.089
47.59000 11.190
47.60000 9.177
47.61000 13.108
47.62000 17.298
47.63000 10.154
47.64000 21.227
47.65000 13.059
47.66000 11.042
47.67000 10.195
47.68000 15.266
47.69000 11.100
47.70000 16.139
47.71000 11.189
47.72000 12.215
47.73000 13.183
47.74000 12.177
47.75000 12.109
47.76000 13.196
47.77000 7.047
47.78000 6.206
47.79000 11.146
47.80000 11.139
47.81000 14.103
47.82000 7.130
47.83000 17.121
47.84000 17.291
47.85000 14.086
47.86000 10.059
47.87000 11.035
47.88000 11.180
47.89000 17.284
47.90000 12.261
47.91000 15.145
47.92000 7.123
47.93000 11.091
47.94000 9.061
47.95000 14.186
47.96000 10.103
47.97000 19.075
47.98000 14.150
47.99000 12.282
48.00000 6.221
48.01000 11.387
48.02000 7.188
48.03000 13.043
48.04000 11.166
48.05000 10.055
48.06000 14.298
48.07000 11.096
48.08000 9.171
48.09000 16.265
48.10000 10.089
48.11000 5.097
48.12000 16.255
48.13000 21.262
48.14000 8.054
48.15000 12.098
48.16000 7.087
48.17000 16.284
48.18000 13.197
48.19000 15.120
48.20000 11.103
48.21000 10.079
48.22000 16.305
48.23000 13.166
48.24000 15.169
48.25000 14.068
48.26000 16.147
48.27000 8.071
48.28000 14.122
48.29000 12.064
48.30000 14.293
48.31000 16.267
48.32000 10.158
48.33000 16.210
48.34000 8.044
48.35000 13.123
48.36000 11.163
48.37000 8.042
48.38000 19.049
48.39000 14.180
48.40000 15.061
48.41000 13.071
48.42000 12.165
48.43000 5.034
48.44000 7.104
48.45000 9.190
48.46000 14.135
48.47000 16.261
48.48000 10.145
48.49000 9.209
48.50000 7.121
48.51000 9.176
48.52000 15.207
48.53000 12.113
48.54000 8.964
48.55000 14.124
48.56000 9.121
48.57000 15.305
48.58000 9.179
48.59000 17.294
48.60000 11.906
48.61000 11.069
48.62000 8.176
48.63000 16.371
48.64000 9.053
48.65000 9.197
48.66000 14.060
48.67000 6.081
48.68000 10.152
48.69000 12.245
48.70000 8.124
48.71000 12.054
48.72000 16.281
48.73000 15.137
48.74000 8.058
48.75000 7.988
48.76000 7.117
48.77000 3.989
48.78000 14.157
48.79000 12.098
48.80000 17.306
48.81000 9.195
48.82000 10.155
48.83000 20.189
48.84000 12.112
48.85000 6.155
48.86000 9.093
48.87000 12.242
48.88000 14.135
48.89000 11.111
48.90000 15.184
48.91000 6.980
48.92000 9.034
48.93000 10.220
48.94000 12.173
48.95000 16.247
48.96000 11.065
48.97000 10.992
48.98000 3.013
48.99000 13.135
49.00000 12.181
49.01000 14.274
49.02000 11.119
49.03000 17.140
49.04000 14.197
49.05000 8.109
49.06000 8.046
49.07000 16.302
49.08000 10.066
49.09000 8.113
49.10000 12.096
49.11000 13.188
49.12000 12.138
49.13000 14.135
49.14000 9.219
49.15000 12.150
49.16000 13.117
49.17000 10.990
49.18000 11.125
49.19000 12.188
49.20000 12.234
49.21000 10.084
49.22000 8.064
49.23000 10.989
49.24000 6.124
49.25000 8.121
49.26000 9.222
49.27000 7.029
49.28000 7.165
49.29000 13.092
49.30000 14.130
49.31000 13.217
49.32000 9.166
49.33000 6.040
49.34000 5.117
49.35000 10.057
49.36000 4.001
49.37000 10.166
49.38000 8.054
49.39000 7.051
49.40000 11.121
49.41000 9.106
49.42000 8.139
49.43000 10.163
49.44000 9.014
49.45000 14.051
49.46000 13.230
49.47000 8.114
49.48000 11.075
49.49000 13.184
49.50000 6.149
49.51000 13.157
49.52000 16.247
49.53000 14.226
49.54000 15.082
49.55000 10.226
49.56000 6.097
49.57000 16.283
49.58000 4.045
49.59000 9.189
49.60000 9.163
49.61000 13.272
49.62000 16.273
49.63000 16.303
49.64000 18.254
49.65000 14.123
49.66000 7.136
49.67000 10.155
49.68000 14.101
49.69000 9.028
49.70000 11.159
49.71000 17.149
49.72000 14.214
49.73000 18.101
49.74000 12.124
49.75000 16.189
49.76000 14.002
49.77000 9.182
49.78000 11.142
49.79000 11.241
49.80000 16.201
49.81000 12.238
49.82000 8.087
49.83000 10.088
49.84000 12.146
49.85000 7.100
49.86000 9.959
49.87000 10.088
49.88000 8.021
49.89000 14.207
49.90000 9.129
49.91000 10.038
49.92000 15.207
49.93000 18.118
49.94000 12.942
49.95000 17.266
49.96000 11.975
49.97000 15.314
49.98000 14.294
49.99000 6.026
50.00000 15.077
50.01000 8.176
50.02000 10.021
50.03000 6.020
50.04000 14.167
50.05000 14.106
50.06000 18.123
50.07000 15.223
50.08000 10.069
50.09000 14.249
50.10000 11.273
50.11000 17.293
50.12000 4.023
50.13000 11.136
50.14000 10.148
50.15000 9.125
50.16000 13.057
50.17000 12.203
50.18000 10.119
50.19000 19.130
50.20000 9.342
50.21000 14.341
50.22000 11.189
50.23000 6.033
50.24000 15.264
50.25000 7.095
50.26000 9.124
50.27000 11.173
50.28000 17.321
50.29000 10.224
50.30000 12.161
50.31000 6.120
50.32000 12.949
50.33000 16.359
50.34000 9.200
50.35000 13.223
50.36000 10.137
50.37000 8.097
50.38000 12.052
50.39000 10.099
50.40000 10.102
50.41000 11.130
50.42000 12.282
50.43000 10.123
50.44000 14.225
50.45000 8.091
50.46000 11.245
50.47000 12.203
50.48000 11.129
50.49000 11.118
50.50000 7.171
50.51000 12.084
50.52000 9.214
50.53000 9.037
50.54000 13.260
50.55000 10.226
50.56000 12.122
50.57000 16.260
50.58000 7.145
50.59000 10.029
50.60000 11.130
50.61000 11.031
50.62000 10.111
50.63000 10.059
50.64000 9.223
50.65000 12.017
50.66000 14.201
50.67000 13.262
50.68000 10.023
50.69000 15.259
50.70000 10.057
50.71000 18.335
50.72000 12.126
50.73000 10.152
50.74000 9.216
50.75000 10.210
50.76000 7.146
50.77000 8.190
50.78000 7.077
50.79000 12.274
50.80000 8.010
50.81000 9.045
50.82000 8.100
50.83000 7.999
50.84000 11.171
50.85000 9.018
50.86000 5.057
50.87000 16.135
50.88000 13.140
50.89000 9.114
50.90000 14.126
50.91000 15.104
50.92000 9.099
50.93000 20.128
50.94000 9.085
50.95000 16.212
50.96000 9.086
50.97000 5.026
50.98000 12.206
50.99000 13.314
51.00000 13.153
51.01000 12.310
51.02000 10.239
51.03000 13.178
51.04000 13.096
51.05000 13.098
51.06000 14.125
51.07000 11.055
51.08000 12.220
51.09000 17.269
51.10000 18.277
51.11000 6.041
51.12000 14.067
51.13000 11.213
51.14000 15.335
51.15000 6.014
51.16000 7.162
51.17000 12.258
51.18000 11.151
51.19000 4.064
51.20000 14.238
51.21000 7.049
51.22000 13.175
51.23000 6.161
51.24000 12.033
51.25000 9.080
51.26000 14.070
51.27000 5.947
51.28000 6.082
51.29000 15.333
51.30000 9.140
51.31000 3.044
51.32000 10.210
51.33000 12.217
51.34000 13.176
51.35000 11.279
51.36000 11.203
51.37000 10.074
51.38000 12.125
51.39000 9.223
51.40000 9.220
51.41000 8.189
51.42000 8.215
51.43000 8.237
51.44000 15.143
51.45000 15.227
51.46000 11.036
51.47000 12.185
51.48000 12.148
51.49000 16.176
51.50000 8.976
51.51000 11.164
51.52000 8.151
51.53000 11.965
51.54000 14.194
51.55000 9.148
51.56000 8.123
51.57000 17.273
51.58000 10.047
51.59000 12.180
51.60000 16.297
51.61000 17.142
51.62000 8.119
51.63000 8.054
51.64000 12.056
51.65000 14.158
51.66000 8.070
51.67000 6.081
51.68000 14.234
51.69000 12.149
51.70000 13.137
51.71000 4.062
51.72000 10.022
51.73000 2.012
51.74000 4.058
51.75000 18.183
51.76000 5.146
51.77000 13.144
51.78000 8.092
51.79000 10.303
51.80000 14.145
51.81000 12.146
51.82000 11.082
51.83000 17.254
51.84000 8.175
51.85000 6.065
51.86000 12.229
51.87000 9.100
51.88000 14.147
51.89000 9.175
51.90000 14.077
51.91000 14.136
51.92000 6.147
51.93000 10.057
51.94000 1.958
51.95000 7.033
51.96000 8.093
51.97000 6.019
51.98000 17.083
51.99000 11.239
52.00000 12.152
52.01000 9.101
52.02000 7.205
52.03000 9.117
52.04000 5.966
52.05000 4.103
52.06000 17.378
52.07000 12.232
52.08000 6.110
52.09000 14.309
52.10000 13.301
52.11000 8.067
52.12000 11.073
52.13000 14.139
52.14000 10.318
52.15000 6.124
52.16000 6.043
52.17000 11.975
52.18000 10.171
52.19000 7.152
52.20000 12.257
52.21000 4.078
52.22000 13.141
52.23000 13.149
52.24000 14.202
52.25000 13.257
52.26000 9.997
52.27000 11.225
52.28000 9.160
52.29000 10.093
52.30000 8.036
52.31000 13.249
52.32000 11.266
52.33000 7.205
52.34000 12.083
52.35000 4.075
52.36000 15.309
52.37000 10.177
52.38000 7.187
52.39000 11.055
52.40000 13.007
52.41000 16.351
52.42000 16.116
52.43000 7.208
52.44000 9.194
52.45000 14.058
52.46000 10.130
52.47000 10.158
52.48000 11.002
52.49000 16.317
52.50000 12.179
52.51000 11.253
52.52000 6.044
52.53000 10.114
52.54000 11.152
52.55000 10.114
52.56000 12.275
52.57000 10.148
52.58000 9.200
52.59000 14.211
52.60000 9.102
52.61000 6.023
52.62000 8.102
52.63000 6.074
52.64000 7.911
52.65000 12.262
52.66000 9.145
52.67000 9.212
52.68000 10.145
52.69000 9.257
52.70000 4.069
52.71000 9.101
52.72000 8.300
52.73000 3.990
52.74000 11.074
52.75000 14.278
52.76000 11.052
52.77000 6.958
52.78000 8.164
52.79000 10.214
52.80000 13.213
52.81000 8.098
52.82000 11.028
52.83000 14.363
52.84000 13.113
52.85000 12.147
52.86000 18.176
52.87000 7.075
52.88000 12.051
52.89000 14.151
52.90000 7.019
52.91000 13.110
52.92000 6.035
52.93000 8.123
52.94000 10.165
52.95000 12.242
52.96000 10.232
52.97000 2.071
52.98000 11.098
52.99000 10.094
53.00000 6.053
53.01000 5.053
53.02000 6.978
53.03000 10.164
53.04000 20.332
53.05000 4.047
53.06000 13.974
53.07000 17.173
53.08000 11.086
53.09000 10.167
53.10000 10.117
53.11000 13.100
53.12000 7.042
53.13000 14.057
53.14000 4.936
53.15000 8.348
53.16000 12.084
53.17000 13.071
53.18000 6.006
53.19000 7.063
53.20000 12.131
53.21000 9.160
53.22000 13.144
53.23000 9.202
53.24000 7.179
53.25000 2.008
53.26000 6.031
53.27000 10.060
53.28000 10.145
53.29000 12.291
53.30000 9.011
53.31000 14.206
53.32000 9.163
53.33000 8.091
53.34000 10.173
53.35000 9.240
53.36000 14.312
53.37000 8.048
53.38000 12.150
53.39000 11.079
53.40000 11.191
53.41000 8.044
53.42000 9.165
53.43000 6.041
53.44000 11.029
53.45000 8.025
53.46000 10.089
53.47000 14.047
53.48000 12.218
53.49000 9.029
53.50000 9.204
53.51000 9.169
53.52000 9.116
53.53000 13.136
53.54000 8.012
53.55000 10.180
53.56000 13.294
53.57000 9.144
53.58000 11.269
53.59000 15.189
53.60000 7.096
53.61000 5.000
53.62000 10.170
53.63000 15.238
53.64000 12.294
53.65000 17.179
53.66000 13.159
53.67000 9.108
53.68000 11.192
53.69000 8.092
53.70000 7.133
53.71000 8.099
53.72000 14.163
53.73000 9.030
53.74000 9.261
53.75000 10.189
53.76000 14.167
53.77000 12.115
53.78000 10.095
53.79000 3.041
53.80000 12.020
53.81000 6.976
53.82000 9.079
53.83000 10.073
53.84000 2.975
53.85000 10.040
53.86000 7.079
53.87000 13.033
53.88000 13.212
53.89000 6.044
53.90000 11.130
53.91000 13.164
53.92000 7.050
53.93000 8.104
53.94000 14.176
53.95000 10.093
53.96000 11.384
53.97000 4.053
53.98000 11.117
53.99000 12.092
54.00000 15.020
54.01000 8.024
54.02000 11.113
54.03000 11.206
54.04000 7.107
54.05000 13.201
54.06000 6.166
54.07000 16.370
54.08000 4.113
54.09000 8.160
54.10000 5.130
54.11000 8.044
54.12000 5.050
54.13000 10.138
54.14000 11.150
54.15000 10.182
54.16000 16.177
54.17000 10.117
54.18000 15.269
54.19000 11.245
54.20000 6.071
54.21000 7.009
54.22000 8.155
54.23000 10.158
54.24000 13.104
54.25000 15.321
54.26000 10.052
54.27000 13.171
54.28000 12.005
54.29000 12.143
54.30000 7.012
54.31000 11.205
54.32000 5.018
54.33000 11.227
54.34000 4.086
54.35000 10.242
54.36000 9.063
54.37000 6.072
54.38000 7.043
54.39000 9.172
54.40000 6.114
54.41000 11.126
54.42000 9.087
54.43000 10.026
54.44000 14.096
54.45000 9.077
54.46000 13.226
54.47000 5.072
54.48000 9.166
54.49000 15.170
54.50000 13.161
54.51000 7.162
54.52000 15.111
54.53000 11.202
54.54000 5.114
54.55000 11.265
54.56000 5.997
54.57000 13.141
54.58000 11.150
54.59000 11.153
54.60000 13.166
54.61000 10.190
54.62000 7.139
54.63000 12.214
54.64000 18.300
54.65000 7.022
54.66000 12.171
54.67000 13.257
54.68000 4.048
54.69000 8.037
54.70000 4.113
54.71000 14.144
54.72000 11.191
54.73000 10.188
54.74000 7.035
54.75000 15.224
54.76000 7.932
54.77000 5.079
54.78000 11.016
54.79000 10.197
54.80000 6.065
54.81000 13.205
54.82000 11.968
54.83000 8.113
54.84000 13.215
54.85000 8.194
54.86000 12.112
54.87000 9.008
54.88000 14.389
54.89000 14.351
54.90000 7.042
54.91000 7.946
54.92000 11.037
54.93000 15.164
54.94000 10.104
54.95000 9.026
54.96000 13.091
54.97000 11.125
54.98000 8.191
54.99000 10.115
55.00000 15.374
55.01000 11.157
55.02000 8.187
55.03000 13.275
55.04000 10.134
55.05000 8.120
55.06000 7.107
55.07000 6.029
55.08000 10.097
55.09000 14.210
55.10000 14.352
55.11000 7.085
55.12000 16.320
55.13000 7.112
55.14000 12.103
55.15000 8.964
55.16000 12.188
55.17000 10.245
55.18000 7.046
55.19000 18.198
55.20000 12.158
55.21000 14.172
55.22000 3.063
55.23000 10.064
55.24000 8.996
55.25000 5.997
55.26000 7.145
55.27000 7.173
55.28000 5.096
55.29000 9.196
55.30000 16.338
55.31000 9.116
55.32000 12.127
55.33000 6.064
55.34000 10.157
55.35000 7.025
55.36000 6.029
55.37000 8.136
55.38000 3.093
55.39000 18.149
55.40000 16.082
55.41000 8.003
55.42000 10.256
55.43000 7.031
55.44000 10.237
55.45000 8.013
55.46000 9.103
55.47000 6.058
55.48000 5.051
55.49000 9.165
55.50000 7.062
55.51000 9.134
55.52000 9.164
55.53000 10.144
55.54000 9.124
55.55000 6.969
55.56000 10.128
55.57000 4.057
55.58000 7.102
55.59000 10.147
55.60000 9.138
55.61000 14.188
55.62000 7.112
55.63000 10.099
55.64000 10.106
55.65000 9.118
55.66000 10.110
55.67000 10.202
55.68000 9.232
55.69000 10.246
55.70000 11.182
55.71000 6.981
55.72000 8.062
55.73000 6.056
55.74000 4.049
55.75000 15.345
55.76000 8.229
55.77000 7.098
55.78000 11.229
55.79000 7.022
55.80000 12.156
55.81000 14.175
55.82000 11.376
55.83000 8.127
55.84000 12.197
55.85000 8.217
55.86000 8.100
55.87000 7.078
55.88000 7.173
55.89000 8.124
55.90000 6.066
55.91000 3.076
55.92000 7.134
55.93000 6.047
55.94000 6.099
55.95000 5.191
55.96000 6.113
55.97000 7.071
55.98000 9.143
55.99000 7.149
56.00000 6.974
56.01000 8.199
56.02000 11.070
56.03000 11.156
56.04000 11.261
56.05000 6.109
56.06000 18.168
56.07000 6.097
56.08000 9.140
56.09000 8.083
56.10000 7.071
56.11000 7.108
56.12000 9.032
56.13000 7.125
56.14000 4.985
56.15000 8.164
56.16000 6.057
56.17000 9.147
56.18000 8.189
56.19000 8.207
56.20000 6.109
56.21000 12.182
56.22000 6.071
56.23000 12.139
56.24000 5.052
56.25000 6.108
56.26000 13.254
56.27000 5.083
56.28000 6.026
56.29000 2.130
56.30000 13.225
56.31000 7.047
56.32000 7.029
56.33000 6.124
56.34000 4.178
56.35000 6.056
56.36000 8.254
56.37000 5.062
56.38000 9.169
56.39000 4.984
56.40000 9.093
56.41000 11.057
56.42000 14.377
56.43000 11.097
56.44000 2.052
56.45000 8.103
56.46000 6.107
56.47000 7.128
56.48000 6.050
56.49000 7.017
56.50000 4.121
56.51000 6.994
56.52000 13.983
56.53000 7.069
56.54000 11.219
56.55000 4.101
56.56000 6.997
56.57000 10.210
56.58000 6.090
56.59000 4.969
56.60000 10.054
56.61000 8.213
56.62000 9.015
56.63000 12.178
56.64000 11.126
56.65000 5.033
56.66000 7.074
56.67000 6.212
56.68000 9.122
56.69000 7.203
56.70000 7.119
56.71000 12.297
56.72000 11.137
56.73000 8.108
56.74000 7.054
56.75000 17.174
56.76000 11.072
56.77000 3.990
56.78000 8.106
56.79000 9.114
56.80000 9.979
56.81000 4.146
56.82000 6.001
56.83000 6.035
56.84000 6.096
56.85000 14.122
56.86000 6.057
56.87000 5.061
56.88000 5.059
56.89000 3.048
56.90000 9.089
56.91000 3.038
56.92000 7.086
56.93000 4.069
56.94000 5.046
56.95000 6.962
56.96000 10.152
56.97000 14.179
56.98000 8.065
56.99000 5.006
57.00000 5.067
57.01000 9.203
57.02000 10.192
57.03000 10.380
57.04000 6.240
57.05000 12.068
57.06000 8.202
57.07000 8.194
57.08000 8.088
57.09000 8.157
57.10000 13.178
57.11000 12.089
57.12000 6.185
57.13000 9.017
57.14000 9.087
57.15000 7.071
57.16000 7.185
57.17000 7.051
57.18000 13.252
57.19000 6.117
57.20000 13.058
57.21000 5.111
57.22000 10.087
57.23000 8.999
57.24000 12.197
57.25000 6.077
57.26000 7.200
57.27000 6.120
57.28000 10.138
57.29000 6.104
57.30000 6.013
57.31000 14.246
57.32000 8.232
57.33000 4.003
57.34000 8.090
57.35000 6.080
57.36000 10.037
57.37000 14.135
57.38000 8.025
57.39000 3.028
57.40000 10.108
57.41000 11.047
57.42000 10.113
57.43000 7.015
57.44000 7.116
57.45000 7.066
57.46000 4.073
57.47000 11.134
57.48000 14.321
57.49000 7.094
57.50000 7.055
57.51000 7.081
57.52000 11.089
57.53000 13.116
57.54000 12.144
57.55000 11.024
57.56000 9.082
57.57000 10.165
57.58000 9.010
57.59000 11.012
57.60000 7.142
57.61000 7.195
57.62000 9.137
57.63000 14.089
57.64000 7.121
57.65000 10.185
57.66000 2.969
57.67000 8.085
57.68000 6.139
57.69000 8.049
57.70000 14.132
57.71000 10.104
57.72000 13.068
57.73000 9.198
57.74000 8.119
57.75000 10.081
57.76000 3.019
57.77000 15.342
57.78000 2.982
57.79000 13.140
57.80000 7.175
57.81000 8.196
57.82000 6.984
57.83000 7.170
57.84000 7.053
57.85000 5.074
57.86000 9.124
57.87000 8.181
57.88000 11.125
57.89000 9.065
57.90000 6.025
57.91000 10.176
57.92000 8.055
57.93000 10.114
57.94000 9.094
57.95000 8.087
57.96000 2.022
57.97000 9.236
57.98000 12.225
57.99000 12.333
58.00000 10.110
58.01000 6.114
58.02000 9.059
58.03000 9.193
58.04000 10.153
58.05000 10.186
58.06000 8.050
58.07000 8.250
58.08000 10.126
58.09000 6.983
58.10000 6.158
58.11000 5.997
58.12000 7.040
58.13000 12.071
58.14000 14.294
58.15000 4.019
58.16000 5.052
58.17000 10.199
58.18000 5.143
58.19000 10.017
58.20000 8.139
58.21000 7.073
58.22000 4.069
58.23000 9.086
58.24000 8.181
58.25000 9.022
58.26000 5.015
58.27000 12.284
58.28000 3.989
58.29000 6.132
58.30000 5.089
58.31000 8.993
58.32000 9.119
58.33000 8.245
58.34000 6.029
58.35000 10.127
58.36000 9.106
58.37000 9.113
58.38000 8.104
58.39000 14.028
58.40000 13.106
58.41000 11.080
58.42000 4.080
58.43000 6.152
58.44000 7.121
58.45000 8.055
58.46000 9.130
58.47000 15.224
58.48000 5.072
58.49000 9.084
58.50000 11.299
58.51000 9.120
58.52000 10.081
58.53000 11.186
58.54000 7.149
58.55000 11.056
58.56000 6.102
58.57000 9.231
58.58000 9.199
58.59000 8.105
58.60000 5.928
58.61000 7.092
58.62000 8.168
58.63000 12.150
58.64000 9.210
58.65000 8.043
58.66000 3.995
58.67000 9.206
58.68000 14.193
58.69000 11.189
58.70000 0.996
58.71000 3.025
58.72000 10.042
58.73000 9.096
58.74000 12.220
58.75000 10.151
58.76000 7.009
58.77000 13.308
58.78000 10.128
58.79000 6.027
58.80000 9.088
58.81000 5.039
58.82000 8.994
58.83000 6.100
58.84000 10.001
58.85000 10.054
58.86000 11.392
58.87000 8.209
58.88000 12.061
58.89000 4.125
58.90000 4.966
58.91000 7.149
58.92000 11.084
58.93000 4.036
58.94000 9.958
58.95000 5.067
58.96000 4.077
58.97000 12.198
58.98000 6.148
58.99000 9.158
59.00000 3.991
59.01000 8.276
59.02000 13.173
59.03000 9.030
59.04000 3.008
59.05000 2.020
59.06000 7.187
59.07000 4.037
59.08000 4.004
59.09000 12.155
59.10000 10.120
59.11000 10.118
59.12000 3.978
59.13000 7.971
59.14000 4.124
59.15000 8.060
59.16000 5.072
59.17000 8.177
59.18000 7.985
59.19000 10.122
59.20000 6.080
59.21000 6.088
59.22000 4.986
59.23000 11.110
59.24000 9.156
59.25000 1.975
59.26000 7.038
59.27000 6.203
59.28000 7.040
59.29000 5.037
59.30000 5.045
59.31000 9.159
59.32000 4.013
59.33000 2.051
59.34000 1.046
59.35000 10.033
59.36000 4.997
59.37000 9.011
59.38000 5.063
59.39000 6.089
59.40000 7.188
59.41000 12.117
59.42000 8.045
59.43000 5.064
59.44000 4.070
59.45000 9.064
59.46000 6.042
59.47000 11.205
59.48000 8.111
59.49000 8.150
59.50000 9.252
59.51000 8.058
59.52000 5.038
59.53000 10.103
59.54000 3.025
59.55000 8.118
59.56000 6.966
59.57000 2.007
59.58000 6.105
59.59000 8.020
59.60000 5.078
59.61000 9.005
59.62000 12.048
59.63000 12.216
59.64000 6.106
59.65000 4.037
59.66000 5.096
59.67000 11.076
59.68000 8.115
59.69000 5.077
59.70000 6.059
59.71000 15.149
59.72000 8.095
59.73000 10.209
59.74000 8.022
59.75000 9.080
59.76000 5.075
59.77000 9.216
59.78000 7.054
59.79000 5.079
59.80000 11.191
59.81000 6.128
59.82000 9.186
59.83000 6.984
59.84000 6.919
59.85000 8.139
59.86000 6.046
59.87000 10.242
59.88000 3.027
59.89000 11.091
59.90000 6.094
59.91000 3.040
59.92000 7.024
59.93000 5.192
59.94000 6.041
59.95000 14.238
59.96000 10.111
59.97000 6.071
59.98000 6.042
59.99000 8.156
60.00000 4.023
60.01000 5.035
60.02000 10.168
60.03000 9.180
60.04000 7.041
60.05000 3.986
60.06000 8.118
60.07000 7.067
60.08000 5.050
60.09000 6.005
60.10000 8.132
60.11000 6.196
60.12000 2.978
60.13000 9.108
60.14000 6.070
60.15000 4.071
60.16000 6.108
60.17000 4.178
60.18000 8.087
60.19000 13.259
60.20000 11.244
60.21000 6.051
60.22000 6.141
60.23000 3.037
60.24000 4.992
60.25000 13.125
60.26000 5.996
60.27000 3.040
60.28000 9.195
60.29000 7.054
60.30000 10.022
60.31000 10.107
60.32000 12.153
60.33000 12.250
60.34000 9.227
60.35000 12.279
60.36000 5.939
60.37000 7.035
60.38000 5.174
60.39000 7.967
60.40000 8.069
60.41000 4.119
60.42000 3.099
60.43000 6.057
60.44000 9.127
60.45000 9.172
60.46000 10.177
60.47000 4.053
60.48000 7.988
60.49000 5.130
60.50000 4.033
60.51000 8.174
60.52000 10.107
60.53000 11.200
60.54000 8.196
60.55000 10.114
60.56000 9.013
60.57000 8.086
60.58000 8.160
60.59000 7.086
60.60000 4.070
60.61000 9.156
60.62000 9.159
60.63000 7.159
60.64000 12.175
60.65000 2.024
60.66000 7.152
60.67000 9.155
60.68000 9.186
60.69000 6.103
60.70000 7.163
60.71000 7.159
60.72000 2.986
60.73000 9.139
60.74000 4.036
60.75000 9.080
60.76000 7.085
60.77000 10.167
60.78000 8.084
60.79000 7.135
60.80000 8.988
60.81000 10.242
60.82000 6.070
60.83000 5.092
60.84000 4.032
60.85000 5.001
60.86000 7.105
60.87000 5.126
60.88000 11.105
60.89000 5.121
60.90000 3.990
60.91000 5.098
60.92000 8.129
60.93000 8.173
60.94000 9.241
60.95000 11.297
60.96000 4.060
60.97000 9.238
60.98000 7.139
60.99000 8.180
61.00000 10.074
61.01000 6.130
61.02000 7.067
61.03000 10.087
61.04000 3.025
61.05000 5.120
61.06000 7.222
61.07000 6.026
61.08000 10.149
61.09000 7.136
61.10000 5.969
61.11000 4.024
61.12000 10.129
61.13000 6.076
61.14000 9.338
61.15000 4.943
61.16000 6.094
61.17000 7.006
61.18000 5.090
61.19000 9.051
61.20000 4.994
61.21000 5.010
61.22000 5.978
61.23000 4.068
61.24000 5.073
61.25000 2.030
61.26000 7.085
61.27000 6.040
61.28000 8.102
61.29000 7.126
61.30000 8.054
61.31000 6.136
61.32000 8.097
61.33000 8.011
61.34000 12.120
61.35000 6.064
61.36000 8.054
61.37000 8.107
61.38000 9.171
61.39000 9.216
61.40000 1.024
61.41000 11.163
61.42000 3.001
61.43000 7.116
61.44000 12.348
61.45000 6.126
61.46000 6.148
61.47000 10.091
61.48000 9.167
61.49000 7.106
61.50000 8.070
61.51000 3.981
61.52000 7.016
61.53000 3.018
61.54000 5.054
61.55000 5.076
61.56000 5.112
61.57000 6.003
61.58000 0.985
61.59000 3.118
61.60000 3.034
61.61000 8.088
61.62000 2.048
61.63000 3.067
61.64000 10.142
61.65000 5.041
61.66000 10.103
61.67000 7.160
61.68000 7.055
61.69000 12.143
61.70000 4.071
61.71000 4.023
61.72000 9.108
61.73000 5.013
61.74000 5.114
61.75000 9.094
61.76000 7.156
61.77000 6.037
61.78000 7.086
61.79000 8.109
61.80000 8.107
61.81000 4.051
61.82000 6.090
61.83000 4.050
61.84000 6.087
61.85000 7.109
61.86000 6.196
61.87000 7.174
61.88000 8.098
61.89000 9.171
61.90000 7.219
61.91000 5.018
61.92000 5.158
61.93000 3.049
61.94000 9.121
61.95000 7.122
61.96000 7.160
61.97000 10.048
61.98000 9.139
61.99000 4.090
62.00000 3.995
62.01000 8.130
62.02000 6.217
62.03000 4.034
62.04000 3.060
62.05000 5.063
62.06000 9.119
62.07000 6.033
62.08000 6.126
62.09000 6.045
62.10000 9.095
62.11000 7.143
62.12000 4.072
62.13000 6.044
62.14000 6.099
62.15000 6.004
62.16000 6.021
62.17000 11.131
62.18000 7.155
62.19000 5.131
62.20000 7.126
62.21000 9.186
62.22000 9.154
62.23000 9.094
62.24000 2.044
62.25000 5.054
62.26000 8.093
62.27000 6.121
62.28000 6.028
62.29000 2.003
62.30000 5.062
62.31000 11.156
62.32000 2.013
62.33000 5.084
62.34000 6.072
62.35000 8.104
62.36000 6.995
62.37000 7.131
62.38000 6.100
62.39000 8.187
62.40000 6.139
62.41000 8.126
62.42000 5.154
62.43000 8.231
62.44000 8.077
62.45000 6.061
62.46000 7.174
62.47000 4.126
62.48000 6.096
62.49000 7.197
62.50000 1.029
62.51000 5.971
62.52000 12.310
62.53000 5.087
62.54000 2.989
62.55000 7.058
62.56000 6.191
62.57000 6.092
62.58000 5.044
62.59000 5.127
62.60000 10.000
62.61000 3.028
62.62000 10.157
62.63000 9.114
62.64000 7.089
62.65000 4.034
62.66000 4.079
62.67000 6.176
62.68000 7.017
62.69000 7.170
62.70000 3.050
62.71000 5.965
62.72000 11.135
62.73000 10.060
62.74000 10.187
62.75000 2.953
62.76000 9.160
62.77000 7.085
62.78000 2.041
62.79000 4.032
62.80000 5.109
62.81000 5.105
62.82000 8.140
62.83000 7.966
62.84000 6.103
62.85000 9.015
62.86000 4.151
62.87000 7.149
62.88000 6.080
62.89000 3.011
62.90000 6.001
62.91000 9.239
62.92000 3.083
62.93000 10.280
62.94000 7.061
62.95000 3.053
62.96000 3.067
62.97000 5.018
62.98000 6.980
62.99000 6.115
63.00000 5.108
63.01000 4.948
63.02000 12.196
63.03000 8.062
63.04000 5.062
63.05000 5.034
63.06000 6.106
63.07000 11.064
63.08000 6.061
63.09000 3.062
63.10000 8.099
63.11000 8.124
63.12000 9.057
63.13000 5.106
63.14000 3.067
63.15000 9.063
63.16000 1.996
63.17000 8.111
63.18000 6.117
63.19000 12.074
63.20000 3.994
63.21000 7.012
63.22000 6.989
63.23000 6.952
63.24000 6.111
63.25000 7.187
63.26000 6.011
63.27000 4.104
63.28000 12.212
63.29000 6.132
63.30000 6.116
63.31000 7.046
63.32000 2.983
63.33000 6.091
63.34000 4.051
63.35000 5.160
63.36000 3.021
63.37000 4.005
63.38000 10.221
63.39000 7.102
63.40000 3.002
63.41000 9.072
63.42000 6.170
63.43000 7.140
63.44000 7.088
63.45000 7.188
63.46000 7.119
63.47000 6.135
63.48000 7.028
63.49000 6.018
63.50000 6.090
63.51000 8.037
63.52000 7.142
63.53000 5.101
63.54000 7.007
63.55000 7.087
63.56000 6.988
63.57000 3.040
63.58000 5.076
63.59000 1.967
63.60000 11.260
63.61000 3.008
63.62000 2.998
63.63000 5.049
63.64000 5.986
63.65000 5.060
63.66000 6.054
63.67000 5.003
63.68000 10.097
63.69000 7.255
63.70000 13.118
63.71000 5.992
63.72000 9.072
63.73000 9.997
63.74000 5.015
63.75000 8.044
63.76000 6.101
63.77000 6.106
63.78000 7.089
63.79000 10.129
63.80000 9.063
63.81000 8.205
63.82000 6.040
63.83000 5.082
63.84000 8.019
63.85000 9.226
63.86000 3.031
63.87000 4.034
63.88000 8.073
63.89000 7.060
63.90000 7.049
63.91000 7.158
63.92000 0.998
63.93000 8.116
63.94000 5.095
63.95000 6.000
63.96000 3.025
63.97000 7.147
63.98000 8.064
63.99000 8.163
64.00000 9.119
64.01000 9.170
64.02000 10.138
64.03000 7.080
64.04000 8.051
64.05000 8.070
64.06000 4.989
64.07000 5.068
64.08000 8.070
64.09000 6.051
64.10000 5.069
64.11000 3.081
64.12000 4.048
64.13000 8.058
64.14000 9.154
64.15000 4.007
64.16000 9.191
64.17000 5.101
64.18000 8.163
64.19000 5.087
64.20000 2.014
64.21000 4.047
64.22000 7.062
64.23000 7.068
64.24000 5.115
64.25000 6.072
64.26000 6.147
64.27000 3.068
64.28000 6.109
64.29000 7.144
64.30000 7.136
64.31000 4.042
64.32000 6.144
64.33000 5.122
64.34000 2.012
64.35000 3.017
64.36000 7.117
64.37000 6.027
64.38000 7.130
64.39000 2.028
64.40000 4.053
64.41000 6.139
64.42000 4.125
64.43000 9.099
64.44000 6.125
64.45000 7.000
64.46000 4.955
64.47000 4.006
64.48000 2.022
64.49000 9.057
64.50000 8.116
64.51000 5.093
64.52000 8.964
64.53000 4.033
64.54000 7.053
64.55000 3.011
64.56000 6.113
64.57000 6.166
64.58000 7.192
64.59000 6.118
64.60000 8.059
64.61000 3.003
64.62000 8.059
64.63000 5.080
64.64000 7.075
64.65000 2.085
64.66000 2.985
64.67000 6.075
64.68000 6.160
64.69000 6.150
64.70000 4.117
64.71000 2.995
64.72000 6.121
64.73000 4.078
64.74000 6.103
64.75000 10.087
64.76000 14.102
64.77000 6.126
64.78000 8.111
64.79000 3.009
64.80000 5.051
64.81000 8.032
64.82000 9.012
64.83000 7.005
64.84000 8.116
64.85000 6.140
64.86000 5.005
64.87000 9.197
64.88000 4.060
64.89000 3.028
64.90000 2.026
64.91000 6.144
64.92000 11.190
64.93000 5.979
64.94000 4.085
64.95000 13.211
64.96000 4.065
64.97000 5.077
64.98000 5.181
64.99000 10.300
65.00000 2.023
