20.00000 16.219
20.01000 27.358
20.02000 14.198
20.03000 21.353
20.04000 18.271
20.05000 13.927
20.06000 17.107
20.07000 18.098
20.08000 23.510
20.09000 21.233
20.10000 21.444
20.11000 17.157
20.12000 32.526
20.13000 20.355
20.14000 14.168
20.15000 20.177
20.16000 20.229
20.17000 21.163
20.18000 15.232
20.19000 24.285
20.20000 25.303
20.21000 20.300
20.22000 21.278
20.23000 27.403
20.24000 22.329
20.25000 21.123
20.26000 26.405
20.27000 18.189
20.28000 28.243
20.29000 33.329
20.30000 19.056
20.31000 17.161
20.32000 15.225
20.33000 30.301
20.34000 17.268
20.35000 22.130
20.36000 19.247
20.37000 17.039
20.38000 20.302
20.39000 15.170
20.40000 21.207
20.41000 14.159
20.42000 25.297
20.43000 8.180
20.44000 16.096
20.45000 13.289
20.46000 16.266
20.47000 22.234
20.48000 17.224
20.49000 24.432
20.50000 18.210
20.51000 22.329
20.52000 19.203
20.53000 15.100
20.54000 20.229
20.55000 30.055
20.56000 22.225
20.57000 25.291
20.58000 23.179
20.59000 17.150
20.60000 12.126
20.61000 25.267
20.62000 25.282
20.63000 18.374
20.64000 17.203
20.65000 23.194
20.66000 26.456
20.67000 15.126
20.68000 19.285
20.69000 16.115
20.70000 16.370
20.71000 24.246
20.72000 22.249
20.73000 17.280
20.74000 15.185
20.75000 24.505
20.76000 21.259
20.77000 16.181
20.78000 23.099
20.79000 19.135
20.80000 14.158
20.81000 28.522
20.82000 21.347
20.83000 18.376
20.84000 18.144
20.85000 22.358
20.86000 16.141
20.87000 28.430
20.88000 26.493
20.89000 9.121
20.90000 22.507
20.91000 26.232
20.92000 15.105
20.93000 24.453
20.94000 18.316
20.95000 19.181
20.96000 30.341
20.97000 26.385
20.98000 27.535
20.99000 20.165
21.00000 14.234
21.01000 27.348
21.02000 21.156
21.03000 26.386
21.04000 20.319
21.05000 17.305
21.06000 31.292
21.07000 15.182
21.08000 17.285
21.09000 38.688
21.10000 20.337
21.11000 17.105
21.12000 25.064
21.13000 26.486
21.14000 18.334
21.15000 19.160
21.16000 22.341
21.17000 19.199
21.18000 18.331
21.19000 16.332
21.20000 19.226
21.21000 22.358
21.22000 22.270
21.23000 22.149
21.24000 26.324
21.25000 22.285
21.26000 21.194
21.27000 26.438
21.28000 26.322
21.29000 24.322
21.30000 27.372
21.31000 27.718
21.32000 18.324
21.33000 22.410
21.34000 17.212
21.35000 24.499
21.36000 19.325
21.37000 21.432
21.38000 17.159
21.39000 28.223
21.40000 19.167
21.41000 19.245
21.42000 13.190
21.43000 27.286
21.44000 18.126
21.45000 19.278
21.46000 26.550
21.47000 29.222
21.48000 20.412
21.49000 28.368
21.50000 22.153
21.51000 16.236
21.52000 34.504
21.53000 25.480
21.54000 24.252
21.55000 30.224
21.56000 25.559
21.57000 24.503
21.58000 21.263
21.59000 24.495
21.60000 23.137
21.61000 21.328
21.62000 20.323
21.63000 25.366
21.64000 24.068
21.65000 18.259
21.66000 27.703
21.67000 22.370
21.68000 25.212
21.69000 20.397
21.70000 22.360
21.71000 24.421
21.72000 22.376
21.73000 21.460
21.74000 25.309
21.75000 25.236
21.76000 23.263
21.77000 19.421
21.78000 26.204
21.79000 22.393
21.80000 21.261
21.81000 14.176
21.82000 16.376
21.83000 27.294
21.84000 30.260
21.85000 27.216
21.86000 27.246
21.87000 39.771
21.88000 15.158
21.89000 24.455
21.90000 26.307
21.91000 20.096
21.92000 25.289
21.93000 28.565
21.94000 33.282
21.95000 24.289
21.96000 17.090
21.97000 35.567
21.98000 28.368
21.99000 25.337
22.00000 25.127
22.01000 24.295
22.02000 28.291
22.03000 20.303
22.04000 27.504
22.05000 17.081
22.06000 19.150
22.07000 18.371
22.08000 22.324
22.09000 18.283
22.10000 25.432
22.11000 21.165
22.12000 25.303
22.13000 20.194
22.14000 24.289
22.15000 13.236
22.16000 18.225
22.17000 16.408
22.18000 21.375
22.19000 24.264
22.20000 35.352
22.21000 17.263
22.22000 26.244
22.23000 21.331
22.24000 26.389
22.25000 30.218
22.26000 24.299
22.27000 26.389
22.28000 34.506
22.29000 24.348
22.30000 20.268
22.31000 23.490
22.32000 26.263
22.33000 23.091
22.34000 17.182
22.35000 31.630
22.36000 21.359
22.37000 17.135
22.38000 23.277
22.39000 21.271
22.40000 29.368
22.41000 18.097
22.42000 27.275
22.43000 25.492
22.44000 18.188
22.45000 27.414
22.46000 29.403
22.47000 19.429
22.48000 30.414
22.49000 25.178
22.50000 14.996
22.51000 17.237
22.52000 22.156
22.53000 22.153
22.54000 28.478
22.55000 34.470
22.56000 17.355
22.57000 24.164
22.58000 26.163
22.59000 28.189
22.60000 35.243
22.61000 26.433
22.62000 22.266
22.63000 22.398
22.64000 33.426
22.65000 24.151
22.66000 24.356
22.67000 26.309
22.68000 19.169
22.69000 27.306
22.70000 29.162
22.71000 26.397
22.72000 20.143
22.73000 21.442
22.74000 26.359
22.75000 34.364
22.76000 23.298
22.77000 25.098
22.78000 28.565
22.79000 28.253
22.80000 23.396
22.81000 23.274
22.82000 28.544
22.83000 24.240
22.84000 21.070
22.85000 24.354
22.86000 21.295
22.87000 30.263
22.88000 22.380
22.89000 30.352
22.90000 18.233
22.91000 24.230
22.92000 21.290
22.93000 26.359
22.94000 28.468
22.95000 19.153
22.96000 31.579
22.97000 38.622
22.98000 27.044
22.99000 27.224
23.00000 27.317
23.01000 27.427
23.02000 24.296
23.03000 21.316
23.04000 30.242
23.05000 26.464
23.06000 33.565
23.07000 29.548
23.08000 20.109
23.09000 19.230
23.10000 37.489
23.11000 33.325
23.12000 27.528
23.13000 23.266
23.14000 32.534
23.15000 30.322
23.16000 31.349
23.17000 26.246
23.18000 34.737
23.19000 29.367
23.20000 31.656
23.21000 27.423
23.22000 27.368
23.23000 27.406
23.24000 31.420
23.25000 20.323
23.26000 24.376
23.27000 27.495
23.28000 25.245
23.29000 35.403
23.30000 27.445
23.31000 33.230
23.32000 25.275
23.33000 26.535
23.34000 31.384
23.35000 26.414
23.36000 37.472
23.37000 34.225
23.38000 21.187
23.39000 34.488
23.40000 34.318
23.41000 30.356
23.42000 27.173
23.43000 32.661
23.44000 34.240
23.45000 35.581
23.46000 22.181
23.47000 29.413
23.48000 40.330
23.49000 34.584
23.50000 29.343
23.51000 28.427
23.52000 33.352
23.53000 30.293
23.54000 33.545
23.55000 29.315
23.56000 28.510
23.57000 31.612
23.58000 23.486
23.59000 30.279
23.60000 23.234
23.61000 24.289
23.62000 29.398
23.63000 24.339
23.64000 25.333
23.65000 26.418
23.66000 30.737
23.67000 29.496
23.68000 40.415
23.69000 21.233
23.70000 35.539
23.71000 29.318
23.72000 28.507
23.73000 27.499
23.74000 30.336
23.75000 37.350
23.76000 24.189
23.77000 39.208
23.78000 33.512
23.79000 27.428
23.80000 25.221
23.81000 33.568
23.82000 42.382
23.83000 31.257
23.84000 37.869
23.85000 27.378
23.86000 31.239
23.87000 32.369
23.88000 42.568
23.89000 41.371
23.90000 30.448
23.91000 23.478
23.92000 32.140
23.93000 36.519
23.94000 30.293
23.95000 25.423
23.96000 44.845
23.97000 38.450
23.98000 28.207
23.99000 27.212
24.00000 43.740
24.01000 36.374
24.02000 24.283
24.03000 33.214
24.04000 35.547
24.05000 28.531
24.06000 34.274
24.07000 29.260
24.08000 37.484
24.09000 33.384
24.10000 32.552
24.11000 36.524
24.12000 37.422
24.13000 34.493
24.14000 41.751
24.15000 32.402
24.16000 33.143
24.17000 29.330
24.18000 29.425
24.19000 34.541
24.20000 26.477
24.21000 38.474
24.22000 38.476
24.23000 29.462
24.24000 30.328
24.25000 30.090
24.26000 21.332
24.27000 29.281
24.28000 34.530
24.29000 36.312
24.30000 33.489
24.31000 33.547
24.32000 52.791
24.33000 30.215
24.34000 40.679
24.35000 37.444
24.36000 34.462
24.37000 35.349
24.38000 31.307
24.39000 30.361
24.40000 42.597
24.41000 32.536
24.42000 34.459
24.43000 25.575
24.44000 35.304
24.45000 33.377
24.46000 44.556
24.47000 35.479
24.48000 32.388
24.49000 34.752
24.50000 28.296
24.51000 28.306
24.52000 36.469
24.53000 36.710
24.54000 40.891
24.55000 31.340
24.56000 27.359
24.57000 42.759
24.58000 28.307
24.59000 35.358
24.60000 33.539
24.61000 35.489
24.62000 33.571
24.63000 28.401
24.64000 40.786
24.65000 42.522
24.66000 32.437
24.67000 29.140
24.68000 35.426
24.69000 32.246
24.70000 38.385
24.71000 23.427
24.72000 38.483
24.73000 40.351
24.74000 40.435
24.75000 34.461
24.76000 41.138
24.77000 39.565
24.78000 34.436
24.79000 40.495
24.80000 47.843
24.81000 40.435
24.82000 43.835
24.83000 39.688
24.84000 39.667
24.85000 43.396
24.86000 36.620
24.87000 47.614
24.88000 41.501
24.89000 25.250
24.90000 36.894
24.91000 40.682
24.92000 40.474
24.93000 38.619
24.94000 34.663
24.95000 35.495
24.96000 36.434
24.97000 43.535
24.98000 39.336
24.99000 38.527
25.00000 58.890
25.01000 35.618
25.02000 29.404
25.03000 41.427
25.04000 55.795
25.05000 36.615
25.06000 40.297
25.07000 44.456
25.08000 44.444
25.09000 43.351
25.10000 38.358
25.11000 42.682
25.12000 41.667
25.13000 54.660
25.14000 37.561
25.15000 38.477
25.16000 40.667
25.17000 49.783
25.18000 41.502
25.19000 43.767
25.20000 42.512
25.21000 41.704
25.22000 44.528
25.23000 38.659
25.24000 38.830
25.25000 45.596
25.26000 38.575
25.27000 30.412
25.28000 39.663
25.29000 44.548
25.30000 41.539
25.31000 48.857
25.32000 44.564
25.33000 43.693
25.34000 46.438
25.35000 41.597
25.36000 35.515
25.37000 45.530
25.38000 37.349
25.39000 50.510
25.40000 33.623
25.41000 42.741
25.42000 47.836
25.43000 44.672
25.44000 46.695
25.45000 42.677
25.46000 52.331
25.47000 44.670
25.48000 49.644
25.49000 35.440
25.50000 46.487
25.51000 48.774
25.52000 40.655
25.53000 48.750
25.54000 34.321
25.55000 37.502
25.56000 57.865
25.57000 39.337
25.58000 47.592
25.59000 46.530
25.60000 62.749
25.61000 37.453
25.62000 36.129
25.63000 44.678
25.64000 42.656
25.65000 32.435
25.66000 61.633
25.67000 38.397
25.68000 51.849
25.69000 40.459
25.70000 41.586
25.71000 41.628
25.72000 55.535
25.73000 35.398
25.74000 56.421
25.75000 39.408
25.76000 53.497
25.77000 39.614
25.78000 52.871
25.79000 42.439
25.80000 47.748
25.81000 47.492
25.82000 56.902
25.83000 52.797
25.84000 55.923
25.85000 54.795
25.86000 40.512
25.87000 40.601
25.88000 42.730
25.89000 47.805
25.90000 44.808
25.91000 49.539
25.92000 51.737
25.93000 52.893
25.94000 28.251
25.95000 35.675
25.96000 42.878
25.97000 41.557
25.98000 43.514
25.99000 52.894
26.00000 51.664
26.01000 41.774
26.02000 47.861
26.03000 42.890
26.04000 60.819
26.05000 45.458
26.06000 47.524
26.07000 61.674
26.08000 35.154
26.09000 52.863
26.10000 40.486
26.11000 44.555
26.12000 46.782
26.13000 40.197
26.14000 62.110
26.15000 59.763
26.16000 62.067
26.17000 56.917
26.18000 57.799
26.19000 49.607
26.20000 59.992
26.21000 45.699
26.22000 55.583
26.23000 48.817
26.24000 68.061
26.25000 48.753
26.26000 51.901
26.27000 37.434
26.28000 53.520
26.29000 60.121
26.30000 59.889
26.31000 46.590
26.32000 45.582
26.33000 48.486
26.34000 59.619
26.35000 55.873
26.36000 47.592
26.37000 44.576
26.38000 55.730
26.39000 61.960
26.40000 42.582
26.41000 50.558
26.42000 32.349
26.43000 56.885
26.44000 52.796
26.45000 46.460
26.46000 49.541
26.47000 62.602
26.48000 47.769
26.49000 52.640
26.50000 58.623
26.51000 49.578
26.52000 51.692
26.53000 41.494
26.54000 65.849
26.55000 60.982
26.56000 54.572
26.57000 52.752
26.58000 58.034
26.59000 67.117
26.60000 70.084
26.61000 55.917
26.62000 61.818
26.63000 39.497
26.64000 68.588
26.65000 47.720
26.66000 66.933
26.67000 43.733
26.68000 42.580
26.69000 53.621
26.70000 49.678
26.71000 47.834
26.72000 76.182
26.73000 49.572
26.74000 54.600
26.75000 51.666
26.76000 48.479
26.77000 55.375
26.78000 51.650
26.79000 55.842
26.80000 62.980
26.81000 57.597
26.82000 62.779
26.83000 46.486
26.84000 55.452
26.85000 54.626
26.86000 58.876
26.87000 54.998
26.88000 57.014
26.89000 61.095
26.90000 62.208
26.91000 50.705
26.92000 62.434
26.93000 68.999
26.94000 49.530
26.95000 53.569
26.96000 47.573
26.97000 56.691
26.98000 44.445
26.99000 67.870
27.00000 61.613
27.01000 52.413
27.02000 59.869
27.03000 50.435
27.04000 58.656
27.05000 56.950
27.06000 49.486
27.07000 56.862
27.08000 51.863
27.09000 48.768
27.10000 55.034
27.11000 69.981
27.12000 53.431
27.13000 56.431
27.14000 56.664
27.15000 52.651
27.16000 53.475
27.17000 48.718
27.18000 66.732
27.19000 64.107
27.20000 50.586
27.21000 68.165
27.22000 62.004
27.23000 55.324
27.24000 74.075
27.25000 73.122
27.26000 60.632
27.27000 55.108
27.28000 79.073
27.29000 52.769
27.30000 72.973
27.31000 58.664
27.32000 58.014
27.33000 58.810
27.34000 50.606
27.35000 54.686
27.36000 70.124
27.37000 56.906
27.38000 59.849
27.39000 61.788
27.40000 52.786
27.41000 60.715
27.42000 54.935
27.43000 56.855
27.44000 51.579
27.45000 57.599
27.46000 57.781
27.47000 67.075
27.48000 60.106
27.49000 52.817
27.50000 68.782
27.51000 58.893
27.52000 61.687
27.53000 69.071
27.54000 61.663
27.55000 52.498
27.56000 57.605
27.57000 57.709
27.58000 48.498
27.59000 56.870
27.60000 57.535
27.61000 46.495
27.62000 52.912
27.63000 56.790
27.64000 51.027
27.65000 49.469
27.66000 53.951
27.67000 39.719
27.68000 42.636
27.69000 41.388
27.70000 46.417
27.71000 63.665
27.72000 61.929
27.73000 41.524
27.74000 57.815
27.75000 62.921
27.76000 73.101
27.77000 47.520
27.78000 55.808
27.79000 63.771
27.80000 62.479
27.81000 43.503
27.82000 67.290
27.83000 46.419
27.84000 46.680
27.85000 65.868
27.86000 60.764
27.87000 58.627
27.88000 53.688
27.89000 58.940
27.90000 66.678
27.91000 64.840
27.92000 61.980
27.93000 47.769
27.94000 70.858
27.95000 54.838
27.96000 72.671
27.97000 59.829
27.98000 59.648
27.99000 69.879
28.00000 66.877
28.01000 58.568
28.02000 56.940
28.03000 55.895
28.04000 54.523
28.05000 54.720
28.06000 59.729
28.07000 54.562
28.08000 57.921
28.09000 56.733
28.10000 51.639
28.11000 61.041
28.12000 70.018
28.13000 57.728
28.14000 51.970
28.15000 61.886
28.16000 51.599
28.17000 56.864
28.18000 64.568
28.19000 68.856
28.20000 61.752
28.21000 64.791
28.22000 52.871
28.23000 47.692
28.24000 58.875
28.25000 59.064
28.26000 76.131
28.27000 56.714
28.28000 63.786
28.29000 60.804
28.30000 75.800
28.31000 53.593
28.32000 56.567
28.33000 47.689
28.34000 50.836
28.35000 61.740
28.36000 59.269
28.37000 67.096
28.38000 65.658
28.39000 55.916
28.40000 46.377
28.41000 41.801
28.42000 54.798
28.43000 60.841
28.44000 46.645
28.45000 57.745
28.46000 59.851
28.47000 53.614
28.48000 51.750
28.49000 50.522
28.50000 71.091
28.51000 59.513
28.52000 61.525
28.53000 51.687
28.54000 51.496
28.55000 49.987
28.56000 49.767
28.57000 58.111
28.58000 65.980
28.59000 57.906
28.60000 54.754
28.61000 55.610
28.62000 45.830
28.63000 53.652
28.64000 53.881
28.65000 58.449
28.66000 60.181
28.67000 51.686
28.68000 51.560
28.69000 50.773
28.70000 41.814
28.71000 52.391
28.72000 72.689
28.73000 52.705
28.74000 51.500
28.75000 48.449
28.76000 47.512
28.77000 55.520
28.78000 62.634
28.79000 46.709
28.80000 48.648
28.81000 48.964
28.82000 44.846
28.83000 54.715
28.84000 54.895
28.85000 42.697
28.86000 44.483
28.87000 53.587
28.88000 45.682
28.89000 48.538
28.90000 50.530
28.91000 59.937
28.92000 56.710
28.93000 48.616
28.94000 42.610
28.95000 45.657
28.96000 60.888
28.97000 59.701
28.98000 40.402
28.99000 50.583
29.00000 51.621
29.01000 55.498
29.02000 45.582
29.03000 52.516
29.04000 38.499
29.05000 43.554
29.06000 59.846
29.07000 50.777
29.08000 53.547
29.09000 45.470
29.10000 61.944
29.11000 58.670
29.12000 59.627
29.13000 65.834
29.14000 46.599
29.15000 47.905
29.16000 52.766
29.17000 38.411
29.18000 57.716
29.19000 53.360
29.20000 46.581
29.21000 52.667
29.22000 47.804
29.23000 55.947
29.24000 46.429
29.25000 50.918
29.26000 43.392
29.27000 54.065
29.28000 36.419
29.29000 56.621
29.30000 51.724
29.31000 42.407
29.32000 55.904
29.33000 44.659
29.34000 38.329
29.35000 59.934
29.36000 48.649
29.37000 36.828
29.38000 33.615
29.39000 63.890
29.40000 50.841
29.41000 55.777
29.42000 45.678
29.43000 54.793
29.44000 57.876
29.45000 48.304
29.46000 55.543
29.47000 45.404
29.48000 40.794
29.49000 43.608
29.50000 58.760
29.51000 53.102
29.52000 37.533
29.53000 41.374
29.54000 47.440
29.55000 34.431
29.56000 54.632
29.57000 46.581
29.58000 44.760
29.59000 46.814
29.60000 64.810
29.61000 34.629
29.62000 45.575
29.63000 47.601
29.64000 47.817
29.65000 47.782
29.66000 37.492
29.67000 48.929
29.68000 40.624
29.69000 32.499
29.70000 49.715
29.71000 47.555
29.72000 42.277
29.73000 62.797
29.74000 40.450
29.75000 47.581
29.76000 48.564
29.77000 42.222
29.78000 53.535
29.79000 48.261
29.80000 44.374
29.81000 45.700
29.82000 48.420
29.83000 42.546
29.84000 46.619
29.85000 59.457
29.86000 39.410
29.87000 48.842
29.88000 51.703
29.89000 54.880
29.90000 46.802
29.91000 42.322
29.92000 45.594
29.93000 55.630
29.94000 46.464
29.95000 50.844
29.96000 37.495
29.97000 48.753
29.98000 44.737
29.99000 39.687
30.00000 41.597
30.01000 48.705
30.02000 38.421
30.03000 43.812
30.04000 36.727
30.05000 49.230
30.06000 40.653
30.07000 44.611
30.08000 28.401
30.09000 35.561
30.10000 31.256
30.11000 39.573
30.12000 41.692
30.13000 33.371
30.14000 35.399
30.15000 44.474
30.16000 35.483
30.17000 48.349
30.18000 41.622
30.19000 32.409
30.20000 35.663
30.21000 35.472
30.22000 43.619
30.23000 41.541
30.24000 38.369
30.25000 40.544
30.26000 46.545
30.27000 28.216
30.28000 36.533
30.29000 42.733
30.30000 35.448
30.31000 31.314
30.32000 35.499
30.33000 29.336
30.34000 25.446
30.35000 35.426
30.36000 41.431
30.37000 34.293
30.38000 37.517
30.39000 45.638
30.40000 40.702
30.41000 42.578
30.42000 32.463
30.43000 35.196
30.44000 46.665
30.45000 39.618
30.46000 43.742
30.47000 39.159
30.48000 44.585
30.49000 36.696
30.50000 33.319
30.51000 42.329
30.52000 38.355
30.53000 33.273
30.54000 43.533
30.55000 27.386
30.56000 41.756
30.57000 41.487
30.58000 24.410
30.59000 45.656
30.60000 34.464
30.61000 38.456
30.62000 37.620
30.63000 35.672
30.64000 42.745
30.65000 27.192
30.66000 29.475
30.67000 33.499
30.68000 33.387
30.69000 37.458
30.70000 40.447
30.71000 33.636
30.72000 40.188
30.73000 31.456
30.74000 37.437
30.75000 54.678
30.76000 34.485
30.77000 41.361
30.78000 34.545
30.79000 38.322
30.80000 38.495
30.81000 25.143
30.82000 20.228
30.83000 38.403
30.84000 39.352
30.85000 40.593
30.86000 41.569
30.87000 27.519
30.88000 36.335
30.89000 36.552
30.90000 47.560
30.91000 27.357
30.92000 29.331
30.93000 40.410
30.94000 38.455
30.95000 31.628
30.96000 24.429
30.97000 33.325
30.98000 40.375
30.99000 38.498
31.00000 32.355
31.01000 36.382
31.02000 31.489
31.03000 39.379
31.04000 34.451
31.05000 33.466
31.06000 27.376
31.07000 35.518
31.08000 34.391
31.09000 32.191
31.10000 39.550
31.11000 28.217
31.12000 39.395
31.13000 36.665
31.14000 35.584
31.15000 32.460
31.16000 38.537
31.17000 42.750
31.18000 32.398
31.19000 34.418
31.20000 24.187
31.21000 27.250
31.22000 37.812
31.23000 28.546
31.24000 32.377
31.25000 30.431
31.26000 27.226
31.27000 33.852
31.28000 36.617
31.29000 25.376
31.30000 24.185
31.31000 39.604
31.32000 31.596
31.33000 26.314
31.34000 31.205
31.35000 27.300
31.36000 35.290
31.37000 30.362
31.38000 31.446
31.39000 29.391
31.40000 35.581
31.41000 23.458
31.42000 43.508
31.43000 35.289
31.44000 38.435
31.45000 32.286
31.46000 24.394
31.47000 37.469
31.48000 38.641
31.49000 34.569
31.50000 20.138
31.51000 21.417
31.52000 31.577
31.53000 27.331
31.54000 35.440
31.55000 23.082
31.56000 35.305
31.57000 25.411
31.58000 33.502
31.59000 29.505
31.60000 33.387
31.61000 26.436
31.62000 31.443
31.63000 24.311
31.64000 31.380
31.65000 35.671
31.66000 26.166
31.67000 37.245
31.68000 29.435
31.69000 30.381
31.70000 30.303
31.71000 30.475
31.72000 27.247
31.73000 17.195
31.74000 34.422
31.75000 30.328
31.76000 48.560
31.77000 33.776
31.78000 27.350
31.79000 21.280
31.80000 27.576
31.81000 31.389
31.82000 24.122
31.83000 21.188
31.84000 21.320
31.85000 29.214
31.86000 26.288
31.87000 23.169
31.88000 27.256
31.89000 26.580
31.90000 36.542
31.91000 31.424
31.92000 23.089
31.93000 17.336
31.94000 24.202
31.95000 30.374
31.96000 34.607
31.97000 30.429
31.98000 25.313
31.99000 25.260
32.00000 25.330
32.01000 31.388
32.02000 33.551
32.03000 35.354
32.04000 22.300
32.05000 38.570
32.06000 23.315
32.07000 33.481
32.08000 27.655
32.09000 34.577
32.10000 17.416
32.11000 31.566
32.12000 32.546
32.13000 26.255
32.14000 33.305
32.15000 32.397
32.16000 21.301
32.17000 37.552
32.18000 26.312
32.19000 27.446
32.20000 30.579
32.21000 22.134
32.22000 37.316
32.23000 29.241
32.24000 31.225
32.25000 34.165
32.26000 25.429
32.27000 27.359
32.28000 24.260
32.29000 28.520
32.30000 31.383
32.31000 29.439
32.32000 28.322
32.33000 25.373
32.34000 31.460
32.35000 51.510
32.36000 30.332
32.37000 36.511
32.38000 39.509
32.39000 25.404
32.40000 41.519
32.41000 31.342
32.42000 29.634
32.43000 26.397
32.44000 36.705
32.45000 27.382
32.46000 27.191
32.47000 39.441
32.48000 29.506
32.49000 33.444
32.50000 25.178
32.51000 29.355
32.52000 30.386
32.53000 26.183
32.54000 21.344
32.55000 26.386
32.56000 28.287
32.57000 33.651
32.58000 32.425
32.59000 26.177
32.60000 41.292
32.61000 37.351
32.62000 36.405
32.63000 24.320
32.64000 32.364
32.65000 32.325
32.66000 16.075
32.67000 31.185
32.68000 27.165
32.69000 25.091
32.70000 19.337
32.71000 29.351
32.72000 32.454
32.73000 25.334
32.74000 30.389
32.75000 27.465
32.76000 36.349
32.77000 29.661
32.78000 18.188
32.79000 18.212
32.80000 26.378
32.81000 23.403
32.82000 14.156
32.83000 24.296
32.84000 29.390
32.85000 21.363
32.86000 33.517
32.87000 32.379
32.88000 26.511
32.89000 15.147
32.90000 27.359
32.91000 26.456
32.92000 28.328
32.93000 27.449
32.94000 20.230
32.95000 18.231
32.96000 17.107
32.97000 28.273
32.98000 21.343
32.99000 24.067
33.00000 21.440
33.01000 14.214
33.02000 21.462
33.03000 23.323
33.04000 19.221
33.05000 28.275
33.06000 23.180
33.07000 19.080
33.08000 21.623
33.09000 19.118
33.10000 22.585
33.11000 29.349
33.12000 25.442
33.13000 20.145
33.14000 30.401
33.15000 21.109
33.16000 25.070
33.17000 16.049
33.18000 21.209
33.19000 28.326
33.20000 25.239
33.21000 20.071
33.22000 31.213
33.23000 24.464
33.24000 30.479
33.25000 13.101
33.26000 20.327
33.27000 24.575
33.28000 18.349
33.29000 27.163
33.30000 19.281
33.31000 20.231
33.32000 12.117
33.33000 24.322
33.34000 20.127
33.35000 19.381
33.36000 22.174
33.37000 16.274
33.38000 26.481
33.39000 21.369
33.40000 20.319
33.41000 29.172
33.42000 15.153
33.43000 21.010
33.44000 21.143
33.45000 25.238
33.46000 24.498
33.47000 20.058
33.48000 21.479
33.49000 24.256
33.50000 19.415
33.51000 27.188
33.52000 17.335
33.53000 22.237
33.54000 15.210
33.55000 13.147
33.56000 22.124
33.57000 14.330
33.58000 18.414
33.59000 22.300
33.60000 27.417
33.61000 15.195
33.62000 21.308
33.63000 15.291
33.64000 20.399
33.65000 17.181
33.66000 20.367
33.67000 9.130
33.68000 27.363
33.69000 15.098
33.70000 21.236
33.71000 24.471
33.72000 24.217
33.73000 20.265
33.74000 22.407
33.75000 12.050
33.76000 20.218
33.77000 16.093
33.78000 24.453
33.79000 19.153
33.80000 26.318
33.81000 26.221
33.82000 21.174
33.83000 31.379
33.84000 20.224
33.85000 15.321
33.86000 27.467
33.87000 23.515
33.88000 25.342
33.89000 15.239
33.90000 13.038
33.91000 23.346
33.92000 24.349
33.93000 25.349
33.94000 19.323
33.95000 21.194
33.96000 16.202
33.97000 13.017
33.98000 16.280
33.99000 16.431
34.00000 22.311
34.01000 20.247
34.02000 21.175
34.03000 24.044
34.04000 17.417
34.05000 19.216
34.06000 17.207
34.07000 22.261
34.08000 24.413
34.09000 19.352
34.10000 21.248
34.11000 17.260
34.12000 22.250
34.13000 13.161
34.14000 18.099
34.15000 20.107
34.16000 20.401
34.17000 21.402
34.18000 13.174
34.19000 22.299
34.20000 14.128
34.21000 17.238
34.22000 23.183
34.23000 21.272
34.24000 23.269
34.25000 18.276
34.26000 12.282
34.27000 18.256
34.28000 15.300
34.29000 18.281
34.30000 16.288
34.31000 14.184
34.32000 18.264
34.33000 20.230
34.34000 12.250
34.35000 14.152
34.36000 14.081
34.37000 16.991
34.38000 12.053
34.39000 10.078
34.40000 21.181
34.41000 25.582
34.42000 23.297
34.43000 17.261
34.44000 24.270
34.45000 16.371
34.46000 12.239
34.47000 12.143
34.48000 18.331
34.49000 19.156
34.50000 21.258
34.51000 18.328
34.52000 20.268
34.53000 18.129
34.54000 29.366
34.55000 21.341
34.56000 16.030
34.57000 13.150
34.58000 16.424
34.59000 17.142
34.60000 23.367
34.61000 16.160
34.62000 23.474
34.63000 11.246
34.64000 17.108
34.65000 17.257
34.66000 27.334
34.67000 21.157
34.68000 20.264
34.69000 13.078
34.70000 22.529
34.71000 18.277
34.72000 21.227
34.73000 17.411
34.74000 21.439
34.75000 18.180
34.76000 21.204
34.77000 15.177
34.78000 16.190
34.79000 16.302
34.80000 10.043
34.81000 18.124
34.82000 26.356
34.83000 18.197
34.84000 24.257
34.85000 21.321
34.86000 18.377
34.87000 19.377
34.88000 21.356
34.89000 19.399
34.90000 20.426
34.91000 22.351
34.92000 20.327
34.93000 20.317
34.94000 24.266
34.95000 22.249
34.96000 18.274
34.97000 21.398
34.98000 22.570
34.99000 27.367
35.00000 21.082
35.01000 14.118
35.02000 20.165
35.03000 19.984
35.04000 21.127
35.05000 26.246
35.06000 22.274
35.07000 11.220
35.08000 17.225
35.09000 15.292
35.10000 19.218
35.11000 12.340
35.12000 30.441
35.13000 11.094
35.14000 19.566
35.15000 22.238
35.16000 26.259
35.17000 15.338
35.18000 18.152
35.19000 17.364
35.20000 24.310
35.21000 29.214
35.22000 21.257
35.23000 17.238
35.24000 20.178
35.25000 20.356
35.26000 15.253
35.27000 12.139
35.28000 23.466
35.29000 24.437
35.30000 13.177
35.31000 18.142
35.32000 17.294
35.33000 18.108
35.34000 21.215
35.35000 18.133
35.36000 13.082
35.37000 25.406
35.38000 24.245
35.39000 19.317
35.40000 20.151
35.41000 19.228
35.42000 19.202
35.43000 20.124
35.44000 23.335
35.45000 24.364
35.46000 15.271
35.47000 25.272
35.48000 19.113
35.49000 22.244
35.50000 20.189
35.51000 17.203
35.52000 16.304
35.53000 22.550
35.54000 4.056
35.55000 12.144
35.56000 17.011
35.57000 26.339
35.58000 18.334
35.59000 19.244
35.60000 14.168
35.61000 25.366
35.62000 17.256
35.63000 16.180
35.64000 7.009
35.65000 22.248
35.66000 17.091
35.67000 19.317
35.68000 17.194
35.69000 14.144
35.70000 16.325
35.71000 30.344
35.72000 19.140
35.73000 15.327
35.74000 25.384
35.75000 15.094
35.76000 19.214
35.77000 19.244
35.78000 28.430
35.79000 25.412
35.80000 16.307
35.81000 20.297
35.82000 20.221
35.83000 11.047
35.84000 14.479
35.85000 18.215
35.86000 11.060
35.87000 25.408
35.88000 17.251
35.89000 14.187
35.90000 23.341
35.91000 21.033
35.92000 19.150
35.93000 15.033
35.94000 16.194
35.95000 18.361
35.96000 22.252
35.97000 17.339
35.98000 20.259
35.99000 25.473
36.00000 18.123
36.01000 23.171
36.02000 11.226
36.03000 16.299
36.04000 15.092
36.05000 17.179
36.06000 25.218
36.07000 22.462
36.08000 18.378
36.09000 18.296
36.10000 24.214
36.11000 26.112
36.12000 21.246
36.13000 13.171
36.14000 16.193
36.15000 26.572
36.16000 18.318
36.17000 17.080
36.18000 22.255
36.19000 28.438
36.20000 18.273
36.21000 9.290
36.22000 20.135
36.23000 17.142
36.24000 21.293
36.25000 16.270
36.26000 19.256
36.27000 21.429
36.28000 16.317
36.29000 11.259
36.30000 14.951
36.31000 35.577
36.32000 15.336
36.33000 20.370
36.34000 16.027
36.35000 23.380
36.36000 10.113
36.37000 18.119
36.38000 9.104
36.39000 17.114
36.40000 17.328
36.41000 17.148
36.42000 19.349
36.43000 22.161
36.44000 25.187
36.45000 17.993
36.46000 17.200
36.47000 22.191
36.48000 23.379
36.49000 28.267
36.50000 15.087
36.51000 25.445
36.52000 18.369
36.53000 20.240
36.54000 18.236
36.55000 19.226
36.56000 13.205
36.57000 18.367
36.58000 22.149
36.59000 20.399
36.60000 27.349
36.61000 11.139
36.62000 17.121
36.63000 21.173
36.64000 14.066
36.65000 9.117
36.66000 31.332
36.67000 13.220
36.68000 27.530
36.69000 12.066
36.70000 21.120
36.71000 14.077
36.72000 26.353
36.73000 20.210
36.74000 16.169
36.75000 25.362
36.76000 12.031
36.77000 19.127
36.78000 18.328
36.79000 27.561
36.80000 16.129
36.81000 25.492
36.82000 18.234
36.83000 19.041
36.84000 16.223
36.85000 18.126
36.86000 21.312
36.87000 22.258
36.88000 25.129
36.89000 25.283
36.90000 27.341
36.91000 18.214
36.92000 18.183
36.93000 14.297
36.94000 19.149
36.95000 16.253
36.96000 22.182
36.97000 21.308
36.98000 19.289
36.99000 15.099
37.00000 20.221
37.01000 16.216
37.02000 19.204
37.03000 16.388
37.04000 18.372
37.05000 26.305
37.06000 18.224
37.07000 20.376
37.08000 15.111
37.09000 23.102
37.10000 25.149
37.11000 18.171
37.12000 16.192
37.13000 25.349
37.14000 26.294
37.15000 19.279
37.16000 16.212
37.17000 21.025
37.18000 25.169
37.19000 18.184
37.20000 15.243
37.21000 23.415
37.22000 20.356
37.23000 24.304
37.24000 23.490
37.25000 13.089
37.26000 20.382
37.27000 11.023
37.28000 19.470
37.29000 19.988
37.30000 28.229
37.31000 21.098
37.32000 26.225
37.33000 23.302
37.34000 14.134
37.35000 22.236
37.36000 18.181
37.37000 12.137
37.38000 20.333
37.39000 26.502
37.40000 22.359
37.41000 16.179
37.42000 17.361
37.43000 21.283
37.44000 25.139
37.45000 22.530
37.46000 22.096
37.47000 16.404
37.48000 24.330
37.49000 22.442
37.50000 15.127
37.51000 23.418
37.52000 23.371
37.53000 26.324
37.54000 17.168
37.55000 21.349
37.56000 22.421
37.57000 15.277
37.58000 17.179
37.59000 19.411
37.60000 13.291
37.61000 12.171
37.62000 26.300
37.63000 13.016
37.64000 17.202
37.65000 20.270
37.66000 30.593
37.67000 19.254
37.68000 13.078
37.69000 34.495
37.70000 19.210
37.71000 20.300
37.72000 12.113
37.73000 23.162
37.74000 24.382
37.75000 19.102
37.76000 17.293
37.77000 19.402
37.78000 24.165
37.79000 21.250
37.80000 24.208
37.81000 27.264
37.82000 23.394
37.83000 22.385
37.84000 22.451
37.85000 19.136
37.86000 14.269
37.87000 23.102
37.88000 25.272
37.89000 25.215
37.90000 17.103
37.91000 18.276
37.92000 22.202
37.93000 25.398
37.94000 25.279
37.95000 18.207
37.96000 19.264
37.97000 26.363
37.98000 20.267
37.99000 24.359
38.00000 14.179
38.01000 14.243
38.02000 20.201
38.03000 21.246
38.04000 28.524
38.05000 28.473
38.06000 15.150
38.07000 21.353
38.08000 16.197
38.09000 20.270
38.10000 12.985
38.11000 20.319
38.12000 9.170
38.13000 17.050
38.14000 21.380
38.15000 24.336
38.16000 24.341
38.17000 16.201
38.18000 20.256
38.19000 14.062
38.20000 20.244
38.21000 23.284
38.22000 20.217
38.23000 24.109
38.24000 23.150
38.25000 25.298
38.26000 24.419
38.27000 22.427
38.28000 22.127
38.29000 24.021
38.30000 25.405
38.31000 30.436
38.32000 19.226
38.33000 16.175
38.34000 25.371
38.35000 13.160
38.36000 16.379
38.37000 16.148
38.38000 23.358
38.39000 17.134
38.40000 13.242
38.41000 23.282
38.42000 15.230
38.43000 22.366
38.44000 16.161
38.45000 22.295
38.46000 21.220
38.47000 18.200
38.48000 21.353
38.49000 19.348
38.50000 23.305
38.51000 19.254
38.52000 17.145
38.53000 19.162
38.54000 29.220
38.55000 15.294
38.56000 18.936
38.57000 13.299
38.58000 24.285
38.59000 19.027
38.60000 26.291
38.61000 24.273
38.62000 20.221
38.63000 20.069
38.64000 23.285
38.65000 19.315
38.66000 21.366
38.67000 25.551
38.68000 29.412
38.69000 9.079
38.70000 26.243
38.71000 30.243
38.72000 17.342
38.73000 29.571
38.74000 25.222
38.75000 20.276
38.76000 23.438
38.77000 28.441
38.78000 25.051
38.79000 25.450
38.80000 27.454
38.81000 18.033
38.82000 23.424
38.83000 16.172
38.84000 24.094
38.85000 19.259
38.86000 24.263
38.87000 26.290
38.88000 13.156
38.89000 30.885
38.90000 22.146
38.91000 24.359
38.92000 25.197
38.93000 23.484
38.94000 27.426
38.95000 24.385
38.96000 24.341
38.97000 23.157
38.98000 21.383
38.99000 21.336
39.00000 26.502
39.01000 13.091
39.02000 21.264
39.03000 23.414
39.04000 17.105
39.05000 15.043
39.06000 19.441
39.07000 22.230
39.08000 24.469
39.09000 14.181
39.10000 21.133
39.11000 22.187
39.12000 20.265
39.13000 19.165
39.14000 27.388
39.15000 19.470
39.16000 16.129
39.17000 36.779
39.18000 24.327
39.19000 33.430
39.20000 22.454
39.21000 19.203
39.22000 29.403
39.23000 23.152
39.24000 20.321
39.25000 31.322
39.26000 24.362
39.27000 27.449
39.28000 16.084
39.29000 27.454
39.30000 24.035
39.31000 36.351
39.32000 22.137
39.33000 23.250
39.34000 22.235
39.35000 18.029
39.36000 26.274
39.37000 22.177
39.38000 19.335
39.39000 17.170
39.40000 27.341
39.41000 20.253
39.42000 23.117
39.43000 21.369
39.44000 30.438
39.45000 18.427
39.46000 20.248
39.47000 24.302
39.48000 18.134
39.49000 23.161
39.50000 14.117
39.51000 22.110
39.52000 22.333
39.53000 17.153
39.54000 28.300
39.55000 22.295
39.56000 26.601
39.57000 17.143
39.58000 17.183
39.59000 27.327
39.60000 23.337
39.61000 26.302
39.62000 17.271
39.63000 22.086
39.64000 21.165
39.65000 13.102
39.66000 19.237
39.67000 22.278
39.68000 27.318
39.69000 25.342
39.70000 22.362
39.71000 22.260
39.72000 27.350
39.73000 22.361
39.74000 26.421
39.75000 26.477
39.76000 23.176
39.77000 24.357
39.78000 22.486
39.79000 33.409
39.80000 19.349
39.81000 29.534
39.82000 20.203
39.83000 23.179
39.84000 21.150
39.85000 19.474
39.86000 27.306
39.87000 17.458
39.88000 13.115
39.89000 15.220
39.90000 24.321
39.91000 18.255
39.92000 31.385
39.93000 30.385
39.94000 20.304
39.95000 21.260
39.96000 25.300
39.97000 25.358
39.98000 21.311
39.99000 25.234
40.00000 21.211
40.01000 27.184
40.02000 28.562
40.03000 23.198
40.04000 19.188
40.05000 28.379
40.06000 20.294
40.07000 20.417
40.08000 25.349
40.09000 15.141
40.10000 26.344
40.11000 25.563
40.12000 19.175
40.13000 18.174
40.14000 21.222
40.15000 20.290
40.16000 28.464
40.17000 25.224
40.18000 15.401
40.19000 20.187
40.20000 24.207
40.21000 28.477
40.22000 24.559
40.23000 30.279
40.24000 18.305
40.25000 25.254
40.26000 22.139
40.27000 19.216
40.28000 21.218
40.29000 21.195
40.30000 25.569
40.31000 21.296
40.32000 25.287
40.33000 30.335
40.34000 26.329
40.35000 29.520
40.36000 25.257
40.37000 18.211
40.38000 20.242
40.39000 26.353
40.40000 22.159
40.41000 14.994
40.42000 27.422
40.43000 18.264
40.44000 24.325
40.45000 20.366
40.46000 20.220
40.47000 22.241
40.48000 27.160
40.49000 22.212
40.50000 30.626
40.51000 27.162
40.52000 13.183
40.53000 13.082
40.54000 24.279
40.55000 18.253
40.56000 26.354
40.57000 29.376
40.58000 22.144
40.59000 18.168
40.60000 21.266
40.61000 18.248
40.62000 22.167
40.63000 17.310
40.64000 17.372
40.65000 18.188
40.66000 21.137
40.67000 20.298
40.68000 23.155
40.69000 26.513
40.70000 28.425
40.71000 18.345
40.72000 21.286
40.73000 15.382
40.74000 23.293
40.75000 19.128
40.76000 28.203
40.77000 24.522
40.78000 27.365
40.79000 18.220
40.80000 27.429
40.81000 22.429
40.82000 27.540
40.83000 28.549
40.84000 25.221
40.85000 20.590
40.86000 23.383
40.87000 17.327
40.88000 15.267
40.89000 27.267
40.90000 20.930
40.91000 23.248
40.92000 32.595
40.93000 20.226
40.94000 22.269
40.95000 16.476
40.96000 9.166
40.97000 29.515
40.98000 16.214
40.99000 22.388
41.00000 23.221
41.01000 22.377
41.02000 20.080
41.03000 19.388
41.04000 15.154
41.05000 24.221
41.06000 16.105
41.07000 15.339
41.08000 29.436
41.09000 24.345
41.10000 16.240
41.11000 23.375
41.12000 18.173
41.13000 25.366
41.14000 24.338
41.15000 20.148
41.16000 23.345
41.17000 10.112
41.18000 21.415
41.19000 23.292
41.20000 26.304
41.21000 23.503
41.22000 29.081
41.23000 27.357
41.24000 26.504
41.25000 21.388
41.26000 27.212
41.27000 19.438
41.28000 26.285
41.29000 23.273
41.30000 18.279
41.31000 20.314
41.32000 24.420
41.33000 21.206
41.34000 14.159
41.35000 16.326
41.36000 27.208
41.37000 33.311
41.38000 25.319
41.39000 19.343
41.40000 24.348
41.41000 19.182
41.42000 24.409
41.43000 19.389
41.44000 31.085
41.45000 22.257
41.46000 27.447
41.47000 17.296
41.48000 17.331
41.49000 24.323
41.50000 21.278
41.51000 25.593
41.52000 29.176
41.53000 25.429
41.54000 27.217
41.55000 18.304
41.56000 17.383
41.57000 24.206
41.58000 17.231
41.59000 26.573
41.60000 33.579
41.61000 28.243
41.62000 20.447
41.63000 23.191
41.64000 35.330
41.65000 17.143
41.66000 13.173
41.67000 23.249
41.68000 27.229
41.69000 27.433
41.70000 20.148
41.71000 23.421
41.72000 23.184
41.73000 21.207
41.74000 26.602
41.75000 11.124
41.76000 22.200
41.77000 20.136
41.78000 19.332
41.79000 24.411
41.80000 18.301
41.81000 22.277
41.82000 27.304
41.83000 21.180
41.84000 20.232
41.85000 21.308
41.86000 24.394
41.87000 23.203
41.88000 29.489
41.89000 21.190
41.90000 11.114
41.91000 22.203
41.92000 16.304
41.93000 15.395
41.94000 20.203
41.95000 33.211
41.96000 14.150
41.97000 20.082
41.98000 21.366
41.99000 15.188
42.00000 19.269
42.01000 13.082
42.02000 24.354
42.03000 20.304
42.04000 23.357
42.05000 20.353
42.06000 21.258
42.07000 33.610
42.08000 25.241
42.09000 18.309
42.10000 19.184
42.11000 20.122
42.12000 22.045
42.13000 19.157
42.14000 25.298
42.15000 16.244
42.16000 24.316
42.17000 21.460
42.18000 25.090
42.19000 25.327
42.20000 30.388
42.21000 25.329
42.22000 36.550
42.23000 21.264
42.24000 26.465
42.25000 17.101
42.26000 20.281
42.27000 28.392
42.28000 23.371
42.29000 18.247
42.30000 15.160
42.31000 22.307
42.32000 24.242
42.33000 25.483
42.34000 21.165
42.35000 19.212
42.36000 26.364
42.37000 20.388
42.38000 17.400
42.39000 22.393
42.40000 17.131
42.41000 13.250
42.42000 25.294
42.43000 23.171
42.44000 25.232
42.45000 12.091
42.46000 23.566
42.47000 20.333
42.48000 15.115
42.49000 23.179
42.50000 9.115
42.51000 24.223
42.52000 23.301
42.53000 16.054
42.54000 15.183
42.55000 26.324
42.56000 25.462
42.57000 20.323
42.58000 19.254
42.59000 21.369
42.60000 39.532
42.61000 13.199
42.62000 22.413
42.63000 27.236
42.64000 24.215
42.65000 23.237
42.66000 26.357
42.67000 15.215
42.68000 21.327
42.69000 20.156
42.70000 18.132
42.71000 19.152
42.72000 18.356
42.73000 24.415
42.74000 29.550
42.75000 22.143
42.76000 23.372
42.77000 25.485
42.78000 14.153
42.79000 26.233
42.80000 12.180
42.81000 19.218
42.82000 16.288
42.83000 23.385
42.84000 24.311
42.85000 11.047
42.86000 15.106
42.87000 22.242
42.88000 25.425
42.89000 23.345
42.90000 21.378
42.91000 28.477
42.92000 15.261
42.93000 24.409
42.94000 12.311
42.95000 23.335
42.96000 23.448
42.97000 22.393
42.98000 19.260
42.99000 22.356
43.00000 18.340
43.01000 18.193
43.02000 17.126
43.03000 23.243
43.04000 20.171
43.05000 20.381
43.06000 16.309
43.07000 28.585
43.08000 19.468
43.09000 19.300
43.10000 18.235
43.11000 19.497
43.12000 17.198
43.13000 17.268
43.14000 24.362
43.15000 10.168
43.16000 19.417
43.17000 20.336
43.18000 24.656
43.19000 17.308
43.20000 21.240
43.21000 12.191
43.22000 27.345
43.23000 16.234
43.24000 12.175
43.25000 12.071
43.26000 22.302
43.27000 22.225
43.28000 17.295
43.29000 24.297
43.30000 14.246
43.31000 22.153
43.32000 25.216
43.33000 17.198
43.34000 17.234
43.35000 23.337
43.36000 26.399
43.37000 14.174
43.38000 25.561
43.39000 21.053
43.40000 27.374
43.41000 21.429
43.42000 15.321
43.43000 14.059
43.44000 17.130
43.45000 21.202
43.46000 19.114
43.47000 16.236
43.48000 21.229
43.49000 24.277
43.50000 21.173
43.51000 24.349
43.52000 24.195
43.53000 17.477
43.54000 14.206
43.55000 15.995
43.56000 19.482
43.57000 37.837
43.58000 16.034
43.59000 17.207
43.60000 25.647
43.61000 22.088
43.62000 23.586
43.63000 25.352
43.64000 17.403
43.65000 23.471
43.66000 22.140
43.67000 17.301
43.68000 20.096
43.69000 24.099
43.70000 27.464
43.71000 16.141
43.72000 19.252
43.73000 17.268
43.74000 14.222
43.75000 18.443
43.76000 23.269
43.77000 19.250
43.78000 28.620
43.79000 18.136
43.80000 18.285
43.81000 24.350
43.82000 22.214
43.83000 20.222
43.84000 18.407
43.85000 14.243
43.86000 17.223
43.87000 26.283
43.88000 25.330
43.89000 13.055
43.90000 27.533
43.91000 23.328
43.92000 19.256
43.93000 15.186
43.94000 25.283
43.95000 21.272
43.96000 13.229
43.97000 27.552
43.98000 18.120
43.99000 29.362
44.00000 23.096
44.01000 21.286
44.02000 25.326
44.03000 24.288
44.04000 27.347
44.05000 12.043
44.06000 21.304
44.07000 21.347
44.08000 20.113
44.09000 18.249
44.10000 16.148
44.11000 16.180
44.12000 21.481
44.13000 15.174
44.14000 17.150
44.15000 27.426
44.16000 26.392
44.17000 16.177
44.18000 26.395
44.19000 24.272
44.20000 22.431
44.21000 18.168
44.22000 17.174
44.23000 17.417
44.24000 23.108
44.25000 17.320
44.26000 17.129
44.27000 19.222
44.28000 25.263
44.29000 21.401
44.30000 18.126
44.31000 23.312
44.32000 15.386
44.33000 24.388
44.34000 13.359
44.35000 24.575
44.36000 24.328
44.37000 22.311
44.38000 23.258
44.39000 24.205
44.40000 21.297
44.41000 20.219
44.42000 10.210
44.43000 13.314
44.44000 29.362
44.45000 17.389
44.46000 17.221
44.47000 28.444
44.48000 20.246
44.49000 19.381
44.50000 21.194
44.51000 20.244
44.52000 28.470
44.53000 25.179
44.54000 24.243
44.55000 13.184
44.56000 26.210
44.57000 18.243
44.58000 19.264
44.59000 25.196
44.60000 22.203
44.61000 26.471
44.62000 14.126
44.63000 22.547
44.64000 27.263
44.65000 18.290
44.66000 26.379
44.67000 19.279
44.68000 23.360
44.69000 21.287
44.70000 29.094
44.71000 26.294
44.72000 15.111
44.73000 23.168
44.74000 18.172
44.75000 23.336
44.76000 19.278
44.77000 16.184
44.78000 12.206
44.79000 25.357
44.80000 18.173
44.81000 22.237
44.82000 23.301
44.83000 21.328
44.84000 26.210
44.85000 17.123
44.86000 20.259
44.87000 14.219
44.88000 23.144
44.89000 22.319
44.90000 14.041
44.91000 24.285
44.92000 24.225
44.93000 16.368
44.94000 24.381
44.95000 29.465
44.96000 16.113
44.97000 19.043
44.98000 23.266
44.99000 18.371
45.00000 11.073
45.01000 19.028
45.02000 31.535
45.03000 25.188
45.04000 21.330
45.05000 11.055
45.06000 27.418
45.07000 18.249
45.08000 19.210
45.09000 19.230
45.10000 20.149
45.11000 28.262
45.12000 20.265
45.13000 25.405
45.14000 29.266
45.15000 23.153
45.16000 20.253
45.17000 23.206
45.18000 20.161
45.19000 22.197
45.20000 18.019
45.21000 19.220
45.22000 18.177
45.23000 27.394
45.24000 20.256
45.25000 29.218
45.26000 20.264
45.27000 24.413
45.28000 22.251
45.29000 18.390
45.30000 22.346
45.31000 20.212
45.32000 24.402
45.33000 22.295
45.34000 23.237
45.35000 22.389
45.36000 23.368
45.37000 22.486
45.38000 23.319
45.39000 19.150
45.40000 21.437
45.41000 29.269
45.42000 14.275
45.43000 22.091
45.44000 19.286
45.45000 15.202
45.46000 18.379
45.47000 20.341
45.48000 23.105
45.49000 23.376
45.50000 24.523
45.51000 33.439
45.52000 28.390
45.53000 22.374
45.54000 23.070
45.55000 21.102
45.56000 28.242
45.57000 13.348
45.58000 24.249
45.59000 14.117
45.60000 20.186
45.61000 18.241
45.62000 21.303
45.63000 20.028
45.64000 25.183
45.65000 21.330
45.66000 22.236
45.67000 18.215
45.68000 30.518
45.69000 18.270
45.70000 26.350
45.71000 20.097
45.72000 16.227
45.73000 17.307
45.74000 15.122
45.75000 24.269
45.76000 26.476
45.77000 21.216
45.78000 22.381
45.79000 20.274
45.80000 16.118
45.81000 25.252
45.82000 19.368
45.83000 26.449
45.84000 12.152
45.85000 16.178
45.86000 18.214
45.87000 22.309
45.88000 16.350
45.89000 20.535
45.90000 21.292
45.91000 16.163
45.92000 23.261
45.93000 17.557
45.94000 22.375
45.95000 27.552
45.96000 27.803
45.97000 18.393
45.98000 23.372
45.99000 20.130
46.00000 25.214
46.01000 16.275
46.02000 21.223
46.03000 16.298
46.04000 19.336
46.05000 19.265
46.06000 13.239
46.07000 23.325
46.08000 19.099
46.09000 19.216
46.10000 17.170
46.11000 28.427
46.12000 24.282
46.13000 18.243
46.14000 18.296
46.15000 20.379
46.16000 17.206
46.17000 29.520
46.18000 18.260
46.19000 22.362
46.20000 21.175
46.21000 15.272
46.22000 23.538
46.23000 18.171
46.24000 14.267
46.25000 19.402
46.26000 30.734
46.27000 19.304
46.28000 22.171
46.29000 20.415
46.30000 24.318
46.31000 25.266
46.32000 27.260
46.33000 19.302
46.34000 26.556
46.35000 30.310
46.36000 18.277
46.37000 20.306
46.38000 33.492
46.39000 28.449
46.40000 12.239
46.41000 25.390
46.42000 20.391
46.43000 20.267
46.44000 23.417
46.45000 25.172
46.46000 22.433
46.47000 18.176
46.48000 20.185
46.49000 23.362
46.50000 21.432
46.51000 22.279
46.52000 22.223
46.53000 23.332
46.54000 26.244
46.55000 19.529
46.56000 18.176
46.57000 20.226
46.58000 23.517
46.59000 16.200
46.60000 19.100
46.61000 27.458
46.62000 23.221
46.63000 31.418
46.64000 20.393
46.65000 19.071
46.66000 20.154
46.67000 25.185
46.68000 18.211
46.69000 28.510
46.70000 31.514
46.71000 16.152
46.72000 23.318
46.73000 14.094
46.74000 20.237
46.75000 38.557
46.76000 17.181
46.77000 25.389
46.78000 27.263
46.79000 27.228
46.80000 17.149
46.81000 22.430
46.82000 18.201
46.83000 25.311
46.84000 15.183
46.85000 30.406
46.86000 22.259
46.87000 25.366
46.88000 23.257
46.89000 15.172
46.90000 34.390
46.91000 19.214
46.92000 26.483
46.93000 24.215
46.94000 22.278
46.95000 27.463
46.96000 33.419
46.97000 17.042
46.98000 14.287
46.99000 18.161
47.00000 28.271
47.01000 21.348
47.02000 27.375
47.03000 22.350
47.04000 17.158
47.05000 20.233
47.06000 27.275
47.07000 20.317
47.08000 24.204
47.09000 20.353
47.10000 16.151
47.11000 23.523
47.12000 28.380
47.13000 22.139
47.14000 13.143
47.15000 15.184
47.16000 15.290
47.17000 30.314
47.18000 27.050
47.19000 12.115
47.20000 18.230
47.21000 18.191
47.22000 20.357
47.23000 16.345
47.24000 20.303
47.25000 23.333
47.26000 15.151
47.27000 19.343
47.28000 28.115
47.29000 24.159
47.30000 17.572
47.31000 19.154
47.32000 21.216
47.33000 14.124
47.34000 17.182
47.35000 23.332
47.36000 19.213
47.37000 22.477
47.38000 22.286
47.39000 24.430
47.40000 8.054
47.41000 13.047
47.42000 22.276
47.43000 18.166
47.44000 18.139
47.45000 25.324
47.46000 21.138
47.47000 19.105
47.48000 14.189
47.49000 13.406
47.50000 20.246
47.51000 18.345
47.52000 25.379
47.53000 25.417
47.54000 23.311
47.55000 19.214
47.56000 18.143
47.57000 16.242
47.58000 14.202
47.59000 21.354
47.60000 22.189
47.61000 27.296
47.62000 20.322
47.63000 23.295
47.64000 24.331
47.65000 26.468
47.66000 14.110
47.67000 21.178
47.68000 20.176
47.69000 23.436
47.70000 29.474
47.71000 24.479
47.72000 19.219
47.73000 22.257
47.74000 16.204
47.75000 25.178
47.76000 20.142
47.77000 26.354
47.78000 16.223
47.79000 17.321
47.80000 24.246
47.81000 23.350
47.82000 22.337
47.83000 19.313
47.84000 20.080
47.85000 18.330
47.86000 15.032
47.87000 19.219
47.88000 21.299
47.89000 17.301
47.90000 19.221
47.91000 19.272
47.92000 23.275
47.93000 26.413
47.94000 17.168
47.95000 14.074
47.96000 8.110
47.97000 20.311
47.98000 28.397
47.99000 26.287
48.00000 19.179
48.01000 23.390
48.02000 18.149
48.03000 27.140
48.04000 23.204
48.05000 26.437
48.06000 14.128
48.07000 19.371
48.08000 14.030
48.09000 23.243
48.10000 13.280
48.11000 19.158
48.12000 16.236
48.13000 21.293
48.14000 14.967
48.15000 19.126
48.16000 29.209
48.17000 24.251
48.18000 14.143
48.19000 16.205
48.20000 17.401
48.21000 20.290
48.22000 27.709
48.23000 24.708
48.24000 14.113
48.25000 21.440
48.26000 21.328
48.27000 23.461
48.28000 22.436
48.29000 16.216
48.30000 20.050
48.31000 15.080
48.32000 20.345
48.33000 18.987
48.34000 12.181
48.35000 20.389
48.36000 19.324
48.37000 14.073
48.38000 19.150
48.39000 16.165
48.40000 10.224
48.41000 25.535
48.42000 12.169
48.43000 19.337
48.44000 20.277
48.45000 17.415
48.46000 26.133
48.47000 21.329
48.48000 24.184
48.49000 17.205
48.50000 21.149
48.51000 25.140
48.52000 18.113
48.53000 24.048
48.54000 24.379
48.55000 18.090
48.56000 16.325
48.57000 17.623
48.58000 28.665
48.59000 21.106
48.60000 13.001
48.61000 21.360
48.62000 25.253
48.63000 18.027
48.64000 21.132
48.65000 16.354
48.66000 25.364
48.67000 20.297
48.68000 19.223
48.69000 11.023
48.70000 21.391
48.71000 22.498
48.72000 10.158
48.73000 19.268
48.74000 15.529
48.75000 8.142
48.76000 18.563
48.77000 21.310
48.78000 19.172
48.79000 18.356
48.80000 13.231
48.81000 22.105
48.82000 16.241
48.83000 13.103
48.84000 22.135
48.85000 15.159
48.86000 16.128
48.87000 23.380
48.88000 23.521
48.89000 14.375
48.90000 12.191
48.91000 18.320
48.92000 15.108
48.93000 19.200
48.94000 16.252
48.95000 10.091
48.96000 18.255
48.97000 14.243
48.98000 12.073
48.99000 12.120
49.00000 20.274
49.01000 24.153
49.02000 19.175
49.03000 18.314
49.04000 24.500
49.05000 20.487
49.06000 21.261
49.07000 26.517
49.08000 16.200
49.09000 13.177
49.10000 12.115
49.11000 12.220
49.12000 14.086
49.13000 22.430
49.14000 15.058
49.15000 19.244
49.16000 18.244
49.17000 9.041
49.18000 21.306
49.19000 22.342
49.20000 17.101
49.21000 13.245
49.22000 27.106
49.23000 20.229
49.24000 12.209
49.25000 19.374
49.26000 19.225
49.27000 18.244
49.28000 23.388
49.29000 22.407
49.30000 27.277
49.31000 18.258
49.32000 16.106
49.33000 13.152
49.34000 16.312
49.35000 22.110
49.36000 19.143
49.37000 21.135
49.38000 21.332
49.39000 16.361
49.40000 24.235
49.41000 23.227
49.42000 17.032
49.43000 15.246
49.44000 9.996
49.45000 15.177
49.46000 26.281
49.47000 16.350
49.48000 19.146
49.49000 21.324
49.50000 13.221
49.51000 19.324
49.52000 15.224
49.53000 22.362
49.54000 18.308
49.55000 15.096
49.56000 20.260
49.57000 17.181
49.58000 14.057
49.59000 23.309
49.60000 22.345
49.61000 18.156
49.62000 21.410
49.63000 15.115
49.64000 21.133
49.65000 19.178
49.66000 18.167
49.67000 19.078
49.68000 15.107
49.69000 22.261
49.70000 21.351
49.71000 11.216
49.72000 15.256
49.73000 18.172
49.74000 12.146
49.75000 17.095
49.76000 20.241
49.77000 12.077
49.78000 11.246
49.79000 17.230
49.80000 10.127
49.81000 24.590
49.82000 21.205
49.83000 16.148
49.84000 19.452
49.85000 15.077
49.86000 19.479
49.87000 22.417
49.88000 18.185
49.89000 19.372
49.90000 17.153
49.91000 26.391
49.92000 15.229
49.93000 18.132
49.94000 22.183
49.95000 13.206
49.96000 11.130
49.97000 22.229
49.98000 18.354
49.99000 26.260
50.00000 20.491
50.01000 23.307
50.02000 12.261
50.03000 23.322
50.04000 20.136
50.05000 14.067
50.06000 16.166
50.07000 15.220
50.08000 21.196
50.09000 15.112
50.10000 15.013
50.11000 18.235
50.12000 20.193
50.13000 16.321
50.14000 9.071
50.15000 23.429
50.16000 11.040
50.17000 16.134
50.18000 25.265
50.19000 16.328
50.20000 20.193
50.21000 16.045
50.22000 13.301
50.23000 21.310
50.24000 19.373
50.25000 21.254
50.26000 31.231
50.27000 24.282
50.28000 15.196
50.29000 16.046
50.30000 11.256
50.31000 20.168
50.32000 13.088
50.33000 24.010
50.34000 23.354
50.35000 26.190
50.36000 18.198
50.37000 25.518
50.38000 18.257
50.39000 24.353
50.40000 17.283
50.41000 29.475
50.42000 19.230
50.43000 12.263
50.44000 18.267
50.45000 19.237
50.46000 17.165
50.47000 21.151
50.48000 12.168
50.49000 16.228
50.50000 27.423
50.51000 16.088
50.52000 12.106
50.53000 19.365
50.54000 23.646
50.55000 19.205
50.56000 13.288
50.57000 20.305
50.58000 29.232
50.59000 21.206
50.60000 29.306
50.61000 24.303
50.62000 13.167
50.63000 21.212
50.64000 21.373
50.65000 25.194
50.66000 8.010
50.67000 15.205
50.68000 22.234
50.69000 16.275
50.70000 17.363
50.71000 10.102
50.72000 21.272
50.73000 13.015
50.74000 12.194
50.75000 21.301
50.76000 22.495
50.77000 18.379
50.78000 12.045
50.79000 18.274
50.80000 14.140
50.81000 20.195
50.82000 17.271
50.83000 17.164
50.84000 20.284
50.85000 9.245
50.86000 13.314
50.87000 28.341
50.88000 14.104
50.89000 17.307
50.90000 17.210
50.91000 18.252
50.92000 18.352
50.93000 14.091
50.94000 22.231
50.95000 11.198
50.96000 22.310
50.97000 10.167
50.98000 19.476
50.99000 22.351
51.00000 12.179
51.01000 12.244
51.02000 21.232
51.03000 23.145
51.04000 19.217
51.05000 10.170
51.06000 9.995
51.07000 11.069
51.08000 14.212
51.09000 22.239
51.10000 12.276
51.11000 14.247
51.12000 16.278
51.13000 16.146
51.14000 16.154
51.15000 20.331
51.16000 14.178
51.17000 9.149
51.18000 17.238
51.19000 14.055
51.20000 22.299
51.21000 19.116
51.22000 9.283
51.23000 18.415
51.24000 16.142
51.25000 14.242
51.26000 21.187
51.27000 14.329
51.28000 15.186
51.29000 15.274
51.30000 12.149
51.31000 14.284
51.32000 15.226
51.33000 19.199
51.34000 15.246
51.35000 14.085
51.36000 15.149
51.37000 16.288
51.38000 11.151
51.39000 13.158
51.40000 20.198
51.41000 16.317
51.42000 20.289
51.43000 14.145
51.44000 10.242
51.45000 18.267
51.46000 10.209
51.47000 20.206
51.48000 13.117
51.49000 17.276
51.50000 25.177
51.51000 20.261
51.52000 17.294
51.53000 19.329
51.54000 20.303
51.55000 10.081
51.56000 18.318
51.57000 21.355
51.58000 13.116
51.59000 13.113
51.60000 14.204
51.61000 10.150
51.62000 21.315
51.63000 15.147
51.64000 17.104
51.65000 19.168
51.66000 17.228
51.67000 22.058
51.68000 9.252
51.69000 20.220
51.70000 24.190
51.71000 14.133
51.72000 17.202
51.73000 15.045
51.74000 17.283
51.75000 21.145
51.76000 14.192
51.77000 16.243
51.78000 21.171
51.79000 22.185
51.80000 17.359
51.81000 8.979
51.82000 17.145
51.83000 16.307
51.84000 16.060
51.85000 14.169
51.86000 23.421
51.87000 19.276
51.88000 19.373
51.89000 11.050
51.90000 14.331
51.91000 16.203
51.92000 29.194
51.93000 16.161
51.94000 21.198
51.95000 21.189
51.96000 19.301
51.97000 13.227
51.98000 20.370
51.99000 20.390
52.00000 13.276
52.01000 19.199
52.02000 15.148
52.03000 24.645
52.04000 9.184
52.05000 13.253
52.06000 13.204
52.07000 14.053
52.08000 18.207
52.09000 24.258
52.10000 9.053
52.11000 24.506
52.12000 17.170
52.13000 10.170
52.14000 14.148
52.15000 21.273
52.16000 16.041
52.17000 14.112
52.18000 18.257
52.19000 11.202
52.20000 13.311
52.21000 10.127
52.22000 18.301
52.23000 17.204
52.24000 23.250
52.25000 15.022
52.26000 15.090
52.27000 14.191
52.28000 12.188
52.29000 14.152
52.30000 15.207
52.31000 13.209
52.32000 13.173
52.33000 18.354
52.34000 15.163
52.35000 16.186
52.36000 13.188
52.37000 9.096
52.38000 17.106
52.39000 17.244
52.40000 16.287
52.41000 20.561
52.42000 21.160
52.43000 17.355
52.44000 10.135
52.45000 14.222
52.46000 14.103
52.47000 18.078
52.48000 19.181
52.49000 17.147
52.50000 16.283
52.51000 12.196
52.52000 19.115
52.53000 13.162
52.54000 13.295
52.55000 16.388
52.56000 22.407
52.57000 12.250
52.58000 15.339
52.59000 19.380
52.60000 16.143
52.61000 17.268
52.62000 21.406
52.63000 13.156
52.64000 18.097
52.65000 17.302
52.66000 24.064
52.67000 19.222
52.68000 19.389
52.69000 16.224
52.70000 21.283
52.71000 17.147
52.72000 18.999
52.73000 19.075
52.74000 11.204
52.75000 13.052
52.76000 13.118
52.77000 17.070
52.78000 14.949
52.79000 19.199
52.80000 17.229
52.81000 18.252
52.82000 5.079
52.83000 18.354
52.84000 20.385
52.85000 14.180
52.86000 14.092
52.87000 20.307
52.88000 13.239
52.89000 18.286
52.90000 16.203
52.91000 14.194
52.92000 14.128
52.93000 14.097
52.94000 15.128
52.95000 14.192
52.96000 11.174
52.97000 15.189
52.98000 8.010
52.99000 20.052
53.00000 15.204
53.01000 19.363
53.02000 15.079
53.03000 12.189
53.04000 14.140
53.05000 16.217
53.06000 20.261
53.07000 14.271
53.08000 7.027
53.09000 14.321
53.10000 14.321
53.11000 21.360
53.12000 18.062
53.13000 13.176
53.14000 8.051
53.15000 15.259
53.16000 13.207
53.17000 20.296
53.18000 16.015
53.19000 19.012
53.20000 13.143
53.21000 12.125
53.22000 20.213
53.23000 11.138
53.24000 14.221
53.25000 7.186
53.26000 14.168
53.27000 20.204
53.28000 12.281
53.29000 10.140
53.30000 23.368
53.31000 15.251
53.32000 16.221
53.33000 19.181
53.34000 16.339
53.35000 21.290
53.36000 12.049
53.37000 16.109
53.38000 15.214
53.39000 13.158
53.40000 21.032
53.41000 16.087
53.42000 12.140
53.43000 12.328
53.44000 12.144
53.45000 17.130
53.46000 20.262
53.47000 18.156
53.48000 17.244
53.49000 15.147
53.50000 8.081
53.51000 14.198
53.52000 17.214
53.53000 16.425
53.54000 19.297
53.55000 11.030
53.56000 20.181
53.57000 21.134
53.58000 13.092
53.59000 18.248
53.60000 14.034
53.61000 13.143
53.62000 13.249
53.63000 8.030
53.64000 13.128
53.65000 19.446
53.66000 16.212
53.67000 11.100
53.68000 14.322
53.69000 16.231
53.70000 11.187
53.71000 5.040
53.72000 10.174
53.73000 19.181
53.74000 19.385
53.75000 17.322
53.76000 18.340
53.77000 15.175
53.78000 13.990
53.79000 14.122
53.80000 12.088
53.81000 19.260
53.82000 22.269
53.83000 12.267
53.84000 13.197
53.85000 15.191
53.86000 11.122
53.87000 19.270
53.88000 15.161
53.89000 14.172
53.90000 15.095
53.91000 21.289
53.92000 17.173
53.93000 10.110
53.94000 14.150
53.95000 17.049
53.96000 21.215
53.97000 16.248
53.98000 15.217
53.99000 19.446
54.00000 18.346
54.01000 18.165
54.02000 9.100
54.03000 15.338
54.04000 10.089
54.05000 17.205
54.06000 11.122
54.07000 12.274
54.08000 19.354
54.09000 18.215
54.10000 17.362
54.11000 19.322
54.12000 18.243
54.13000 12.173
54.14000 12.038
54.15000 16.274
54.16000 12.075
54.17000 13.078
54.18000 21.103
54.19000 20.503
54.20000 13.130
54.21000 12.201
54.22000 16.126
54.23000 20.130
54.24000 16.152
54.25000 20.138
54.26000 18.125
54.27000 18.378
54.28000 18.175
54.29000 15.253
54.30000 15.347
54.31000 15.141
54.32000 12.392
54.33000 14.168
54.34000 16.246
54.35000 13.195
54.36000 16.172
54.37000 10.131
54.38000 11.128
54.39000 22.125
54.40000 22.169
54.41000 10.913
54.42000 12.909
54.43000 18.448
54.44000 20.400
54.45000 15.119
54.46000 12.139
54.47000 16.241
54.48000 15.117
54.49000 20.244
54.50000 21.380
54.51000 22.201
54.52000 21.234
54.53000 22.345
54.54000 12.187
54.55000 15.999
54.56000 16.167
54.57000 17.066
54.58000 23.334
54.59000 20.151
54.60000 17.197
54.61000 14.081
54.62000 15.139
54.63000 17.350
54.64000 13.164
54.65000 20.301
54.66000 14.258
54.67000 10.090
54.68000 15.216
54.69000 16.196
54.70000 18.328
54.71000 10.136
54.72000 12.093
54.73000 20.516
54.74000 21.370
54.75000 15.243
54.76000 14.232
54.77000 13.202
54.78000 9.975
54.79000 13.040
54.80000 14.229
54.81000 12.088
54.82000 18.126
54.83000 18.233
54.84000 9.104
54.85000 15.201
54.86000 18.422
54.87000 14.031
54.88000 15.089
54.89000 8.048
54.90000 14.168
54.91000 22.259
54.92000 10.160
54.93000 10.107
54.94000 16.081
54.95000 11.217
54.96000 13.132
54.97000 15.212
54.98000 10.153
54.99000 17.168
55.00000 9.127
55.01000 11.048
55.02000 12.071
55.03000 12.060
55.04000 10.114
55.05000 10.071
55.06000 13.275
55.07000 14.125
55.08000 9.087
55.09000 15.124
55.10000 15.045
55.11000 23.124
55.12000 13.153
55.13000 14.090
55.14000 18.279
55.15000 12.050
55.16000 15.228
55.17000 11.185
55.18000 17.054
55.19000 15.252
55.20000 7.030
55.21000 17.088
55.22000 18.336
55.23000 16.318
55.24000 21.248
55.25000 12.069
55.26000 20.440
55.27000 9.312
55.28000 14.314
55.29000 18.263
55.30000 11.224
55.31000 16.145
55.32000 19.288
55.33000 8.084
55.34000 11.152
55.35000 20.168
55.36000 15.337
55.37000 13.199
55.38000 9.157
55.39000 9.027
55.40000 18.241
55.41000 12.057
55.42000 13.155
55.43000 10.126
55.44000 19.495
55.45000 15.230
55.46000 11.131
55.47000 8.986
55.48000 18.277
55.49000 14.081
55.50000 20.219
55.51000 20.232
55.52000 15.252
55.53000 11.090
55.54000 15.403
55.55000 16.114
55.56000 7.049
55.57000 10.112
55.58000 14.108
55.59000 11.131
55.60000 10.214
55.61000 7.042
55.62000 14.212
55.63000 16.060
55.64000 10.022
55.65000 15.178
55.66000 4.988
55.67000 22.388
55.68000 18.321
55.69000 13.161
55.70000 12.016
55.71000 19.261
55.72000 14.170
55.73000 12.092
55.74000 14.163
55.75000 9.965
55.76000 14.195
55.77000 12.079
55.78000 13.068
55.79000 10.277
55.80000 10.171
55.81000 17.242
55.82000 13.355
55.83000 15.299
55.84000 13.976
55.85000 11.313
55.86000 15.162
55.87000 14.264
55.88000 15.135
55.89000 15.084
55.90000 13.116
55.91000 12.138
55.92000 9.131
55.93000 16.274
55.94000 11.067
55.95000 13.129
55.96000 16.086
55.97000 13.268
55.98000 20.123
55.99000 13.281
56.00000 17.338
56.01000 16.186
56.02000 12.074
56.03000 8.193
56.04000 13.158
56.05000 11.171
56.06000 9.062
56.07000 12.173
56.08000 17.341
56.09000 12.144
56.10000 14.053
56.11000 18.158
56.12000 15.116
56.13000 10.123
56.14000 5.053
56.15000 10.158
56.16000 21.540
56.17000 11.143
56.18000 14.147
56.19000 10.058
56.20000 9.164
56.21000 16.141
56.22000 12.042
56.23000 8.170
56.24000 9.141
56.25000 11.256
56.26000 9.083
56.27000 15.286
56.28000 18.227
56.29000 21.298
56.30000 13.145
56.31000 13.061
56.32000 6.055
56.33000 7.055
56.34000 10.095
56.35000 9.116
56.36000 11.067
56.37000 10.075
56.38000 12.184
56.39000 11.281
56.40000 13.165
56.41000 9.232
56.42000 10.007
56.43000 13.356
56.44000 23.337
56.45000 6.127
56.46000 5.031
56.47000 9.127
56.48000 12.222
56.49000 13.248
56.50000 13.356
56.51000 11.054
56.52000 11.064
56.53000 8.043
56.54000 16.329
56.55000 16.200
56.56000 14.161
56.57000 9.168
56.58000 14.215
56.59000 6.989
56.60000 5.094
56.61000 16.279
56.62000 11.247
56.63000 12.203
56.64000 15.255
56.65000 7.975
56.66000 11.162
56.67000 16.350
56.68000 8.125
56.69000 13.157
56.70000 12.115
56.71000 14.375
56.72000 16.070
56.73000 18.234
56.74000 9.122
56.75000 16.290
56.76000 17.342
56.77000 14.205
56.78000 14.042
56.79000 12.156
56.80000 13.101
56.81000 12.132
56.82000 10.140
56.83000 12.255
56.84000 15.197
56.85000 17.029
56.86000 14.390
56.87000 10.228
56.88000 8.911
56.89000 15.374
56.90000 13.207
56.91000 12.174
56.92000 14.114
56.93000 9.050
56.94000 11.063
56.95000 12.118
56.96000 14.100
56.97000 5.051
56.98000 10.093
56.99000 14.282
57.00000 11.056
57.01000 16.167
57.02000 18.377
57.03000 10.378
57.04000 7.090
57.05000 16.311
57.06000 11.186
57.07000 6.159
57.08000 15.056
57.09000 13.234
57.10000 14.304
57.11000 15.180
57.12000 15.202
57.13000 10.140
57.14000 7.011
57.15000 13.144
57.16000 7.074
57.17000 14.166
57.18000 10.230
57.19000 15.103
57.20000 18.004
57.21000 6.007
57.22000 10.956
57.23000 13.066
57.24000 13.182
57.25000 15.248
57.26000 12.292
57.27000 11.190
57.28000 16.115
57.29000 18.262
57.30000 15.296
57.31000 12.229
57.32000 15.172
57.33000 16.158
57.34000 15.124
57.35000 11.070
57.36000 16.320
57.37000 15.049
57.38000 13.199
57.39000 15.090
57.40000 12.068
57.41000 10.050
57.42000 13.193
57.43000 15.079
57.44000 20.294
57.45000 10.954
57.46000 12.080
57.47000 11.262
57.48000 13.096
57.49000 19.305
57.50000 14.036
57.51000 11.136
57.52000 14.211
57.53000 15.134
57.54000 11.155
57.55000 9.980
57.56000 10.225
57.57000 25.144
57.58000 14.314
57.59000 11.140
57.60000 15.281
57.61000 10.011
57.62000 16.145
57.63000 11.133
57.64000 14.093
57.65000 6.027
57.66000 9.134
57.67000 13.088
57.68000 12.153
57.69000 13.203
57.70000 13.157
57.71000 14.130
57.72000 10.223
57.73000 18.244
57.74000 17.152
57.75000 8.047
57.76000 9.054
57.77000 15.260
57.78000 19.231
57.79000 17.310
57.80000 10.979
57.81000 16.223
57.82000 12.341
57.83000 15.227
57.84000 13.276
57.85000 11.036
57.86000 10.122
57.87000 6.972
57.88000 11.138
57.89000 5.047
57.90000 6.023
57.91000 13.391
57.92000 15.420
57.93000 10.192
57.94000 13.226
57.95000 14.156
57.96000 10.218
57.97000 13.172
57.98000 15.314
57.99000 15.063
58.00000 23.323
58.01000 4.961
58.02000 13.209
58.03000 10.045
58.04000 13.102
58.05000 9.094
58.06000 11.122
58.07000 9.139
58.08000 13.177
58.09000 10.115
58.10000 10.206
58.11000 9.105
58.12000 18.201
58.13000 15.265
58.14000 11.093
58.15000 21.220
58.16000 7.170
58.17000 12.225
58.18000 23.358
58.19000 11.028
58.20000 9.042
58.21000 12.078
58.22000 15.180
58.23000 11.095
58.24000 15.224
58.25000 9.022
58.26000 13.356
58.27000 13.181
58.28000 9.118
58.29000 10.021
58.30000 12.113
58.31000 11.151
58.32000 15.523
58.33000 7.113
58.34000 15.214
58.35000 13.142
58.36000 12.076
58.37000 7.163
58.38000 16.329
58.39000 10.121
58.40000 13.294
58.41000 12.143
58.42000 16.331
58.43000 10.255
58.44000 12.066
58.45000 9.016
58.46000 8.148
58.47000 7.085
58.48000 20.293
58.49000 5.991
58.50000 13.214
58.51000 11.259
58.52000 12.014
58.53000 10.077
58.54000 11.223
58.55000 9.218
58.56000 13.207
58.57000 8.115
58.58000 9.103
58.59000 20.229
58.60000 10.167
58.61000 9.104
58.62000 9.115
58.63000 14.317
58.64000 13.076
58.65000 8.013
58.66000 11.171
58.67000 11.092
58.68000 12.219
58.69000 16.204
58.70000 11.146
58.71000 12.243
58.72000 10.157
58.73000 12.136
58.74000 12.168
58.75000 19.377
58.76000 6.082
58.77000 7.990
58.78000 12.322
58.79000 9.152
58.80000 9.305
58.81000 10.144
58.82000 10.178
58.83000 5.109
58.84000 10.264
58.85000 15.169
58.86000 14.284
58.87000 7.173
58.88000 14.181
58.89000 9.227
58.90000 8.167
58.91000 9.137
58.92000 12.219
58.93000 15.268
58.94000 15.101
58.95000 9.099
58.96000 10.039
58.97000 9.021
58.98000 15.299
58.99000 10.130
59.00000 7.145
59.01000 10.172
59.02000 11.112
59.03000 11.204
59.04000 17.137
59.05000 11.110
59.06000 8.207
59.07000 16.123
59.08000 21.213
59.09000 6.162
59.10000 10.112
59.11000 10.144
59.12000 15.316
59.13000 7.046
59.14000 10.118
59.15000 9.116
59.16000 11.072
59.17000 11.083
59.18000 17.272
59.19000 14.257
59.20000 10.185
59.21000 11.184
59.22000 11.067
59.23000 9.079
59.24000 10.120
59.25000 18.349
59.26000 9.084
59.27000 16.261
59.28000 10.126
59.29000 16.228
59.30000 9.138
59.31000 11.104
59.32000 10.107
59.33000 11.962
59.34000 13.195
59.35000 8.056
59.36000 13.107
59.37000 6.084
59.38000 6.025
59.39000 8.041
59.40000 12.094
59.41000 14.155
59.42000 14.220
59.43000 16.133
59.44000 14.093
59.45000 12.083
59.46000 15.244
59.47000 11.200
59.48000 13.125
59.49000 17.237
59.50000 8.991
59.51000 10.252
59.52000 16.265
59.53000 15.352
59.54000 9.055
59.55000 6.058
59.56000 11.979
59.57000 12.078
59.58000 14.324
59.59000 6.194
59.60000 10.035
59.61000 12.281
59.62000 10.135
59.63000 13.203
59.64000 18.294
59.65000 12.077
59.66000 11.295
59.67000 9.169
59.68000 14.111
59.69000 12.135
59.70000 7.116
59.71000 10.056
59.72000 6.076
59.73000 4.008
59.74000 8.911
59.75000 11.172
59.76000 6.150
59.77000 11.273
59.78000 14.161
59.79000 5.093
59.80000 10.150
59.81000 9.263
59.82000 10.093
59.83000 9.051
59.84000 7.083
59.85000 10.197
59.86000 12.150
59.87000 10.171
59.88000 12.049
59.89000 6.034
59.90000 9.107
59.91000 8.985
59.92000 10.091
59.93000 7.047
59.94000 10.133
59.95000 12.239
59.96000 7.075
59.97000 18.214
59.98000 15.276
59.99000 8.093
60.00000 10.996
60.01000 9.119
60.02000 11.406
60.03000 11.071
60.04000 11.061
60.05000 7.178
60.06000 15.156
60.07000 12.090
60.08000 8.089
60.09000 10.157
60.10000 11.121
60.11000 14.138
60.12000 8.130
60.13000 9.994
60.14000 12.047
60.15000 14.170
60.16000 16.383
60.17000 11.314
60.18000 7.074
60.19000 13.209
60.20000 8.042
60.21000 18.938
60.22000 12.397
60.23000 5.116
60.24000 14.337
60.25000 12.097
60.26000 6.090
60.27000 6.066
60.28000 8.084
60.29000 9.090
60.30000 8.270
60.31000 13.025
60.32000 9.063
60.33000 9.207
60.34000 9.117
60.35000 7.124
60.36000 8.053
60.37000 9.154
60.38000 7.991
60.39000 13.149
60.40000 9.128
60.41000 18.366
60.42000 18.404
60.43000 10.010
60.44000 14.079
60.45000 8.095
60.46000 12.192
60.47000 9.119
60.48000 15.175
60.49000 14.245
60.50000 8.992
60.51000 4.022
60.52000 8.093
60.53000 10.027
60.54000 10.100
60.55000 6.150
60.56000 7.144
60.57000 14.127
60.58000 7.276
60.59000 8.078
60.60000 6.090
60.61000 11.206
60.62000 5.009
60.63000 9.112
60.64000 6.109
60.65000 9.014
60.66000 12.127
60.67000 9.144
60.68000 11.267
60.69000 18.071
60.70000 9.079
60.71000 10.109
60.72000 15.195
60.73000 11.199
60.74000 17.108
60.75000 11.254
60.76000 17.304
60.77000 8.057
60.78000 11.060
60.79000 11.220
60.80000 12.149
60.81000 12.096
60.82000 6.095
60.83000 15.281
60.84000 9.133
60.85000 16.115
60.86000 6.005
60.87000 12.091
60.88000 12.167
60.89000 10.254
60.90000 10.186
60.91000 9.099
60.92000 10.138
60.93000 8.096
60.94000 7.046
60.95000 9.193
60.96000 9.027
60.97000 12.181
60.98000 8.110
60.99000 4.103
61.00000 12.187
61.01000 9.098
61.02000 11.294
61.03000 6.040
61.04000 15.232
61.05000 3.092
61.06000 8.223
61.07000 2.986
61.08000 9.033
61.09000 13.309
61.10000 4.990
61.11000 10.217
61.12000 9.263
61.13000 12.114
61.14000 13.208
61.15000 12.117
61.16000 5.050
61.17000 11.018
61.18000 8.036
61.19000 10.119
61.20000 11.030
61.21000 10.027
61.22000 13.070
61.23000 4.989
61.24000 8.220
61.25000 12.183
61.26000 7.068
61.27000 6.055
61.28000 8.108
61.29000 12.203
61.30000 10.125
61.31000 11.131
61.32000 8.134
61.33000 13.190
61.34000 11.104
61.35000 4.052
61.36000 7.118
61.37000 9.002
61.38000 11.175
61.39000 7.193
61.40000 11.182
61.41000 9.026
61.42000 6.156
61.43000 9.098
61.44000 10.161
61.45000 13.109
61.46000 9.094
61.47000 12.042
61.48000 7.091
61.49000 11.131
61.50000 8.066
61.51000 8.169
61.52000 5.056
61.53000 12.222
61.54000 11.083
61.55000 11.249
61.56000 10.226
61.57000 18.316
61.58000 15.317
61.59000 11.175
61.60000 8.025
61.61000 7.057
61.62000 13.207
61.63000 13.172
61.64000 6.096
61.65000 13.194
61.66000 9.166
61.67000 6.961
61.68000 7.120
61.69000 11.074
61.70000 10.040
61.71000 4.079
61.72000 8.059
61.73000 9.186
61.74000 20.279
61.75000 11.294
61.76000 7.122
61.77000 7.048
61.78000 11.313
61.79000 12.249
61.80000 7.127
61.81000 8.105
61.82000 4.967
61.83000 8.160
61.84000 11.187
61.85000 11.978
61.86000 7.128
61.87000 11.168
61.88000 6.063
61.89000 15.242
61.90000 8.018
61.91000 7.187
61.92000 12.148
61.93000 5.054
61.94000 10.209
61.95000 8.114
61.96000 12.175
61.97000 11.258
61.98000 9.117
61.99000 12.143
62.00000 10.155
62.01000 7.970
62.02000 6.071
62.03000 6.994
62.04000 12.120
62.05000 13.262
62.06000 11.260
62.07000 10.205
62.08000 6.115
62.09000 9.084
62.10000 7.208
62.11000 8.050
62.12000 6.128
62.13000 5.003
62.14000 6.053
62.15000 16.122
62.16000 15.205
62.17000 5.049
62.18000 6.987
62.19000 15.035
62.20000 11.140
62.21000 6.228
62.22000 8.008
62.23000 10.115
62.24000 7.142
62.25000 9.167
62.26000 13.200
62.27000 7.073
62.28000 9.134
62.29000 10.193
62.30000 3.978
62.31000 11.102
62.32000 1.961
62.33000 11.282
62.34000 7.188
62.35000 8.096
62.36000 13.146
62.37000 4.070
62.38000 10.084
62.39000 5.059
62.40000 6.156
62.41000 8.020
62.42000 12.274
62.43000 10.126
62.44000 9.149
62.45000 7.078
62.46000 6.036
62.47000 8.118
62.48000 14.179
62.49000 11.072
62.50000 8.070
62.51000 8.070
62.52000 9.257
62.53000 9.148
62.54000 9.182
62.55000 10.143
62.56000 5.133
62.57000 10.181
62.58000 4.015
62.59000 15.170
62.60000 10.011
62.61000 7.065
62.62000 9.198
62.63000 9.070
62.64000 12.229
62.65000 8.012
62.66000 14.155
62.67000 4.966
62.68000 7.031
62.69000 14.129
62.70000 12.258
62.71000 9.126
62.72000 9.146
62.73000 9.138
62.74000 6.120
62.75000 8.007
62.76000 7.121
62.77000 7.059
62.78000 8.183
62.79000 2.022
62.80000 11.250
62.81000 9.240
62.82000 9.943
62.83000 9.122
62.84000 9.145
62.85000 13.156
62.86000 15.129
62.87000 6.194
62.88000 5.140
62.89000 17.176
62.90000 4.197
62.91000 8.055
62.92000 8.113
62.93000 8.081
62.94000 4.987
62.95000 13.036
62.96000 7.914
62.97000 12.201
62.98000 8.151
62.99000 8.106
63.00000 12.254
63.01000 12.114
63.02000 9.139
63.03000 12.286
63.04000 8.179
63.05000 11.277
63.06000 2.053
63.07000 6.126
63.08000 11.089
63.09000 4.019
63.10000 6.141
63.11000 3.040
63.12000 9.177
63.13000 8.231
63.14000 11.052
63.15000 4.037
63.16000 9.168
63.17000 7.994
63.18000 10.211
63.19000 7.095
63.20000 7.093
63.21000 7.112
63.22000 6.080
63.23000 8.101
63.24000 11.173
63.25000 8.235
63.26000 10.130
63.27000 6.079
63.28000 7.061
63.29000 9.157
63.30000 10.110
63.31000 6.182
63.32000 10.081
63.33000 10.127
63.34000 16.154
63.35000 10.139
63.36000 8.166
63.37000 9.036
63.38000 11.147
63.39000 11.240
63.40000 11.142
63.41000 6.153
63.42000 12.137
63.43000 11.244
63.44000 4.985
63.45000 13.232
63.46000 8.100
63.47000 10.173
63.48000 8.172
63.49000 6.130
63.50000 8.200
63.51000 4.060
63.52000 5.125
63.53000 5.968
63.54000 7.990
63.55000 4.076
63.56000 11.123
63.57000 13.361
63.58000 13.206
63.59000 12.162
63.60000 10.155
63.61000 12.146
63.62000 10.179
63.63000 9.090
63.64000 5.991
63.65000 12.064
63.66000 9.176
63.67000 9.104
63.68000 7.201
63.69000 10.166
63.70000 10.215
63.71000 11.109
63.72000 7.154
63.73000 6.096
63.74000 12.099
63.75000 10.076
63.76000 5.085
63.77000 9.188
63.78000 10.023
63.79000 7.210
63.80000 10.130
63.81000 7.044
63.82000 11.071
63.83000 7.020
63.84000 3.024
63.85000 10.041
63.86000 2.040
63.87000 8.074
63.88000 8.157
63.89000 10.118
63.90000 10.091
63.91000 6.141
63.92000 9.118
63.93000 10.127
63.94000 10.003
63.95000 7.070
63.96000 9.195
63.97000 6.134
63.98000 8.084
63.99000 11.069
64.00000 11.282
64.01000 8.167
64.02000 9.116
64.03000 7.142
64.04000 10.233
64.05000 8.156
64.06000 11.132
64.07000 4.951
64.08000 14.235
64.09000 10.206
64.10000 11.145
64.11000 7.097
64.12000 8.083
64.13000 9.090
64.14000 7.096
64.15000 8.035
64.16000 10.119
64.17000 6.112
64.18000 10.258
64.19000 8.155
64.20000 10.140
64.21000 9.095
64.22000 10.987
64.23000 10.045
64.24000 6.067
64.25000 13.157
64.26000 14.318
64.27000 8.104
64.28000 8.042
64.29000 5.004
64.30000 9.155
64.31000 9.092
64.32000 7.103
64.33000 21.252
64.34000 10.138
64.35000 8.987
64.36000 7.070
64.37000 11.137
64.38000 11.178
64.39000 8.166
64.40000 9.005
64.41000 9.941
64.42000 10.067
64.43000 5.173
64.44000 11.160
64.45000 4.030
64.46000 14.258
64.47000 13.261
64.48000 6.008
64.49000 6.016
64.50000 7.106
64.51000 5.979
64.52000 8.026
64.53000 10.048
64.54000 7.934
64.55000 4.025
64.56000 13.027
64.57000 9.091
64.58000 8.142
64.59000 10.191
64.60000 7.033
64.61000 5.063
64.62000 11.095
64.63000 10.065
64.64000 8.963
64.65000 7.106
64.66000 7.095
64.67000 7.096
64.68000 11.160
64.69000 13.201
64.70000 9.112
64.71000 12.096
64.72000 5.064
64.73000 8.159
64.74000 1.021
64.75000 2.070
64.76000 10.090
64.77000 16.188
64.78000 7.141
64.79000 9.008
64.80000 8.146
64.81000 8.161
64.82000 9.085
64.83000 9.156
64.84000 6.000
64.85000 8.128
64.86000 11.007
64.87000 7.078
64.88000 7.065
64.89000 9.169
64.90000 5.079
64.91000 6.028
64.92000 16.186
64.93000 5.975
64.94000 12.137
64.95000 6.031
64.96000 8.039
64.97000 7.190
64.98000 12.285
64.99000 6.017
65.00000 8.056
