20.00000 15.142
20.01000 35.524
20.02000 16.114
20.03000 14.217
20.04000 20.193
20.05000 27.590
20.06000 21.060
20.07000 24.382
20.08000 13.265
20.09000 22.352
20.10000 18.270
20.11000 16.152
20.12000 11.164
20.13000 17.185
20.14000 23.417
20.15000 19.363
20.16000 19.204
20.17000 17.159
20.18000 17.157
20.19000 10.084
20.20000 20.308
20.21000 24.308
20.22000 23.408
20.23000 19.327
20.24000 22.350
20.25000 17.140
20.26000 23.190
20.27000 15.210
20.28000 27.345
20.29000 21.236
20.30000 18.638
20.31000 24.345
20.32000 22.372
20.33000 20.245
20.34000 12.091
20.35000 15.213
20.36000 23.284
20.37000 12.193
20.38000 17.256
20.39000 14.272
20.40000 15.194
20.41000 14.114
20.42000 15.390
20.43000 21.247
20.44000 22.334
20.45000 16.056
20.46000 20.131
20.47000 15.092
20.48000 20.249
20.49000 23.291
20.50000 16.228
20.51000 17.193
20.52000 21.115
20.53000 23.336
20.54000 12.000
20.55000 25.372
20.56000 17.282
20.57000 18.173
20.58000 16.224
20.59000 17.217
20.60000 16.171
20.61000 22.204
20.62000 24.189
20.63000 7.962
20.64000 23.359
20.65000 21.360
20.66000 18.140
20.67000 12.110
20.68000 15.186
20.69000 28.162
20.70000 19.316
20.71000 17.147
20.72000 13.139
20.73000 11.198
20.74000 24.464
20.75000 20.265
20.76000 19.202
20.77000 9.053
20.78000 14.176
20.79000 23.291
20.80000 15.323
20.81000 24.388
20.82000 24.443
20.83000 13.201
20.84000 18.277
20.85000 24.164
20.86000 18.402
20.87000 24.312
20.88000 11.046
20.89000 27.326
20.90000 18.030
20.91000 20.197
20.92000 17.222
20.93000 23.192
20.94000 28.570
20.95000 19.138
20.96000 20.183
20.97000 22.378
20.98000 20.146
20.99000 18.139
21.00000 20.262
21.01000 17.267
21.02000 28.213
21.03000 15.266
21.04000 13.240
21.05000 22.474
21.06000 16.329
21.07000 18.928
21.08000 19.213
21.09000 17.024
21.10000 20.332
21.11000 18.383
21.12000 16.141
21.13000 21.309
21.14000 19.112
21.15000 28.592
21.16000 16.397
21.17000 28.372
21.18000 19.049
21.19000 19.272
21.20000 19.353
21.21000 30.449
21.22000 23.270
21.23000 22.418
21.24000 32.409
21.25000 15.193
21.26000 18.297
21.27000 18.076
21.28000 27.180
21.29000 17.204
21.30000 22.240
21.31000 26.590
21.32000 19.412
21.33000 13.149
21.34000 22.391
21.35000 27.319
21.36000 27.264
21.37000 26.384
21.38000 14.241
21.39000 22.258
21.40000 18.173
21.41000 28.408
21.42000 24.191
21.43000 20.271
21.44000 21.423
21.45000 21.262
21.46000 26.377
21.47000 23.356
21.48000 14.241
21.49000 15.233
21.50000 16.993
21.51000 17.197
21.52000 13.095
21.53000 24.384
21.54000 14.320
21.55000 20.271
21.56000 17.160
21.57000 20.260
21.58000 18.379
21.59000 18.232
21.60000 13.188
21.61000 13.000
21.62000 12.061
21.63000 22.219
21.64000 26.527
21.65000 22.218
21.66000 19.217
21.67000 29.202
21.68000 20.445
21.69000 28.298
21.70000 22.240
21.71000 22.502
21.72000 16.193
21.73000 16.224
21.74000 16.178
21.75000 17.353
21.76000 19.353
21.77000 18.130
21.78000 22.215
21.79000 18.300
21.80000 12.067
21.81000 18.289
21.82000 14.179
21.83000 19.397
21.84000 27.526
21.85000 21.383
21.86000 20.170
21.87000 24.323
21.88000 18.129
21.89000 21.285
21.90000 10.192
21.91000 23.295
21.92000 13.203
21.93000 22.090
21.94000 21.218
21.95000 21.126
21.96000 18.063
21.97000 21.304
21.98000 8.158
21.99000 21.286
22.00000 16.086
22.01000 31.265
22.02000 22.456
22.03000 22.342
22.04000 20.238
22.05000 23.149
22.06000 26.280
22.07000 14.106
22.08000 17.216
22.09000 17.090
22.10000 16.102
22.11000 21.361
22.12000 24.309
22.13000 19.378
22.14000 22.208
22.15000 19.284
22.16000 21.417
22.17000 17.107
22.18000 30.414
22.19000 22.373
22.20000 17.091
22.21000 21.285
22.22000 19.216
22.23000 21.351
22.24000 24.224
22.25000 28.359
22.26000 18.424
22.27000 27.157
22.28000 26.312
22.29000 31.387
22.30000 20.446
22.31000 21.124
22.32000 25.162
22.33000 21.416
22.34000 22.219
22.35000 24.187
22.36000 33.545
22.37000 15.097
22.38000 17.089
22.39000 22.345
22.40000 23.224
22.41000 21.506
22.42000 20.240
22.43000 13.175
22.44000 31.582
22.45000 19.363
22.46000 23.595
22.47000 24.333
22.48000 17.227
22.49000 26.284
22.50000 26.455
22.51000 25.368
22.52000 23.288
22.53000 29.217
22.54000 26.502
22.55000 26.336
22.56000 28.415
22.57000 17.180
22.58000 20.154
22.59000 26.472
22.60000 18.300
22.61000 29.176
22.62000 21.243
22.63000 20.119
22.64000 17.325
22.65000 19.205
22.66000 19.245
22.67000 26.334
22.68000 22.264
22.69000 28.543
22.70000 21.194
22.71000 17.172
22.72000 19.140
22.73000 22.391
22.74000 16.141
22.75000 22.095
22.76000 31.361
22.77000 16.352
22.78000 21.373
22.79000 19.361
22.80000 31.476
22.81000 26.445
22.82000 28.296
22.83000 15.242
22.84000 25.442
22.85000 28.485
22.86000 19.483
22.87000 29.169
22.88000 18.206
22.89000 23.244
22.90000 23.220
22.91000 25.209
22.92000 26.353
22.93000 26.345
22.94000 31.483
22.95000 21.430
22.96000 23.276
22.97000 22.500
22.98000 42.550
22.99000 25.351
23.00000 36.294
23.01000 23.287
23.02000 20.119
23.03000 20.290
23.04000 25.280
23.05000 29.365
23.06000 28.478
23.07000 21.366
23.08000 15.346
23.09000 26.369
23.10000 18.271
23.11000 27.381
23.12000 23.350
23.13000 29.280
23.14000 14.222
23.15000 20.285
23.16000 26.403
23.17000 20.264
23.18000 30.132
23.19000 25.348
23.20000 22.343
23.21000 26.292
23.22000 26.418
23.23000 24.313
23.24000 30.357
23.25000 17.340
23.26000 30.417
23.27000 29.457
23.28000 23.432
23.29000 25.256
23.30000 26.360
23.31000 35.353
23.32000 31.222
23.33000 23.237
23.34000 32.282
23.35000 28.380
23.36000 26.108
23.37000 26.346
23.38000 23.299
23.39000 28.408
23.40000 20.502
23.41000 18.148
23.42000 21.594
23.43000 21.106
23.44000 26.228
23.45000 25.438
23.46000 28.495
23.47000 29.601
23.48000 32.458
23.49000 30.295
23.50000 21.505
23.51000 15.167
23.52000 26.266
23.53000 12.164
23.54000 32.384
23.55000 28.501
23.56000 28.304
23.57000 19.255
23.58000 13.073
23.59000 26.024
23.60000 22.218
23.61000 29.520
23.62000 22.255
23.63000 22.150
23.64000 18.308
23.65000 27.280
23.66000 32.439
23.67000 27.578
23.68000 24.560
23.69000 23.390
23.70000 28.237
23.71000 36.731
23.72000 20.353
23.73000 23.362
23.74000 22.408
23.75000 32.474
23.76000 20.457
23.77000 25.323
23.78000 21.189
23.79000 26.302
23.80000 23.186
23.81000 29.604
23.82000 28.290
23.83000 30.386
23.84000 28.487
23.85000 22.251
23.86000 26.134
23.87000 29.211
23.88000 32.335
23.89000 32.331
23.90000 29.496
23.91000 30.552
23.92000 33.441
23.93000 26.403
23.94000 31.475
23.95000 30.416
23.96000 44.769
23.97000 35.598
23.98000 29.404
23.99000 26.263
24.00000 24.247
24.01000 34.527
24.02000 35.596
24.03000 27.670
24.04000 36.515
24.05000 18.465
24.06000 28.324
24.07000 14.013
24.08000 27.053
24.09000 26.268
24.10000 39.401
24.11000 23.455
24.12000 29.295
24.13000 31.156
24.14000 29.544
24.15000 27.268
24.16000 18.104
24.17000 31.237
24.18000 30.227
24.19000 30.522
24.20000 38.638
24.21000 29.458
24.22000 37.712
24.23000 44.642
24.24000 30.494
24.25000 29.684
24.26000 28.122
24.27000 27.295
24.28000 28.381
24.29000 31.747
24.30000 33.391
24.31000 31.588
24.32000 30.549
24.33000 32.582
24.34000 30.318
24.35000 41.531
24.36000 33.509
24.37000 29.408
24.38000 21.236
24.39000 28.515
24.40000 25.252
24.41000 32.379
24.42000 35.244
24.43000 43.339
24.44000 29.440
24.45000 30.246
24.46000 28.457
24.47000 42.437
24.48000 31.363
24.49000 35.178
24.50000 39.282
24.51000 29.394
24.52000 27.096
24.53000 32.316
24.54000 35.511
24.55000 32.368
24.56000 35.552
24.57000 33.353
24.58000 22.439
24.59000 26.388
24.60000 26.605
24.61000 26.289
24.62000 36.515
24.63000 23.421
24.64000 32.462
24.65000 26.163
24.66000 29.392
24.67000 31.229
24.68000 27.316
24.69000 47.774
24.70000 33.584
24.71000 32.387
24.72000 23.182
24.73000 34.675
24.74000 28.682
24.75000 25.475
24.76000 33.253
24.77000 31.328
24.78000 26.277
24.79000 37.407
24.80000 31.377
24.81000 32.378
24.82000 35.385
24.83000 39.477
24.84000 33.594
24.85000 41.443
24.86000 37.444
24.87000 30.415
24.88000 37.437
24.89000 27.287
24.90000 29.260
24.91000 30.566
24.92000 34.538
24.93000 37.766
24.94000 35.573
24.95000 32.586
24.96000 28.338
24.97000 27.431
24.98000 35.491
24.99000 34.410
25.00000 28.560
25.01000 34.384
25.02000 31.339
25.03000 30.459
25.04000 25.266
25.05000 38.504
25.06000 35.120
25.07000 37.669
25.08000 32.428
25.09000 22.227
25.10000 26.287
25.11000 33.315
25.12000 36.581
25.13000 33.465
25.14000 31.991
25.15000 32.331
25.16000 34.684
25.17000 41.688
25.18000 35.735
25.19000 33.327
25.20000 37.622
25.21000 26.330
25.22000 28.526
25.23000 34.419
25.24000 24.403
25.25000 42.580
25.26000 32.545
25.27000 23.295
25.28000 35.489
25.29000 50.709
25.30000 38.490
25.31000 30.449
25.32000 30.501
25.33000 41.784
25.34000 36.631
25.35000 33.726
25.36000 35.579
25.37000 46.673
25.38000 38.184
25.39000 54.646
25.40000 36.545
25.41000 37.280
25.42000 44.682
25.43000 44.663
25.44000 56.818
25.45000 30.550
25.46000 48.700
25.47000 44.450
25.48000 33.545
25.49000 34.395
25.50000 35.286
25.51000 40.384
25.52000 29.356
25.53000 33.756
25.54000 36.306
25.55000 30.298
25.56000 42.466
25.57000 36.435
25.58000 37.221
25.59000 35.325
25.60000 37.279
25.61000 49.715
25.62000 34.507
25.63000 37.339
25.64000 36.513
25.65000 46.643
25.66000 41.339
25.67000 41.367
25.68000 40.530
25.69000 50.762
25.70000 42.517
25.71000 49.759
25.72000 44.457
25.73000 50.561
25.74000 28.431
25.75000 38.301
25.76000 38.721
25.77000 34.838
25.78000 44.631
25.79000 38.581
25.80000 30.090
25.81000 37.548
25.82000 27.205
25.83000 43.462
25.84000 37.605
25.85000 39.605
25.86000 54.006
25.87000 50.484
25.88000 40.679
25.89000 27.403
25.90000 47.744
25.91000 38.375
25.92000 36.684
25.93000 39.613
25.94000 42.715
25.95000 36.440
25.96000 29.364
25.97000 43.777
25.98000 44.518
25.99000 39.739
26.00000 40.523
26.01000 44.445
26.02000 40.584
26.03000 43.922
26.04000 34.466
26.05000 39.569
26.06000 28.400
26.07000 44.438
26.08000 46.715
26.09000 48.437
26.10000 40.486
26.11000 37.444
26.12000 33.399
26.13000 48.612
26.14000 41.626
26.15000 44.224
26.16000 38.416
26.17000 41.689
26.18000 44.545
26.19000 51.300
26.20000 41.143
26.21000 42.703
26.22000 46.559
26.23000 36.540
26.24000 43.539
26.25000 45.508
26.26000 40.411
26.27000 46.361
26.28000 42.688
26.29000 32.592
26.30000 41.637
26.31000 53.582
26.32000 58.771
26.33000 47.609
26.34000 46.291
26.35000 50.710
26.36000 40.760
26.37000 37.407
26.38000 48.783
26.39000 47.986
26.40000 46.573
26.41000 56.724
26.42000 40.551
26.43000 45.432
26.44000 44.548
26.45000 41.454
26.46000 53.867
26.47000 37.684
26.48000 47.890
26.49000 45.624
26.50000 43.586
26.51000 44.224
26.52000 46.617
26.53000 45.526
26.54000 42.295
26.55000 58.739
26.56000 40.841
26.57000 48.614
26.58000 48.489
26.59000 49.444
26.60000 40.625
26.61000 46.311
26.62000 44.595
26.63000 39.317
26.64000 43.484
26.65000 47.469
26.66000 58.923
26.67000 54.552
26.68000 50.798
26.69000 58.339
26.70000 55.776
26.71000 54.936
26.72000 53.581
26.73000 43.702
26.74000 53.929
26.75000 52.852
26.76000 39.645
26.77000 51.805
26.78000 47.524
26.79000 49.841
26.80000 54.710
26.81000 43.541
26.82000 56.866
26.83000 52.581
26.84000 50.679
26.85000 55.957
26.86000 49.688
26.87000 47.755
26.88000 36.437
26.89000 39.625
26.90000 40.482
26.91000 58.413
26.92000 56.802
26.93000 46.499
26.94000 47.565
26.95000 42.308
26.96000 58.554
26.97000 42.527
26.98000 47.709
26.99000 36.558
27.00000 50.601
27.01000 41.492
27.02000 49.915
27.03000 47.706
27.04000 65.775
27.05000 50.702
27.06000 52.030
27.07000 42.701
27.08000 63.704
27.09000 44.703
27.10000 49.761
27.11000 35.453
27.12000 62.902
27.13000 47.343
27.14000 48.572
27.15000 41.528
27.16000 47.453
27.17000 46.679
27.18000 45.361
27.19000 49.815
27.20000 46.379
27.21000 42.515
27.22000 54.016
27.23000 64.170
27.24000 52.829
27.25000 45.560
27.26000 65.479
27.27000 50.841
27.28000 50.915
27.29000 40.622
27.30000 53.579
27.31000 48.847
27.32000 38.811
27.33000 50.664
27.34000 48.555
27.35000 49.658
27.36000 51.047
27.37000 53.874
27.38000 38.468
27.39000 46.629
27.40000 52.732
27.41000 59.132
27.42000 55.710
27.43000 46.366
27.44000 51.729
27.45000 44.642
27.46000 49.892
27.47000 49.750
27.48000 58.370
27.49000 50.680
27.50000 58.897
27.51000 42.473
27.52000 51.737
27.53000 38.665
27.54000 46.420
27.55000 48.625
27.56000 53.598
27.57000 62.992
27.58000 52.594
27.59000 54.884
27.60000 38.560
27.61000 44.511
27.62000 54.886
27.63000 57.884
27.64000 44.618
27.65000 54.675
27.66000 56.596
27.67000 45.657
27.68000 43.585
27.69000 36.252
27.70000 48.811
27.71000 50.857
27.72000 57.905
27.73000 51.511
27.74000 46.563
27.75000 45.578
27.76000 55.854
27.77000 46.677
27.78000 49.723
27.79000 49.711
27.80000 49.521
27.81000 62.767
27.82000 44.583
27.83000 44.397
27.84000 57.605
27.85000 45.807
27.86000 58.770
27.87000 41.385
27.88000 48.277
27.89000 38.426
27.90000 52.608
27.91000 53.586
27.92000 49.758
27.93000 61.922
27.94000 43.566
27.95000 49.694
27.96000 48.800
27.97000 53.920
27.98000 55.490
27.99000 51.633
28.00000 50.561
28.01000 47.456
28.02000 56.994
28.03000 55.865
28.04000 47.799
28.05000 35.384
28.06000 45.594
28.07000 48.704
28.08000 33.421
28.09000 46.650
28.10000 49.842
28.11000 38.344
28.12000 35.489
28.13000 43.908
28.14000 56.757
28.15000 55.776
28.16000 56.631
28.17000 51.714
28.18000 39.801
28.19000 50.766
28.20000 50.011
28.21000 55.146
28.22000 54.951
28.23000 50.564
28.24000 47.685
28.25000 51.892
28.26000 56.401
28.27000 52.630
28.28000 53.846
28.29000 56.202
28.30000 63.880
28.31000 40.439
28.32000 47.645
28.33000 45.776
28.34000 39.618
28.35000 59.972
28.36000 55.869
28.37000 38.641
28.38000 46.505
28.39000 42.482
28.40000 46.548
28.41000 45.627
28.42000 59.692
28.43000 50.580
28.44000 49.695
28.45000 34.492
28.46000 58.833
28.47000 62.838
28.48000 42.362
28.49000 60.751
28.50000 55.748
28.51000 35.389
28.52000 65.862
28.53000 54.681
28.54000 38.473
28.55000 46.547
28.56000 52.439
28.57000 48.607
28.58000 54.824
28.59000 74.968
28.60000 48.560
28.61000 40.695
28.62000 46.425
28.63000 44.587
28.64000 60.810
28.65000 46.721
28.66000 52.758
28.67000 47.429
28.68000 47.557
28.69000 47.569
28.70000 49.435
28.71000 40.341
28.72000 37.662
28.73000 47.407
28.74000 46.335
28.75000 36.470
28.76000 42.882
28.77000 43.771
28.78000 39.717
28.79000 56.958
28.80000 54.653
28.81000 51.532
28.82000 55.464
28.83000 47.564
28.84000 58.587
28.85000 44.732
28.86000 47.770
28.87000 41.361
28.88000 29.395
28.89000 52.769
28.90000 57.896
28.91000 48.443
28.92000 43.773
28.93000 45.758
28.94000 37.685
28.95000 46.584
28.96000 37.565
28.97000 43.628
28.98000 53.710
28.99000 62.047
29.00000 49.978
29.01000 31.538
29.02000 40.566
29.03000 47.535
29.04000 51.639
29.05000 39.604
29.06000 43.356
29.07000 35.581
29.08000 53.748
29.09000 35.649
29.10000 48.496
29.11000 42.596
29.12000 42.588
29.13000 52.785
29.14000 45.790
29.15000 43.566
29.16000 48.638
29.17000 41.313
29.18000 38.321
29.19000 46.636
29.20000 59.931
29.21000 51.783
29.22000 47.519
29.23000 42.400
29.24000 48.649
29.25000 38.470
29.26000 65.729
29.27000 41.529
29.28000 45.631
29.29000 45.784
29.30000 49.854
29.31000 39.561
29.32000 37.512
29.33000 50.806
29.34000 50.789
29.35000 50.681
29.36000 33.808
29.37000 42.542
29.38000 60.038
29.39000 47.498
29.40000 35.388
29.41000 37.128
29.42000 47.498
29.43000 39.493
29.44000 52.681
29.45000 36.324
29.46000 41.618
29.47000 35.427
29.48000 47.774
29.49000 46.464
29.50000 37.478
29.51000 44.773
29.52000 44.699
29.53000 43.430
29.54000 41.804
29.55000 39.457
29.56000 37.645
29.57000 50.721
29.58000 31.537
29.59000 36.426
29.60000 41.571
29.61000 51.555
29.62000 42.676
29.63000 26.111
29.64000 40.589
29.65000 40.475
29.66000 46.591
29.67000 45.680
29.68000 35.577
29.69000 48.627
29.70000 51.705
29.71000 30.559
29.72000 30.543
29.73000 33.670
29.74000 31.338
29.75000 35.579
29.76000 33.601
29.77000 41.708
29.78000 42.626
29.79000 43.504
29.80000 37.528
29.81000 45.606
29.82000 39.365
29.83000 45.531
29.84000 34.273
29.85000 30.252
29.86000 37.573
29.87000 32.400
29.88000 37.411
29.89000 41.470
29.90000 39.508
29.91000 30.571
29.92000 33.474
29.93000 37.394
29.94000 34.402
29.95000 38.170
29.96000 50.789
29.97000 34.445
29.98000 42.741
29.99000 40.631
30.00000 43.423
30.01000 31.644
30.02000 34.271
30.03000 47.693
30.04000 31.221
30.05000 39.517
30.06000 43.646
30.07000 42.467
30.08000 32.331
30.09000 38.256
30.10000 39.520
30.11000 44.558
30.12000 34.543
30.13000 42.641
30.14000 42.551
30.15000 41.447
30.16000 43.202
30.17000 41.424
30.18000 34.331
30.19000 37.168
30.20000 36.443
30.21000 29.439
30.22000 35.057
30.23000 44.513
30.24000 37.817
30.25000 36.430
30.26000 29.306
30.27000 39.645
30.28000 35.398
30.29000 22.492
30.30000 34.355
30.31000 22.154
30.32000 26.455
30.33000 39.546
30.34000 33.362
30.35000 30.687
30.36000 31.257
30.37000 32.543
30.38000 31.352
30.39000 44.413
30.40000 28.427
30.41000 49.550
30.42000 31.383
30.43000 42.765
30.44000 41.564
30.45000 36.340
30.46000 28.268
30.47000 26.128
30.48000 25.470
30.49000 28.588
30.50000 33.228
30.51000 34.546
30.52000 39.566
30.53000 33.410
30.54000 33.248
30.55000 44.747
30.56000 33.219
30.57000 28.241
30.58000 46.597
30.59000 40.544
30.60000 29.407
30.61000 49.495
30.62000 31.196
30.63000 28.421
30.64000 37.455
30.65000 38.535
30.66000 34.322
30.67000 27.393
30.68000 32.304
30.69000 30.239
30.70000 29.349
30.71000 41.770
30.72000 34.516
30.73000 22.328
30.74000 36.236
30.75000 29.294
30.76000 27.473
30.77000 28.207
30.78000 33.543
30.79000 32.311
30.80000 33.634
30.81000 34.354
30.82000 27.349
30.83000 37.576
30.84000 33.838
30.85000 47.601
30.86000 37.343
30.87000 29.594
30.88000 27.247
30.89000 24.302
30.90000 32.967
30.91000 19.305
30.92000 27.574
30.93000 31.350
30.94000 36.378
30.95000 37.340
30.96000 30.352
30.97000 31.396
30.98000 29.332
30.99000 28.456
31.00000 29.381
31.01000 22.409
31.02000 32.601
31.03000 41.315
31.04000 25.424
31.05000 37.457
31.06000 28.332
31.07000 29.418
31.08000 36.382
31.09000 25.786
31.10000 32.653
31.11000 32.611
31.12000 33.242
31.13000 34.279
31.14000 34.465
31.15000 38.487
31.16000 40.451
31.17000 33.385
31.18000 33.696
31.19000 31.544
31.20000 27.309
31.21000 24.217
31.22000 21.485
31.23000 27.652
31.24000 36.522
31.25000 24.275
31.26000 31.307
31.27000 27.261
31.28000 22.179
31.29000 32.067
31.30000 33.444
31.31000 28.462
31.32000 27.087
31.33000 20.277
31.34000 35.701
31.35000 32.454
31.36000 17.282
31.37000 32.348
31.38000 17.954
31.39000 30.552
31.40000 22.291
31.41000 24.276
31.42000 25.428
31.43000 29.653
31.44000 24.306
31.45000 31.440
31.46000 30.440
31.47000 29.362
31.48000 26.201
31.49000 31.424
31.50000 22.207
31.51000 25.287
31.52000 20.218
31.53000 25.443
31.54000 27.348
31.55000 25.203
31.56000 34.303
31.57000 19.350
31.58000 28.356
31.59000 28.363
31.60000 21.035
31.61000 31.414
31.62000 26.288
31.63000 27.330
31.64000 34.308
31.65000 36.375
31.66000 27.379
31.67000 25.206
31.68000 37.463
31.69000 24.109
31.70000 27.480
31.71000 23.427
31.72000 21.507
31.73000 24.472
31.74000 30.182
31.75000 26.518
31.76000 31.424
31.77000 30.343
31.78000 30.377
31.79000 21.087
31.80000 22.313
31.81000 29.458
31.82000 25.308
31.83000 32.316
31.84000 23.329
31.85000 19.242
31.86000 28.330
31.87000 27.396
31.88000 29.716
31.89000 27.439
31.90000 20.169
31.91000 18.026
31.92000 22.286
31.93000 22.109
31.94000 25.355
31.95000 37.545
31.96000 23.237
31.97000 21.402
31.98000 28.232
31.99000 23.395
32.00000 23.308
32.01000 27.265
32.02000 27.420
32.03000 31.496
32.04000 24.459
32.05000 25.382
32.06000 15.022
32.07000 27.494
32.08000 22.395
32.09000 31.621
32.10000 23.276
32.11000 21.156
32.12000 29.343
32.13000 26.434
32.14000 26.611
32.15000 21.290
32.16000 37.746
32.17000 32.335
32.18000 34.533
32.19000 36.194
32.20000 29.525
32.21000 26.436
32.22000 29.496
32.23000 29.260
32.24000 16.088
32.25000 18.180
32.26000 35.344
32.27000 37.475
32.28000 28.364
32.29000 30.514
32.30000 31.320
32.31000 27.412
32.32000 24.165
32.33000 26.408
32.34000 20.296
32.35000 30.264
32.36000 29.322
32.37000 22.333
32.38000 23.348
32.39000 21.331
32.40000 30.436
32.41000 35.594
32.42000 18.287
32.43000 31.682
32.44000 27.275
32.45000 33.393
32.46000 23.307
32.47000 24.357
32.48000 26.259
32.49000 29.339
32.50000 18.313
32.51000 28.415
32.52000 26.269
32.53000 16.103
32.54000 27.295
32.55000 21.174
32.56000 22.365
32.57000 20.198
32.58000 22.428
32.59000 30.371
32.60000 24.225
32.61000 16.240
32.62000 22.263
32.63000 19.143
32.64000 17.209
32.65000 19.282
32.66000 24.284
32.67000 23.379
32.68000 21.591
32.69000 26.456
32.70000 26.314
32.71000 19.222
32.72000 23.556
32.73000 19.318
32.74000 24.291
32.75000 21.329
32.76000 20.453
32.77000 22.225
32.78000 15.318
32.79000 31.497
32.80000 29.364
32.81000 18.145
32.82000 18.412
32.83000 26.422
32.84000 22.364
32.85000 20.294
32.86000 19.358
32.87000 20.217
32.88000 13.321
32.89000 18.338
32.90000 24.218
32.91000 19.214
32.92000 27.238
32.93000 23.271
32.94000 13.270
32.95000 24.068
32.96000 12.123
32.97000 18.299
32.98000 18.208
32.99000 22.205
33.00000 19.357
33.01000 18.412
33.02000 31.402
33.03000 20.312
33.04000 16.139
33.05000 15.186
33.06000 24.246
33.07000 20.285
33.08000 15.287
33.09000 21.307
33.10000 22.228
33.11000 20.388
33.12000 23.338
33.13000 22.355
33.14000 17.053
33.15000 14.108
33.16000 28.423
33.17000 20.149
33.18000 15.196
33.19000 30.242
33.20000 23.411
33.21000 18.309
33.22000 13.245
33.23000 21.241
33.24000 23.268
33.25000 14.141
33.26000 18.209
33.27000 17.303
33.28000 18.344
33.29000 14.175
33.30000 9.133
33.31000 16.505
33.32000 26.229
33.33000 17.186
33.34000 12.040
33.35000 26.476
33.36000 20.163
33.37000 18.229
33.38000 21.098
33.39000 16.099
33.40000 19.058
33.41000 27.270
33.42000 19.286
33.43000 15.031
33.44000 25.162
33.45000 19.085
33.46000 19.355
33.47000 17.331
33.48000 17.128
33.49000 17.074
33.50000 14.120
33.51000 20.243
33.52000 16.232
33.53000 19.314
33.54000 19.147
33.55000 23.251
33.56000 18.436
33.57000 20.213
33.58000 17.280
33.59000 12.006
33.60000 18.128
33.61000 16.209
33.62000 15.279
33.63000 15.427
33.64000 20.229
33.65000 17.123
33.66000 16.180
33.67000 11.065
33.68000 17.194
33.69000 23.430
33.70000 15.111
33.71000 17.234
33.72000 23.335
33.73000 17.300
33.74000 15.262
33.75000 13.214
33.76000 24.303
33.77000 17.378
33.78000 13.052
33.79000 16.141
33.80000 16.254
33.81000 12.138
33.82000 17.282
33.83000 23.017
33.84000 16.996
33.85000 26.188
33.86000 14.198
33.87000 19.448
33.88000 13.147
33.89000 13.117
33.90000 13.142
33.91000 22.293
33.92000 10.161
33.93000 28.320
33.94000 23.370
33.95000 11.199
33.96000 16.292
33.97000 14.229
33.98000 16.212
33.99000 13.142
34.00000 17.229
34.01000 25.195
34.02000 20.327
34.03000 22.079
34.04000 21.338
34.05000 16.333
34.06000 18.221
34.07000 15.213
34.08000 12.048
34.09000 17.321
34.10000 10.250
34.11000 20.423
34.12000 22.470
34.13000 18.155
34.14000 14.245
34.15000 16.179
34.16000 21.441
34.17000 16.187
34.18000 20.196
34.19000 12.194
34.20000 16.045
34.21000 17.281
34.22000 19.385
34.23000 18.164
34.24000 16.133
34.25000 8.164
34.26000 11.289
34.27000 10.143
34.28000 16.113
34.29000 15.093
34.30000 19.278
34.31000 12.379
34.32000 17.269
34.33000 17.253
34.34000 21.379
34.35000 26.501
34.36000 13.140
34.37000 14.217
34.38000 14.110
34.39000 21.305
34.40000 11.173
34.41000 8.117
34.42000 16.293
34.43000 18.165
34.44000 12.159
34.45000 20.131
34.46000 9.221
34.47000 15.041
34.48000 16.306
34.49000 17.282
34.50000 11.062
34.51000 15.330
34.52000 15.060
34.53000 12.010
34.54000 19.247
34.55000 14.074
34.56000 14.089
34.57000 18.298
34.58000 18.107
34.59000 15.148
34.60000 11.005
34.61000 20.047
34.62000 24.383
34.63000 13.232
34.64000 16.164
34.65000 13.178
34.66000 12.344
34.67000 19.115
34.68000 23.239
34.69000 15.263
34.70000 28.424
34.71000 21.209
34.72000 19.281
34.73000 15.240
34.74000 18.266
34.75000 14.183
34.76000 15.422
34.77000 15.183
34.78000 12.301
34.79000 11.974
34.80000 18.232
34.81000 14.078
34.82000 12.189
34.83000 12.098
34.84000 18.176
34.85000 12.026
34.86000 17.274
34.87000 16.155
34.88000 25.390
34.89000 13.266
34.90000 19.237
34.91000 9.062
34.92000 14.242
34.93000 14.127
34.94000 10.042
34.95000 18.189
34.96000 15.046
34.97000 7.068
34.98000 20.203
34.99000 13.352
35.00000 18.295
35.01000 21.039
35.02000 18.433
35.03000 10.154
35.04000 21.259
35.05000 13.115
35.06000 10.135
35.07000 15.284
35.08000 16.353
35.09000 17.047
35.10000 12.157
35.11000 15.106
35.12000 12.020
35.13000 13.115
35.14000 12.123
35.15000 14.159
35.16000 17.388
35.17000 22.452
35.18000 16.208
35.19000 12.200
35.20000 18.253
35.21000 11.174
35.22000 15.165
35.23000 18.184
35.24000 10.228
35.25000 12.210
35.26000 22.414
35.27000 18.276
35.28000 10.164
35.29000 12.242
35.30000 16.066
35.31000 19.278
35.32000 20.374
35.33000 15.247
35.34000 19.023
35.35000 17.192
35.36000 15.155
35.37000 13.107
35.38000 14.326
35.39000 22.157
35.40000 13.993
35.41000 17.094
35.42000 14.005
35.43000 16.274
35.44000 15.156
35.45000 21.343
35.46000 19.237
35.47000 22.206
35.48000 16.213
35.49000 13.227
35.50000 18.238
35.51000 14.122
35.52000 10.166
35.53000 14.150
35.54000 15.104
35.55000 22.198
35.56000 19.097
35.57000 15.292
35.58000 7.177
35.59000 9.042
35.60000 22.109
35.61000 18.266
35.62000 11.050
35.63000 12.058
35.64000 17.123
35.65000 18.038
35.66000 11.118
35.67000 20.131
35.68000 12.094
35.69000 20.098
35.70000 19.140
35.71000 19.158
35.72000 12.103
35.73000 18.095
35.74000 13.336
35.75000 15.048
35.76000 20.338
35.77000 15.117
35.78000 15.199
35.79000 12.046
35.80000 14.125
35.81000 18.142
35.82000 23.198
35.83000 20.412
35.84000 15.204
35.85000 15.108
35.86000 15.217
35.87000 15.065
35.88000 15.141
35.89000 14.158
35.90000 16.073
35.91000 12.160
35.92000 14.221
35.93000 15.249
35.94000 6.169
35.95000 15.187
35.96000 11.966
35.97000 10.062
35.98000 16.236
35.99000 17.174
36.00000 16.159
36.01000 15.161
36.02000 20.211
36.03000 19.334
36.04000 8.049
36.05000 24.296
36.06000 16.130
36.07000 20.328
36.08000 11.098
36.09000 14.157
36.10000 20.100
36.11000 16.056
36.12000 17.007
36.13000 20.239
36.14000 15.111
36.15000 11.221
36.16000 19.314
36.17000 19.258
36.18000 19.307
36.19000 16.196
36.20000 17.219
36.21000 7.991
36.22000 12.126
36.23000 13.340
36.24000 12.246
36.25000 16.317
36.26000 7.034
36.27000 19.343
36.28000 14.247
36.29000 15.166
36.30000 15.412
36.31000 19.381
36.32000 9.272
36.33000 23.225
36.34000 17.014
36.35000 17.237
36.36000 14.176
36.37000 16.461
36.38000 19.230
36.39000 17.184
36.40000 15.227
36.41000 15.148
36.42000 18.308
36.43000 14.166
36.44000 17.143
36.45000 15.171
36.46000 25.344
36.47000 16.169
36.48000 17.310
36.49000 20.199
36.50000 14.178
36.51000 20.205
36.52000 18.087
36.53000 16.159
36.54000 17.193
36.55000 11.164
36.56000 18.190
36.57000 14.109
36.58000 23.302
36.59000 14.191
36.60000 19.172
36.61000 22.189
36.62000 13.191
36.63000 18.208
36.64000 11.232
36.65000 17.364
36.66000 14.982
36.67000 22.171
36.68000 12.187
36.69000 12.171
36.70000 24.305
36.71000 16.298
36.72000 23.338
36.73000 18.256
36.74000 20.078
36.75000 9.110
36.76000 12.170
36.77000 19.244
36.78000 15.100
36.79000 15.478
36.80000 13.284
36.81000 16.163
36.82000 13.146
36.83000 13.130
36.84000 20.388
36.85000 18.264
36.86000 21.200
36.87000 12.215
36.88000 17.109
36.89000 16.475
36.90000 24.364
36.91000 12.144
36.92000 18.194
36.93000 15.289
36.94000 13.323
36.95000 13.172
36.96000 14.272
36.97000 15.303
36.98000 18.092
36.99000 13.229
37.00000 17.236
37.01000 23.238
37.02000 9.025
37.03000 9.105
37.04000 18.180
37.05000 14.193
37.06000 18.380
37.07000 15.272
37.08000 12.995
37.09000 14.236
37.10000 15.245
37.11000 12.117
37.12000 18.227
37.13000 22.258
37.14000 14.165
37.15000 18.118
37.16000 10.186
37.17000 18.271
37.18000 17.240
37.19000 14.388
37.20000 15.118
37.21000 19.420
37.22000 29.234
37.23000 10.974
37.24000 14.254
37.25000 17.310
37.26000 18.141
37.27000 18.162
37.28000 18.204
37.29000 16.135
37.30000 16.152
37.31000 20.228
37.32000 13.140
37.33000 8.995
37.34000 17.262
37.35000 18.395
37.36000 19.099
37.37000 26.298
37.38000 20.174
37.39000 16.928
37.40000 20.369
37.41000 11.304
37.42000 16.185
37.43000 10.156
37.44000 17.120
37.45000 18.271
37.46000 25.162
37.47000 19.370
37.48000 15.238
37.49000 11.111
37.50000 15.257
37.51000 14.206
37.52000 15.259
37.53000 12.107
37.54000 15.264
37.55000 21.195
37.56000 14.160
37.57000 21.523
37.58000 14.131
37.59000 13.311
37.60000 17.222
37.61000 16.308
37.62000 19.314
37.63000 15.049
37.64000 10.125
37.65000 17.285
37.66000 25.336
37.67000 23.133
37.68000 17.403
37.69000 18.322
37.70000 15.124
37.71000 12.100
37.72000 19.303
37.73000 18.185
37.74000 17.509
37.75000 16.277
37.76000 15.056
37.77000 17.134
37.78000 14.203
37.79000 15.259
37.80000 14.268
37.81000 20.231
37.82000 13.178
37.83000 15.118
37.84000 12.014
37.85000 10.137
37.86000 17.214
37.87000 12.117
37.88000 21.432
37.89000 26.306
37.90000 11.160
37.91000 19.270
37.92000 21.207
37.93000 15.122
37.94000 16.207
37.95000 14.246
37.96000 12.238
37.97000 14.125
37.98000 22.332
37.99000 11.063
38.00000 17.189
38.01000 21.412
38.02000 17.277
38.03000 11.248
38.04000 17.332
38.05000 16.096
38.06000 14.158
38.07000 24.423
38.08000 15.157
38.09000 18.363
38.10000 14.226
38.11000 15.269
38.12000 25.229
38.13000 12.336
38.14000 13.158
38.15000 14.360
38.16000 16.179
38.17000 16.013
38.18000 16.095
38.19000 17.489
38.20000 16.182
38.21000 9.286
38.22000 20.225
38.23000 27.386
38.24000 18.186
38.25000 26.343
38.26000 15.121
38.27000 21.232
38.28000 14.112
38.29000 22.364
38.30000 14.221
38.31000 16.196
38.32000 21.150
38.33000 21.183
38.34000 16.210
38.35000 12.390
38.36000 16.013
38.37000 13.200
38.38000 16.341
38.39000 18.191
38.40000 18.405
38.41000 12.133
38.42000 12.125
38.43000 16.118
38.44000 22.179
38.45000 14.174
38.46000 18.430
38.47000 19.254
38.48000 15.199
38.49000 25.156
38.50000 23.440
38.51000 21.384
38.52000 17.349
38.53000 18.061
38.54000 12.214
38.55000 17.164
38.56000 18.274
38.57000 20.213
38.58000 14.299
38.59000 20.327
38.60000 16.274
38.61000 18.415
38.62000 16.300
38.63000 20.032
38.64000 14.136
38.65000 22.532
38.66000 19.136
38.67000 14.222
38.68000 14.321
38.69000 17.191
38.70000 15.287
38.71000 24.264
38.72000 20.198
38.73000 10.157
38.74000 19.138
38.75000 20.402
38.76000 20.394
38.77000 15.073
38.78000 26.479
38.79000 14.112
38.80000 23.466
38.81000 19.110
38.82000 17.377
38.83000 10.049
38.84000 16.120
38.85000 12.097
38.86000 22.201
38.87000 29.352
38.88000 21.385
38.89000 11.202
38.90000 20.308
38.91000 13.097
38.92000 19.282
38.93000 24.234
38.94000 14.010
38.95000 24.374
38.96000 14.133
38.97000 23.195
38.98000 6.131
38.99000 16.469
39.00000 21.240
39.01000 18.074
39.02000 19.236
39.03000 15.111
39.04000 25.364
39.05000 14.208
39.06000 10.110
39.07000 13.255
39.08000 19.348
39.09000 19.331
39.10000 20.472
39.11000 18.105
39.12000 21.243
39.13000 14.187
39.14000 21.119
39.15000 23.114
39.16000 14.186
39.17000 22.353
39.18000 14.330
39.19000 20.298
39.20000 18.070
39.21000 11.226
39.22000 26.202
39.23000 16.342
39.24000 17.292
39.25000 10.083
39.26000 13.158
39.27000 13.190
39.28000 16.226
39.29000 18.351
39.30000 15.217
39.31000 12.145
39.32000 16.122
39.33000 24.347
39.34000 15.380
39.35000 11.114
39.36000 23.429
39.37000 14.308
39.38000 17.225
39.39000 17.222
39.40000 14.164
39.41000 21.513
39.42000 25.406
39.43000 22.151
39.44000 16.139
39.45000 9.155
39.46000 16.252
39.47000 20.274
39.48000 16.202
39.49000 15.306
39.50000 22.293
39.51000 19.299
39.52000 16.302
39.53000 9.085
39.54000 24.273
39.55000 16.438
39.56000 17.221
39.57000 15.204
39.58000 11.223
39.59000 25.204
39.60000 15.295
39.61000 16.265
39.62000 24.573
39.63000 14.152
39.64000 13.239
39.65000 20.262
39.66000 19.162
39.67000 21.433
39.68000 16.268
39.69000 17.431
39.70000 12.185
39.71000 23.369
39.72000 11.166
39.73000 13.103
39.74000 13.273
39.75000 19.296
39.76000 21.498
39.77000 19.351
39.78000 19.238
39.79000 19.398
39.80000 18.164
39.81000 22.260
39.82000 13.235
39.83000 14.212
39.84000 19.180
39.85000 27.290
39.86000 25.253
39.87000 19.320
39.88000 21.252
39.89000 18.193
39.90000 20.250
39.91000 24.367
39.92000 26.373
39.93000 9.232
39.94000 24.272
39.95000 20.360
39.96000 12.240
39.97000 28.282
39.98000 29.427
39.99000 17.193
40.00000 21.413
40.01000 16.354
40.02000 26.395
40.03000 32.247
40.04000 16.126
40.05000 21.340
40.06000 12.194
40.07000 17.160
40.08000 27.287
40.09000 24.307
40.10000 21.212
40.11000 14.119
40.12000 15.065
40.13000 19.188
40.14000 12.201
40.15000 16.230
40.16000 27.354
40.17000 31.513
40.18000 14.134
40.19000 19.281
40.20000 20.276
40.21000 23.596
40.22000 15.137
40.23000 25.206
40.24000 13.153
40.25000 18.522
40.26000 23.298
40.27000 25.112
40.28000 19.257
40.29000 13.095
40.30000 14.315
40.31000 23.043
40.32000 24.320
40.33000 20.028
40.34000 27.433
40.35000 15.175
40.36000 19.246
40.37000 19.293
40.38000 17.101
40.39000 16.111
40.40000 18.265
40.41000 16.287
40.42000 21.435
40.43000 20.220
40.44000 19.277
40.45000 25.247
40.46000 10.138
40.47000 19.200
40.48000 16.244
40.49000 20.241
40.50000 21.288
40.51000 22.473
40.52000 18.263
40.53000 25.154
40.54000 19.316
40.55000 19.121
40.56000 16.063
40.57000 18.270
40.58000 23.453
40.59000 13.354
40.60000 16.226
40.61000 18.137
40.62000 25.436
40.63000 16.093
40.64000 22.345
40.65000 15.025
40.66000 18.312
40.67000 10.194
40.68000 18.278
40.69000 14.083
40.70000 18.160
40.71000 16.203
40.72000 8.991
40.73000 24.537
40.74000 22.273
40.75000 28.358
40.76000 27.397
40.77000 26.538
40.78000 22.663
40.79000 24.331
40.80000 26.246
40.81000 29.328
40.82000 14.065
40.83000 24.267
40.84000 10.213
40.85000 17.116
40.86000 13.231
40.87000 15.214
40.88000 9.239
40.89000 16.316
40.90000 14.294
40.91000 24.174
40.92000 24.143
40.93000 17.218
40.94000 17.146
40.95000 17.229
40.96000 9.166
40.97000 36.812
40.98000 20.421
40.99000 19.150
41.00000 18.212
41.01000 20.179
41.02000 11.117
41.03000 18.407
41.04000 25.392
41.05000 16.337
41.06000 15.210
41.07000 21.340
41.08000 16.029
41.09000 22.383
41.10000 21.311
41.11000 22.576
41.12000 20.187
41.13000 20.288
41.14000 20.277
41.15000 16.143
41.16000 25.383
41.17000 18.237
41.18000 26.410
41.19000 17.239
41.20000 11.255
41.21000 20.208
41.22000 27.531
41.23000 23.314
41.24000 17.189
41.25000 16.177
41.26000 21.232
41.27000 19.273
41.28000 22.514
41.29000 16.171
41.30000 17.089
41.31000 10.156
41.32000 21.300
41.33000 23.187
41.34000 17.135
41.35000 22.398
41.36000 28.265
41.37000 12.093
41.38000 16.251
41.39000 19.380
41.40000 21.298
41.41000 23.403
41.42000 20.113
41.43000 23.389
41.44000 21.294
41.45000 14.194
41.46000 21.148
41.47000 19.269
41.48000 19.142
41.49000 22.412
41.50000 15.139
41.51000 13.141
41.52000 18.321
41.53000 22.132
41.54000 22.365
41.55000 19.460
41.56000 23.232
41.57000 18.991
41.58000 20.057
41.59000 25.399
41.60000 14.039
41.61000 9.158
41.62000 22.190
41.63000 24.320
41.64000 22.342
41.65000 17.216
41.66000 21.321
41.67000 27.424
41.68000 17.296
41.69000 18.269
41.70000 15.266
41.71000 16.153
41.72000 18.344
41.73000 20.288
41.74000 14.271
41.75000 29.278
41.76000 25.272
41.77000 18.279
41.78000 16.235
41.79000 16.177
41.80000 24.169
41.81000 22.454
41.82000 14.264
41.83000 16.229
41.84000 20.127
41.85000 18.142
41.86000 17.204
41.87000 23.354
41.88000 16.303
41.89000 13.205
41.90000 33.546
41.91000 23.241
41.92000 31.474
41.93000 22.280
41.94000 21.293
41.95000 19.278
41.96000 21.364
41.97000 18.239
41.98000 15.268
41.99000 22.320
42.00000 16.340
42.01000 15.114
42.02000 21.184
42.03000 16.102
42.04000 24.477
42.05000 23.221
42.06000 21.438
42.07000 29.377
42.08000 23.424
42.09000 15.346
42.10000 17.037
42.11000 17.141
42.12000 14.235
42.13000 17.334
42.14000 18.261
42.15000 20.267
42.16000 21.175
42.17000 24.384
42.18000 24.528
42.19000 15.320
42.20000 28.183
42.21000 13.114
42.22000 22.212
42.23000 17.304
42.24000 18.197
42.25000 15.129
42.26000 23.334
42.27000 20.307
42.28000 21.264
42.29000 18.392
42.30000 11.186
42.31000 24.344
42.32000 11.123
42.33000 14.234
42.34000 20.262
42.35000 18.066
42.36000 22.454
42.37000 18.199
42.38000 23.452
42.39000 17.160
42.40000 26.234
42.41000 17.403
42.42000 22.253
42.43000 18.156
42.44000 20.246
42.45000 18.099
42.46000 22.221
42.47000 25.357
42.48000 20.404
42.49000 15.366
42.50000 24.539
42.51000 18.207
42.52000 19.265
42.53000 17.288
42.54000 17.353
42.55000 14.283
42.56000 23.089
42.57000 20.536
42.58000 16.059
42.59000 23.230
42.60000 16.284
42.61000 22.114
42.62000 21.307
42.63000 26.421
42.64000 15.217
42.65000 28.428
42.66000 15.237
42.67000 24.257
42.68000 21.377
42.69000 17.495
42.70000 16.160
42.71000 17.181
42.72000 13.121
42.73000 19.197
42.74000 20.286
42.75000 15.279
42.76000 16.265
42.77000 25.352
42.78000 13.284
42.79000 20.274
42.80000 12.951
42.81000 24.172
42.82000 21.146
42.83000 26.293
42.84000 16.193
42.85000 12.124
42.86000 15.041
42.87000 15.058
42.88000 13.147
42.89000 18.248
42.90000 22.289
42.91000 18.166
42.92000 26.287
42.93000 15.410
42.94000 19.270
42.95000 17.353
42.96000 17.169
42.97000 18.285
42.98000 20.443
42.99000 17.220
43.00000 24.275
43.01000 9.169
43.02000 26.400
43.03000 16.281
43.04000 11.171
43.05000 14.236
43.06000 13.142
43.07000 12.162
43.08000 19.131
43.09000 15.160
43.10000 13.140
43.11000 23.213
43.12000 16.189
43.13000 19.311
43.14000 20.186
43.15000 22.359
43.16000 28.491
43.17000 18.222
43.18000 21.174
43.19000 16.052
43.20000 19.059
43.21000 22.455
43.22000 22.237
43.23000 20.322
43.24000 22.301
43.25000 19.315
43.26000 16.303
43.27000 21.433
43.28000 24.319
43.29000 22.172
43.30000 18.319
43.31000 20.356
43.32000 20.361
43.33000 20.342
43.34000 17.260
43.35000 20.373
43.36000 16.248
43.37000 20.506
43.38000 26.306
43.39000 20.184
43.40000 17.410
43.41000 22.337
43.42000 33.685
43.43000 21.259
43.44000 21.436
43.45000 20.331
43.46000 15.311
43.47000 14.117
43.48000 23.298
43.49000 16.290
43.50000 16.313
43.51000 7.090
43.52000 10.313
43.53000 12.220
43.54000 27.239
43.55000 17.186
43.56000 20.064
43.57000 19.231
43.58000 19.474
43.59000 19.120
43.60000 13.293
43.61000 17.386
43.62000 18.125
43.63000 15.113
43.64000 14.191
43.65000 25.394
43.66000 25.414
43.67000 14.244
43.68000 19.127
43.69000 21.301
43.70000 19.152
43.71000 15.072
43.72000 23.397
43.73000 10.059
43.74000 15.397
43.75000 25.462
43.76000 18.178
43.77000 15.157
43.78000 15.243
43.79000 19.202
43.80000 15.144
43.81000 20.283
43.82000 24.260
43.83000 16.373
43.84000 19.020
43.85000 22.325
43.86000 13.033
43.87000 21.305
43.88000 12.015
43.89000 17.235
43.90000 17.387
43.91000 17.297
43.92000 19.142
43.93000 14.194
43.94000 15.106
43.95000 18.378
43.96000 30.268
43.97000 19.158
43.98000 24.367
43.99000 24.208
44.00000 20.348
44.01000 19.291
44.02000 18.219
44.03000 17.498
44.04000 17.344
44.05000 20.248
44.06000 11.080
44.07000 14.322
44.08000 18.226
44.09000 14.060
44.10000 20.333
44.11000 18.423
44.12000 18.214
44.13000 28.295
44.14000 30.358
44.15000 16.219
44.16000 26.363
44.17000 20.427
44.18000 18.198
44.19000 21.174
44.20000 16.324
44.21000 17.206
44.22000 9.216
44.23000 16.348
44.24000 19.394
44.25000 16.218
44.26000 22.231
44.27000 15.200
44.28000 18.289
44.29000 19.177
44.30000 18.166
44.31000 25.174
44.32000 29.290
44.33000 11.234
44.34000 15.108
44.35000 17.258
44.36000 18.386
44.37000 16.277
44.38000 21.125
44.39000 16.287
44.40000 19.396
44.41000 17.165
44.42000 21.149
44.43000 15.164
44.44000 12.295
44.45000 14.234
44.46000 14.289
44.47000 21.115
44.48000 9.133
44.49000 16.270
44.50000 18.433
44.51000 12.312
44.52000 19.138
44.53000 17.313
44.54000 14.192
44.55000 21.137
44.56000 12.308
44.57000 24.298
44.58000 16.246
44.59000 23.340
44.60000 16.077
44.61000 25.213
44.62000 17.140
44.63000 17.065
44.64000 17.222
44.65000 16.081
44.66000 16.163
44.67000 18.120
44.68000 12.926
44.69000 21.275
44.70000 19.302
44.71000 9.138
44.72000 17.223
44.73000 22.188
44.74000 20.091
44.75000 17.356
44.76000 22.174
44.77000 18.221
44.78000 14.255
44.79000 23.202
44.80000 27.622
44.81000 14.085
44.82000 16.173
44.83000 20.121
44.84000 19.195
44.85000 17.408
44.86000 16.267
44.87000 18.442
44.88000 19.410
44.89000 18.099
44.90000 15.248
44.91000 14.026
44.92000 19.225
44.93000 10.346
44.94000 14.092
44.95000 29.292
44.96000 23.237
44.97000 14.100
44.98000 18.283
44.99000 24.378
45.00000 22.304
45.01000 21.158
45.02000 30.463
45.03000 20.549
45.04000 22.385
45.05000 21.334
45.06000 14.229
45.07000 19.328
45.08000 23.188
45.09000 19.120
45.10000 20.171
45.11000 23.200
45.12000 16.058
45.13000 21.170
45.14000 18.945
45.15000 17.240
45.16000 17.451
45.17000 17.128
45.18000 13.109
45.19000 13.276
45.20000 15.165
45.21000 22.280
45.22000 17.254
45.23000 15.134
45.24000 19.183
45.25000 18.179
45.26000 24.302
45.27000 24.481
45.28000 19.073
45.29000 18.358
45.30000 14.154
45.31000 16.210
45.32000 20.241
45.33000 22.396
45.34000 27.607
45.35000 16.174
45.36000 16.321
45.37000 14.140
45.38000 18.236
45.39000 18.298
45.40000 15.360
45.41000 25.305
45.42000 15.214
45.43000 19.411
45.44000 17.137
45.45000 18.282
45.46000 21.345
45.47000 19.285
45.48000 18.286
45.49000 22.280
45.50000 20.377
45.51000 19.194
45.52000 23.322
45.53000 16.332
45.54000 20.235
45.55000 20.213
45.56000 16.256
45.57000 22.417
45.58000 11.309
45.59000 28.291
45.60000 16.397
45.61000 17.416
45.62000 20.307
45.63000 17.220
45.64000 21.246
45.65000 25.361
45.66000 18.280
45.67000 22.214
45.68000 15.237
45.69000 22.225
45.70000 13.055
45.71000 18.202
45.72000 21.191
45.73000 15.396
45.74000 11.165
45.75000 20.257
45.76000 21.232
45.77000 20.181
45.78000 17.217
45.79000 16.145
45.80000 8.070
45.81000 17.189
45.82000 22.219
45.83000 22.207
45.84000 15.212
45.85000 20.399
45.86000 18.187
45.87000 17.395
45.88000 21.237
45.89000 16.167
45.90000 17.158
45.91000 14.115
45.92000 24.360
45.93000 23.234
45.94000 10.019
45.95000 16.246
45.96000 21.339
45.97000 17.349
45.98000 16.200
45.99000 11.109
46.00000 13.138
46.01000 18.303
46.02000 17.090
46.03000 18.254
46.04000 16.264
46.05000 15.174
46.06000 16.140
46.07000 15.256
46.08000 26.394
46.09000 22.300
46.10000 20.278
46.11000 23.305
46.12000 21.168
46.13000 21.421
46.14000 10.059
46.15000 10.028
46.16000 23.176
46.17000 15.207
46.18000 16.086
46.19000 26.199
46.20000 23.414
46.21000 19.549
46.22000 18.306
46.23000 12.130
46.24000 23.427
46.25000 17.052
46.26000 24.396
46.27000 17.167
46.28000 17.196
46.29000 21.209
46.30000 17.260
46.31000 15.147
46.32000 20.170
46.33000 8.131
46.34000 22.210
46.35000 21.184
46.36000 20.281
46.37000 12.060
46.38000 17.998
46.39000 17.217
46.40000 19.112
46.41000 21.482
46.42000 20.119
46.43000 22.285
46.44000 17.278
46.45000 25.211
46.46000 21.164
46.47000 22.374
46.48000 14.193
46.49000 23.396
46.50000 15.189
46.51000 18.160
46.52000 22.222
46.53000 16.234
46.54000 23.348
46.55000 29.355
46.56000 18.156
46.57000 16.262
46.58000 14.274
46.59000 22.485
46.60000 18.186
46.61000 23.155
46.62000 20.237
46.63000 21.279
46.64000 21.309
46.65000 17.225
46.66000 18.267
46.67000 25.253
46.68000 21.302
46.69000 15.201
46.70000 15.205
46.71000 16.272
46.72000 22.422
46.73000 19.318
46.74000 20.371
46.75000 14.015
46.76000 22.353
46.77000 20.458
46.78000 13.225
46.79000 17.218
46.80000 18.253
46.81000 16.131
46.82000 18.346
46.83000 17.228
46.84000 14.067
46.85000 22.456
46.86000 19.364
46.87000 21.253
46.88000 12.255
46.89000 22.332
46.90000 19.282
46.91000 18.250
46.92000 27.350
46.93000 16.221
46.94000 21.388
46.95000 25.533
46.96000 10.142
46.97000 15.273
46.98000 21.250
46.99000 18.332
47.00000 16.428
47.01000 22.256
47.02000 16.160
47.03000 21.268
47.04000 23.225
47.05000 18.183
47.06000 16.185
47.07000 15.998
47.08000 12.269
47.09000 17.153
47.10000 20.406
47.11000 17.146
47.12000 14.289
47.13000 17.237
47.14000 15.242
47.15000 15.093
47.16000 14.274
47.17000 13.245
47.18000 17.329
47.19000 20.118
47.20000 26.453
47.21000 17.204
47.22000 18.173
47.23000 24.211
47.24000 16.080
47.25000 13.193
47.26000 18.370
47.27000 21.431
47.28000 21.195
47.29000 16.214
47.30000 22.163
47.31000 16.388
47.32000 23.297
47.33000 16.278
47.34000 23.530
47.35000 18.127
47.36000 21.360
47.37000 16.200
47.38000 16.076
47.39000 20.455
47.40000 11.227
47.41000 20.139
47.42000 18.183
47.43000 14.013
47.44000 17.234
47.45000 9.097
47.46000 15.215
47.47000 21.276
47.48000 11.092
47.49000 22.093
47.50000 21.337
47.51000 12.108
47.52000 17.227
47.53000 18.358
47.54000 16.376
47.55000 29.364
47.56000 18.218
47.57000 9.986
47.58000 21.359
47.59000 16.125
47.60000 9.978
47.61000 13.272
47.62000 14.375
47.63000 16.250
47.64000 18.291
47.65000 19.326
47.66000 20.337
47.67000 18.149
47.68000 16.362
47.69000 18.242
47.70000 15.293
47.71000 15.275
47.72000 18.278
47.73000 24.261
47.74000 23.306
47.75000 15.118
47.76000 21.236
47.77000 14.142
47.78000 16.189
47.79000 21.413
47.80000 18.231
47.81000 11.083
47.82000 14.129
47.83000 21.224
47.84000 23.183
47.85000 16.237
47.86000 23.405
47.87000 12.180
47.88000 22.383
47.89000 19.319
47.90000 13.204
47.91000 21.228
47.92000 20.209
47.93000 18.191
47.94000 22.245
47.95000 24.260
47.96000 18.361
47.97000 13.239
47.98000 10.104
47.99000 6.113
48.00000 22.077
48.01000 12.068
48.02000 20.128
48.03000 18.155
48.04000 13.969
48.05000 14.124
48.06000 18.155
48.07000 17.269
48.08000 11.113
48.09000 19.263
48.10000 19.309
48.11000 16.333
48.12000 14.364
48.13000 19.159
48.14000 11.170
48.15000 19.141
48.16000 17.181
48.17000 14.257
48.18000 17.291
48.19000 21.174
48.20000 24.318
48.21000 20.359
48.22000 10.099
48.23000 19.253
48.24000 22.359
48.25000 20.206
48.26000 13.256
48.27000 17.157
48.28000 21.176
48.29000 15.128
48.30000 18.469
48.31000 17.124
48.32000 18.160
48.33000 15.198
48.34000 10.002
48.35000 14.115
48.36000 22.519
48.37000 16.381
48.38000 21.283
48.39000 16.139
48.40000 13.228
48.41000 15.239
48.42000 18.404
48.43000 20.461
48.44000 18.173
48.45000 20.248
48.46000 21.165
48.47000 20.135
48.48000 15.227
48.49000 13.203
48.50000 19.225
48.51000 23.218
48.52000 12.242
48.53000 13.152
48.54000 16.240
48.55000 31.404
48.56000 12.126
48.57000 14.148
48.58000 16.218
48.59000 13.129
48.60000 16.226
48.61000 24.448
48.62000 9.009
48.63000 16.234
48.64000 11.152
48.65000 13.142
48.66000 12.002
48.67000 18.351
48.68000 14.112
48.69000 10.145
48.70000 25.343
48.71000 14.363
48.72000 17.337
48.73000 19.179
48.74000 23.277
48.75000 8.094
48.76000 13.157
48.77000 16.432
48.78000 15.370
48.79000 18.322
48.80000 32.445
48.81000 22.532
48.82000 20.330
48.83000 17.193
48.84000 20.360
48.85000 18.313
48.86000 19.422
48.87000 11.165
48.88000 13.276
48.89000 13.154
48.90000 17.343
48.91000 21.453
48.92000 17.206
48.93000 17.247
48.94000 22.311
48.95000 19.226
48.96000 21.369
48.97000 11.126
48.98000 13.224
48.99000 22.404
49.00000 14.335
49.01000 18.226
49.02000 14.370
49.03000 15.292
49.04000 12.089
49.05000 8.056
49.06000 15.144
49.07000 17.014
49.08000 17.121
49.09000 18.079
49.10000 14.180
49.11000 13.083
49.12000 12.086
49.13000 20.317
49.14000 10.161
49.15000 22.298
49.16000 12.173
49.17000 22.376
49.18000 18.461
49.19000 12.277
49.20000 17.252
49.21000 10.065
49.22000 16.167
49.23000 18.210
49.24000 12.264
49.25000 18.090
49.26000 17.158
49.27000 13.029
49.28000 11.097
49.29000 18.312
49.30000 16.254
49.31000 18.374
49.32000 28.489
49.33000 12.977
49.34000 18.292
49.35000 21.144
49.36000 11.210
49.37000 21.343
49.38000 17.234
49.39000 16.099
49.40000 18.278
49.41000 14.269
49.42000 14.239
49.43000 21.403
49.44000 18.192
49.45000 19.152
49.46000 16.199
49.47000 16.150
49.48000 20.337
49.49000 8.103
49.50000 10.270
49.51000 12.262
49.52000 16.170
49.53000 11.033
49.54000 18.125
49.55000 21.258
49.56000 19.368
49.57000 17.323
49.58000 15.303
49.59000 16.283
49.60000 17.239
49.61000 17.315
49.62000 23.127
49.63000 16.175
49.64000 17.241
49.65000 15.228
49.66000 22.308
49.67000 16.343
49.68000 16.139
49.69000 19.150
49.70000 12.129
49.71000 23.167
49.72000 23.288
49.73000 23.361
49.74000 19.181
49.75000 22.216
49.76000 10.086
49.77000 13.056
49.78000 16.324
49.79000 15.374
49.80000 21.235
49.81000 20.458
49.82000 21.452
49.83000 23.361
49.84000 17.273
49.85000 18.277
49.86000 18.507
49.87000 13.262
49.88000 12.256
49.89000 12.144
49.90000 23.351
49.91000 15.333
49.92000 22.439
49.93000 17.197
49.94000 26.450
49.95000 24.262
49.96000 15.221
49.97000 14.207
49.98000 22.273
49.99000 25.427
50.00000 9.905
50.01000 18.308
50.02000 13.184
50.03000 18.369
50.04000 16.302
50.05000 14.243
50.06000 18.404
50.07000 21.242
50.08000 27.235
50.09000 15.227
50.10000 14.208
50.11000 12.288
50.12000 25.165
50.13000 14.141
50.14000 16.288
50.15000 18.113
50.16000 19.339
50.17000 21.376
50.18000 16.328
50.19000 11.108
50.20000 21.210
50.21000 15.156
50.22000 11.179
50.23000 20.263
50.24000 17.258
50.25000 16.109
50.26000 13.268
50.27000 11.016
50.28000 16.208
50.29000 9.164
50.30000 11.144
50.31000 19.275
50.32000 13.288
50.33000 16.130
50.34000 17.318
50.35000 15.249
50.36000 23.340
50.37000 18.208
50.38000 15.107
50.39000 21.434
50.40000 24.149
50.41000 21.085
50.42000 14.073
50.43000 14.195
50.44000 28.322
50.45000 23.504
50.46000 20.303
50.47000 31.551
50.48000 14.174
50.49000 14.263
50.50000 14.236
50.51000 17.196
50.52000 16.152
50.53000 23.269
50.54000 22.185
50.55000 16.150
50.56000 16.130
50.57000 15.248
50.58000 18.228
50.59000 14.254
50.60000 18.362
50.61000 19.300
50.62000 16.094
50.63000 21.210
50.64000 14.195
50.65000 14.092
50.66000 19.180
50.67000 12.182
50.68000 16.333
50.69000 15.063
50.70000 18.280
50.71000 13.168
50.72000 11.163
50.73000 15.360
50.74000 22.306
50.75000 14.108
50.76000 13.173
50.77000 19.377
50.78000 15.055
50.79000 22.182
50.80000 9.026
50.81000 15.332
50.82000 22.181
50.83000 18.415
50.84000 13.134
50.85000 20.111
50.86000 13.146
50.87000 17.225
50.88000 20.218
50.89000 18.273
50.90000 12.236
50.91000 18.231
50.92000 17.492
50.93000 7.982
50.94000 15.232
50.95000 15.426
50.96000 17.177
50.97000 22.166
50.98000 25.363
50.99000 18.292
51.00000 14.077
51.01000 17.222
51.02000 14.268
51.03000 13.114
51.04000 15.304
51.05000 18.316
51.06000 13.188
51.07000 6.044
51.08000 15.256
51.09000 18.212
51.10000 14.168
51.11000 17.368
51.12000 15.281
51.13000 16.125
51.14000 18.202
51.15000 14.194
51.16000 18.187
51.17000 18.379
51.18000 19.302
51.19000 17.238
51.20000 15.205
51.21000 12.209
51.22000 14.150
51.23000 15.144
51.24000 16.229
51.25000 22.215
51.26000 18.206
51.27000 20.150
51.28000 20.168
51.29000 10.157
51.30000 15.325
51.31000 5.072
51.32000 12.180
51.33000 16.259
51.34000 19.164
51.35000 18.409
51.36000 14.233
51.37000 15.070
51.38000 13.069
51.39000 15.177
51.40000 12.070
51.41000 17.387
51.42000 10.236
51.43000 17.333
51.44000 15.139
51.45000 19.250
51.46000 13.292
51.47000 11.941
51.48000 26.130
51.49000 11.012
51.50000 18.197
51.51000 11.188
51.52000 14.329
51.53000 17.283
51.54000 14.302
51.55000 15.102
51.56000 29.231
51.57000 14.056
51.58000 14.047
51.59000 19.187
51.60000 17.308
51.61000 19.325
51.62000 11.194
51.63000 12.190
51.64000 14.204
51.65000 12.096
51.66000 14.216
51.67000 23.354
51.68000 16.275
51.69000 12.058
51.70000 20.388
51.71000 20.294
51.72000 17.402
51.73000 16.217
51.74000 11.313
51.75000 17.116
51.76000 11.100
51.77000 12.217
51.78000 14.165
51.79000 14.220
51.80000 14.164
51.81000 9.041
51.82000 18.231
51.83000 16.159
51.84000 20.416
51.85000 16.041
51.86000 18.212
51.87000 19.183
51.88000 15.330
51.89000 14.132
51.90000 8.171
51.91000 14.172
51.92000 16.143
51.93000 6.084
51.94000 11.137
51.95000 19.315
51.96000 15.086
51.97000 20.429
51.98000 17.332
51.99000 16.173
52.00000 7.979
52.01000 16.007
52.02000 19.213
52.03000 14.311
52.04000 12.139
52.05000 11.119
52.06000 16.080
52.07000 14.189
52.08000 21.240
52.09000 11.142
52.10000 19.199
52.11000 14.143
52.12000 21.321
52.13000 14.283
52.14000 15.142
52.15000 14.161
52.16000 22.252
52.17000 18.341
52.18000 19.310
52.19000 16.133
52.20000 15.165
52.21000 19.289
52.22000 16.278
52.23000 16.305
52.24000 20.285
52.25000 20.320
52.26000 15.216
52.27000 17.192
52.28000 19.206
52.29000 20.179
52.30000 24.526
52.31000 14.273
52.32000 15.150
52.33000 13.057
52.34000 10.168
52.35000 14.164
52.36000 16.211
52.37000 17.331
52.38000 16.089
52.39000 17.217
52.40000 17.255
52.41000 13.101
52.42000 25.415
52.43000 15.251
52.44000 18.353
52.45000 6.999
52.46000 16.229
52.47000 17.264
52.48000 12.144
52.49000 19.464
52.50000 14.114
52.51000 16.307
52.52000 14.307
52.53000 16.063
52.54000 16.047
52.55000 15.214
52.56000 15.222
52.57000 14.238
52.58000 18.187
52.59000 13.227
52.60000 17.206
52.61000 13.093
52.62000 16.311
52.63000 18.215
52.64000 22.236
52.65000 19.086
52.66000 10.053
52.67000 16.293
52.68000 17.311
52.69000 21.343
52.70000 9.091
52.71000 9.960
52.72000 16.035
52.73000 11.094
52.74000 16.280
52.75000 19.374
52.76000 25.420
52.77000 15.081
52.78000 15.208
52.79000 12.064
52.80000 15.254
52.81000 12.136
52.82000 10.157
52.83000 18.231
52.84000 13.193
52.85000 17.343
52.86000 14.214
52.87000 14.303
52.88000 18.314
52.89000 18.339
52.90000 8.067
52.91000 17.363
52.92000 21.340
52.93000 21.245
52.94000 10.143
52.95000 19.269
52.96000 10.105
52.97000 18.304
52.98000 14.161
52.99000 7.093
53.00000 23.237
53.01000 10.168
53.02000 14.208
53.03000 11.128
53.04000 17.341
53.05000 12.217
53.06000 17.299
53.07000 19.272
53.08000 25.254
53.09000 19.420
53.10000 10.076
53.11000 13.115
53.12000 17.184
53.13000 18.278
53.14000 12.085
53.15000 10.301
53.16000 16.346
53.17000 12.189
53.18000 18.288
53.19000 19.147
53.20000 15.244
53.21000 15.161
53.22000 15.193
53.23000 15.178
53.24000 15.152
53.25000 18.432
53.26000 23.331
53.27000 12.085
53.28000 18.304
53.29000 19.162
53.30000 10.063
53.31000 13.065
53.32000 25.550
53.33000 19.314
53.34000 17.255
53.35000 12.256
53.36000 18.069
53.37000 10.140
53.38000 12.148
53.39000 13.165
53.40000 10.067
53.41000 13.048
53.42000 12.094
53.43000 15.058
53.44000 13.303
53.45000 15.260
53.46000 14.210
53.47000 17.231
53.48000 14.148
53.49000 17.259
53.50000 19.278
53.51000 24.568
53.52000 12.199
53.53000 10.071
53.54000 16.192
53.55000 18.266
53.56000 18.121
53.57000 17.209
53.58000 17.052
53.59000 12.063
53.60000 15.260
53.61000 11.204
53.62000 18.366
53.63000 15.086
53.64000 16.230
53.65000 16.162
53.66000 12.127
53.67000 27.377
53.68000 13.190
53.69000 22.187
53.70000 18.419
53.71000 12.234
53.72000 14.191
53.73000 20.174
53.74000 15.286
53.75000 8.989
53.76000 14.288
53.77000 5.029
53.78000 14.367
53.79000 15.133
53.80000 13.211
53.81000 8.016
53.82000 14.195
53.83000 11.068
53.84000 15.132
53.85000 10.129
53.86000 14.132
53.87000 18.113
53.88000 14.244
53.89000 14.280
53.90000 21.310
53.91000 15.103
53.92000 13.094
53.93000 17.166
53.94000 10.157
53.95000 15.052
53.96000 12.126
53.97000 21.325
53.98000 19.282
53.99000 14.152
54.00000 10.107
54.01000 27.287
54.02000 11.141
54.03000 11.189
54.04000 18.231
54.05000 15.206
54.06000 16.174
54.07000 15.431
54.08000 15.108
54.09000 14.258
54.10000 18.127
54.11000 15.107
54.12000 19.112
54.13000 10.024
54.14000 21.251
54.15000 14.131
54.16000 16.285
54.17000 12.108
54.18000 19.341
54.19000 17.180
54.20000 16.251
54.21000 18.348
54.22000 12.243
54.23000 16.133
54.24000 14.296
54.25000 12.037
54.26000 11.166
54.27000 16.157
54.28000 16.141
54.29000 17.184
54.30000 20.300
54.31000 18.239
54.32000 9.116
54.33000 16.121
54.34000 11.258
54.35000 9.129
54.36000 15.128
54.37000 18.015
54.38000 10.138
54.39000 15.181
54.40000 11.106
54.41000 13.113
54.42000 11.190
54.43000 20.213
54.44000 14.255
54.45000 14.945
54.46000 16.410
54.47000 9.023
54.48000 10.026
54.49000 6.020
54.50000 14.074
54.51000 10.109
54.52000 18.228
54.53000 17.335
54.54000 15.122
54.55000 12.124
54.56000 14.293
54.57000 14.045
54.58000 14.084
54.59000 15.091
54.60000 17.366
54.61000 14.071
54.62000 13.178
54.63000 13.144
54.64000 16.992
54.65000 11.097
54.66000 15.090
54.67000 14.152
54.68000 8.038
54.69000 9.185
54.70000 12.251
54.71000 6.247
54.72000 9.129
54.73000 13.141
54.74000 17.248
54.75000 8.145
54.76000 15.187
54.77000 12.231
54.78000 13.193
54.79000 13.067
54.80000 10.118
54.81000 16.294
54.82000 19.193
54.83000 18.339
54.84000 26.438
54.85000 10.276
54.86000 12.102
54.87000 15.321
54.88000 9.054
54.89000 17.254
54.90000 15.142
54.91000 13.202
54.92000 13.150
54.93000 18.285
54.94000 15.213
54.95000 14.178
54.96000 12.229
54.97000 11.164
54.98000 17.223
54.99000 26.418
55.00000 9.175
55.01000 8.123
55.02000 12.131
55.03000 17.329
55.04000 12.161
55.05000 10.011
55.06000 21.283
55.07000 12.121
55.08000 9.123
55.09000 13.304
55.10000 17.413
55.11000 22.244
55.12000 14.276
55.13000 15.155
55.14000 15.222
55.15000 14.342
55.16000 9.237
55.17000 11.109
55.18000 8.209
55.19000 10.087
55.20000 9.118
55.21000 9.014
55.22000 11.988
55.23000 11.113
55.24000 18.117
55.25000 8.081
55.26000 13.454
55.27000 12.101
55.28000 7.088
55.29000 13.251
55.30000 17.212
55.31000 17.163
55.32000 17.029
55.33000 20.337
55.34000 6.044
55.35000 14.118
55.36000 7.094
55.37000 18.199
55.38000 16.267
55.39000 14.182
55.40000 15.216
55.41000 13.070
55.42000 15.287
55.43000 19.127
55.44000 12.237
55.45000 14.101
55.46000 13.046
55.47000 9.224
55.48000 12.247
55.49000 8.092
55.50000 18.176
55.51000 26.342
55.52000 11.326
55.53000 14.170
55.54000 12.210
55.55000 15.113
55.56000 13.135
55.57000 11.149
55.58000 13.153
55.59000 19.293
55.60000 14.051
55.61000 7.000
55.62000 12.144
55.63000 16.176
55.64000 13.205
55.65000 10.041
55.66000 12.088
55.67000 5.056
55.68000 15.151
55.69000 14.119
55.70000 22.218
55.71000 17.347
55.72000 15.164
55.73000 11.022
55.74000 17.247
55.75000 14.179
55.76000 14.168
55.77000 12.083
55.78000 14.103
55.79000 13.241
55.80000 18.243
55.81000 17.248
55.82000 20.096
55.83000 14.230
55.84000 15.069
55.85000 7.021
55.86000 19.229
55.87000 16.336
55.88000 17.275
55.89000 16.161
55.90000 13.130
55.91000 8.072
55.92000 19.345
55.93000 14.179
55.94000 13.266
55.95000 12.278
55.96000 14.267
55.97000 10.203
55.98000 19.176
55.99000 16.209
56.00000 12.176
56.01000 12.293
56.02000 16.203
56.03000 17.121
56.04000 13.287
56.05000 8.056
56.06000 6.074
56.07000 15.204
56.08000 9.137
56.09000 10.118
56.10000 9.183
56.11000 10.131
56.12000 13.316
56.13000 14.327
56.14000 8.080
56.15000 13.256
56.16000 9.187
56.17000 11.114
56.18000 12.113
56.19000 13.231
56.20000 15.317
56.21000 14.331
56.22000 16.144
56.23000 17.347
56.24000 20.202
56.25000 16.367
56.26000 10.142
56.27000 13.046
56.28000 9.088
56.29000 16.262
56.30000 12.211
56.31000 9.192
56.32000 19.310
56.33000 8.297
56.34000 12.284
56.35000 16.171
56.36000 11.221
56.37000 16.377
56.38000 13.328
56.39000 14.093
56.40000 12.246
56.41000 13.184
56.42000 19.292
56.43000 20.252
56.44000 17.190
56.45000 15.199
56.46000 10.172
56.47000 12.226
56.48000 14.372
56.49000 15.285
56.50000 14.104
56.51000 14.302
56.52000 7.179
56.53000 10.308
56.54000 12.189
56.55000 20.117
56.56000 7.055
56.57000 14.234
56.58000 18.288
56.59000 18.314
56.60000 11.079
56.61000 11.156
56.62000 11.137
56.63000 10.371
56.64000 13.160
56.65000 17.229
56.66000 11.168
56.67000 15.219
56.68000 12.215
56.69000 5.068
56.70000 20.207
56.71000 3.044
56.72000 17.171
56.73000 14.239
56.74000 13.121
56.75000 16.332
56.76000 10.049
56.77000 9.059
56.78000 14.123
56.79000 10.173
56.80000 16.250
56.81000 13.213
56.82000 13.089
56.83000 18.440
56.84000 13.215
56.85000 10.040
56.86000 17.381
56.87000 16.116
56.88000 7.201
56.89000 10.136
56.90000 12.932
56.91000 11.117
56.92000 17.322
56.93000 12.102
56.94000 12.090
56.95000 15.187
56.96000 14.303
56.97000 11.146
56.98000 16.116
56.99000 12.241
57.00000 9.225
57.01000 10.200
57.02000 16.217
57.03000 8.095
57.04000 13.095
57.05000 11.263
57.06000 11.162
57.07000 7.154
57.08000 13.068
57.09000 14.223
57.10000 17.219
57.11000 20.194
57.12000 19.069
57.13000 15.213
57.14000 10.096
57.15000 10.129
57.16000 15.294
57.17000 9.158
57.18000 13.118
57.19000 10.159
57.20000 11.192
57.21000 12.284
57.22000 12.008
57.23000 12.264
57.24000 12.246
57.25000 16.139
57.26000 14.374
57.27000 15.185
57.28000 13.199
57.29000 10.184
57.30000 16.361
57.31000 12.244
57.32000 13.108
57.33000 11.211
57.34000 17.237
57.35000 14.170
57.36000 22.248
57.37000 13.181
57.38000 18.283
57.39000 13.134
57.40000 16.416
57.41000 16.180
57.42000 11.047
57.43000 10.088
57.44000 9.017
57.45000 15.134
57.46000 10.059
57.47000 17.261
57.48000 17.242
57.49000 13.154
57.50000 16.177
57.51000 15.222
57.52000 19.295
57.53000 15.425
57.54000 17.163
57.55000 14.222
57.56000 9.083
57.57000 9.074
57.58000 18.188
57.59000 15.349
57.60000 17.246
57.61000 11.167
57.62000 14.266
57.63000 12.178
57.64000 18.320
57.65000 10.138
57.66000 15.244
57.67000 13.279
57.68000 12.064
57.69000 10.148
57.70000 15.285
57.71000 21.487
57.72000 7.182
57.73000 13.198
57.74000 15.022
57.75000 7.063
57.76000 6.113
57.77000 21.222
57.78000 12.133
57.79000 9.101
57.80000 15.216
57.81000 21.140
57.82000 16.215
57.83000 8.123
57.84000 18.240
57.85000 12.172
57.86000 14.148
57.87000 11.132
57.88000 15.209
57.89000 13.017
57.90000 11.064
57.91000 8.040
57.92000 8.987
57.93000 16.135
57.94000 18.279
57.95000 15.100
57.96000 11.058
57.97000 9.132
57.98000 18.121
57.99000 13.218
58.00000 8.030
58.01000 10.245
58.02000 13.306
58.03000 8.141
58.04000 12.125
58.05000 10.062
58.06000 18.457
58.07000 14.175
58.08000 13.128
58.09000 11.084
58.10000 14.121
58.11000 12.288
58.12000 16.419
58.13000 20.298
58.14000 14.219
58.15000 13.144
58.16000 24.551
58.17000 16.305
58.18000 6.991
58.19000 16.100
58.20000 14.144
58.21000 13.303
58.22000 14.370
58.23000 7.198
58.24000 15.268
58.25000 9.132
58.26000 16.361
58.27000 8.051
58.28000 10.084
58.29000 17.267
58.30000 13.224
58.31000 3.028
58.32000 12.271
58.33000 16.197
58.34000 15.235
58.35000 14.355
58.36000 12.183
58.37000 12.235
58.38000 9.025
58.39000 11.081
58.40000 8.125
58.41000 10.069
58.42000 12.076
58.43000 13.456
58.44000 18.156
58.45000 10.049
58.46000 13.017
58.47000 13.129
58.48000 8.127
58.49000 14.138
58.50000 10.192
58.51000 11.137
58.52000 8.254
58.53000 15.279
58.54000 15.189
58.55000 11.155
58.56000 13.094
58.57000 11.105
58.58000 15.137
58.59000 7.015
58.60000 14.232
58.61000 12.177
58.62000 16.266
58.63000 10.035
58.64000 12.212
58.65000 8.089
58.66000 13.155
58.67000 12.204
58.68000 5.050
58.69000 12.209
58.70000 18.312
58.71000 9.103
58.72000 13.340
58.73000 9.087
58.74000 17.343
58.75000 12.352
58.76000 16.180
58.77000 11.113
58.78000 13.075
58.79000 12.114
58.80000 9.030
58.81000 11.107
58.82000 10.044
58.83000 11.082
58.84000 6.140
58.85000 12.099
58.86000 11.232
58.87000 16.311
58.88000 6.022
58.89000 12.158
58.90000 6.038
58.91000 11.161
58.92000 12.129
58.93000 10.204
58.94000 8.138
58.95000 17.087
58.96000 10.136
58.97000 7.023
58.98000 13.155
58.99000 13.205
59.00000 13.210
59.01000 6.981
59.02000 12.331
59.03000 14.191
59.04000 12.143
59.05000 10.090
59.06000 14.092
59.07000 15.280
59.08000 12.202
59.09000 12.116
59.10000 14.285
59.11000 9.093
59.12000 8.985
59.13000 13.201
59.14000 10.234
59.15000 18.347
59.16000 9.010
59.17000 19.144
59.18000 11.154
59.19000 10.142
59.20000 15.006
59.21000 12.170
59.22000 7.052
59.23000 12.140
59.24000 9.159
59.25000 10.179
59.26000 13.246
59.27000 15.204
59.28000 9.145
59.29000 13.099
59.30000 13.081
59.31000 9.075
59.32000 16.056
59.33000 14.145
59.34000 9.098
59.35000 13.164
59.36000 9.110
59.37000 13.035
59.38000 7.126
59.39000 15.351
59.40000 14.048
59.41000 8.177
59.42000 4.009
59.43000 14.200
59.44000 13.059
59.45000 9.082
59.46000 16.160
59.47000 6.092
59.48000 9.178
59.49000 11.263
59.50000 9.242
59.51000 8.070
59.52000 11.107
59.53000 10.241
59.54000 8.194
59.55000 11.112
59.56000 10.156
59.57000 9.092
59.58000 12.175
59.59000 12.055
59.60000 8.255
59.61000 11.296
59.62000 12.236
59.63000 5.033
59.64000 12.102
59.65000 11.164
59.66000 16.234
59.67000 14.511
59.68000 12.258
59.69000 8.052
59.70000 9.165
59.71000 6.205
59.72000 11.016
59.73000 11.196
59.74000 6.133
59.75000 9.098
59.76000 10.202
59.77000 12.338
59.78000 9.198
59.79000 12.138
59.80000 7.153
59.81000 18.342
59.82000 8.005
59.83000 5.126
59.84000 17.182
59.85000 11.186
59.86000 10.198
59.87000 12.114
59.88000 9.185
59.89000 10.012
59.90000 10.225
59.91000 13.038
59.92000 8.088
59.93000 8.013
59.94000 12.982
59.95000 6.098
59.96000 13.193
59.97000 13.395
59.98000 18.270
59.99000 7.125
60.00000 10.184
60.01000 14.198
60.02000 9.138
60.03000 6.126
60.04000 14.293
60.05000 8.124
60.06000 11.168
60.07000 11.126
60.08000 11.197
60.09000 11.088
60.10000 12.043
60.11000 15.153
60.12000 13.058
60.13000 11.239
60.14000 13.058
60.15000 11.236
60.16000 15.204
60.17000 14.074
60.18000 15.396
60.19000 11.085
60.20000 13.122
60.21000 9.098
60.22000 13.192
60.23000 13.141
60.24000 16.274
60.25000 10.209
60.26000 9.090
60.27000 15.183
60.28000 17.238
60.29000 8.078
60.30000 9.053
60.31000 9.121
60.32000 9.080
60.33000 10.189
60.34000 7.137
60.35000 6.132
60.36000 11.959
60.37000 15.240
60.38000 9.074
60.39000 18.268
60.40000 7.051
60.41000 12.303
60.42000 4.057
60.43000 11.108
60.44000 12.094
60.45000 8.244
60.46000 12.109
60.47000 7.076
60.48000 11.152
60.49000 9.211
60.50000 12.102
60.51000 7.095
60.52000 13.053
60.53000 10.053
60.54000 8.136
60.55000 13.260
60.56000 1.045
60.57000 10.951
60.58000 13.118
60.59000 14.093
60.60000 11.072
60.61000 12.130
60.62000 17.147
60.63000 12.038
60.64000 7.883
60.65000 12.140
60.66000 14.295
60.67000 11.957
60.68000 5.055
60.69000 9.199
60.70000 11.080
60.71000 10.182
60.72000 12.283
60.73000 7.033
60.74000 12.157
60.75000 13.293
60.76000 7.116
60.77000 12.212
60.78000 12.157
60.79000 15.203
60.80000 8.141
60.81000 10.213
60.82000 13.118
60.83000 8.178
60.84000 5.036
60.85000 11.182
60.86000 6.068
60.87000 8.083
60.88000 10.012
60.89000 9.074
60.90000 7.981
60.91000 14.189
60.92000 10.068
60.93000 6.014
60.94000 13.133
60.95000 11.115
60.96000 10.098
60.97000 11.156
60.98000 6.038
60.99000 14.208
61.00000 14.178
61.01000 20.177
61.02000 4.035
61.03000 7.066
61.04000 10.039
61.05000 10.156
61.06000 10.121
61.07000 11.113
61.08000 8.161
61.09000 11.214
61.10000 12.183
61.11000 12.071
61.12000 9.087
61.13000 13.155
61.14000 13.180
61.15000 21.288
61.16000 13.122
61.17000 13.252
61.18000 10.270
61.19000 19.172
61.20000 8.092
61.21000 12.164
61.22000 15.151
61.23000 5.985
61.24000 5.054
61.25000 11.197
61.26000 9.015
61.27000 10.162
61.28000 8.068
61.29000 5.981
61.30000 11.943
61.31000 10.098
61.32000 11.110
61.33000 13.068
61.34000 16.569
61.35000 10.069
61.36000 6.053
61.37000 16.351
61.38000 9.112
61.39000 9.248
61.40000 10.050
61.41000 12.114
61.42000 11.072
61.43000 9.169
61.44000 11.988
61.45000 10.094
61.46000 5.009
61.47000 12.114
61.48000 12.103
61.49000 10.164
61.50000 13.107
61.51000 12.083
61.52000 5.022
61.53000 8.055
61.54000 11.187
61.55000 15.218
61.56000 9.110
61.57000 5.135
61.58000 10.181
61.59000 10.004
61.60000 11.134
61.61000 12.026
61.62000 12.209
61.63000 10.219
61.64000 10.245
61.65000 13.190
61.66000 7.993
61.67000 15.128
61.68000 7.146
61.69000 14.177
61.70000 10.099
61.71000 3.056
61.72000 7.035
61.73000 8.165
61.74000 13.075
61.75000 8.127
61.76000 10.157
61.77000 9.029
61.78000 8.121
61.79000 11.236
61.80000 15.305
61.81000 6.143
61.82000 9.135
61.83000 7.169
61.84000 10.106
61.85000 8.180
61.86000 9.089
61.87000 11.212
61.88000 6.030
61.89000 11.223
61.90000 10.069
61.91000 13.120
61.92000 9.167
61.93000 11.180
61.94000 13.145
61.95000 9.134
61.96000 11.149
61.97000 14.090
61.98000 7.070
61.99000 10.103
62.00000 10.208
62.01000 11.151
62.02000 10.097
62.03000 7.106
62.04000 8.219
62.05000 11.015
62.06000 9.138
62.07000 9.026
62.08000 8.053
62.09000 12.168
62.10000 16.129
62.11000 11.147
62.12000 9.108
62.13000 11.260
62.14000 11.181
62.15000 15.217
62.16000 13.210
62.17000 9.008
62.18000 12.113
62.19000 9.085
62.20000 10.195
62.21000 6.091
62.22000 7.021
62.23000 6.994
62.24000 10.229
62.25000 11.304
62.26000 8.171
62.27000 8.117
62.28000 8.117
62.29000 7.082
62.30000 11.385
62.31000 14.183
62.32000 15.290
62.33000 10.078
62.34000 7.033
62.35000 9.200
62.36000 11.067
62.37000 6.091
62.38000 10.222
62.39000 13.010
62.40000 8.113
62.41000 10.185
62.42000 7.042
62.43000 8.058
62.44000 11.021
62.45000 8.124
62.46000 14.050
62.47000 11.048
62.48000 7.057
62.49000 9.123
62.50000 11.064
62.51000 10.073
62.52000 8.248
62.53000 12.093
62.54000 9.165
62.55000 15.299
62.56000 8.090
62.57000 11.194
62.58000 9.138
62.59000 11.152
62.60000 6.118
62.61000 11.166
62.62000 9.196
62.63000 6.076
62.64000 12.051
62.65000 11.163
62.66000 2.948
62.67000 11.132
62.68000 9.135
62.69000 3.061
62.70000 7.024
62.71000 4.969
62.72000 9.207
62.73000 12.018
62.74000 13.157
62.75000 4.978
62.76000 9.181
62.77000 11.126
62.78000 12.123
62.79000 13.041
62.80000 13.002
62.81000 9.198
62.82000 8.139
62.83000 13.185
62.84000 11.150
62.85000 8.098
62.86000 9.119
62.87000 12.308
62.88000 7.015
62.89000 7.051
62.90000 15.264
62.91000 3.077
62.92000 8.114
62.93000 15.071
62.94000 11.115
62.95000 11.254
62.96000 11.156
62.97000 12.079
62.98000 12.150
62.99000 11.082
63.00000 8.272
63.01000 13.162
63.02000 9.994
63.03000 5.028
63.04000 10.108
63.05000 8.147
63.06000 13.056
63.07000 13.154
63.08000 10.278
63.09000 7.113
63.10000 10.184
63.11000 12.102
63.12000 6.131
63.13000 6.133
63.14000 12.094
63.15000 7.099
63.16000 10.231
63.17000 13.233
63.18000 6.018
63.19000 10.152
63.20000 8.021
63.21000 18.210
63.22000 3.066
63.23000 11.022
63.24000 11.252
63.25000 6.019
63.26000 11.112
63.27000 10.034
63.28000 11.209
63.29000 9.117
63.30000 15.072
63.31000 7.127
63.32000 9.109
63.33000 6.140
63.34000 8.231
63.35000 7.087
63.36000 14.124
63.37000 6.014
63.38000 16.240
63.39000 8.158
63.40000 8.027
63.41000 12.155
63.42000 14.213
63.43000 10.116
63.44000 8.140
63.45000 9.042
63.46000 8.107
63.47000 10.024
63.48000 7.047
63.49000 11.016
63.50000 7.118
63.51000 6.033
63.52000 12.090
63.53000 5.074
63.54000 8.176
63.55000 12.256
63.56000 9.107
63.57000 6.034
63.58000 12.079
63.59000 10.134
63.60000 13.148
63.61000 16.339
63.62000 9.212
63.63000 8.191
63.64000 8.239
63.65000 12.183
63.66000 6.064
63.67000 10.251
63.68000 13.291
63.69000 8.090
63.70000 7.137
63.71000 15.315
63.72000 10.129
63.73000 6.089
63.74000 8.081
63.75000 9.155
63.76000 6.085
63.77000 7.067
63.78000 13.123
63.79000 12.231
63.80000 7.099
63.81000 5.083
63.82000 8.247
63.83000 16.300
63.84000 8.055
63.85000 13.100
63.86000 8.055
63.87000 9.111
63.88000 8.004
63.89000 11.164
63.90000 14.260
63.91000 7.048
63.92000 7.114
63.93000 6.133
63.94000 8.033
63.95000 11.152
63.96000 8.122
63.97000 5.039
63.98000 9.113
63.99000 10.161
64.00000 11.240
64.01000 7.098
64.02000 8.062
64.03000 10.125
64.04000 9.134
64.05000 11.101
64.06000 9.971
64.07000 12.276
64.08000 5.014
64.09000 13.192
64.10000 10.023
64.11000 11.167
64.12000 13.089
64.13000 9.102
64.14000 7.157
64.15000 8.937
64.16000 13.161
64.17000 11.134
64.18000 14.313
64.19000 11.298
64.20000 5.010
64.21000 5.050
64.22000 4.037
64.23000 7.134
64.24000 17.220
64.25000 16.353
64.26000 7.006
64.27000 9.125
64.28000 8.172
64.29000 6.123
64.30000 7.208
64.31000 11.076
64.32000 11.185
64.33000 8.081
64.34000 6.015
64.35000 10.160
64.36000 9.064
64.37000 8.252
64.38000 13.156
64.39000 13.290
64.40000 8.092
64.41000 7.059
64.42000 10.086
64.43000 8.179
64.44000 8.013
64.45000 6.133
64.46000 5.033
64.47000 10.059
64.48000 18.269
64.49000 7.036
64.50000 9.178
64.51000 8.993
64.52000 9.169
64.53000 11.297
64.54000 9.053
64.55000 7.284
64.56000 6.164
64.57000 9.057
64.58000 12.171
64.59000 8.970
64.60000 8.214
64.61000 14.063
64.62000 10.213
64.63000 14.347
64.64000 7.022
64.65000 5.017
64.66000 10.188
64.67000 9.991
64.68000 11.087
64.69000 8.242
64.70000 10.082
64.71000 10.052
64.72000 10.161
64.73000 8.142
64.74000 12.927
64.75000 5.054
64.76000 12.101
64.77000 17.199
64.78000 10.128
64.79000 11.308
64.80000 6.108
64.81000 7.977
64.82000 12.153
64.83000 9.120
64.84000 9.030
64.85000 6.075
64.86000 8.134
64.87000 10.158
64.88000 7.087
64.89000 9.143
64.90000 8.072
64.91000 19.266
64.92000 10.055
64.93000 14.321
64.94000 16.119
64.95000 14.287
64.96000 9.041
64.97000 8.156
64.98000 8.098
64.99000 8.050
65.00000 10.080
