20.00000 19.097
20.01000 11.114
20.02000 20.141
20.03000 21.353
20.04000 16.166
20.05000 13.298
20.06000 19.345
20.07000 25.120
20.08000 15.335
20.09000 21.374
20.10000 13.179
20.11000 20.342
20.12000 16.091
20.13000 24.423
20.14000 18.119
20.15000 19.176
20.16000 18.159
20.17000 22.368
20.18000 16.146
20.19000 16.144
20.20000 24.207
20.21000 18.317
20.22000 21.340
20.23000 21.210
20.24000 17.246
20.25000 15.134
20.26000 23.251
20.27000 20.218
20.28000 15.168
20.29000 20.314
20.30000 19.105
20.31000 19.471
20.32000 14.991
20.33000 24.240
20.34000 27.331
20.35000 19.074
20.36000 16.124
20.37000 17.320
20.38000 13.248
20.39000 14.318
20.40000 21.271
20.41000 27.809
20.42000 18.337
20.43000 22.354
20.44000 19.269
20.45000 16.035
20.46000 19.203
20.47000 18.301
20.48000 18.302
20.49000 13.191
20.50000 19.296
20.51000 18.293
20.52000 20.235
20.53000 12.151
20.54000 18.229
20.55000 20.058
20.56000 17.309
20.57000 16.155
20.58000 14.166
20.59000 20.380
20.60000 15.131
20.61000 17.139
20.62000 20.278
20.63000 14.335
20.64000 22.371
20.65000 19.350
20.66000 16.116
20.67000 22.391
20.68000 20.137
20.69000 21.476
20.70000 22.218
20.71000 14.166
20.72000 19.215
20.73000 23.133
20.74000 18.198
20.75000 20.290
20.76000 15.173
20.77000 26.357
20.78000 20.251
20.79000 17.202
20.80000 21.161
20.81000 15.030
20.82000 19.416
20.83000 17.124
20.84000 16.164
20.85000 21.204
20.86000 21.126
20.87000 21.314
20.88000 23.501
20.89000 13.146
20.90000 17.130
20.91000 15.927
20.92000 10.141
20.93000 24.470
20.94000 21.153
20.95000 20.219
20.96000 18.224
20.97000 16.278
20.98000 8.125
20.99000 16.309
21.00000 12.226
21.01000 22.223
21.02000 19.131
21.03000 24.426
21.04000 18.344
21.05000 17.022
21.06000 21.126
21.07000 13.212
21.08000 14.227
21.09000 19.290
21.10000 18.405
21.11000 20.179
21.12000 19.411
21.13000 22.445
21.14000 13.183
21.15000 16.206
21.16000 25.397
21.17000 16.123
21.18000 15.157
21.19000 20.122
21.20000 16.239
21.21000 19.211
21.22000 15.219
21.23000 16.209
21.24000 22.272
21.25000 26.369
21.26000 13.117
21.27000 18.107
21.28000 18.245
21.29000 19.291
21.30000 16.303
21.31000 17.277
21.32000 22.320
21.33000 26.183
21.34000 18.369
21.35000 31.514
21.36000 13.211
21.37000 29.418
21.38000 19.124
21.39000 28.270
21.40000 22.547
21.41000 24.448
21.42000 25.206
21.43000 21.233
21.44000 22.303
21.45000 17.260
21.46000 22.369
21.47000 16.268
21.48000 25.248
21.49000 15.155
21.50000 20.282
21.51000 21.210
21.52000 15.293
21.53000 20.268
21.54000 20.253
21.55000 25.395
21.56000 19.316
21.57000 18.102
21.58000 11.005
21.59000 15.145
21.60000 22.310
21.61000 14.127
21.62000 18.354
21.63000 22.311
21.64000 20.123
21.65000 23.339
21.66000 22.175
21.67000 20.368
21.68000 21.276
21.69000 28.187
21.70000 17.314
21.71000 27.457
21.72000 22.220
21.73000 15.338
21.74000 21.329
21.75000 20.019
21.76000 22.435
21.77000 18.208
21.78000 23.198
21.79000 18.090
21.80000 20.393
21.81000 20.137
21.82000 22.261
21.83000 15.197
21.84000 21.328
21.85000 28.632
21.86000 20.227
21.87000 15.088
21.88000 14.171
21.89000 16.144
21.90000 24.413
21.91000 20.287
21.92000 19.325
21.93000 30.356
21.94000 22.374
21.95000 27.322
21.96000 21.094
21.97000 23.326
21.98000 26.276
21.99000 24.315
22.00000 19.015
22.01000 20.295
22.02000 30.427
22.03000 25.280
22.04000 19.380
22.05000 19.259
22.06000 27.131
22.07000 15.198
22.08000 19.231
22.09000 15.092
22.10000 15.237
22.11000 21.249
22.12000 27.407
22.13000 13.236
22.14000 22.416
22.15000 14.209
22.16000 19.084
22.17000 28.586
22.18000 28.263
22.19000 24.215
22.20000 25.393
22.21000 32.343
22.22000 24.146
22.23000 18.349
22.24000 16.968
22.25000 22.154
22.26000 18.097
22.27000 20.446
22.28000 27.340
22.29000 18.339
22.30000 26.207
22.31000 16.181
22.32000 21.423
22.33000 19.354
22.34000 17.042
22.35000 17.045
22.36000 19.163
22.37000 20.394
22.38000 23.348
22.39000 24.192
22.40000 20.287
22.41000 27.536
22.42000 24.155
22.43000 19.378
22.44000 29.251
22.45000 27.272
22.46000 20.264
22.47000 23.305
22.48000 25.358
22.49000 31.011
22.50000 23.178
22.51000 32.423
22.52000 14.243
22.53000 29.627
22.54000 18.186
22.55000 21.199
22.56000 21.177
22.57000 28.439
22.58000 21.146
22.59000 22.619
22.60000 17.269
22.61000 23.382
22.62000 21.229
22.63000 15.111
22.64000 31.385
22.65000 21.228
22.66000 14.148
22.67000 23.319
22.68000 21.323
22.69000 22.268
22.70000 19.621
22.71000 24.377
22.72000 24.259
22.73000 35.447
22.74000 21.422
22.75000 14.084
22.76000 23.234
22.77000 17.189
22.78000 18.324
22.79000 25.100
22.80000 24.290
22.81000 26.456
22.82000 18.100
22.83000 21.183
22.84000 29.404
22.85000 26.173
22.86000 20.295
22.87000 22.414
22.88000 17.211
22.89000 28.372
22.90000 19.263
22.91000 25.196
22.92000 16.126
22.93000 39.518
22.94000 24.517
22.95000 24.222
22.96000 14.328
22.97000 18.392
22.98000 17.090
22.99000 21.347
23.00000 19.315
23.01000 22.330
23.02000 22.277
23.03000 19.381
23.04000 29.473
23.05000 24.391
23.06000 27.369
23.07000 21.457
23.08000 23.345
23.09000 13.139
23.10000 26.291
23.11000 26.508
23.12000 32.553
23.13000 25.376
23.14000 21.283
23.15000 20.120
23.16000 25.162
23.17000 28.337
23.18000 25.280
23.19000 26.266
23.20000 23.539
23.21000 17.218
23.22000 23.381
23.23000 20.261
23.24000 28.560
23.25000 19.192
23.26000 24.422
23.27000 23.643
23.28000 22.440
23.29000 28.562
23.30000 23.409
23.31000 16.230
23.32000 26.229
23.33000 22.292
23.34000 27.421
23.35000 21.488
23.36000 32.268
23.37000 23.086
23.38000 17.101
23.39000 20.314
23.40000 19.224
23.41000 28.405
23.42000 24.357
23.43000 17.130
23.44000 17.303
23.45000 26.297
23.46000 22.377
23.47000 27.549
23.48000 24.468
23.49000 19.319
23.50000 13.068
23.51000 24.359
23.52000 22.256
23.53000 22.231
23.54000 22.252
23.55000 24.103
23.56000 26.403
23.57000 19.388
23.58000 32.511
23.59000 22.253
23.60000 28.327
23.61000 27.212
23.62000 19.352
23.63000 24.293
23.64000 21.473
23.65000 21.968
23.66000 42.726
23.67000 16.019
23.68000 30.427
23.69000 36.494
23.70000 25.271
23.71000 13.237
23.72000 36.290
23.73000 23.150
23.74000 35.574
23.75000 19.405
23.76000 21.278
23.77000 26.375
23.78000 24.283
23.79000 28.392
23.80000 22.320
23.81000 24.392
23.82000 29.351
23.83000 15.215
23.84000 23.153
23.85000 29.387
23.86000 29.416
23.87000 27.433
23.88000 24.357
23.89000 18.374
23.90000 28.200
23.91000 21.494
23.92000 23.326
23.93000 17.224
23.94000 19.293
23.95000 21.140
23.96000 22.331
23.97000 21.294
23.98000 25.458
23.99000 17.158
24.00000 33.436
24.01000 24.375
24.02000 32.344
24.03000 26.197
24.04000 18.420
24.05000 34.216
24.06000 28.517
24.07000 25.313
24.08000 19.264
24.09000 20.242
24.10000 29.342
24.11000 25.238
24.12000 22.299
24.13000 28.019
24.14000 17.121
24.15000 27.555
24.16000 30.686
24.17000 31.266
24.18000 35.335
24.19000 29.353
24.20000 19.304
24.21000 27.226
24.22000 12.096
24.23000 29.455
24.24000 34.414
24.25000 23.267
24.26000 22.214
24.27000 18.405
24.28000 22.191
24.29000 34.468
24.30000 27.557
24.31000 35.504
24.32000 34.610
24.33000 37.449
24.34000 29.334
24.35000 25.303
24.36000 22.375
24.37000 23.295
24.38000 24.127
24.39000 30.135
24.40000 31.164
24.41000 25.193
24.42000 28.530
24.43000 20.293
24.44000 37.657
24.45000 26.291
24.46000 25.426
24.47000 42.701
24.48000 35.559
24.49000 28.503
24.50000 35.600
24.51000 37.482
24.52000 24.259
24.53000 21.962
24.54000 28.414
24.55000 30.282
24.56000 38.296
24.57000 33.273
24.58000 21.183
24.59000 22.234
24.60000 26.414
24.61000 29.374
24.62000 34.388
24.63000 32.423
24.64000 17.102
24.65000 22.519
24.66000 30.314
24.67000 16.186
24.68000 40.463
24.69000 30.457
24.70000 34.537
24.71000 34.512
24.72000 40.549
24.73000 32.409
24.74000 27.413
24.75000 28.444
24.76000 28.510
24.77000 34.277
24.78000 43.522
24.79000 29.280
24.80000 23.252
24.81000 39.300
24.82000 28.426
24.83000 36.446
24.84000 20.243
24.85000 24.203
24.86000 36.150
24.87000 22.389
24.88000 27.551
24.89000 31.460
24.90000 40.601
24.91000 29.650
24.92000 25.342
24.93000 32.310
24.94000 25.356
24.95000 28.523
24.96000 29.311
24.97000 35.527
24.98000 24.282
24.99000 23.308
25.00000 24.327
25.01000 25.333
25.02000 26.257
25.03000 36.433
25.04000 37.367
25.05000 32.423
25.06000 37.453
25.07000 28.285
25.08000 29.198
25.09000 26.306
25.10000 24.582
25.11000 33.307
25.12000 24.457
25.13000 40.330
25.14000 23.345
25.15000 24.392
25.16000 31.608
25.17000 35.275
25.18000 29.366
25.19000 39.461
25.20000 32.428
25.21000 31.347
25.22000 32.278
25.23000 29.454
25.24000 24.477
25.25000 30.373
25.26000 26.233
25.27000 27.402
25.28000 27.317
25.29000 35.387
25.30000 23.485
25.31000 34.455
25.32000 37.437
25.33000 44.184
25.34000 43.554
25.35000 29.332
25.36000 28.350
25.37000 26.121
25.38000 26.384
25.39000 29.583
25.40000 30.518
25.41000 36.497
25.42000 31.429
25.43000 44.685
25.44000 28.442
25.45000 43.538
25.46000 31.447
25.47000 41.646
25.48000 33.418
25.49000 34.423
25.50000 32.491
25.51000 34.163
25.52000 34.210
25.53000 43.532
25.54000 38.793
25.55000 28.413
25.56000 34.345
25.57000 27.227
25.58000 41.319
25.59000 37.485
25.60000 38.268
25.61000 40.292
25.62000 30.405
25.63000 33.412
25.64000 32.470
25.65000 35.577
25.66000 43.551
25.67000 39.725
25.68000 40.534
25.69000 31.474
25.70000 31.245
25.71000 36.496
25.72000 30.381
25.73000 33.464
25.74000 34.387
25.75000 35.137
25.76000 38.646
25.77000 27.200
25.78000 36.479
25.79000 34.313
25.80000 50.662
25.81000 43.546
25.82000 23.259
25.83000 28.256
25.84000 40.507
25.85000 39.237
25.86000 36.566
25.87000 37.497
25.88000 30.497
25.89000 46.677
25.90000 47.480
25.91000 29.513
25.92000 35.446
25.93000 37.636
25.94000 36.265
25.95000 35.228
25.96000 35.420
25.97000 42.437
25.98000 27.308
25.99000 30.446
26.00000 38.430
26.01000 30.494
26.02000 47.660
26.03000 37.209
26.04000 34.255
26.05000 44.487
26.06000 40.443
26.07000 54.685
26.08000 37.299
26.09000 43.497
26.10000 35.327
26.11000 37.579
26.12000 32.461
26.13000 43.496
26.14000 39.364
26.15000 38.295
26.16000 28.191
26.17000 45.410
26.18000 33.317
26.19000 37.484
26.20000 36.473
26.21000 48.423
26.22000 40.272
26.23000 42.842
26.24000 34.496
26.25000 30.259
26.26000 48.681
26.27000 35.670
26.28000 45.490
26.29000 31.301
26.30000 38.475
26.31000 39.522
26.32000 38.476
26.33000 39.531
26.34000 26.378
26.35000 44.798
26.36000 40.388
26.37000 37.369
26.38000 37.310
26.39000 40.173
26.40000 42.382
26.41000 43.622
26.42000 37.475
26.43000 47.439
26.44000 46.551
26.45000 46.486
26.46000 38.618
26.47000 32.223
26.48000 45.567
26.49000 55.816
26.50000 31.374
26.51000 46.443
26.52000 39.420
26.53000 51.669
26.54000 35.460
26.55000 50.834
26.56000 47.886
26.57000 29.436
26.58000 36.471
26.59000 36.480
26.60000 39.305
26.61000 34.526
26.62000 32.298
26.63000 43.641
26.64000 31.310
26.65000 42.778
26.66000 42.829
26.67000 32.326
26.68000 35.450
26.69000 43.270
26.70000 40.602
26.71000 44.441
26.72000 45.460
26.73000 52.632
26.74000 33.448
26.75000 38.445
26.76000 45.803
26.77000 40.434
26.78000 30.468
26.79000 44.447
26.80000 48.555
26.81000 38.486
26.82000 39.621
26.83000 42.286
26.84000 37.523
26.85000 34.599
26.86000 51.753
26.87000 33.498
26.88000 33.482
26.89000 38.485
26.90000 44.469
26.91000 30.147
26.92000 43.415
26.93000 48.575
26.94000 41.455
26.95000 26.430
26.96000 47.491
26.97000 41.313
26.98000 39.676
26.99000 44.419
27.00000 48.707
27.01000 63.847
27.02000 48.821
27.03000 56.732
27.04000 42.555
27.05000 39.255
27.06000 33.629
27.07000 26.107
27.08000 44.779
27.09000 38.695
27.10000 40.461
27.11000 43.957
27.12000 41.318
27.13000 50.591
27.14000 41.620
27.15000 43.676
27.16000 38.624
27.17000 33.345
27.18000 45.334
27.19000 29.264
27.20000 49.501
27.21000 48.955
27.22000 39.460
27.23000 39.427
27.24000 38.360
27.25000 51.347
27.26000 41.456
27.27000 40.518
27.28000 50.406
27.29000 46.698
27.30000 39.650
27.31000 47.387
27.32000 41.707
27.33000 34.495
27.34000 50.584
27.35000 40.577
27.36000 30.225
27.37000 38.520
27.38000 39.441
27.39000 40.548
27.40000 54.777
27.41000 36.513
27.42000 42.660
27.43000 55.435
27.44000 42.510
27.45000 31.481
27.46000 40.608
27.47000 41.320
27.48000 41.810
27.49000 38.790
27.50000 39.465
27.51000 35.404
27.52000 40.503
27.53000 53.809
27.54000 42.722
27.55000 53.855
27.56000 38.256
27.57000 41.160
27.58000 35.470
27.59000 48.582
27.60000 43.912
27.61000 40.361
27.62000 53.172
27.63000 42.412
27.64000 45.296
27.65000 31.325
27.66000 34.449
27.67000 35.539
27.68000 26.384
27.69000 49.681
27.70000 36.470
27.71000 45.505
27.72000 38.457
27.73000 38.441
27.74000 31.293
27.75000 45.720
27.76000 42.626
27.77000 48.783
27.78000 36.131
27.79000 31.419
27.80000 41.196
27.81000 34.697
27.82000 45.425
27.83000 36.267
27.84000 37.525
27.85000 40.484
27.86000 45.630
27.87000 34.403
27.88000 43.535
27.89000 35.378
27.90000 39.419
27.91000 40.365
27.92000 46.806
27.93000 47.457
27.94000 41.367
27.95000 54.519
27.96000 33.580
27.97000 53.869
27.98000 41.321
27.99000 47.580
28.00000 51.901
28.01000 40.624
28.02000 29.451
28.03000 45.765
28.04000 45.529
28.05000 55.709
28.06000 53.680
28.07000 49.768
28.08000 39.678
28.09000 50.714
28.10000 44.647
28.11000 39.225
28.12000 42.676
28.13000 36.298
28.14000 36.400
28.15000 43.553
28.16000 41.613
28.17000 41.559
28.18000 35.318
28.19000 47.694
28.20000 42.884
28.21000 55.946
28.22000 34.355
28.23000 35.385
28.24000 47.846
28.25000 34.394
28.26000 44.657
28.27000 37.668
28.28000 45.779
28.29000 48.772
28.30000 40.294
28.31000 54.926
28.32000 42.664
28.33000 48.474
28.34000 36.736
28.35000 36.571
28.36000 46.855
28.37000 40.555
28.38000 29.380
28.39000 51.532
28.40000 41.705
28.41000 45.633
28.42000 49.215
28.43000 38.503
28.44000 46.592
28.45000 40.754
28.46000 43.310
28.47000 44.475
28.48000 30.453
28.49000 50.701
28.50000 51.563
28.51000 45.586
28.52000 31.259
28.53000 43.371
28.54000 35.628
28.55000 47.656
28.56000 43.382
28.57000 37.734
28.58000 36.495
28.59000 36.542
28.60000 32.466
28.61000 40.501
28.62000 40.395
28.63000 40.593
28.64000 43.524
28.65000 37.541
28.66000 37.617
28.67000 42.524
28.68000 27.352
28.69000 29.387
28.70000 31.217
28.71000 36.504
28.72000 40.739
28.73000 40.188
28.74000 26.126
28.75000 33.651
28.76000 35.589
28.77000 46.391
28.78000 39.575
28.79000 34.517
28.80000 40.392
28.81000 34.728
28.82000 50.653
28.83000 34.665
28.84000 44.498
28.85000 34.516
28.86000 42.484
28.87000 43.579
28.88000 33.600
28.89000 33.175
28.90000 50.414
28.91000 30.578
28.92000 41.609
28.93000 35.406
28.94000 42.991
28.95000 40.618
28.96000 35.388
28.97000 34.672
28.98000 31.275
28.99000 31.348
29.00000 46.580
29.01000 35.576
29.02000 37.639
29.03000 42.711
29.04000 43.560
29.05000 38.507
29.06000 42.644
29.07000 28.402
29.08000 26.462
29.09000 39.315
29.10000 37.720
29.11000 32.277
29.12000 39.433
29.13000 40.697
29.14000 38.455
29.15000 39.412
29.16000 38.499
29.17000 41.474
29.18000 33.494
29.19000 30.460
29.20000 28.099
29.21000 33.686
29.22000 39.378
29.23000 32.358
29.24000 42.457
29.25000 28.281
29.26000 47.755
29.27000 35.405
29.28000 38.336
29.29000 35.530
29.30000 37.424
29.31000 45.571
29.32000 45.567
29.33000 23.011
29.34000 32.376
29.35000 32.136
29.36000 34.499
29.37000 37.666
29.38000 33.302
29.39000 26.362
29.40000 32.247
29.41000 28.307
29.42000 46.400
29.43000 37.419
29.44000 34.394
29.45000 26.284
29.46000 29.441
29.47000 35.541
29.48000 34.369
29.49000 29.220
29.50000 31.678
29.51000 42.083
29.52000 27.468
29.53000 37.695
29.54000 34.293
29.55000 31.375
29.56000 29.487
29.57000 40.397
29.58000 42.611
29.59000 28.283
29.60000 37.600
29.61000 38.553
29.62000 24.439
29.63000 27.123
29.64000 32.352
29.65000 35.439
29.66000 32.476
29.67000 31.532
29.68000 35.498
29.69000 24.445
29.70000 32.424
29.71000 48.496
29.72000 40.347
29.73000 28.480
29.74000 26.242
29.75000 31.446
29.76000 20.333
29.77000 35.414
29.78000 40.581
29.79000 36.524
29.80000 34.602
29.81000 25.499
29.82000 24.529
29.83000 32.268
29.84000 22.342
29.85000 34.131
29.86000 33.531
29.87000 26.513
29.88000 36.632
29.89000 36.076
29.90000 31.235
29.91000 31.238
29.92000 35.222
29.93000 30.400
29.94000 32.288
29.95000 35.526
29.96000 31.645
29.97000 28.529
29.98000 27.544
29.99000 32.362
30.00000 32.278
30.01000 35.667
30.02000 28.438
30.03000 38.654
30.04000 36.320
30.05000 38.816
30.06000 26.440
30.07000 22.398
30.08000 23.355
30.09000 32.483
30.10000 34.601
30.11000 26.142
30.12000 35.479
30.13000 30.355
30.14000 27.519
30.15000 30.543
30.16000 23.068
30.17000 27.332
30.18000 31.480
30.19000 30.302
30.20000 27.338
30.21000 30.473
30.22000 31.329
30.23000 29.345
30.24000 29.366
30.25000 28.238
30.26000 33.450
30.27000 31.626
30.28000 30.086
30.29000 33.386
30.30000 29.503
30.31000 36.690
30.32000 33.522
30.33000 33.396
30.34000 35.598
30.35000 35.481
30.36000 26.190
30.37000 33.491
30.38000 31.668
30.39000 27.410
30.40000 24.324
30.41000 31.419
30.42000 35.536
30.43000 29.366
30.44000 36.447
30.45000 22.345
30.46000 29.430
30.47000 27.400
30.48000 30.354
30.49000 21.279
30.50000 27.224
30.51000 34.268
30.52000 24.481
30.53000 36.495
30.54000 28.204
30.55000 29.328
30.56000 29.459
30.57000 32.173
30.58000 30.371
30.59000 34.595
30.60000 23.114
30.61000 35.386
30.62000 33.412
30.63000 24.291
30.64000 30.488
30.65000 23.196
30.66000 19.276
30.67000 21.368
30.68000 34.545
30.69000 24.254
30.70000 22.512
30.71000 34.360
30.72000 26.365
30.73000 29.433
30.74000 34.370
30.75000 31.531
30.76000 23.252
30.77000 25.426
30.78000 29.355
30.79000 21.348
30.80000 27.163
30.81000 23.534
30.82000 21.307
30.83000 23.296
30.84000 23.123
30.85000 30.523
30.86000 32.245
30.87000 21.284
30.88000 20.417
30.89000 25.335
30.90000 28.369
30.91000 20.299
30.92000 25.303
30.93000 34.706
30.94000 22.202
30.95000 26.493
30.96000 29.477
30.97000 35.429
30.98000 21.217
30.99000 27.563
31.00000 29.534
31.01000 26.309
31.02000 25.073
31.03000 19.295
31.04000 18.106
31.05000 26.409
31.06000 20.270
31.07000 25.218
31.08000 27.448
31.09000 25.240
31.10000 26.438
31.11000 25.034
31.12000 19.192
31.13000 25.374
31.14000 22.399
31.15000 25.184
31.16000 24.229
31.17000 26.421
31.18000 19.080
31.19000 20.328
31.20000 36.497
31.21000 21.020
31.22000 18.193
31.23000 23.540
31.24000 21.215
31.25000 20.186
31.26000 21.378
31.27000 22.309
31.28000 28.569
31.29000 32.283
31.30000 30.408
31.31000 22.253
31.32000 31.193
31.33000 24.200
31.34000 21.165
31.35000 30.447
31.36000 19.229
31.37000 22.406
31.38000 26.270
31.39000 19.374
31.40000 21.339
31.41000 23.124
31.42000 30.975
31.43000 16.170
31.44000 22.171
31.45000 19.296
31.46000 25.377
31.47000 24.236
31.48000 20.178
31.49000 29.236
31.50000 20.323
31.51000 28.386
31.52000 21.230
31.53000 18.295
31.54000 28.247
31.55000 21.283
31.56000 30.318
31.57000 25.300
31.58000 15.099
31.59000 27.259
31.60000 25.227
31.61000 20.369
31.62000 26.140
31.63000 28.556
31.64000 18.999
31.65000 23.286
31.66000 23.391
31.67000 19.285
31.68000 13.010
31.69000 19.232
31.70000 20.094
31.71000 28.149
31.72000 22.040
31.73000 25.459
31.74000 30.612
31.75000 14.146
31.76000 27.422
31.77000 22.335
31.78000 23.264
31.79000 22.222
31.80000 17.239
31.81000 30.394
31.82000 26.321
31.83000 20.360
31.84000 27.176
31.85000 21.315
31.86000 24.293
31.87000 12.168
31.88000 22.388
31.89000 23.317
31.90000 21.368
31.91000 25.280
31.92000 28.193
31.93000 27.388
31.94000 30.278
31.95000 19.255
31.96000 34.520
31.97000 23.400
31.98000 21.214
31.99000 17.222
32.00000 20.360
32.01000 17.223
32.02000 22.374
32.03000 20.416
32.04000 26.311
32.05000 31.228
32.06000 23.348
32.07000 14.143
32.08000 23.292
32.09000 19.574
32.10000 24.260
32.11000 18.223
32.12000 25.462
32.13000 32.365
32.14000 23.161
32.15000 25.374
32.16000 25.294
32.17000 24.239
32.18000 19.220
32.19000 37.590
32.20000 24.379
32.21000 26.388
32.22000 24.475
32.23000 30.417
32.24000 22.142
32.25000 21.387
32.26000 32.541
32.27000 26.416
32.28000 32.495
32.29000 28.154
32.30000 28.497
32.31000 21.248
32.32000 26.346
32.33000 30.450
32.34000 26.447
32.35000 19.223
32.36000 36.261
32.37000 22.282
32.38000 27.499
32.39000 24.412
32.40000 27.356
32.41000 36.508
32.42000 39.410
32.43000 20.355
32.44000 19.353
32.45000 29.288
32.46000 31.312
32.47000 26.337
32.48000 19.437
32.49000 27.383
32.50000 24.374
32.51000 33.632
32.52000 21.117
32.53000 25.325
32.54000 25.191
32.55000 22.140
32.56000 23.432
32.57000 27.225
32.58000 30.337
32.59000 27.274
32.60000 24.348
32.61000 23.403
32.62000 24.427
32.63000 24.231
32.64000 35.454
32.65000 17.313
32.66000 26.266
32.67000 19.176
32.68000 23.172
32.69000 16.116
32.70000 21.305
32.71000 23.321
32.72000 14.133
32.73000 28.446
32.74000 21.195
32.75000 23.198
32.76000 22.219
32.77000 16.227
32.78000 26.450
32.79000 19.358
32.80000 14.125
32.81000 25.224
32.82000 18.271
32.83000 18.290
32.84000 12.181
32.85000 25.317
32.86000 30.563
32.87000 30.564
32.88000 21.447
32.89000 20.243
32.90000 13.115
32.91000 29.311
32.92000 21.325
32.93000 18.112
32.94000 23.113
32.95000 12.220
32.96000 28.387
32.97000 16.327
32.98000 16.202
32.99000 18.286
33.00000 12.911
33.01000 18.176
33.02000 17.077
33.03000 19.325
33.04000 28.150
33.05000 21.326
33.06000 22.401
33.07000 28.646
33.08000 21.144
33.09000 21.327
33.10000 18.290
33.11000 21.257
33.12000 21.265
33.13000 15.117
33.14000 21.172
33.15000 14.071
33.16000 12.116
33.17000 21.198
33.18000 17.229
33.19000 17.333
33.20000 18.404
33.21000 24.207
33.22000 14.112
33.23000 18.149
33.24000 21.059
33.25000 12.084
33.26000 14.217
33.27000 19.301
33.28000 13.112
33.29000 10.093
33.30000 16.105
33.31000 12.019
33.32000 19.291
33.33000 14.170
33.34000 20.187
33.35000 15.419
33.36000 25.278
33.37000 25.366
33.38000 13.175
33.39000 14.187
33.40000 23.169
33.41000 17.265
33.42000 18.374
33.43000 17.118
33.44000 18.578
33.45000 13.171
33.46000 19.116
33.47000 22.303
33.48000 12.210
33.49000 13.101
33.50000 19.367
33.51000 15.032
33.52000 11.130
33.53000 19.224
33.54000 16.298
33.55000 13.294
33.56000 11.155
33.57000 24.364
33.58000 12.160
33.59000 21.342
33.60000 19.428
33.61000 11.232
33.62000 22.237
33.63000 12.116
33.64000 23.305
33.65000 20.065
33.66000 16.349
33.67000 15.210
33.68000 6.986
33.69000 16.129
33.70000 11.133
33.71000 15.302
33.72000 12.270
33.73000 13.227
33.74000 20.372
33.75000 9.171
33.76000 16.201
33.77000 13.249
33.78000 12.175
33.79000 24.357
33.80000 12.118
33.81000 21.298
33.82000 19.315
33.83000 14.196
33.84000 14.078
33.85000 16.395
33.86000 14.308
33.87000 14.161
33.88000 19.100
33.89000 16.318
33.90000 20.315
33.91000 25.312
33.92000 19.292
33.93000 18.112
33.94000 14.234
33.95000 15.138
33.96000 9.197
33.97000 19.241
33.98000 24.289
33.99000 16.245
34.00000 16.186
34.01000 17.232
34.02000 8.008
34.03000 16.091
34.04000 13.371
34.05000 12.080
34.06000 20.189
34.07000 9.122
34.08000 22.393
34.09000 12.111
34.10000 13.137
34.11000 18.351
34.12000 16.061
34.13000 21.221
34.14000 14.139
34.15000 13.114
34.16000 14.075
34.17000 19.138
34.18000 16.153
34.19000 21.275
34.20000 15.318
34.21000 12.125
34.22000 13.348
34.23000 19.197
34.24000 17.340
34.25000 15.221
34.26000 13.177
34.27000 20.238
34.28000 7.203
34.29000 12.097
34.30000 17.033
34.31000 14.139
34.32000 15.203
34.33000 12.133
34.34000 17.246
34.35000 17.198
34.36000 17.277
34.37000 15.113
34.38000 20.113
34.39000 20.202
34.40000 14.166
34.41000 14.070
34.42000 15.397
34.43000 16.283
34.44000 16.198
34.45000 17.118
34.46000 11.271
34.47000 13.387
34.48000 15.199
34.49000 12.153
34.50000 13.037
34.51000 26.301
34.52000 19.352
34.53000 14.217
34.54000 18.251
34.55000 12.105
34.56000 14.182
34.57000 10.118
34.58000 18.120
34.59000 14.084
34.60000 19.307
34.61000 16.037
34.62000 10.039
34.63000 14.228
34.64000 19.326
34.65000 17.269
34.66000 15.049
34.67000 10.038
34.68000 22.291
34.69000 14.269
34.70000 18.973
34.71000 11.137
34.72000 11.195
34.73000 13.130
34.74000 10.233
34.75000 20.093
34.76000 13.151
34.77000 19.123
34.78000 13.156
34.79000 15.062
34.80000 14.224
34.81000 11.127
34.82000 22.261
34.83000 17.208
34.84000 13.181
34.85000 19.070
34.86000 13.421
34.87000 20.261
34.88000 4.021
34.89000 11.174
34.90000 16.178
34.91000 19.216
34.92000 14.206
34.93000 17.260
34.94000 22.368
34.95000 15.599
34.96000 11.195
34.97000 23.225
34.98000 18.179
34.99000 10.084
35.00000 20.283
35.01000 15.197
35.02000 15.323
35.03000 21.195
35.04000 11.120
35.05000 16.159
35.06000 17.325
35.07000 18.168
35.08000 21.259
35.09000 9.132
35.10000 14.048
35.11000 19.268
35.12000 11.063
35.13000 17.217
35.14000 14.125
35.15000 16.074
35.16000 13.246
35.17000 18.219
35.18000 15.037
35.19000 8.997
35.20000 18.237
35.21000 16.021
35.22000 12.120
35.23000 15.104
35.24000 14.193
35.25000 13.172
35.26000 20.155
35.27000 21.206
35.28000 10.125
35.29000 17.286
35.30000 19.200
35.31000 21.342
35.32000 17.319
35.33000 15.228
35.34000 15.156
35.35000 22.389
35.36000 16.345
35.37000 17.449
35.38000 19.210
35.39000 17.209
35.40000 14.111
35.41000 15.326
35.42000 13.153
35.43000 19.298
35.44000 19.310
35.45000 15.153
35.46000 12.258
35.47000 18.279
35.48000 12.205
35.49000 14.232
35.50000 8.990
35.51000 9.080
35.52000 10.181
35.53000 15.265
35.54000 12.105
35.55000 18.096
35.56000 11.205
35.57000 16.188
35.58000 17.210
35.59000 24.323
35.60000 16.026
35.61000 16.406
35.62000 19.071
35.63000 19.351
35.64000 14.273
35.65000 7.129
35.66000 13.134
35.67000 13.307
35.68000 18.587
35.69000 9.107
35.70000 20.247
35.71000 6.249
35.72000 13.120
35.73000 12.142
35.74000 21.326
35.75000 17.039
35.76000 15.209
35.77000 11.139
35.78000 14.097
35.79000 11.045
35.80000 12.238
35.81000 12.253
35.82000 14.119
35.83000 23.064
35.84000 14.151
35.85000 14.123
35.86000 12.299
35.87000 16.220
35.88000 12.112
35.89000 20.162
35.90000 19.387
35.91000 8.072
35.92000 18.264
35.93000 18.201
35.94000 17.107
35.95000 13.033
35.96000 14.195
35.97000 12.273
35.98000 12.103
35.99000 18.321
36.00000 17.254
36.01000 16.324
36.02000 16.204
36.03000 17.062
36.04000 12.072
36.05000 20.148
36.06000 15.253
36.07000 18.221
36.08000 11.177
36.09000 25.370
36.10000 14.064
36.11000 6.133
36.12000 13.166
36.13000 13.078
36.14000 16.044
36.15000 14.221
36.16000 12.247
36.17000 21.540
36.18000 9.276
36.19000 10.213
36.20000 21.448
36.21000 11.282
36.22000 16.407
36.23000 19.469
36.24000 11.065
36.25000 18.209
36.26000 12.218
36.27000 14.210
36.28000 13.243
36.29000 20.219
36.30000 16.106
36.31000 15.087
36.32000 16.104
36.33000 15.332
36.34000 10.191
36.35000 16.146
36.36000 18.368
36.37000 16.161
36.38000 17.160
36.39000 8.133
36.40000 13.047
36.41000 12.174
36.42000 14.338
36.43000 18.350
36.44000 13.131
36.45000 14.260
36.46000 16.081
36.47000 17.215
36.48000 15.032
36.49000 23.442
36.50000 15.300
36.51000 17.193
36.52000 17.298
36.53000 16.214
36.54000 14.173
36.55000 18.283
36.56000 19.222
36.57000 17.168
36.58000 13.206
36.59000 20.095
36.60000 14.166
36.61000 17.198
36.62000 14.169
36.63000 16.231
36.64000 19.398
36.65000 10.072
36.66000 10.181
36.67000 16.188
36.68000 14.071
36.69000 16.297
36.70000 14.143
36.71000 18.424
36.72000 12.116
36.73000 22.362
36.74000 17.212
36.75000 20.364
36.76000 13.228
36.77000 12.036
36.78000 13.155
36.79000 11.219
36.80000 16.371
36.81000 18.158
36.82000 7.127
36.83000 17.140
36.84000 14.161
36.85000 19.361
36.86000 11.134
36.87000 13.172
36.88000 13.185
36.89000 16.218
36.90000 19.263
36.91000 14.159
36.92000 16.263
36.93000 15.025
36.94000 13.047
36.95000 13.127
36.96000 17.081
36.97000 16.187
36.98000 17.223
36.99000 6.096
37.00000 11.162
37.01000 12.120
37.02000 14.323
37.03000 12.187
37.04000 14.120
37.05000 13.113
37.06000 13.291
37.07000 14.047
37.08000 19.176
37.09000 18.299
37.10000 15.987
37.11000 15.143
37.12000 16.429
37.13000 14.076
37.14000 15.292
37.15000 14.167
37.16000 15.194
37.17000 14.134
37.18000 21.400
37.19000 13.177
37.20000 18.238
37.21000 20.227
37.22000 13.015
37.23000 15.294
37.24000 13.126
37.25000 11.100
37.26000 12.114
37.27000 12.995
37.28000 17.159
37.29000 17.205
37.30000 12.063
37.31000 25.372
37.32000 12.238
37.33000 13.254
37.34000 17.361
37.35000 11.154
37.36000 13.268
37.37000 19.215
37.38000 15.188
37.39000 21.329
37.40000 17.222
37.41000 13.244
37.42000 14.237
37.43000 16.154
37.44000 12.212
37.45000 12.311
37.46000 13.241
37.47000 11.179
37.48000 11.035
37.49000 19.204
37.50000 15.075
37.51000 17.010
37.52000 18.320
37.53000 21.242
37.54000 19.109
37.55000 15.132
37.56000 18.185
37.57000 18.237
37.58000 13.145
37.59000 25.367
37.60000 16.200
37.61000 11.167
37.62000 16.248
37.63000 16.233
37.64000 16.043
37.65000 14.927
37.66000 18.172
37.67000 25.407
37.68000 16.321
37.69000 13.273
37.70000 22.227
37.71000 19.281
37.72000 10.078
37.73000 20.238
37.74000 10.162
37.75000 14.410
37.76000 13.104
37.77000 21.334
37.78000 21.062
37.79000 20.219
37.80000 21.186
37.81000 21.255
37.82000 17.246
37.83000 15.396
37.84000 21.174
37.85000 14.386
37.86000 13.153
37.87000 16.294
37.88000 22.291
37.89000 19.233
37.90000 19.323
37.91000 14.166
37.92000 11.081
37.93000 9.011
37.94000 11.996
37.95000 9.154
37.96000 23.490
37.97000 11.059
37.98000 19.582
37.99000 19.351
38.00000 15.224
38.01000 15.253
38.02000 11.092
38.03000 24.330
38.04000 12.211
38.05000 15.236
38.06000 25.538
38.07000 12.047
38.08000 14.127
38.09000 21.158
38.10000 11.100
38.11000 18.216
38.12000 13.261
38.13000 18.282
38.14000 13.158
38.15000 29.422
38.16000 11.171
38.17000 19.531
38.18000 12.148
38.19000 18.162
38.20000 7.020
38.21000 16.129
38.22000 10.048
38.23000 8.076
38.24000 15.334
38.25000 20.224
38.26000 24.415
38.27000 9.098
38.28000 12.086
38.29000 7.025
38.30000 19.333
38.31000 14.247
38.32000 15.045
38.33000 21.449
38.34000 21.091
38.35000 13.216
38.36000 19.262
38.37000 18.313
38.38000 17.217
38.39000 18.122
38.40000 14.046
38.41000 12.123
38.42000 21.328
38.43000 13.227
38.44000 20.153
38.45000 10.055
38.46000 6.991
38.47000 13.193
38.48000 28.314
38.49000 16.260
38.50000 19.114
38.51000 17.127
38.52000 19.320
38.53000 19.017
38.54000 16.279
38.55000 12.220
38.56000 17.346
38.57000 10.052
38.58000 15.296
38.59000 12.082
38.60000 14.301
38.61000 6.006
38.62000 17.206
38.63000 15.109
38.64000 12.137
38.65000 8.047
38.66000 22.305
38.67000 14.291
38.68000 20.223
38.69000 14.217
38.70000 16.211
38.71000 10.272
38.72000 14.159
38.73000 14.132
38.74000 21.415
38.75000 16.078
38.76000 19.220
38.77000 17.356
38.78000 15.055
38.79000 14.346
38.80000 14.096
38.81000 21.086
38.82000 29.395
38.83000 19.220
38.84000 11.998
38.85000 15.234
38.86000 12.109
38.87000 18.145
38.88000 14.168
38.89000 10.109
38.90000 20.167
38.91000 13.166
38.92000 12.252
38.93000 7.057
38.94000 12.228
38.95000 19.060
38.96000 20.285
38.97000 12.038
38.98000 23.216
38.99000 22.147
39.00000 16.172
39.01000 10.102
39.02000 9.049
39.03000 19.364
39.04000 23.247
39.05000 17.162
39.06000 12.163
39.07000 17.342
39.08000 17.290
39.09000 15.110
39.10000 17.163
39.11000 13.224
39.12000 17.255
39.13000 17.230
39.14000 12.210
39.15000 12.243
39.16000 20.394
39.17000 17.299
39.18000 6.089
39.19000 12.142
39.20000 19.111
39.21000 27.299
39.22000 20.226
39.23000 12.107
39.24000 19.356
39.25000 15.184
39.26000 18.065
39.27000 14.312
39.28000 15.138
39.29000 25.375
39.30000 15.375
39.31000 24.407
39.32000 23.078
39.33000 22.387
39.34000 17.345
39.35000 23.178
39.36000 9.129
39.37000 11.276
39.38000 22.351
39.39000 14.177
39.40000 10.143
39.41000 18.127
39.42000 22.218
39.43000 15.272
39.44000 16.071
39.45000 24.465
39.46000 17.017
39.47000 12.180
39.48000 17.158
39.49000 25.211
39.50000 19.434
39.51000 17.282
39.52000 27.281
39.53000 15.411
39.54000 16.180
39.55000 14.268
39.56000 17.088
39.57000 25.301
39.58000 18.209
39.59000 13.281
39.60000 10.177
39.61000 18.960
39.62000 17.337
39.63000 22.201
39.64000 28.434
39.65000 15.097
39.66000 17.211
39.67000 22.419
39.68000 22.221
39.69000 20.351
39.70000 15.371
39.71000 22.406
39.72000 16.273
39.73000 18.080
39.74000 20.225
39.75000 21.267
39.76000 9.030
39.77000 19.340
39.78000 21.376
39.79000 13.077
39.80000 22.373
39.81000 19.378
39.82000 19.281
39.83000 13.359
39.84000 18.312
39.85000 22.257
39.86000 15.299
39.87000 15.071
39.88000 17.259
39.89000 17.253
39.90000 22.319
39.91000 17.115
39.92000 20.345
39.93000 22.243
39.94000 11.159
39.95000 26.332
39.96000 26.372
39.97000 24.165
39.98000 15.216
39.99000 13.001
40.00000 16.339
40.01000 17.211
40.02000 11.109
40.03000 18.266
40.04000 12.165
40.05000 19.267
40.06000 12.227
40.07000 20.363
40.08000 12.240
40.09000 16.084
40.10000 22.491
40.11000 17.111
40.12000 12.260
40.13000 19.151
40.14000 19.131
40.15000 19.209
40.16000 18.209
40.17000 15.124
40.18000 19.374
40.19000 17.261
40.20000 17.147
40.21000 22.427
40.22000 11.196
40.23000 21.134
40.24000 16.168
40.25000 11.195
40.26000 14.095
40.27000 19.312
40.28000 15.126
40.29000 16.196
40.30000 18.188
40.31000 16.271
40.32000 22.369
40.33000 21.365
40.34000 19.480
40.35000 16.093
40.36000 26.184
40.37000 14.199
40.38000 22.303
40.39000 12.014
40.40000 10.335
40.41000 14.208
40.42000 13.195
40.43000 15.237
40.44000 17.088
40.45000 10.011
40.46000 20.233
40.47000 15.070
40.48000 15.242
40.49000 17.270
40.50000 22.269
40.51000 21.393
40.52000 19.299
40.53000 10.133
40.54000 25.185
40.55000 6.135
40.56000 16.222
40.57000 17.290
40.58000 14.125
40.59000 20.247
40.60000 20.087
40.61000 15.122
40.62000 16.204
40.63000 16.310
40.64000 15.163
40.65000 20.265
40.66000 13.101
40.67000 18.196
40.68000 15.268
40.69000 17.177
40.70000 17.045
40.71000 12.234
40.72000 13.219
40.73000 13.085
40.74000 13.277
40.75000 26.198
40.76000 15.110
40.77000 20.336
40.78000 13.199
40.79000 13.222
40.80000 13.127
40.81000 20.382
40.82000 12.420
40.83000 20.433
40.84000 20.331
40.85000 14.277
40.86000 14.332
40.87000 13.133
40.88000 16.201
40.89000 18.268
40.90000 16.129
40.91000 16.329
40.92000 12.090
40.93000 19.211
40.94000 16.229
40.95000 17.231
40.96000 15.117
40.97000 21.094
40.98000 14.155
40.99000 19.230
41.00000 19.259
41.01000 16.103
41.02000 24.303
41.03000 19.184
41.04000 20.055
41.05000 11.075
41.06000 18.091
41.07000 22.233
41.08000 16.391
41.09000 19.215
41.10000 12.412
41.11000 14.161
41.12000 27.372
41.13000 14.135
41.14000 17.259
41.15000 29.416
41.16000 16.108
41.17000 20.117
41.18000 28.384
41.19000 19.404
41.20000 26.322
41.21000 13.266
41.22000 29.333
41.23000 15.219
41.24000 16.030
41.25000 15.990
41.26000 17.459
41.27000 14.353
41.28000 14.214
41.29000 17.147
41.30000 11.143
41.31000 13.262
41.32000 13.058
41.33000 14.190
41.34000 14.030
41.35000 12.133
41.36000 15.107
41.37000 17.972
41.38000 23.414
41.39000 12.269
41.40000 28.418
41.41000 14.289
41.42000 19.325
41.43000 21.250
41.44000 18.282
41.45000 13.106
41.46000 10.079
41.47000 20.232
41.48000 9.196
41.49000 16.146
41.50000 11.162
41.51000 12.126
41.52000 19.189
41.53000 25.245
41.54000 16.284
41.55000 10.159
41.56000 16.314
41.57000 18.239
41.58000 15.268
41.59000 13.158
41.60000 25.595
41.61000 17.170
41.62000 19.484
41.63000 18.312
41.64000 19.330
41.65000 11.129
41.66000 17.076
41.67000 13.170
41.68000 14.106
41.69000 18.283
41.70000 11.045
41.71000 13.160
41.72000 13.288
41.73000 15.253
41.74000 12.208
41.75000 19.246
41.76000 19.263
41.77000 9.199
41.78000 20.136
41.79000 21.365
41.80000 15.293
41.81000 24.311
41.82000 18.202
41.83000 11.293
41.84000 24.229
41.85000 21.257
41.86000 13.145
41.87000 18.247
41.88000 15.089
41.89000 19.430
41.90000 11.175
41.91000 24.338
41.92000 16.267
41.93000 14.176
41.94000 14.251
41.95000 20.306
41.96000 15.102
41.97000 13.195
41.98000 15.171
41.99000 19.321
42.00000 9.027
42.01000 17.067
42.02000 14.140
42.03000 17.320
42.04000 14.344
42.05000 13.096
42.06000 9.023
42.07000 14.124
42.08000 15.135
42.09000 18.198
42.10000 15.159
42.11000 20.339
42.12000 25.289
42.13000 17.999
42.14000 19.252
42.15000 12.159
42.16000 25.613
42.17000 17.350
42.18000 14.278
42.19000 23.641
42.20000 19.224
42.21000 20.219
42.22000 21.275
42.23000 16.091
42.24000 17.169
42.25000 13.280
42.26000 26.287
42.27000 17.127
42.28000 19.285
42.29000 14.044
42.30000 11.194
42.31000 25.339
42.32000 22.162
42.33000 14.285
42.34000 17.260
42.35000 18.108
42.36000 15.117
42.37000 19.097
42.38000 17.183
42.39000 18.015
42.40000 11.078
42.41000 16.335
42.42000 15.143
42.43000 22.206
42.44000 14.216
42.45000 19.265
42.46000 20.196
42.47000 19.142
42.48000 14.369
42.49000 14.127
42.50000 11.119
42.51000 24.279
42.52000 23.313
42.53000 18.218
42.54000 9.113
42.55000 14.078
42.56000 14.104
42.57000 9.196
42.58000 15.980
42.59000 17.402
42.60000 14.337
42.61000 10.129
42.62000 18.266
42.63000 17.225
42.64000 9.141
42.65000 19.119
42.66000 13.177
42.67000 15.055
42.68000 18.233
42.69000 16.301
42.70000 12.164
42.71000 16.338
42.72000 15.249
42.73000 22.401
42.74000 17.152
42.75000 12.155
42.76000 18.352
42.77000 16.343
42.78000 15.354
42.79000 23.173
42.80000 17.342
42.81000 17.208
42.82000 14.138
42.83000 19.334
42.84000 18.008
42.85000 12.131
42.86000 28.025
42.87000 13.135
42.88000 19.295
42.89000 11.206
42.90000 22.292
42.91000 20.188
42.92000 13.046
42.93000 10.985
42.94000 21.112
42.95000 12.151
42.96000 17.215
42.97000 26.354
42.98000 12.023
42.99000 15.246
43.00000 16.011
43.01000 7.043
43.02000 17.114
43.03000 17.318
43.04000 19.127
43.05000 15.273
43.06000 6.052
43.07000 21.271
43.08000 13.256
43.09000 20.251
43.10000 17.304
43.11000 15.174
43.12000 16.361
43.13000 14.199
43.14000 21.220
43.15000 20.124
43.16000 21.214
43.17000 22.299
43.18000 20.317
43.19000 17.194
43.20000 11.254
43.21000 15.212
43.22000 17.205
43.23000 14.037
43.24000 18.213
43.25000 20.258
43.26000 8.132
43.27000 19.174
43.28000 16.367
43.29000 22.212
43.30000 17.100
43.31000 18.141
43.32000 20.233
43.33000 11.182
43.34000 17.322
43.35000 18.286
43.36000 21.172
43.37000 13.077
43.38000 27.485
43.39000 10.117
43.40000 20.157
43.41000 21.239
43.42000 18.189
43.43000 19.289
43.44000 16.209
43.45000 13.169
43.46000 10.091
43.47000 13.145
43.48000 13.154
43.49000 15.163
43.50000 20.197
43.51000 14.198
43.52000 16.081
43.53000 20.188
43.54000 20.253
43.55000 14.127
43.56000 15.104
43.57000 23.235
43.58000 19.253
43.59000 22.255
43.60000 9.064
43.61000 15.131
43.62000 16.201
43.63000 20.281
43.64000 21.279
43.65000 18.239
43.66000 14.165
43.67000 17.367
43.68000 11.175
43.69000 21.199
43.70000 18.157
43.71000 16.134
43.72000 16.141
43.73000 13.207
43.74000 18.160
43.75000 20.333
43.76000 18.278
43.77000 19.209
43.78000 19.139
43.79000 24.397
43.80000 11.077
43.81000 17.255
43.82000 17.230
43.83000 15.364
43.84000 16.336
43.85000 17.305
43.86000 19.181
43.87000 20.282
43.88000 11.095
43.89000 12.291
43.90000 17.047
43.91000 20.217
43.92000 15.149
43.93000 16.350
43.94000 21.236
43.95000 9.132
43.96000 14.176
43.97000 20.415
43.98000 17.233
43.99000 17.232
44.00000 13.343
44.01000 14.119
44.02000 20.240
44.03000 15.097
44.04000 17.262
44.05000 15.237
44.06000 16.271
44.07000 18.142
44.08000 7.130
44.09000 17.193
44.10000 18.246
44.11000 10.179
44.12000 14.083
44.13000 15.169
44.14000 21.287
44.15000 15.313
44.16000 19.242
44.17000 15.232
44.18000 18.334
44.19000 17.216
44.20000 15.122
44.21000 19.281
44.22000 19.295
44.23000 18.324
44.24000 26.380
44.25000 25.166
44.26000 13.261
44.27000 18.093
44.28000 19.080
44.29000 15.105
44.30000 13.180
44.31000 12.977
44.32000 13.259
44.33000 13.033
44.34000 17.042
44.35000 13.281
44.36000 14.159
44.37000 17.046
44.38000 13.274
44.39000 15.070
44.40000 17.340
44.41000 14.990
44.42000 16.066
44.43000 18.428
44.44000 21.144
44.45000 9.974
44.46000 17.048
44.47000 16.181
44.48000 20.291
44.49000 18.307
44.50000 22.241
44.51000 22.243
44.52000 12.153
44.53000 16.268
44.54000 14.248
44.55000 23.175
44.56000 15.256
44.57000 14.364
44.58000 25.265
44.59000 20.260
44.60000 15.142
44.61000 13.160
44.62000 20.996
44.63000 12.206
44.64000 11.232
44.65000 20.295
44.66000 12.249
44.67000 9.129
44.68000 16.249
44.69000 17.315
44.70000 15.135
44.71000 19.191
44.72000 12.229
44.73000 12.142
44.74000 15.070
44.75000 19.295
44.76000 18.277
44.77000 15.017
44.78000 16.272
44.79000 21.321
44.80000 16.261
44.81000 19.177
44.82000 15.095
44.83000 18.416
44.84000 15.437
44.85000 15.050
44.86000 13.186
44.87000 18.221
44.88000 12.148
44.89000 11.175
44.90000 17.366
44.91000 18.386
44.92000 13.155
44.93000 17.424
44.94000 16.212
44.95000 16.195
44.96000 14.123
44.97000 20.228
44.98000 25.318
44.99000 19.220
45.00000 17.264
45.01000 19.439
45.02000 16.308
45.03000 21.313
45.04000 16.344
45.05000 13.103
45.06000 14.285
45.07000 13.098
45.08000 22.109
45.09000 30.241
45.10000 16.204
45.11000 11.090
45.12000 15.089
45.13000 19.199
45.14000 20.107
45.15000 15.277
45.16000 14.272
45.17000 14.433
45.18000 13.181
45.19000 17.211
45.20000 16.118
45.21000 19.059
45.22000 14.238
45.23000 16.142
45.24000 17.262
45.25000 18.511
45.26000 19.232
45.27000 18.109
45.28000 10.039
45.29000 20.280
45.30000 21.365
45.31000 21.359
45.32000 18.268
45.33000 26.381
45.34000 11.133
45.35000 15.251
45.36000 19.155
45.37000 19.208
45.38000 24.259
45.39000 16.338
45.40000 20.145
45.41000 20.551
45.42000 9.063
45.43000 23.482
45.44000 24.178
45.45000 13.134
45.46000 17.245
45.47000 13.225
45.48000 11.151
45.49000 12.259
45.50000 14.239
45.51000 20.046
45.52000 17.276
45.53000 21.423
45.54000 13.104
45.55000 19.462
45.56000 14.155
45.57000 13.222
45.58000 9.156
45.59000 15.244
45.60000 11.152
45.61000 11.182
45.62000 19.016
45.63000 17.103
45.64000 19.388
45.65000 12.087
45.66000 26.404
45.67000 16.231
45.68000 11.998
45.69000 12.203
45.70000 6.083
45.71000 15.117
45.72000 6.215
45.73000 18.074
45.74000 11.235
45.75000 17.302
45.76000 17.187
45.77000 13.163
45.78000 14.162
45.79000 12.155
45.80000 12.280
45.81000 28.470
45.82000 9.188
45.83000 19.025
45.84000 17.338
45.85000 22.345
45.86000 18.374
45.87000 13.176
45.88000 16.098
45.89000 16.147
45.90000 14.083
45.91000 15.060
45.92000 11.141
45.93000 11.949
45.94000 18.291
45.95000 20.356
45.96000 14.128
45.97000 13.205
45.98000 11.176
45.99000 23.463
46.00000 20.218
46.01000 16.165
46.02000 19.213
46.03000 15.092
46.04000 12.121
46.05000 18.282
46.06000 11.226
46.07000 16.180
46.08000 17.260
46.09000 17.357
46.10000 23.215
46.11000 25.334
46.12000 16.152
46.13000 18.230
46.14000 16.345
46.15000 15.085
46.16000 16.150
46.17000 14.127
46.18000 19.330
46.19000 13.026
46.20000 20.266
46.21000 13.174
46.22000 12.051
46.23000 15.249
46.24000 18.284
46.25000 11.098
46.26000 17.131
46.27000 16.069
46.28000 14.287
46.29000 17.282
46.30000 24.305
46.31000 14.275
46.32000 21.408
46.33000 13.283
46.34000 26.284
46.35000 16.233
46.36000 10.093
46.37000 13.054
46.38000 16.073
46.39000 14.200
46.40000 25.418
46.41000 23.364
46.42000 15.347
46.43000 19.207
46.44000 21.348
46.45000 14.179
46.46000 13.385
46.47000 13.138
46.48000 17.129
46.49000 20.327
46.50000 13.120
46.51000 19.064
46.52000 13.094
46.53000 17.195
46.54000 23.497
46.55000 18.299
46.56000 15.234
46.57000 17.115
46.58000 19.245
46.59000 19.257
46.60000 22.486
46.61000 19.186
46.62000 23.638
46.63000 21.335
46.64000 14.275
46.65000 21.288
46.66000 17.284
46.67000 18.117
46.68000 23.556
46.69000 12.300
46.70000 15.381
46.71000 16.021
46.72000 17.181
46.73000 16.989
46.74000 22.274
46.75000 11.244
46.76000 15.281
46.77000 11.080
46.78000 23.519
46.79000 23.480
46.80000 13.208
46.81000 21.481
46.82000 20.076
46.83000 15.351
46.84000 11.212
46.85000 19.300
46.86000 16.176
46.87000 16.421
46.88000 16.162
46.89000 12.185
46.90000 20.418
46.91000 14.205
46.92000 21.310
46.93000 16.271
46.94000 22.197
46.95000 30.609
46.96000 20.455
46.97000 14.159
46.98000 17.236
46.99000 18.339
47.00000 14.243
47.01000 21.124
47.02000 15.155
47.03000 15.135
47.04000 13.179
47.05000 35.330
47.06000 16.220
47.07000 14.345
47.08000 15.075
47.09000 25.325
47.10000 16.206
47.11000 18.390
47.12000 17.297
47.13000 16.116
47.14000 11.069
47.15000 19.191
47.16000 14.039
47.17000 13.194
47.18000 23.358
47.19000 16.185
47.20000 15.262
47.21000 17.221
47.22000 19.223
47.23000 16.287
47.24000 20.311
47.25000 12.237
47.26000 19.130
47.27000 14.154
47.28000 19.330
47.29000 13.227
47.30000 15.377
47.31000 14.203
47.32000 7.064
47.33000 6.037
47.34000 13.100
47.35000 10.325
47.36000 14.260
47.37000 16.367
47.38000 15.137
47.39000 16.096
47.40000 18.317
47.41000 16.261
47.42000 9.061
47.43000 18.171
47.44000 12.179
47.45000 20.283
47.46000 14.236
47.47000 22.011
47.48000 25.277
47.49000 15.162
47.50000 12.105
47.51000 14.194
47.52000 13.394
47.53000 10.148
47.54000 16.354
47.55000 13.276
47.56000 14.046
47.57000 14.022
47.58000 19.193
47.59000 8.075
47.60000 20.166
47.61000 17.129
47.62000 8.078
47.63000 13.137
47.64000 18.240
47.65000 15.049
47.66000 19.088
47.67000 13.158
47.68000 19.278
47.69000 14.175
47.70000 15.155
47.71000 17.195
47.72000 20.200
47.73000 20.318
47.74000 14.128
47.75000 13.178
47.76000 17.041
47.77000 7.068
47.78000 13.195
47.79000 11.187
47.80000 28.535
47.81000 14.160
47.82000 22.195
47.83000 8.137
47.84000 15.132
47.85000 19.438
47.86000 19.188
47.87000 12.136
47.88000 12.069
47.89000 11.159
47.90000 18.451
47.91000 12.017
47.92000 11.285
47.93000 8.083
47.94000 11.099
47.95000 21.264
47.96000 15.017
47.97000 10.120
47.98000 14.277
47.99000 13.155
48.00000 13.467
48.01000 11.089
48.02000 15.222
48.03000 16.149
48.04000 18.179
48.05000 13.141
48.06000 15.067
48.07000 13.069
48.08000 16.251
48.09000 18.408
48.10000 12.107
48.11000 9.086
48.12000 21.031
48.13000 16.316
48.14000 17.228
48.15000 14.239
48.16000 15.123
48.17000 10.184
48.18000 20.269
48.19000 18.276
48.20000 18.228
48.21000 17.190
48.22000 19.100
48.23000 11.234
48.24000 18.207
48.25000 10.102
48.26000 19.298
48.27000 18.074
48.28000 16.258
48.29000 16.233
48.30000 10.065
48.31000 10.951
48.32000 12.146
48.33000 24.391
48.34000 10.069
48.35000 15.340
48.36000 24.404
48.37000 23.260
48.38000 18.169
48.39000 20.131
48.40000 19.211
48.41000 18.315
48.42000 17.291
48.43000 10.190
48.44000 17.167
48.45000 17.294
48.46000 17.137
48.47000 20.293
48.48000 16.176
48.49000 11.143
48.50000 12.128
48.51000 12.026
48.52000 14.033
48.53000 8.200
48.54000 17.182
48.55000 14.079
48.56000 15.357
48.57000 11.101
48.58000 21.213
48.59000 13.032
48.60000 13.144
48.61000 14.172
48.62000 18.113
48.63000 15.266
48.64000 17.181
48.65000 13.237
48.66000 23.263
48.67000 13.289
48.68000 19.235
48.69000 11.029
48.70000 18.145
48.71000 14.186
48.72000 13.113
48.73000 19.349
48.74000 19.310
48.75000 13.113
48.76000 14.444
48.77000 14.109
48.78000 19.186
48.79000 11.115
48.80000 20.142
48.81000 18.235
48.82000 13.051
48.83000 7.139
48.84000 17.275
48.85000 18.317
48.86000 24.308
48.87000 8.190
48.88000 15.177
48.89000 17.118
48.90000 19.084
48.91000 12.151
48.92000 15.152
48.93000 14.233
48.94000 15.365
48.95000 20.202
48.96000 16.346
48.97000 16.276
48.98000 21.243
48.99000 16.156
49.00000 17.214
49.01000 14.116
49.02000 17.299
49.03000 15.176
49.04000 11.065
49.05000 16.011
49.06000 18.327
49.07000 14.124
49.08000 15.201
49.09000 13.018
49.10000 14.399
49.11000 11.063
49.12000 13.010
49.13000 13.229
49.14000 20.180
49.15000 16.269
49.16000 17.165
49.17000 16.240
49.18000 15.178
49.19000 17.248
49.20000 12.189
49.21000 13.155
49.22000 17.311
49.23000 12.134
49.24000 15.142
49.25000 13.335
49.26000 11.111
49.27000 12.251
49.28000 22.276
49.29000 14.363
49.30000 21.179
49.31000 22.412
49.32000 10.095
49.33000 24.343
49.34000 13.066
49.35000 13.131
49.36000 14.112
49.37000 10.043
49.38000 11.051
49.39000 16.118
49.40000 18.105
49.41000 13.079
49.42000 14.169
49.43000 11.181
49.44000 12.291
49.45000 10.045
49.46000 11.104
49.47000 14.076
49.48000 18.134
49.49000 17.296
49.50000 25.201
49.51000 13.373
49.52000 22.311
49.53000 18.189
49.54000 16.225
49.55000 25.335
49.56000 17.185
49.57000 10.135
49.58000 16.255
49.59000 15.170
49.60000 15.257
49.61000 16.282
49.62000 12.259
49.63000 8.990
49.64000 11.170
49.65000 16.224
49.66000 12.106
49.67000 17.185
49.68000 19.132
49.69000 21.417
49.70000 17.320
49.71000 16.287
49.72000 17.377
49.73000 16.382
49.74000 22.202
49.75000 13.221
49.76000 14.115
49.77000 21.144
49.78000 11.151
49.79000 19.160
49.80000 11.104
49.81000 19.326
49.82000 22.328
49.83000 10.051
49.84000 15.129
49.85000 13.110
49.86000 10.168
49.87000 10.104
49.88000 13.220
49.89000 22.272
49.90000 8.147
49.91000 24.425
49.92000 16.324
49.93000 8.056
49.94000 18.068
49.95000 14.185
49.96000 13.184
49.97000 25.152
49.98000 13.084
49.99000 16.134
50.00000 16.285
50.01000 11.158
50.02000 13.124
50.03000 13.256
50.04000 15.206
50.05000 19.251
50.06000 16.247
50.07000 22.250
50.08000 19.260
50.09000 15.119
50.10000 11.147
50.11000 10.186
50.12000 16.132
50.13000 11.097
50.14000 19.267
50.15000 13.214
50.16000 19.283
50.17000 16.280
50.18000 16.309
50.19000 17.187
50.20000 15.145
50.21000 10.999
50.22000 21.161
50.23000 16.252
50.24000 17.223
50.25000 11.248
50.26000 11.065
50.27000 16.244
50.28000 10.135
50.29000 13.146
50.30000 10.136
50.31000 14.129
50.32000 15.152
50.33000 11.126
50.34000 14.268
50.35000 17.113
50.36000 18.436
50.37000 18.109
50.38000 13.934
50.39000 15.019
50.40000 16.266
50.41000 16.137
50.42000 12.184
50.43000 11.170
50.44000 15.124
50.45000 11.984
50.46000 11.143
50.47000 10.004
50.48000 10.105
50.49000 17.084
50.50000 11.269
50.51000 13.151
50.52000 15.091
50.53000 14.104
50.54000 16.254
50.55000 16.022
50.56000 20.426
50.57000 14.163
50.58000 14.186
50.59000 12.244
50.60000 10.173
50.61000 13.152
50.62000 9.159
50.63000 19.179
50.64000 17.343
50.65000 16.057
50.66000 14.182
50.67000 15.247
50.68000 12.121
50.69000 16.303
50.70000 9.166
50.71000 21.307
50.72000 9.104
50.73000 10.135
50.74000 12.070
50.75000 13.349
50.76000 16.106
50.77000 12.251
50.78000 16.315
50.79000 12.117
50.80000 17.055
50.81000 15.164
50.82000 19.219
50.83000 20.158
50.84000 16.241
50.85000 15.182
50.86000 16.107
50.87000 18.328
50.88000 10.134
50.89000 13.179
50.90000 14.110
50.91000 8.106
50.92000 12.195
50.93000 21.197
50.94000 14.189
50.95000 12.167
50.96000 14.246
50.97000 13.118
50.98000 10.071
50.99000 11.147
51.00000 12.225
51.01000 16.231
51.02000 15.230
51.03000 11.118
51.04000 18.278
51.05000 14.283
51.06000 15.240
51.07000 13.203
51.08000 11.195
51.09000 17.247
51.10000 15.080
51.11000 18.385
51.12000 12.018
51.13000 11.062
51.14000 12.141
51.15000 12.172
51.16000 10.124
51.17000 19.345
51.18000 10.150
51.19000 17.233
51.20000 21.155
51.21000 18.319
51.22000 17.218
51.23000 13.196
51.24000 11.300
51.25000 17.457
51.26000 19.165
51.27000 15.278
51.28000 10.140
51.29000 12.066
51.30000 18.236
51.31000 18.386
51.32000 15.064
51.33000 11.210
51.34000 14.199
51.35000 11.083
51.36000 17.252
51.37000 12.154
51.38000 15.201
51.39000 14.307
51.40000 12.198
51.41000 17.293
51.42000 12.134
51.43000 17.257
51.44000 7.014
51.45000 13.185
51.46000 17.262
51.47000 7.216
51.48000 17.362
51.49000 14.071
51.50000 18.208
51.51000 13.220
51.52000 9.174
51.53000 16.234
51.54000 17.450
51.55000 17.237
51.56000 13.325
51.57000 13.073
51.58000 12.216
51.59000 16.287
51.60000 25.292
51.61000 15.159
51.62000 18.076
51.63000 12.137
51.64000 11.147
51.65000 13.152
51.66000 15.145
51.67000 20.282
51.68000 10.073
51.69000 20.317
51.70000 17.254
51.71000 14.205
51.72000 13.246
51.73000 12.314
51.74000 9.055
51.75000 20.222
51.76000 14.214
51.77000 12.113
51.78000 12.203
51.79000 19.383
51.80000 16.322
51.81000 18.595
51.82000 12.067
51.83000 23.493
51.84000 12.090
51.85000 20.279
51.86000 11.318
51.87000 16.194
51.88000 20.252
51.89000 15.345
51.90000 17.117
51.91000 7.061
51.92000 12.219
51.93000 15.157
51.94000 11.012
51.95000 13.164
51.96000 16.370
51.97000 11.165
51.98000 11.151
51.99000 14.218
52.00000 16.145
52.01000 10.114
52.02000 19.355
52.03000 13.220
52.04000 17.218
52.05000 16.107
52.06000 18.340
52.07000 12.231
52.08000 12.158
52.09000 15.053
52.10000 12.124
52.11000 15.267
52.12000 12.206
52.13000 10.116
52.14000 17.301
52.15000 14.196
52.16000 14.071
52.17000 18.222
52.18000 12.121
52.19000 12.352
52.20000 16.288
52.21000 14.130
52.22000 18.179
52.23000 17.175
52.24000 13.139
52.25000 20.160
52.26000 21.278
52.27000 11.127
52.28000 14.163
52.29000 9.087
52.30000 14.261
52.31000 11.114
52.32000 10.228
52.33000 14.999
52.34000 7.120
52.35000 12.329
52.36000 13.158
52.37000 19.187
52.38000 13.334
52.39000 15.311
52.40000 12.205
52.41000 7.195
52.42000 16.408
52.43000 17.229
52.44000 14.187
52.45000 7.081
52.46000 12.080
52.47000 14.236
52.48000 14.290
52.49000 18.194
52.50000 12.196
52.51000 9.058
52.52000 17.084
52.53000 10.141
52.54000 13.148
52.55000 16.218
52.56000 11.227
52.57000 6.028
52.58000 10.153
52.59000 9.134
52.60000 13.267
52.61000 21.250
52.62000 12.238
52.63000 14.999
52.64000 20.250
52.65000 9.108
52.66000 15.385
52.67000 12.217
52.68000 13.259
52.69000 19.326
52.70000 11.182
52.71000 15.367
52.72000 16.420
52.73000 21.398
52.74000 10.158
52.75000 21.290
52.76000 11.172
52.77000 11.086
52.78000 18.264
52.79000 17.204
52.80000 13.081
52.81000 12.226
52.82000 13.080
52.83000 11.100
52.84000 13.203
52.85000 10.181
52.86000 21.176
52.87000 12.255
52.88000 17.199
52.89000 13.255
52.90000 21.163
52.91000 13.062
52.92000 17.219
52.93000 10.204
52.94000 9.238
52.95000 17.179
52.96000 19.103
52.97000 18.203
52.98000 8.188
52.99000 21.118
53.00000 10.182
53.01000 17.321
53.02000 16.241
53.03000 12.300
53.04000 15.162
53.05000 11.223
53.06000 8.133
53.07000 15.224
53.08000 9.180
53.09000 15.170
53.10000 11.219
53.11000 10.186
53.12000 15.153
53.13000 11.164
53.14000 14.416
53.15000 12.159
53.16000 12.158
53.17000 10.044
53.18000 16.222
53.19000 19.261
53.20000 12.205
53.21000 13.122
53.22000 11.089
53.23000 12.262
53.24000 11.327
53.25000 8.131
53.26000 12.041
53.27000 17.227
53.28000 10.212
53.29000 13.036
53.30000 20.361
53.31000 14.139
53.32000 14.207
53.33000 16.196
53.34000 13.372
53.35000 14.250
53.36000 17.135
53.37000 16.237
53.38000 21.091
53.39000 17.205
53.40000 14.297
53.41000 14.075
53.42000 15.249
53.43000 10.040
53.44000 11.961
53.45000 12.354
53.46000 11.125
53.47000 13.274
53.48000 13.206
53.49000 16.291
53.50000 11.072
53.51000 12.141
53.52000 17.264
53.53000 11.127
53.54000 15.110
53.55000 18.294
53.56000 16.234
53.57000 19.205
53.58000 13.254
53.59000 17.326
53.60000 10.222
53.61000 8.128
53.62000 12.217
53.63000 14.151
53.64000 10.136
53.65000 15.326
53.66000 13.192
53.67000 13.020
53.68000 13.281
53.69000 13.256
53.70000 14.152
53.71000 19.401
53.72000 8.206
53.73000 20.311
53.74000 11.104
53.75000 15.079
53.76000 15.228
53.77000 9.950
53.78000 18.313
53.79000 11.130
53.80000 13.170
53.81000 13.169
53.82000 16.183
53.83000 9.081
53.84000 8.259
53.85000 13.108
53.86000 10.079
53.87000 14.209
53.88000 14.270
53.89000 15.299
53.90000 12.131
53.91000 21.292
53.92000 11.072
53.93000 9.968
53.94000 14.286
53.95000 16.231
53.96000 17.194
53.97000 11.137
53.98000 8.137
53.99000 15.158
54.00000 13.248
54.01000 10.228
54.02000 9.030
54.03000 16.271
54.04000 9.005
54.05000 11.162
54.06000 9.025
54.07000 14.193
54.08000 10.150
54.09000 7.169
54.10000 11.089
54.11000 8.199
54.12000 11.995
54.13000 14.136
54.14000 12.223
54.15000 10.068
54.16000 17.114
54.17000 17.073
54.18000 14.135
54.19000 11.155
54.20000 22.143
54.21000 6.097
54.22000 16.289
54.23000 4.977
54.24000 12.240
54.25000 13.244
54.26000 13.267
54.27000 17.268
54.28000 16.234
54.29000 14.193
54.30000 13.117
54.31000 10.167
54.32000 9.128
54.33000 10.203
54.34000 17.148
54.35000 20.211
54.36000 12.065
54.37000 10.200
54.38000 13.117
54.39000 13.172
54.40000 8.100
54.41000 17.295
54.42000 15.049
54.43000 15.290
54.44000 11.155
54.45000 17.434
54.46000 11.310
54.47000 14.209
54.48000 14.279
54.49000 15.174
54.50000 15.289
54.51000 15.180
54.52000 16.142
54.53000 15.286
54.54000 11.071
54.55000 18.401
54.56000 13.240
54.57000 14.053
54.58000 13.151
54.59000 9.230
54.60000 10.092
54.61000 16.195
54.62000 7.047
54.63000 18.266
54.64000 12.206
54.65000 9.115
54.66000 13.236
54.67000 11.116
54.68000 13.119
54.69000 8.104
54.70000 17.154
54.71000 12.049
54.72000 15.246
54.73000 11.243
54.74000 16.273
54.75000 17.303
54.76000 10.272
54.77000 9.979
54.78000 16.065
54.79000 9.094
54.80000 15.156
54.81000 19.286
54.82000 10.137
54.83000 12.090
54.84000 11.067
54.85000 5.999
54.86000 5.030
54.87000 14.321
54.88000 8.262
54.89000 13.178
54.90000 10.139
54.91000 13.214
54.92000 8.100
54.93000 12.111
54.94000 12.987
54.95000 7.077
54.96000 18.418
54.97000 12.106
54.98000 8.187
54.99000 15.008
55.00000 10.167
55.01000 8.111
55.02000 10.137
55.03000 14.188
55.04000 9.211
55.05000 7.070
55.06000 11.020
55.07000 13.188
55.08000 8.202
55.09000 8.010
55.10000 10.024
55.11000 5.160
55.12000 10.213
55.13000 15.070
55.14000 4.013
55.15000 14.252
55.16000 15.090
55.17000 19.157
55.18000 7.257
55.19000 16.310
55.20000 9.000
55.21000 9.217
55.22000 14.084
55.23000 8.003
55.24000 14.160
55.25000 16.289
55.26000 11.219
55.27000 11.141
55.28000 15.200
55.29000 7.033
55.30000 14.126
55.31000 13.136
55.32000 9.069
55.33000 11.039
55.34000 14.252
55.35000 11.027
55.36000 9.025
55.37000 11.086
55.38000 12.059
55.39000 13.144
55.40000 12.208
55.41000 11.063
55.42000 10.079
55.43000 12.109
55.44000 13.142
55.45000 14.226
55.46000 10.092
55.47000 6.121
55.48000 14.096
55.49000 10.157
55.50000 11.304
55.51000 26.150
55.52000 12.016
55.53000 4.988
55.54000 13.330
55.55000 17.250
55.56000 18.250
55.57000 13.047
55.58000 13.119
55.59000 5.055
55.60000 8.198
55.61000 16.245
55.62000 9.021
55.63000 11.179
55.64000 10.062
55.65000 15.227
55.66000 15.170
55.67000 15.298
55.68000 11.168
55.69000 15.211
55.70000 19.387
55.71000 14.240
55.72000 7.108
55.73000 14.156
55.74000 10.080
55.75000 16.264
55.76000 12.239
55.77000 13.063
55.78000 12.161
55.79000 8.094
55.80000 12.171
55.81000 10.980
55.82000 9.087
55.83000 14.138
55.84000 10.181
55.85000 15.225
55.86000 11.198
55.87000 15.183
55.88000 14.226
55.89000 15.177
55.90000 10.297
55.91000 19.139
55.92000 14.065
55.93000 8.088
55.94000 10.149
55.95000 11.254
55.96000 16.119
55.97000 12.136
55.98000 7.118
55.99000 11.177
56.00000 19.079
56.01000 10.345
56.02000 7.093
56.03000 12.183
56.04000 15.202
56.05000 10.062
56.06000 14.955
56.07000 9.192
56.08000 13.158
56.09000 11.060
56.10000 13.025
56.11000 10.092
56.12000 11.038
56.13000 14.299
56.14000 13.101
56.15000 16.348
56.16000 10.052
56.17000 11.076
56.18000 9.159
56.19000 14.132
56.20000 11.177
56.21000 10.985
56.22000 19.323
56.23000 14.305
56.24000 9.151
56.25000 7.038
56.26000 10.150
56.27000 12.149
56.28000 10.126
56.29000 12.185
56.30000 11.179
56.31000 10.104
56.32000 14.136
56.33000 8.140
56.34000 9.224
56.35000 10.062
56.36000 13.083
56.37000 9.139
56.38000 11.109
56.39000 11.277
56.40000 10.214
56.41000 10.201
56.42000 21.203
56.43000 14.288
56.44000 6.073
56.45000 7.173
56.46000 11.168
56.47000 16.247
56.48000 9.204
56.49000 6.064
56.50000 9.111
56.51000 8.196
56.52000 15.104
56.53000 12.146
56.54000 10.116
56.55000 8.124
56.56000 11.223
56.57000 15.389
56.58000 13.193
56.59000 10.238
56.60000 13.091
56.61000 17.131
56.62000 8.030
56.63000 14.198
56.64000 10.106
56.65000 14.210
56.66000 12.260
56.67000 18.313
56.68000 13.293
56.69000 10.050
56.70000 17.255
56.71000 14.250
56.72000 6.060
56.73000 12.263
56.74000 15.237
56.75000 21.255
56.76000 11.227
56.77000 9.148
56.78000 17.199
56.79000 9.271
56.80000 17.105
56.81000 11.090
56.82000 18.247
56.83000 10.069
56.84000 14.388
56.85000 12.029
56.86000 8.050
56.87000 10.069
56.88000 4.033
56.89000 7.222
56.90000 7.099
56.91000 6.195
56.92000 11.084
56.93000 11.096
56.94000 11.289
56.95000 12.192
56.96000 13.297
56.97000 13.244
56.98000 11.089
56.99000 9.967
57.00000 18.208
57.01000 15.118
57.02000 11.249
57.03000 13.331
57.04000 8.164
57.05000 10.083
57.06000 18.124
57.07000 7.037
57.08000 9.079
57.09000 11.156
57.10000 10.153
57.11000 14.265
57.12000 11.209
57.13000 14.160
57.14000 10.149
57.15000 16.142
57.16000 16.192
57.17000 9.113
57.18000 12.214
57.19000 12.153
57.20000 13.240
57.21000 10.109
57.22000 14.028
57.23000 12.267
57.24000 16.082
57.25000 15.178
57.26000 20.306
57.27000 14.100
57.28000 12.159
57.29000 2.977
57.30000 14.066
57.31000 13.161
57.32000 7.082
57.33000 13.170
57.34000 10.043
57.35000 7.044
57.36000 18.256
57.37000 15.182
57.38000 17.200
57.39000 11.095
57.40000 17.423
57.41000 14.413
57.42000 8.140
57.43000 11.196
57.44000 13.066
57.45000 11.104
57.46000 13.130
57.47000 17.413
57.48000 10.022
57.49000 12.129
57.50000 13.051
57.51000 12.220
57.52000 9.192
57.53000 13.112
57.54000 8.067
57.55000 14.358
57.56000 18.208
57.57000 13.207
57.58000 18.430
57.59000 13.326
57.60000 11.129
57.61000 14.251
57.62000 12.218
57.63000 13.092
57.64000 12.048
57.65000 16.216
57.66000 18.292
57.67000 16.179
57.68000 15.303
57.69000 16.230
57.70000 11.047
57.71000 18.210
57.72000 14.039
57.73000 13.200
57.74000 23.289
57.75000 2.988
57.76000 15.050
57.77000 16.244
57.78000 9.249
57.79000 19.431
57.80000 12.046
57.81000 9.118
57.82000 9.130
57.83000 14.191
57.84000 13.208
57.85000 11.212
57.86000 15.081
57.87000 14.279
57.88000 12.121
57.89000 13.105
57.90000 17.050
57.91000 12.096
57.92000 10.135
57.93000 11.041
57.94000 8.112
57.95000 14.068
57.96000 12.230
57.97000 23.231
57.98000 13.208
57.99000 11.177
58.00000 8.072
58.01000 12.271
58.02000 16.125
58.03000 19.414
58.04000 12.070
58.05000 8.077
58.06000 11.247
58.07000 13.260
58.08000 12.149
58.09000 6.119
58.10000 9.055
58.11000 10.149
58.12000 15.185
58.13000 9.120
58.14000 12.272
58.15000 7.025
58.16000 13.339
58.17000 10.066
58.18000 10.164
58.19000 17.164
58.20000 20.475
58.21000 14.127
58.22000 6.017
58.23000 14.219
58.24000 14.273
58.25000 17.183
58.26000 7.059
58.27000 12.105
58.28000 8.051
58.29000 18.360
58.30000 9.100
58.31000 14.269
58.32000 10.071
58.33000 15.064
58.34000 13.212
58.35000 11.206
58.36000 10.201
58.37000 12.158
58.38000 15.135
58.39000 15.077
58.40000 8.094
58.41000 10.282
58.42000 10.134
58.43000 11.168
58.44000 11.094
58.45000 12.150
58.46000 7.972
58.47000 8.974
58.48000 11.152
58.49000 10.273
58.50000 3.990
58.51000 10.120
58.52000 11.968
58.53000 12.115
58.54000 6.141
58.55000 12.123
58.56000 8.090
58.57000 16.115
58.58000 14.244
58.59000 5.026
58.60000 9.226
58.61000 12.089
58.62000 10.177
58.63000 11.111
58.64000 12.189
58.65000 12.191
58.66000 6.037
58.67000 12.173
58.68000 6.091
58.69000 8.168
58.70000 5.066
58.71000 12.079
58.72000 7.063
58.73000 8.134
58.74000 5.070
58.75000 10.051
58.76000 8.144
58.77000 12.139
58.78000 9.055
58.79000 9.088
58.80000 13.143
58.81000 8.028
58.82000 9.040
58.83000 4.971
58.84000 8.109
58.85000 12.139
58.86000 10.049
58.87000 8.003
58.88000 13.204
58.89000 9.069
58.90000 11.165
58.91000 11.115
58.92000 8.312
58.93000 10.128
58.94000 2.037
58.95000 11.106
58.96000 16.199
58.97000 18.206
58.98000 15.217
58.99000 12.140
59.00000 6.039
59.01000 6.084
59.02000 16.302
59.03000 7.137
59.04000 15.133
59.05000 9.023
59.06000 8.064
59.07000 11.036
59.08000 12.087
59.09000 9.038
59.10000 9.210
59.11000 9.141
59.12000 5.075
59.13000 10.120
59.14000 10.140
59.15000 14.125
59.16000 13.070
59.17000 8.129
59.18000 10.184
59.19000 14.369
59.20000 12.148
59.21000 14.222
59.22000 13.082
59.23000 14.187
59.24000 8.109
59.25000 10.027
59.26000 12.965
59.27000 10.226
59.28000 11.094
59.29000 12.096
59.30000 6.091
59.31000 13.056
59.32000 11.190
59.33000 8.096
59.34000 9.034
59.35000 9.103
59.36000 13.179
59.37000 9.084
59.38000 12.180
59.39000 8.119
59.40000 9.100
59.41000 11.168
59.42000 8.082
59.43000 7.128
59.44000 8.051
59.45000 6.005
59.46000 8.093
59.47000 8.026
59.48000 14.102
59.49000 12.244
59.50000 6.024
59.51000 4.026
59.52000 14.196
59.53000 7.932
59.54000 8.000
59.55000 9.203
59.56000 9.147
59.57000 8.049
59.58000 11.323
59.59000 12.049
59.60000 12.065
59.61000 6.030
59.62000 8.037
59.63000 7.074
59.64000 11.094
59.65000 21.231
59.66000 8.141
59.67000 12.278
59.68000 6.114
59.69000 7.119
59.70000 12.153
59.71000 11.100
59.72000 21.499
59.73000 10.025
59.74000 7.052
59.75000 13.230
59.76000 8.138
59.77000 4.044
59.78000 16.260
59.79000 6.050
59.80000 13.163
59.81000 10.045
59.82000 8.096
59.83000 13.249
59.84000 11.113
59.85000 9.106
59.86000 8.098
59.87000 5.091
59.88000 10.027
59.89000 8.163
59.90000 5.993
59.91000 10.097
59.92000 14.993
59.93000 15.466
59.94000 12.230
59.95000 6.041
59.96000 8.132
59.97000 8.064
59.98000 10.126
59.99000 7.067
60.00000 11.085
60.01000 10.244
60.02000 15.406
60.03000 4.047
60.04000 5.039
60.05000 13.043
60.06000 5.091
60.07000 8.092
60.08000 14.190
60.09000 12.167
60.10000 5.951
60.11000 8.067
60.12000 10.121
60.13000 12.114
60.14000 11.162
60.15000 10.125
60.16000 10.121
60.17000 12.154
60.18000 5.018
60.19000 11.091
60.20000 18.143
60.21000 6.997
60.22000 3.982
60.23000 8.131
60.24000 7.030
60.25000 10.112
60.26000 11.376
60.27000 6.045
60.28000 14.237
60.29000 10.202
60.30000 8.043
60.31000 10.205
60.32000 6.037
60.33000 8.220
60.34000 13.959
60.35000 11.128
60.36000 13.153
60.37000 7.173
60.38000 12.186
60.39000 9.215
60.40000 10.065
60.41000 12.170
60.42000 8.238
60.43000 9.297
60.44000 5.047
60.45000 7.015
60.46000 11.089
60.47000 10.099
60.48000 10.073
60.49000 5.120
60.50000 9.125
60.51000 11.132
60.52000 12.165
60.53000 10.015
60.54000 7.189
60.55000 15.152
60.56000 12.378
60.57000 8.107
60.58000 7.091
60.59000 12.103
60.60000 6.144
60.61000 9.141
60.62000 8.035
60.63000 11.069
60.64000 9.053
60.65000 10.092
60.66000 7.012
60.67000 7.090
60.68000 13.127
60.69000 7.125
60.70000 9.182
60.71000 11.058
60.72000 6.115
60.73000 6.013
60.74000 11.158
60.75000 7.038
60.76000 7.032
60.77000 16.177
60.78000 6.096
60.79000 10.131
60.80000 5.993
60.81000 9.274
60.82000 7.098
60.83000 7.128
60.84000 14.048
60.85000 18.246
60.86000 13.073
60.87000 9.056
60.88000 7.010
60.89000 9.102
60.90000 13.082
60.91000 14.092
60.92000 15.072
60.93000 13.110
60.94000 12.161
60.95000 6.074
60.96000 10.989
60.97000 11.085
60.98000 14.122
60.99000 11.988
61.00000 9.062
61.01000 9.034
61.02000 6.063
61.03000 16.272
61.04000 3.079
61.05000 8.066
61.06000 6.111
61.07000 12.226
61.08000 10.243
61.09000 10.156
61.10000 12.155
61.11000 6.005
61.12000 10.126
61.13000 11.064
61.14000 9.215
61.15000 18.260
61.16000 9.198
61.17000 15.400
61.18000 9.126
61.19000 9.085
61.20000 13.119
61.21000 6.006
61.22000 7.038
61.23000 10.148
61.24000 8.137
61.25000 12.096
61.26000 13.172
61.27000 17.178
61.28000 9.173
61.29000 9.246
61.30000 9.068
61.31000 4.030
61.32000 10.132
61.33000 13.127
61.34000 8.045
61.35000 7.181
61.36000 8.974
61.37000 8.012
61.38000 21.276
61.39000 10.086
61.40000 10.229
61.41000 5.973
61.42000 14.256
61.43000 13.308
61.44000 12.196
61.45000 8.180
61.46000 9.092
61.47000 10.160
61.48000 11.023
61.49000 10.163
61.50000 12.115
61.51000 6.071
61.52000 8.088
61.53000 6.081
61.54000 13.131
61.55000 11.114
61.56000 10.127
61.57000 11.095
61.58000 7.142
61.59000 4.993
61.60000 14.095
61.61000 9.152
61.62000 13.172
61.63000 9.148
61.64000 8.045
61.65000 10.110
61.66000 8.187
61.67000 13.207
61.68000 6.075
61.69000 14.239
61.70000 8.130
61.71000 5.051
61.72000 13.114
61.73000 7.157
61.74000 12.342
61.75000 8.226
61.76000 7.071
61.77000 12.237
61.78000 7.001
61.79000 13.156
61.80000 9.136
61.81000 16.389
61.82000 5.052
61.83000 12.318
61.84000 12.231
61.85000 5.994
61.86000 12.217
61.87000 6.013
61.88000 8.071
61.89000 10.242
61.90000 10.124
61.91000 12.122
61.92000 5.997
61.93000 15.157
61.94000 7.208
61.95000 10.089
61.96000 3.011
61.97000 7.049
61.98000 17.319
61.99000 16.168
62.00000 11.007
62.01000 4.095
62.02000 11.250
62.03000 7.198
62.04000 9.157
62.05000 11.332
62.06000 6.059
62.07000 9.131
62.08000 11.186
62.09000 10.085
62.10000 10.074
62.11000 5.066
62.12000 6.066
62.13000 12.349
62.14000 8.111
62.15000 9.015
62.16000 4.016
62.17000 7.197
62.18000 8.189
62.19000 4.996
62.20000 6.976
62.21000 5.098
62.22000 13.200
62.23000 8.029
62.24000 7.090
62.25000 6.047
62.26000 10.136
62.27000 5.032
62.28000 5.107
62.29000 7.996
62.30000 7.119
62.31000 11.176
62.32000 7.010
62.33000 8.075
62.34000 7.149
62.35000 4.107
62.36000 18.215
62.37000 6.051
62.38000 13.271
62.39000 5.152
62.40000 16.253
62.41000 4.040
62.42000 10.198
62.43000 10.079
62.44000 8.136
62.45000 6.059
62.46000 11.143
62.47000 8.068
62.48000 12.195
62.49000 12.062
62.50000 7.124
62.51000 8.085
62.52000 21.188
62.53000 7.076
62.54000 13.390
62.55000 12.169
62.56000 11.201
62.57000 12.161
62.58000 6.064
62.59000 1.982
62.60000 6.021
62.61000 9.065
62.62000 14.325
62.63000 4.007
62.64000 9.174
62.65000 9.095
62.66000 14.125
62.67000 6.080
62.68000 14.310
62.69000 9.030
62.70000 12.112
62.71000 9.168
62.72000 8.140
62.73000 8.015
62.74000 15.231
62.75000 7.088
62.76000 3.079
62.77000 5.097
62.78000 14.312
62.79000 11.071
62.80000 10.286
62.81000 7.141
62.82000 8.031
62.83000 10.268
62.84000 12.925
62.85000 6.056
62.86000 14.247
62.87000 7.979
62.88000 7.001
62.89000 8.043
62.90000 8.147
62.91000 12.184
62.92000 9.135
62.93000 5.984
62.94000 11.079
62.95000 13.024
62.96000 9.192
62.97000 8.136
62.98000 11.075
62.99000 13.146
63.00000 13.199
63.01000 13.102
63.02000 9.174
63.03000 10.125
63.04000 7.146
63.05000 6.066
63.06000 12.206
63.07000 8.060
63.08000 5.995
63.09000 8.066
63.10000 10.150
63.11000 9.008
63.12000 9.104
63.13000 4.983
63.14000 11.163
63.15000 7.116
63.16000 10.107
63.17000 4.056
63.18000 10.152
63.19000 8.272
63.20000 10.130
63.21000 5.095
63.22000 11.006
63.23000 7.079
63.24000 6.072
63.25000 6.084
63.26000 10.089
63.27000 9.159
63.28000 8.009
63.29000 8.048
63.30000 7.996
63.31000 9.148
63.32000 6.164
63.33000 9.071
63.34000 11.103
63.35000 14.102
63.36000 6.032
63.37000 10.028
63.38000 9.279
63.39000 10.177
63.40000 10.172
63.41000 8.077
63.42000 13.100
63.43000 11.115
63.44000 9.129
63.45000 7.125
63.46000 9.118
63.47000 9.149
63.48000 10.075
63.49000 8.089
63.50000 6.078
63.51000 13.256
63.52000 7.157
63.53000 7.067
63.54000 7.130
63.55000 8.121
63.56000 8.138
63.57000 7.068
63.58000 10.153
63.59000 10.059
63.60000 13.127
63.61000 10.086
63.62000 5.022
63.63000 4.031
63.64000 7.035
63.65000 15.332
63.66000 8.267
63.67000 13.072
63.68000 8.267
63.69000 4.004
63.70000 10.049
63.71000 11.074
63.72000 7.143
63.73000 8.122
63.74000 10.183
63.75000 6.031
63.76000 6.164
63.77000 8.105
63.78000 8.022
63.79000 11.093
63.80000 10.136
63.81000 4.028
63.82000 8.032
63.83000 4.097
63.84000 2.013
63.85000 13.058
63.86000 7.155
63.87000 11.134
63.88000 8.193
63.89000 4.034
63.90000 12.162
63.91000 13.279
63.92000 10.183
63.93000 7.149
63.94000 9.092
63.95000 11.154
63.96000 8.000
63.97000 16.180
63.98000 9.103
63.99000 7.189
64.00000 13.106
64.01000 11.067
64.02000 5.052
64.03000 8.058
64.04000 5.104
64.05000 10.131
64.06000 11.106
64.07000 5.007
64.08000 9.076
64.09000 13.129
64.10000 6.100
64.11000 10.042
64.12000 9.076
64.13000 15.142
64.14000 12.097
64.15000 9.270
64.16000 8.079
64.17000 11.879
64.18000 6.113
64.19000 7.987
64.20000 9.171
64.21000 9.124
64.22000 10.137
64.23000 9.134
64.24000 6.100
64.25000 9.046
64.26000 6.077
64.27000 12.190
64.28000 12.262
64.29000 4.061
64.30000 9.142
64.31000 5.068
64.32000 10.101
64.33000 6.149
64.34000 3.066
64.35000 5.036
64.36000 13.206
64.37000 14.057
64.38000 8.077
64.39000 9.202
64.40000 12.252
64.41000 5.055
64.42000 11.204
64.43000 13.047
64.44000 6.977
64.45000 9.201
64.46000 17.276
64.47000 7.080
64.48000 7.127
64.49000 7.033
64.50000 10.040
64.51000 11.141
64.52000 7.151
64.53000 12.261
64.54000 7.055
64.55000 9.025
64.56000 6.079
64.57000 7.063
64.58000 9.165
64.59000 8.134
64.60000 11.143
64.61000 10.128
64.62000 8.068
64.63000 6.091
64.64000 12.176
64.65000 7.009
64.66000 6.126
64.67000 12.175
64.68000 11.184
64.69000 12.152
64.70000 9.087
64.71000 11.147
64.72000 1.028
64.73000 7.073
64.74000 11.196
64.75000 6.162
64.76000 10.056
64.77000 10.140
64.78000 11.206
64.79000 15.204
64.80000 11.189
64.81000 10.125
64.82000 8.062
64.83000 7.161
64.84000 9.087
64.85000 13.225
64.86000 8.086
64.87000 9.150
64.88000 14.276
64.89000 5.076
64.90000 12.129
64.91000 2.034
64.92000 7.120
64.93000 6.086
64.94000 10.073
64.95000 6.006
64.96000 10.047
64.97000 5.127
64.98000 13.126
64.99000 11.102
65.00000 9.144
