20.00000 15.184
20.01000 12.221
20.02000 18.206
20.03000 15.460
20.04000 13.347
20.05000 12.391
20.06000 8.113
20.07000 16.166
20.08000 12.983
20.09000 16.198
20.10000 16.053
20.11000 20.197
20.12000 13.054
20.13000 11.236
20.14000 12.069
20.15000 15.197
20.16000 14.208
20.17000 16.286
20.18000 9.206
20.19000 23.155
20.20000 14.225
20.21000 17.305
20.22000 17.002
20.23000 14.154
20.24000 10.233
20.25000 18.398
20.26000 20.323
20.27000 19.238
20.28000 13.033
20.29000 10.185
20.30000 19.363
20.31000 24.509
20.32000 15.178
20.33000 23.279
20.34000 16.171
20.35000 23.593
20.36000 14.220
20.37000 14.191
20.38000 23.251
20.39000 15.175
20.40000 14.385
20.41000 23.358
20.42000 14.229
20.43000 15.178
20.44000 20.041
20.45000 11.108
20.46000 20.260
20.47000 24.209
20.48000 18.191
20.49000 18.343
20.50000 13.075
20.51000 17.294
20.52000 18.264
20.53000 16.229
20.54000 14.114
20.55000 15.290
20.56000 17.227
20.57000 7.140
20.58000 16.170
20.59000 12.207
20.60000 21.378
20.61000 13.160
20.62000 23.402
20.63000 19.195
20.64000 11.438
20.65000 18.136
20.66000 25.417
20.67000 12.205
20.68000 17.138
20.69000 19.248
20.70000 12.196
20.71000 18.244
20.72000 19.290
20.73000 14.144
20.74000 23.205
20.75000 6.074
20.76000 15.154
20.77000 13.345
20.78000 12.135
20.79000 23.414
20.80000 17.176
20.81000 22.267
20.82000 19.284
20.83000 18.217
20.84000 10.080
20.85000 15.177
20.86000 16.134
20.87000 13.300
20.88000 18.246
20.89000 12.357
20.90000 22.319
20.91000 13.175
20.92000 17.228
20.93000 17.314
20.94000 14.161
20.95000 16.353
20.96000 13.138
20.97000 12.174
20.98000 17.291
20.99000 12.131
21.00000 17.155
21.01000 7.079
21.02000 20.185
21.03000 20.245
21.04000 21.369
21.05000 19.315
21.06000 15.280
21.07000 21.301
21.08000 27.613
21.09000 10.086
21.10000 12.153
21.11000 23.232
21.12000 22.227
21.13000 15.044
21.14000 17.301
21.15000 19.978
21.16000 12.101
21.17000 19.133
21.18000 19.309
21.19000 24.299
21.20000 13.116
21.21000 13.167
21.22000 18.284
21.23000 21.184
21.24000 11.023
21.25000 27.388
21.26000 11.217
21.27000 27.301
21.28000 26.313
21.29000 24.550
21.30000 14.354
21.31000 24.328
21.32000 12.350
21.33000 20.308
21.34000 28.396
21.35000 17.321
21.36000 12.130
21.37000 16.108
21.38000 14.179
21.39000 20.184
21.40000 12.155
21.41000 15.306
21.42000 16.256
21.43000 16.051
21.44000 12.159
21.45000 11.171
21.46000 12.988
21.47000 15.142
21.48000 20.004
21.49000 23.157
21.50000 16.320
21.51000 12.180
21.52000 21.210
21.53000 16.317
21.54000 18.211
21.55000 16.505
21.56000 20.449
21.57000 15.269
21.58000 12.066
21.59000 15.218
21.60000 22.251
21.61000 19.239
21.62000 7.065
21.63000 14.124
21.64000 10.280
21.65000 21.324
21.66000 27.205
21.67000 24.344
21.68000 21.241
21.69000 15.255
21.70000 11.277
21.71000 19.289
21.72000 17.254
21.73000 17.257
21.74000 25.265
21.75000 12.072
21.76000 11.126
21.77000 16.367
21.78000 21.352
21.79000 19.208
21.80000 20.232
21.81000 17.365
21.82000 14.154
21.83000 21.366
21.84000 18.182
21.85000 22.205
21.86000 21.254
21.87000 19.401
21.88000 17.308
21.89000 13.052
21.90000 22.459
21.91000 22.308
21.92000 15.221
21.93000 19.387
21.94000 18.281
21.95000 19.120
21.96000 17.426
21.97000 20.286
21.98000 17.527
21.99000 19.138
22.00000 17.212
22.01000 14.098
22.02000 19.217
22.03000 14.238
22.04000 17.350
22.05000 14.174
22.06000 10.079
22.07000 18.426
22.08000 32.427
22.09000 12.138
22.10000 14.251
22.11000 20.202
22.12000 23.289
22.13000 17.116
22.14000 23.311
22.15000 15.186
22.16000 16.053
22.17000 17.022
22.18000 26.372
22.19000 23.229
22.20000 10.065
22.21000 20.250
22.22000 20.245
22.23000 16.231
22.24000 18.153
22.25000 17.310
22.26000 14.355
22.27000 22.451
22.28000 15.218
22.29000 16.114
22.30000 10.000
22.31000 16.153
22.32000 14.197
22.33000 15.091
22.34000 23.118
22.35000 24.439
22.36000 20.456
22.37000 16.264
22.38000 25.222
22.39000 27.395
22.40000 21.252
22.41000 21.234
22.42000 18.402
22.43000 23.417
22.44000 13.131
22.45000 19.292
22.46000 17.265
22.47000 17.148
22.48000 21.340
22.49000 21.251
22.50000 25.224
22.51000 22.224
22.52000 12.144
22.53000 28.672
22.54000 32.253
22.55000 18.338
22.56000 31.438
22.57000 24.525
22.58000 21.294
22.59000 20.258
22.60000 22.407
22.61000 24.344
22.62000 29.318
22.63000 20.294
22.64000 14.080
22.65000 17.234
22.66000 21.344
22.67000 21.344
22.68000 18.398
22.69000 30.258
22.70000 15.292
22.71000 21.461
22.72000 17.336
22.73000 23.203
22.74000 23.457
22.75000 24.308
22.76000 20.407
22.77000 20.242
22.78000 18.091
22.79000 17.229
22.80000 21.232
22.81000 25.309
22.82000 19.235
22.83000 19.131
22.84000 19.369
22.85000 23.282
22.86000 24.358
22.87000 19.231
22.88000 15.157
22.89000 20.394
22.90000 12.084
22.91000 24.482
22.92000 22.297
22.93000 19.426
22.94000 16.348
22.95000 25.382
22.96000 22.400
22.97000 18.255
22.98000 21.403
22.99000 28.450
23.00000 19.245
23.01000 19.128
23.02000 20.233
23.03000 24.453
23.04000 20.342
23.05000 21.113
23.06000 13.326
23.07000 18.409
23.08000 20.224
23.09000 24.448
23.10000 24.472
23.11000 18.044
23.12000 15.207
23.13000 16.254
23.14000 16.213
23.15000 25.364
23.16000 22.153
23.17000 23.311
23.18000 23.240
23.19000 21.221
23.20000 13.302
23.21000 21.387
23.22000 15.280
23.23000 25.461
23.24000 22.420
23.25000 20.167
23.26000 18.259
23.27000 24.354
23.28000 19.375
23.29000 24.223
23.30000 19.181
23.31000 14.207
23.32000 20.144
23.33000 23.172
23.34000 19.068
23.35000 20.490
23.36000 17.328
23.37000 21.258
23.38000 22.462
23.39000 21.483
23.40000 20.269
23.41000 20.220
23.42000 30.339
23.43000 30.326
23.44000 19.344
23.45000 24.463
23.46000 24.532
23.47000 24.368
23.48000 22.492
23.49000 24.094
23.50000 14.132
23.51000 25.371
23.52000 22.184
23.53000 23.327
23.54000 21.606
23.55000 30.539
23.56000 24.269
23.57000 14.228
23.58000 19.512
23.59000 22.436
23.60000 22.518
23.61000 17.295
23.62000 23.435
23.63000 25.400
23.64000 21.312
23.65000 27.363
23.66000 17.153
23.67000 26.570
23.68000 17.328
23.69000 31.414
23.70000 25.438
23.71000 17.383
23.72000 25.202
23.73000 26.143
23.74000 20.352
23.75000 14.281
23.76000 33.342
23.77000 20.258
23.78000 20.312
23.79000 20.206
23.80000 23.108
23.81000 30.294
23.82000 28.228
23.83000 17.247
23.84000 33.547
23.85000 25.343
23.86000 24.195
23.87000 26.313
23.88000 27.430
23.89000 21.309
23.90000 21.302
23.91000 27.224
23.92000 13.185
23.93000 28.265
23.94000 22.247
23.95000 19.193
23.96000 14.101
23.97000 36.484
23.98000 30.296
23.99000 23.271
24.00000 22.380
24.01000 25.365
24.02000 21.258
24.03000 28.531
24.04000 23.284
24.05000 28.358
24.06000 26.343
24.07000 22.441
24.08000 22.197
24.09000 28.380
24.10000 27.426
24.11000 26.309
24.12000 22.276
24.13000 29.316
24.14000 27.468
24.15000 17.228
24.16000 24.484
24.17000 17.127
24.18000 21.354
24.19000 23.152
24.20000 23.313
24.21000 26.426
24.22000 23.277
24.23000 29.440
24.24000 28.164
24.25000 29.391
24.26000 24.200
24.27000 23.312
24.28000 25.287
24.29000 33.415
24.30000 23.407
24.31000 26.301
24.32000 28.622
24.33000 27.328
24.34000 20.284
24.35000 29.565
24.36000 19.408
24.37000 29.200
24.38000 24.411
24.39000 35.466
24.40000 33.510
24.41000 22.308
24.42000 22.225
24.43000 23.387
24.44000 28.418
24.45000 46.404
24.46000 30.546
24.47000 24.446
24.48000 29.424
24.49000 30.343
24.50000 29.529
24.51000 28.498
24.52000 30.553
24.53000 29.591
24.54000 25.213
24.55000 28.335
24.56000 32.449
24.57000 25.369
24.58000 22.509
24.59000 21.469
24.60000 26.223
24.61000 34.668
24.62000 22.263
24.63000 18.433
24.64000 24.211
24.65000 20.279
24.66000 23.392
24.67000 23.510
24.68000 27.252
24.69000 26.532
24.70000 27.324
24.71000 45.267
24.72000 28.391
24.73000 36.532
24.74000 20.079
24.75000 31.723
24.76000 27.292
24.77000 24.300
24.78000 26.265
24.79000 34.500
24.80000 19.451
24.81000 32.306
24.82000 31.169
24.83000 27.188
24.84000 26.459
24.85000 17.189
24.86000 21.437
24.87000 29.659
24.88000 24.280
24.89000 22.531
24.90000 31.554
24.91000 33.584
24.92000 29.272
24.93000 38.485
24.94000 34.247
24.95000 24.439
24.96000 30.465
24.97000 29.435
24.98000 30.634
24.99000 28.181
25.00000 35.502
25.01000 34.663
25.02000 35.583
25.03000 29.530
25.04000 35.392
25.05000 40.690
25.06000 26.236
25.07000 23.310
25.08000 26.352
25.09000 30.324
25.10000 28.383
25.11000 31.494
25.12000 31.366
25.13000 33.651
25.14000 34.581
25.15000 35.376
25.16000 25.256
25.17000 38.398
25.18000 21.352
25.19000 26.146
25.20000 34.268
25.21000 32.559
25.22000 22.202
25.23000 32.474
25.24000 27.296
25.25000 37.576
25.26000 28.248
25.27000 25.414
25.28000 31.534
25.29000 37.671
25.30000 34.468
25.31000 40.617
25.32000 33.593
25.33000 31.430
25.34000 25.273
25.35000 36.564
25.36000 32.600
25.37000 35.336
25.38000 28.309
25.39000 33.465
25.40000 26.427
25.41000 29.470
25.42000 23.493
25.43000 31.312
25.44000 24.172
25.45000 35.504
25.46000 44.720
25.47000 27.425
25.48000 35.216
25.49000 32.460
25.50000 27.173
25.51000 38.821
25.52000 33.457
25.53000 41.635
25.54000 41.430
25.55000 35.317
25.56000 41.434
25.57000 21.489
25.58000 38.594
25.59000 34.620
25.60000 30.673
25.61000 37.479
25.62000 41.462
25.63000 30.409
25.64000 49.786
25.65000 40.639
25.66000 35.509
25.67000 33.619
25.68000 37.568
25.69000 37.348
25.70000 33.530
25.71000 24.553
25.72000 44.885
25.73000 33.612
25.74000 28.242
25.75000 20.323
25.76000 31.635
25.77000 29.517
25.78000 35.183
25.79000 47.967
25.80000 40.664
25.81000 36.664
25.82000 44.483
25.83000 32.452
25.84000 36.727
25.85000 48.851
25.86000 38.576
25.87000 30.522
25.88000 33.755
25.89000 23.335
25.90000 35.399
25.91000 40.640
25.92000 40.786
25.93000 35.425
25.94000 31.409
25.95000 34.244
25.96000 35.637
25.97000 30.549
25.98000 41.547
25.99000 38.503
26.00000 43.541
26.01000 37.477
26.02000 35.397
26.03000 40.653
26.04000 41.783
26.05000 36.779
26.06000 36.692
26.07000 26.405
26.08000 33.363
26.09000 47.506
26.10000 28.464
26.11000 38.759
26.12000 37.493
26.13000 48.815
26.14000 42.685
26.15000 45.590
26.16000 39.528
26.17000 35.634
26.18000 46.801
26.19000 46.729
26.20000 34.625
26.21000 39.354
26.22000 43.718
26.23000 48.585
26.24000 41.771
26.25000 36.391
26.26000 42.813
26.27000 43.603
26.28000 53.489
26.29000 29.418
26.30000 49.505
26.31000 50.601
26.32000 41.345
26.33000 37.837
26.34000 50.518
26.35000 50.757
26.36000 44.484
26.37000 45.542
26.38000 36.550
26.39000 34.524
26.40000 30.437
26.41000 37.625
26.42000 48.632
26.43000 48.669
26.44000 49.573
26.45000 36.446
26.46000 49.440
26.47000 34.671
26.48000 39.268
26.49000 44.589
26.50000 45.701
26.51000 36.599
26.52000 41.629
26.53000 61.038
26.54000 43.366
26.55000 43.732
26.56000 50.462
26.57000 51.718
26.58000 33.556
26.59000 46.443
26.60000 32.565
26.61000 38.582
26.62000 34.703
26.63000 42.792
26.64000 47.456
26.65000 37.706
26.66000 38.343
26.67000 42.645
26.68000 46.847
26.69000 51.964
26.70000 43.420
26.71000 36.516
26.72000 38.714
26.73000 47.495
26.74000 45.555
26.75000 47.694
26.76000 47.782
26.77000 42.702
26.78000 49.697
26.79000 42.612
26.80000 48.733
26.81000 42.750
26.82000 49.652
26.83000 48.676
26.84000 47.612
26.85000 52.440
26.86000 62.012
26.87000 49.929
26.88000 43.437
26.89000 45.474
26.90000 57.284
26.91000 39.426
26.92000 43.667
26.93000 55.654
26.94000 39.533
26.95000 36.599
26.96000 37.377
26.97000 51.572
26.98000 46.661
26.99000 40.776
27.00000 47.490
27.01000 46.668
27.02000 60.859
27.03000 42.403
27.04000 58.779
27.05000 56.836
27.06000 45.928
27.07000 43.761
27.08000 39.752
27.09000 41.357
27.10000 43.624
27.11000 48.565
27.12000 55.749
27.13000 40.610
27.14000 46.428
27.15000 58.762
27.16000 46.526
27.17000 46.480
27.18000 57.885
27.19000 59.939
27.20000 35.386
27.21000 44.794
27.22000 48.564
27.23000 44.600
27.24000 51.866
27.25000 53.687
27.26000 51.904
27.27000 42.805
27.28000 45.404
27.29000 62.894
27.30000 37.428
27.31000 41.467
27.32000 46.761
27.33000 41.389
27.34000 53.884
27.35000 47.706
27.36000 65.778
27.37000 47.647
27.38000 34.225
27.39000 41.507
27.40000 61.880
27.41000 51.845
27.42000 50.752
27.43000 53.633
27.44000 51.762
27.45000 52.754
27.46000 44.731
27.47000 39.459
27.48000 54.912
27.49000 39.617
27.50000 62.942
27.51000 62.829
27.52000 52.913
27.53000 57.616
27.54000 46.764
27.55000 52.842
27.56000 49.686
27.57000 55.816
27.58000 49.702
27.59000 42.692
27.60000 44.835
27.61000 56.763
27.62000 55.888
27.63000 53.742
27.64000 61.715
27.65000 55.919
27.66000 48.630
27.67000 47.834
27.68000 44.666
27.69000 41.523
27.70000 57.743
27.71000 55.114
27.72000 49.607
27.73000 48.714
27.74000 45.822
27.75000 74.431
27.76000 50.581
27.77000 53.944
27.78000 49.789
27.79000 61.262
27.80000 42.719
27.81000 48.612
27.82000 65.081
27.83000 61.983
27.84000 43.745
27.85000 52.053
27.86000 46.390
27.87000 39.649
27.88000 42.676
27.89000 50.568
27.90000 62.944
27.91000 54.821
27.92000 56.593
27.93000 45.491
27.94000 48.642
27.95000 47.690
27.96000 57.801
27.97000 48.570
27.98000 54.773
27.99000 68.750
28.00000 52.686
28.01000 43.926
28.02000 42.544
28.03000 56.726
28.04000 41.447
28.05000 67.138
28.06000 60.783
28.07000 57.735
28.08000 50.565
28.09000 41.494
28.10000 45.493
28.11000 49.826
28.12000 53.054
28.13000 51.434
28.14000 58.037
28.15000 53.150
28.16000 52.988
28.17000 52.463
28.18000 50.547
28.19000 51.637
28.20000 47.806
28.21000 47.742
28.22000 48.982
28.23000 55.810
28.24000 52.732
28.25000 55.551
28.26000 43.571
28.27000 53.801
28.28000 56.362
28.29000 41.222
28.30000 49.575
28.31000 57.518
28.32000 46.506
28.33000 56.789
28.34000 48.684
28.35000 56.121
28.36000 46.821
28.37000 52.928
28.38000 48.499
28.39000 61.955
28.40000 50.704
28.41000 59.137
28.42000 48.701
28.43000 48.678
28.44000 53.863
28.45000 51.849
28.46000 40.850
28.47000 42.316
28.48000 46.424
28.49000 47.757
28.50000 49.689
28.51000 43.327
28.52000 54.949
28.53000 51.639
28.54000 39.540
28.55000 61.839
28.56000 55.797
28.57000 48.980
28.58000 55.517
28.59000 44.401
28.60000 62.091
28.61000 55.879
28.62000 53.927
28.63000 38.763
28.64000 58.881
28.65000 39.486
28.66000 52.922
28.67000 50.701
28.68000 40.702
28.69000 64.098
28.70000 38.567
28.71000 53.975
28.72000 46.587
28.73000 48.778
28.74000 43.670
28.75000 54.643
28.76000 54.714
28.77000 55.892
28.78000 34.746
28.79000 51.668
28.80000 47.090
28.81000 43.571
28.82000 58.052
28.83000 54.589
28.84000 49.820
28.85000 47.404
28.86000 40.549
28.87000 41.453
28.88000 48.860
28.89000 62.712
28.90000 40.544
28.91000 43.345
28.92000 46.636
28.93000 40.494
28.94000 49.438
28.95000 45.636
28.96000 57.626
28.97000 40.576
28.98000 45.836
28.99000 42.442
29.00000 42.685
29.01000 59.796
29.02000 34.381
29.03000 42.406
29.04000 44.805
29.05000 42.488
29.06000 44.401
29.07000 55.734
29.08000 38.626
29.09000 36.785
29.10000 45.524
29.11000 34.427
29.12000 47.593
29.13000 51.186
29.14000 34.226
29.15000 43.540
29.16000 49.676
29.17000 43.701
29.18000 47.510
29.19000 47.591
29.20000 36.288
29.21000 45.703
29.22000 58.966
29.23000 43.875
29.24000 47.026
29.25000 53.655
29.26000 49.380
29.27000 38.486
29.28000 39.590
29.29000 41.414
29.30000 36.582
29.31000 46.669
29.32000 50.712
29.33000 53.739
29.34000 39.690
29.35000 46.448
29.36000 39.506
29.37000 43.575
29.38000 47.457
29.39000 46.504
29.40000 53.558
29.41000 44.455
29.42000 50.702
29.43000 34.358
29.44000 54.572
29.45000 42.528
29.46000 38.513
29.47000 39.495
29.48000 41.426
29.49000 37.549
29.50000 37.545
29.51000 38.778
29.52000 43.419
29.53000 46.481
29.54000 40.472
29.55000 40.578
29.56000 55.999
29.57000 32.741
29.58000 42.745
29.59000 36.692
29.60000 43.482
29.61000 39.792
29.62000 47.632
29.63000 36.904
29.64000 35.435
29.65000 41.478
29.66000 40.785
29.67000 44.596
29.68000 45.717
29.69000 51.987
29.70000 36.644
29.71000 48.456
29.72000 44.422
29.73000 36.754
29.74000 36.529
29.75000 50.766
29.76000 36.700
29.77000 32.322
29.78000 53.527
29.79000 41.635
29.80000 35.685
29.81000 49.895
29.82000 40.601
29.83000 41.792
29.84000 40.486
29.85000 47.695
29.86000 42.300
29.87000 46.393
29.88000 31.360
29.89000 47.427
29.90000 41.843
29.91000 43.682
29.92000 40.766
29.93000 35.562
29.94000 40.597
29.95000 44.600
29.96000 41.830
29.97000 44.619
29.98000 36.539
29.99000 54.061
30.00000 30.321
30.01000 47.456
30.02000 37.455
30.03000 32.568
30.04000 38.382
30.05000 41.473
30.06000 26.361
30.07000 21.106
30.08000 38.684
30.09000 50.391
30.10000 28.418
30.11000 42.620
30.12000 43.665
30.13000 28.434
30.14000 32.477
30.15000 38.495
30.16000 31.549
30.17000 37.696
30.18000 31.636
30.19000 43.511
30.20000 38.688
30.21000 42.717
30.22000 25.386
30.23000 32.343
30.24000 36.637
30.25000 35.298
30.26000 31.346
30.27000 32.322
30.28000 32.556
30.29000 32.604
30.30000 31.630
30.31000 34.195
30.32000 26.475
30.33000 27.455
30.34000 39.290
30.35000 43.534
30.36000 29.516
30.37000 34.537
30.38000 42.484
30.39000 30.638
30.40000 35.313
30.41000 33.620
30.42000 37.325
30.43000 32.451
30.44000 27.187
30.45000 28.464
30.46000 39.818
30.47000 35.370
30.48000 39.659
30.49000 30.395
30.50000 21.175
30.51000 37.510
30.52000 33.348
30.53000 35.532
30.54000 28.417
30.55000 33.722
30.56000 35.874
30.57000 41.436
30.58000 31.507
30.59000 28.372
30.60000 33.293
30.61000 35.298
30.62000 32.591
30.63000 43.300
30.64000 33.720
30.65000 34.621
30.66000 32.396
30.67000 35.649
30.68000 30.407
30.69000 29.275
30.70000 37.337
30.71000 31.187
30.72000 21.269
30.73000 29.471
30.74000 31.442
30.75000 35.622
30.76000 22.375
30.77000 32.289
30.78000 37.610
30.79000 19.356
30.80000 36.491
30.81000 28.499
30.82000 29.558
30.83000 24.306
30.84000 33.392
30.85000 30.443
30.86000 31.429
30.87000 35.560
30.88000 37.366
30.89000 38.285
30.90000 33.251
30.91000 28.383
30.92000 34.342
30.93000 36.406
30.94000 35.342
30.95000 41.493
30.96000 33.344
30.97000 37.571
30.98000 21.499
30.99000 35.807
31.00000 24.293
31.01000 20.480
31.02000 36.612
31.03000 35.514
31.04000 24.404
31.05000 27.423
31.06000 32.517
31.07000 35.588
31.08000 36.380
31.09000 27.488
31.10000 25.296
31.11000 26.473
31.12000 27.555
31.13000 29.243
31.14000 26.518
31.15000 34.506
31.16000 31.455
31.17000 25.455
31.18000 33.451
31.19000 34.397
31.20000 24.250
31.21000 22.290
31.22000 24.377
31.23000 24.618
31.24000 34.632
31.25000 19.324
31.26000 30.383
31.27000 32.403
31.28000 22.175
31.29000 38.816
31.30000 32.478
31.31000 28.433
31.32000 31.506
31.33000 27.588
31.34000 31.422
31.35000 30.437
31.36000 27.343
31.37000 21.270
31.38000 27.191
31.39000 33.467
31.40000 23.361
31.41000 24.354
31.42000 26.241
31.43000 29.293
31.44000 23.461
31.45000 20.200
31.46000 18.328
31.47000 19.416
31.48000 31.456
31.49000 27.391
31.50000 25.241
31.51000 23.251
31.52000 30.301
31.53000 24.416
31.54000 23.447
31.55000 24.449
31.56000 22.223
31.57000 30.526
31.58000 26.310
31.59000 29.275
31.60000 22.333
31.61000 27.395
31.62000 26.458
31.63000 25.557
31.64000 20.201
31.65000 24.150
31.66000 31.597
31.67000 19.313
31.68000 26.236
31.69000 19.301
31.70000 20.373
31.71000 30.330
31.72000 36.780
31.73000 24.276
31.74000 30.355
31.75000 27.173
31.76000 12.228
31.77000 27.343
31.78000 22.391
31.79000 18.399
31.80000 23.394
31.81000 31.471
31.82000 22.290
31.83000 22.193
31.84000 29.314
31.85000 29.442
31.86000 36.437
31.87000 20.516
31.88000 28.426
31.89000 22.293
31.90000 21.136
31.91000 22.247
31.92000 15.238
31.93000 20.226
31.94000 21.291
31.95000 29.520
31.96000 28.305
31.97000 24.346
31.98000 21.133
31.99000 25.776
32.00000 22.308
32.01000 19.204
32.02000 24.182
32.03000 32.537
32.04000 32.162
32.05000 27.437
32.06000 21.072
32.07000 18.135
32.08000 27.471
32.09000 21.326
32.10000 23.304
32.11000 19.377
32.12000 39.513
32.13000 24.406
32.14000 27.278
32.15000 17.175
32.16000 24.175
32.17000 19.347
32.18000 19.248
32.19000 28.313
32.20000 23.106
32.21000 20.237
32.22000 30.601
32.23000 26.476
32.24000 18.301
32.25000 22.319
32.26000 33.189
32.27000 18.527
32.28000 23.234
32.29000 21.103
32.30000 21.260
32.31000 18.330
32.32000 16.303
32.33000 24.200
32.34000 14.275
32.35000 20.367
32.36000 22.304
32.37000 21.126
32.38000 13.117
32.39000 18.287
32.40000 27.385
32.41000 22.379
32.42000 20.329
32.43000 25.406
32.44000 24.319
32.45000 21.296
32.46000 27.507
32.47000 20.179
32.48000 24.373
32.49000 13.101
32.50000 22.275
32.51000 25.194
32.52000 31.314
32.53000 21.157
32.54000 27.276
32.55000 19.227
32.56000 24.114
32.57000 21.365
32.58000 29.386
32.59000 20.193
32.60000 25.251
32.61000 20.064
32.62000 17.278
32.63000 32.440
32.64000 15.241
32.65000 21.221
32.66000 18.121
32.67000 20.268
32.68000 31.587
32.69000 28.419
32.70000 24.248
32.71000 21.320
32.72000 13.230
32.73000 21.324
32.74000 27.480
32.75000 21.075
32.76000 20.187
32.77000 30.540
32.78000 23.112
32.79000 18.248
32.80000 23.459
32.81000 12.202
32.82000 17.119
32.83000 27.562
32.84000 25.499
32.85000 13.187
32.86000 9.109
32.87000 16.156
32.88000 22.379
32.89000 16.338
32.90000 23.344
32.91000 18.257
32.92000 22.208
32.93000 19.439
32.94000 13.097
32.95000 23.241
32.96000 17.215
32.97000 20.195
32.98000 12.068
32.99000 20.112
33.00000 25.540
33.01000 13.259
33.02000 17.305
33.03000 29.369
33.04000 17.282
33.05000 28.461
33.06000 19.365
33.07000 19.212
33.08000 14.217
33.09000 21.268
33.10000 16.151
33.11000 18.396
33.12000 16.150
33.13000 14.260
33.14000 16.230
33.15000 20.246
33.16000 16.139
33.17000 25.483
33.18000 18.038
33.19000 11.085
33.20000 15.250
33.21000 15.183
33.22000 16.159
33.23000 20.226
33.24000 10.293
33.25000 25.397
33.26000 27.317
33.27000 16.206
33.28000 12.255
33.29000 17.193
33.30000 15.115
33.31000 10.245
33.32000 19.220
33.33000 17.258
33.34000 16.201
33.35000 14.260
33.36000 22.218
33.37000 21.261
33.38000 17.215
33.39000 21.443
33.40000 16.169
33.41000 19.270
33.42000 23.325
33.43000 12.218
33.44000 13.194
33.45000 19.346
33.46000 20.423
33.47000 13.203
33.48000 24.332
33.49000 22.169
33.50000 20.235
33.51000 12.019
33.52000 17.165
33.53000 20.225
33.54000 13.175
33.55000 14.215
33.56000 17.145
33.57000 17.263
33.58000 24.284
33.59000 17.375
33.60000 12.029
33.61000 18.050
33.62000 17.108
33.63000 8.148
33.64000 14.080
33.65000 17.184
33.66000 15.179
33.67000 24.317
33.68000 10.220
33.69000 18.197
33.70000 18.259
33.71000 18.155
33.72000 13.217
33.73000 18.056
33.74000 16.191
33.75000 16.233
33.76000 9.137
33.77000 18.369
33.78000 18.226
33.79000 15.147
33.80000 17.288
33.81000 19.157
33.82000 17.270
33.83000 21.309
33.84000 17.208
33.85000 8.040
33.86000 17.298
33.87000 14.043
33.88000 17.297
33.89000 20.217
33.90000 11.225
33.91000 11.182
33.92000 22.293
33.93000 13.197
33.94000 17.152
33.95000 17.100
33.96000 11.128
33.97000 20.326
33.98000 8.987
33.99000 17.194
34.00000 18.363
34.01000 19.285
34.02000 16.217
34.03000 16.233
34.04000 16.200
34.05000 17.149
34.06000 11.112
34.07000 29.215
34.08000 12.267
34.09000 11.174
34.10000 15.192
34.11000 9.081
34.12000 13.177
34.13000 13.286
34.14000 13.330
34.15000 7.055
34.16000 13.132
34.17000 18.170
34.18000 16.081
34.19000 22.277
34.20000 13.299
34.21000 11.297
34.22000 9.118
34.23000 13.200
34.24000 15.327
34.25000 11.206
34.26000 22.570
34.27000 16.249
34.28000 18.083
34.29000 16.215
34.30000 18.269
34.31000 17.119
34.32000 17.302
34.33000 16.213
34.34000 17.139
34.35000 13.248
34.36000 17.203
34.37000 17.475
34.38000 15.274
34.39000 11.228
34.40000 21.289
34.41000 10.162
34.42000 16.207
34.43000 16.279
34.44000 11.095
34.45000 13.170
34.46000 19.220
34.47000 12.128
34.48000 11.191
34.49000 14.367
34.50000 24.164
34.51000 22.298
34.52000 21.244
34.53000 16.179
34.54000 11.094
34.55000 23.118
34.56000 7.106
34.57000 19.226
34.58000 13.137
34.59000 11.056
34.60000 22.454
34.61000 14.106
34.62000 15.418
34.63000 12.160
34.64000 18.132
34.65000 18.275
34.66000 11.291
34.67000 12.148
34.68000 19.247
34.69000 10.136
34.70000 12.084
34.71000 14.211
34.72000 15.144
34.73000 11.022
34.74000 15.111
34.75000 21.353
34.76000 13.246
34.77000 10.193
34.78000 10.008
34.79000 16.249
34.80000 17.055
34.81000 8.049
34.82000 21.291
34.83000 15.229
34.84000 14.244
34.85000 11.161
34.86000 11.072
34.87000 14.219
34.88000 16.357
34.89000 16.229
34.90000 18.397
34.91000 16.936
34.92000 11.040
34.93000 18.162
34.94000 17.207
34.95000 8.110
34.96000 16.220
34.97000 21.111
34.98000 18.158
34.99000 13.242
35.00000 9.195
35.01000 15.266
35.02000 11.051
35.03000 15.119
35.04000 12.072
35.05000 13.152
35.06000 10.136
35.07000 15.161
35.08000 13.194
35.09000 20.287
35.10000 19.118
35.11000 16.228
35.12000 9.983
35.13000 12.297
35.14000 16.176
35.15000 16.208
35.16000 11.210
35.17000 16.286
35.18000 17.242
35.19000 12.056
35.20000 10.298
35.21000 14.132
35.22000 7.057
35.23000 13.146
35.24000 11.084
35.25000 9.190
35.26000 13.151
35.27000 14.100
35.28000 12.130
35.29000 10.395
35.30000 17.140
35.31000 10.246
35.32000 15.218
35.33000 19.109
35.34000 12.218
35.35000 8.086
35.36000 16.071
35.37000 12.074
35.38000 11.031
35.39000 15.231
35.40000 17.370
35.41000 16.163
35.42000 15.321
35.43000 14.005
35.44000 9.142
35.45000 18.441
35.46000 12.248
35.47000 18.247
35.48000 14.178
35.49000 17.149
35.50000 16.246
35.51000 18.162
35.52000 13.162
35.53000 15.200
35.54000 18.385
35.55000 18.077
35.56000 14.192
35.57000 16.337
35.58000 15.295
35.59000 18.208
35.60000 13.195
35.61000 15.214
35.62000 18.351
35.63000 15.120
35.64000 19.232
35.65000 12.058
35.66000 11.097
35.67000 14.241
35.68000 8.030
35.69000 19.186
35.70000 14.082
35.71000 9.197
35.72000 16.241
35.73000 22.384
35.74000 13.139
35.75000 9.205
35.76000 7.074
35.77000 11.189
35.78000 14.284
35.79000 15.233
35.80000 23.283
35.81000 18.199
35.82000 15.106
35.83000 10.104
35.84000 16.242
35.85000 16.248
35.86000 21.206
35.87000 15.218
35.88000 16.305
35.89000 10.147
35.90000 18.068
35.91000 22.450
35.92000 11.057
35.93000 20.135
35.94000 11.133
35.95000 14.138
35.96000 17.999
35.97000 14.115
35.98000 12.127
35.99000 15.330
36.00000 15.097
36.01000 20.170
36.02000 16.219
36.03000 15.156
36.04000 10.101
36.05000 13.149
36.06000 14.293
36.07000 13.285
36.08000 12.110
36.09000 17.356
36.10000 10.169
36.11000 12.272
36.12000 11.063
36.13000 13.189
36.14000 13.136
36.15000 9.171
36.16000 15.295
36.17000 9.246
36.18000 11.086
36.19000 17.175
36.20000 10.010
36.21000 8.151
36.22000 7.162
36.23000 20.047
36.24000 9.274
36.25000 22.286
36.26000 12.284
36.27000 8.123
36.28000 18.306
36.29000 14.134
36.30000 9.174
36.31000 12.195
36.32000 11.161
36.33000 15.206
36.34000 19.345
36.35000 21.085
36.36000 14.224
36.37000 15.251
36.38000 14.364
36.39000 8.098
36.40000 15.364
36.41000 13.242
36.42000 14.303
36.43000 14.186
36.44000 10.082
36.45000 12.015
36.46000 21.299
36.47000 16.224
36.48000 16.283
36.49000 6.032
36.50000 8.291
36.51000 13.189
36.52000 21.344
36.53000 10.063
36.54000 19.534
36.55000 9.048
36.56000 10.124
36.57000 14.101
36.58000 12.289
36.59000 19.099
36.60000 23.326
36.61000 18.268
36.62000 22.365
36.63000 13.022
36.64000 15.204
36.65000 11.202
36.66000 16.208
36.67000 15.137
36.68000 21.263
36.69000 15.259
36.70000 12.088
36.71000 12.044
36.72000 17.235
36.73000 11.173
36.74000 21.210
36.75000 15.138
36.76000 15.209
36.77000 15.329
36.78000 14.285
36.79000 9.225
36.80000 16.231
36.81000 9.116
36.82000 13.076
36.83000 19.239
36.84000 13.085
36.85000 17.229
36.86000 14.271
36.87000 6.057
36.88000 14.223
36.89000 9.151
36.90000 14.262
36.91000 9.207
36.92000 21.260
36.93000 15.263
36.94000 15.157
36.95000 15.307
36.96000 16.318
36.97000 13.159
36.98000 20.372
36.99000 15.278
37.00000 16.339
37.01000 20.216
37.02000 12.128
37.03000 10.972
37.04000 9.110
37.05000 14.180
37.06000 21.367
37.07000 14.124
37.08000 21.479
37.09000 9.086
37.10000 17.066
37.11000 16.983
37.12000 23.406
37.13000 10.103
37.14000 20.324
37.15000 15.203
37.16000 18.131
37.17000 12.082
37.18000 18.185
37.19000 14.192
37.20000 15.108
37.21000 12.274
37.22000 17.170
37.23000 8.010
37.24000 8.035
37.25000 16.220
37.26000 15.128
37.27000 19.401
37.28000 15.277
37.29000 12.150
37.30000 18.304
37.31000 22.318
37.32000 16.179
37.33000 5.075
37.34000 13.089
37.35000 17.390
37.36000 14.292
37.37000 11.115
37.38000 18.156
37.39000 18.148
37.40000 13.303
37.41000 11.226
37.42000 14.185
37.43000 12.320
37.44000 18.268
37.45000 11.236
37.46000 19.368
37.47000 13.154
37.48000 18.148
37.49000 15.283
37.50000 22.112
37.51000 13.133
37.52000 19.196
37.53000 6.038
37.54000 27.307
37.55000 23.467
37.56000 19.150
37.57000 10.112
37.58000 21.317
37.59000 16.236
37.60000 11.057
37.61000 13.155
37.62000 18.127
37.63000 10.204
37.64000 15.129
37.65000 20.264
37.66000 24.405
37.67000 17.198
37.68000 21.415
37.69000 17.154
37.70000 19.272
37.71000 11.170
37.72000 14.328
37.73000 14.104
37.74000 14.993
37.75000 12.397
37.76000 19.211
37.77000 10.989
37.78000 19.266
37.79000 20.428
37.80000 15.186
37.81000 13.980
37.82000 12.141
37.83000 14.125
37.84000 15.179
37.85000 15.096
37.86000 23.190
37.87000 15.176
37.88000 14.108
37.89000 14.250
37.90000 18.262
37.91000 11.061
37.92000 17.196
37.93000 18.504
37.94000 19.035
37.95000 12.049
37.96000 18.139
37.97000 18.240
37.98000 19.197
37.99000 27.237
38.00000 21.314
38.01000 14.294
38.02000 19.273
38.03000 18.289
38.04000 19.151
38.05000 14.164
38.06000 16.053
38.07000 10.100
38.08000 18.300
38.09000 16.286
38.10000 14.272
38.11000 11.145
38.12000 13.312
38.13000 15.246
38.14000 19.411
38.15000 9.958
38.16000 15.111
38.17000 21.376
38.18000 10.103
38.19000 14.249
38.20000 18.145
38.21000 16.360
38.22000 15.284
38.23000 13.096
38.24000 17.114
38.25000 17.083
38.26000 14.069
38.27000 10.078
38.28000 20.174
38.29000 11.111
38.30000 17.133
38.31000 15.163
38.32000 17.237
38.33000 14.301
38.34000 15.030
38.35000 15.126
38.36000 12.109
38.37000 18.253
38.38000 15.237
38.39000 14.050
38.40000 17.110
38.41000 13.114
38.42000 13.389
38.43000 17.172
38.44000 15.199
38.45000 22.263
38.46000 14.243
38.47000 18.269
38.48000 11.164
38.49000 13.165
38.50000 27.263
38.51000 7.998
38.52000 21.271
38.53000 17.465
38.54000 14.386
38.55000 15.168
38.56000 14.033
38.57000 17.324
38.58000 11.160
38.59000 19.318
38.60000 21.288
38.61000 16.191
38.62000 13.165
38.63000 16.214
38.64000 11.290
38.65000 20.362
38.66000 22.495
38.67000 15.088
38.68000 11.041
38.69000 22.387
38.70000 14.174
38.71000 15.169
38.72000 9.001
38.73000 20.151
38.74000 22.085
38.75000 17.166
38.76000 21.225
38.77000 8.054
38.78000 8.063
38.79000 15.068
38.80000 19.323
38.81000 16.298
38.82000 20.177
38.83000 11.056
38.84000 16.105
38.85000 27.471
38.86000 17.187
38.87000 16.403
38.88000 17.466
38.89000 22.146
38.90000 22.287
38.91000 15.188
38.92000 10.171
38.93000 13.191
38.94000 20.338
38.95000 18.385
38.96000 18.226
38.97000 20.242
38.98000 18.331
38.99000 21.230
39.00000 16.140
39.01000 22.164
39.02000 18.250
39.03000 19.103
39.04000 15.156
39.05000 12.132
39.06000 14.141
39.07000 13.251
39.08000 20.192
39.09000 15.245
39.10000 19.175
39.11000 21.242
39.12000 13.152
39.13000 22.191
39.14000 23.355
39.15000 17.187
39.16000 15.262
39.17000 12.159
39.18000 25.307
39.19000 18.193
39.20000 15.136
39.21000 18.305
39.22000 23.296
39.23000 15.320
39.24000 16.080
39.25000 21.229
39.26000 17.326
39.27000 15.301
39.28000 15.248
39.29000 28.364
39.30000 22.139
39.31000 17.095
39.32000 17.178
39.33000 15.127
39.34000 25.203
39.35000 16.359
39.36000 13.148
39.37000 11.189
39.38000 23.449
39.39000 25.274
39.40000 15.144
39.41000 12.231
39.42000 29.597
39.43000 19.253
39.44000 12.127
39.45000 16.177
39.46000 21.305
39.47000 15.172
39.48000 17.202
39.49000 18.095
39.50000 15.138
39.51000 15.089
39.52000 15.040
39.53000 17.157
39.54000 26.333
39.55000 25.324
39.56000 22.228
39.57000 22.569
39.58000 17.304
39.59000 18.100
39.60000 12.252
39.61000 27.424
39.62000 12.258
39.63000 21.389
39.64000 10.140
39.65000 22.224
39.66000 20.324
39.67000 16.287
39.68000 18.301
39.69000 19.368
39.70000 11.104
39.71000 17.220
39.72000 25.357
39.73000 19.260
39.74000 19.120
39.75000 26.209
39.76000 15.373
39.77000 14.229
39.78000 24.199
39.79000 10.021
39.80000 9.123
39.81000 25.457
39.82000 12.291
39.83000 24.160
39.84000 10.142
39.85000 14.205
39.86000 18.214
39.87000 16.312
39.88000 21.370
39.89000 20.265
39.90000 21.444
39.91000 16.115
39.92000 19.209
39.93000 13.227
39.94000 17.193
39.95000 21.482
39.96000 16.290
39.97000 16.198
39.98000 17.182
39.99000 21.201
40.00000 21.134
40.01000 16.154
40.02000 11.200
40.03000 23.322
40.04000 24.465
40.05000 14.213
40.06000 20.248
40.07000 22.210
40.08000 14.263
40.09000 20.043
40.10000 14.145
40.11000 20.283
40.12000 20.167
40.13000 14.221
40.14000 17.110
40.15000 15.188
40.16000 18.285
40.17000 16.134
40.18000 15.278
40.19000 18.163
40.20000 17.199
40.21000 14.157
40.22000 14.168
40.23000 17.135
40.24000 19.173
40.25000 22.335
40.26000 14.371
40.27000 16.292
40.28000 17.435
40.29000 15.159
40.30000 20.384
40.31000 14.142
40.32000 16.194
40.33000 17.116
40.34000 20.328
40.35000 21.337
40.36000 19.154
40.37000 20.317
40.38000 18.227
40.39000 11.145
40.40000 15.181
40.41000 12.189
40.42000 12.176
40.43000 14.230
40.44000 12.012
40.45000 20.232
40.46000 16.246
40.47000 24.341
40.48000 13.522
40.49000 13.246
40.50000 19.281
40.51000 28.337
40.52000 17.340
40.53000 6.211
40.54000 24.177
40.55000 27.341
40.56000 15.284
40.57000 19.256
40.58000 14.172
40.59000 17.191
40.60000 25.603
40.61000 19.210
40.62000 19.064
40.63000 15.212
40.64000 22.221
40.65000 16.352
40.66000 15.333
40.67000 18.166
40.68000 16.276
40.69000 19.209
40.70000 18.155
40.71000 20.167
40.72000 15.144
40.73000 19.344
40.74000 18.088
40.75000 27.252
40.76000 15.231
40.77000 20.259
40.78000 23.402
40.79000 16.336
40.80000 20.213
40.81000 12.292
40.82000 16.194
40.83000 13.073
40.84000 25.445
40.85000 23.374
40.86000 13.986
40.87000 24.254
40.88000 21.157
40.89000 12.187
40.90000 19.366
40.91000 20.340
40.92000 16.270
40.93000 18.220
40.94000 11.174
40.95000 15.207
40.96000 15.142
40.97000 23.226
40.98000 23.530
40.99000 13.104
41.00000 17.348
41.01000 20.104
41.02000 24.176
41.03000 12.086
41.04000 15.185
41.05000 29.488
41.06000 14.205
41.07000 21.145
41.08000 10.972
41.09000 19.252
41.10000 32.462
41.11000 12.257
41.12000 12.234
41.13000 17.251
41.14000 23.280
41.15000 15.012
41.16000 27.295
41.17000 17.119
41.18000 20.303
41.19000 17.166
41.20000 13.340
41.21000 23.257
41.22000 21.202
41.23000 21.337
41.24000 22.078
41.25000 19.132
41.26000 29.376
41.27000 13.079
41.28000 24.416
41.29000 16.394
41.30000 26.238
41.31000 19.277
41.32000 20.414
41.33000 14.107
41.34000 14.392
41.35000 20.326
41.36000 21.601
41.37000 19.195
41.38000 10.048
41.39000 21.315
41.40000 13.067
41.41000 24.370
41.42000 21.443
41.43000 15.054
41.44000 18.135
41.45000 18.326
41.46000 18.304
41.47000 17.361
41.48000 24.302
41.49000 20.292
41.50000 18.264
41.51000 21.259
41.52000 23.053
41.53000 26.486
41.54000 13.127
41.55000 18.364
41.56000 16.212
41.57000 21.338
41.58000 26.589
41.59000 18.187
41.60000 18.121
41.61000 12.119
41.62000 21.292
41.63000 14.062
41.64000 15.051
41.65000 19.274
41.66000 21.145
41.67000 14.104
41.68000 13.242
41.69000 19.177
41.70000 18.292
41.71000 23.334
41.72000 17.388
41.73000 16.163
41.74000 20.329
41.75000 15.943
41.76000 24.243
41.77000 15.244
41.78000 19.198
41.79000 14.254
41.80000 19.195
41.81000 19.463
41.82000 12.081
41.83000 14.136
41.84000 16.148
41.85000 15.059
41.86000 16.252
41.87000 15.226
41.88000 17.346
41.89000 18.228
41.90000 21.357
41.91000 28.550
41.92000 21.251
41.93000 21.413
41.94000 12.078
41.95000 19.299
41.96000 15.371
41.97000 19.160
41.98000 13.184
41.99000 16.399
42.00000 20.340
42.01000 21.244
42.02000 18.387
42.03000 13.041
42.04000 14.133
42.05000 15.140
42.06000 19.302
42.07000 24.325
42.08000 14.086
42.09000 21.177
42.10000 18.252
42.11000 20.232
42.12000 17.217
42.13000 19.328
42.14000 20.092
42.15000 17.234
42.16000 6.087
42.17000 24.365
42.18000 17.303
42.19000 16.089
42.20000 17.302
42.21000 17.243
42.22000 21.251
42.23000 23.346
42.24000 20.366
42.25000 12.084
42.26000 22.326
42.27000 16.266
42.28000 22.195
42.29000 24.524
42.30000 22.310
42.31000 17.210
42.32000 19.175
42.33000 24.388
42.34000 20.256
42.35000 18.403
42.36000 21.210
42.37000 15.231
42.38000 18.068
42.39000 25.402
42.40000 19.244
42.41000 16.193
42.42000 20.196
42.43000 20.320
42.44000 22.553
42.45000 27.371
42.46000 16.191
42.47000 16.300
42.48000 12.242
42.49000 13.105
42.50000 10.110
42.51000 19.184
42.52000 29.474
42.53000 26.463
42.54000 21.201
42.55000 15.113
42.56000 21.507
42.57000 18.353
42.58000 14.058
42.59000 15.215
42.60000 17.080
42.61000 12.109
42.62000 14.243
42.63000 17.398
42.64000 18.215
42.65000 17.441
42.66000 18.263
42.67000 20.220
42.68000 23.208
42.69000 27.478
42.70000 11.189
42.71000 16.192
42.72000 20.240
42.73000 28.312
42.74000 19.323
42.75000 16.362
42.76000 19.330
42.77000 24.215
42.78000 16.172
42.79000 20.112
42.80000 22.291
42.81000 22.358
42.82000 11.159
42.83000 22.950
42.84000 19.097
42.85000 23.445
42.86000 22.282
42.87000 11.187
42.88000 16.179
42.89000 17.304
42.90000 21.146
42.91000 20.330
42.92000 11.178
42.93000 11.150
42.94000 27.525
42.95000 16.129
42.96000 8.263
42.97000 23.417
42.98000 17.521
42.99000 17.244
43.00000 23.307
43.01000 20.347
43.02000 17.271
43.03000 22.219
43.04000 16.142
43.05000 16.161
43.06000 19.325
43.07000 21.324
43.08000 10.095
43.09000 17.236
43.10000 20.111
43.11000 16.215
43.12000 22.145
43.13000 14.189
43.14000 8.090
43.15000 21.252
43.16000 15.986
43.17000 18.297
43.18000 24.270
43.19000 22.414
43.20000 13.300
43.21000 11.263
43.22000 15.258
43.23000 18.290
43.24000 19.474
43.25000 16.282
43.26000 21.270
43.27000 15.384
43.28000 20.312
43.29000 25.347
43.30000 15.208
43.31000 14.203
43.32000 17.191
43.33000 26.395
43.34000 14.164
43.35000 13.240
43.36000 16.136
43.37000 19.380
43.38000 25.354
43.39000 19.281
43.40000 10.131
43.41000 21.347
43.42000 23.395
43.43000 17.252
43.44000 14.196
43.45000 18.082
43.46000 17.251
43.47000 6.026
43.48000 19.161
43.49000 26.100
43.50000 14.080
43.51000 17.110
43.52000 15.161
43.53000 18.229
43.54000 9.072
43.55000 14.096
43.56000 9.151
43.57000 22.360
43.58000 15.326
43.59000 13.124
43.60000 20.603
43.61000 25.231
43.62000 15.246
43.63000 16.312
43.64000 18.128
43.65000 26.357
43.66000 13.065
43.67000 14.177
43.68000 11.140
43.69000 20.157
43.70000 16.397
43.71000 13.299
43.72000 25.358
43.73000 11.008
43.74000 24.336
43.75000 16.298
43.76000 21.198
43.77000 11.234
43.78000 17.070
43.79000 23.361
43.80000 23.264
43.81000 25.279
43.82000 24.295
43.83000 17.086
43.84000 17.121
43.85000 23.215
43.86000 24.233
43.87000 20.108
43.88000 15.306
43.89000 20.349
43.90000 13.307
43.91000 23.195
43.92000 17.136
43.93000 19.315
43.94000 12.251
43.95000 15.197
43.96000 22.145
43.97000 18.362
43.98000 20.265
43.99000 22.271
44.00000 15.227
44.01000 11.141
44.02000 17.253
44.03000 20.488
44.04000 17.314
44.05000 17.403
44.06000 19.414
44.07000 18.059
44.08000 19.260
44.09000 13.227
44.10000 13.234
44.11000 22.557
44.12000 18.214
44.13000 12.066
44.14000 13.089
44.15000 24.210
44.16000 21.247
44.17000 20.346
44.18000 17.145
44.19000 24.261
44.20000 18.178
44.21000 19.358
44.22000 10.125
44.23000 20.239
44.24000 11.193
44.25000 21.351
44.26000 17.284
44.27000 20.237
44.28000 16.295
44.29000 18.416
44.30000 23.510
44.31000 24.435
44.32000 17.293
44.33000 22.581
44.34000 21.435
44.35000 14.206
44.36000 22.262
44.37000 20.044
44.38000 27.285
44.39000 19.275
44.40000 15.185
44.41000 15.418
44.42000 22.451
44.43000 21.197
44.44000 21.103
44.45000 13.184
44.46000 13.085
44.47000 26.479
44.48000 19.322
44.49000 19.105
44.50000 17.197
44.51000 17.372
44.52000 14.262
44.53000 15.364
44.54000 23.482
44.55000 13.030
44.56000 22.430
44.57000 18.209
44.58000 20.353
44.59000 19.070
44.60000 23.052
44.61000 15.090
44.62000 17.998
44.63000 20.477
44.64000 23.383
44.65000 24.363
44.66000 24.337
44.67000 20.278
44.68000 10.169
44.69000 16.227
44.70000 29.402
44.71000 17.224
44.72000 19.053
44.73000 22.370
44.74000 26.346
44.75000 22.178
44.76000 11.307
44.77000 13.126
44.78000 20.263
44.79000 19.151
44.80000 17.327
44.81000 14.308
44.82000 18.370
44.83000 20.410
44.84000 15.130
44.85000 22.496
44.86000 14.157
44.87000 11.111
44.88000 21.338
44.89000 10.137
44.90000 14.060
44.91000 20.199
44.92000 14.119
44.93000 17.413
44.94000 27.282
44.95000 23.318
44.96000 23.361
44.97000 22.277
44.98000 27.396
44.99000 19.299
45.00000 22.130
45.01000 26.449
45.02000 17.278
45.03000 17.205
45.04000 15.309
45.05000 18.208
45.06000 20.444
45.07000 26.592
45.08000 24.232
45.09000 17.430
45.10000 16.208
45.11000 18.388
45.12000 15.159
45.13000 24.596
45.14000 12.173
45.15000 23.478
45.16000 17.227
45.17000 14.138
45.18000 22.200
45.19000 9.330
45.20000 23.153
45.21000 15.355
45.22000 17.182
45.23000 13.170
45.24000 21.271
45.25000 25.332
45.26000 17.262
45.27000 18.255
45.28000 20.345
45.29000 19.405
45.30000 16.193
45.31000 19.098
45.32000 17.254
45.33000 19.367
45.34000 19.308
45.35000 22.409
45.36000 19.379
45.37000 17.196
45.38000 20.420
45.39000 29.394
45.40000 16.159
45.41000 16.244
45.42000 14.307
45.43000 22.474
45.44000 26.400
45.45000 19.408
45.46000 21.089
45.47000 18.147
45.48000 19.154
45.49000 23.039
45.50000 20.429
45.51000 17.174
45.52000 13.155
45.53000 18.121
45.54000 11.150
45.55000 10.276
45.56000 18.312
45.57000 27.279
45.58000 19.584
45.59000 23.241
45.60000 19.369
45.61000 15.163
45.62000 16.202
45.63000 19.403
45.64000 17.231
45.65000 20.342
45.66000 16.185
45.67000 15.226
45.68000 16.100
45.69000 25.394
45.70000 15.201
45.71000 14.145
45.72000 24.097
45.73000 17.328
45.74000 9.184
45.75000 17.274
45.76000 20.281
45.77000 21.140
45.78000 18.034
45.79000 16.245
45.80000 19.302
45.81000 19.183
45.82000 23.239
45.83000 14.242
45.84000 16.215
45.85000 21.249
45.86000 29.451
45.87000 14.413
45.88000 20.343
45.89000 14.328
45.90000 23.230
45.91000 19.158
45.92000 23.126
45.93000 17.368
45.94000 15.048
45.95000 18.260
45.96000 20.293
45.97000 17.076
45.98000 17.269
45.99000 20.265
46.00000 10.958
46.01000 14.169
46.02000 17.324
46.03000 19.179
46.04000 13.200
46.05000 13.257
46.06000 19.335
46.07000 11.119
46.08000 18.323
46.09000 14.196
46.10000 13.242
46.11000 21.151
46.12000 24.354
46.13000 13.172
46.14000 18.148
46.15000 18.137
46.16000 16.171
46.17000 18.254
46.18000 18.240
46.19000 16.380
46.20000 20.438
46.21000 13.157
46.22000 16.182
46.23000 26.450
46.24000 14.156
46.25000 19.344
46.26000 15.222
46.27000 14.091
46.28000 23.234
46.29000 18.144
46.30000 25.282
46.31000 17.396
46.32000 11.105
46.33000 20.275
46.34000 16.487
46.35000 13.148
46.36000 17.178
46.37000 22.123
46.38000 18.029
46.39000 14.081
46.40000 19.163
46.41000 17.415
46.42000 28.304
46.43000 18.317
46.44000 13.046
46.45000 14.096
46.46000 15.317
46.47000 16.415
46.48000 22.167
46.49000 22.332
46.50000 19.174
46.51000 21.310
46.52000 16.239
46.53000 16.039
46.54000 22.411
46.55000 17.253
46.56000 27.171
46.57000 18.174
46.58000 21.110
46.59000 8.233
46.60000 16.182
46.61000 18.141
46.62000 17.427
46.63000 19.984
46.64000 20.132
46.65000 19.295
46.66000 13.197
46.67000 23.299
46.68000 18.413
46.69000 19.398
46.70000 21.127
46.71000 18.328
46.72000 26.312
46.73000 23.261
46.74000 15.332
46.75000 10.084
46.76000 25.302
46.77000 18.254
46.78000 24.346
46.79000 17.282
46.80000 18.198
46.81000 18.213
46.82000 20.362
46.83000 13.222
46.84000 18.229
46.85000 14.300
46.86000 10.130
46.87000 20.084
46.88000 14.172
46.89000 22.313
46.90000 24.205
46.91000 24.423
46.92000 10.246
46.93000 13.358
46.94000 13.074
46.95000 15.166
46.96000 18.173
46.97000 16.114
46.98000 23.009
46.99000 18.177
47.00000 14.264
47.01000 24.467
47.02000 15.253
47.03000 11.194
47.04000 13.172
47.05000 16.375
47.06000 14.121
47.07000 14.219
47.08000 16.131
47.09000 13.061
47.10000 21.312
47.11000 24.262
47.12000 17.121
47.13000 16.125
47.14000 17.120
47.15000 20.258
47.16000 25.448
47.17000 13.063
47.18000 16.154
47.19000 11.121
47.20000 16.127
47.21000 15.147
47.22000 14.140
47.23000 12.066
47.24000 20.308
47.25000 16.227
47.26000 20.077
47.27000 20.370
47.28000 16.296
47.29000 24.209
47.30000 15.329
47.31000 24.427
47.32000 13.290
47.33000 17.270
47.34000 9.098
47.35000 18.254
47.36000 14.204
47.37000 13.112
47.38000 19.415
47.39000 22.351
47.40000 16.264
47.41000 16.385
47.42000 12.018
47.43000 24.473
47.44000 21.284
47.45000 21.471
47.46000 12.248
47.47000 16.393
47.48000 12.074
47.49000 19.307
47.50000 14.262
47.51000 18.281
47.52000 15.167
47.53000 18.139
47.54000 23.245
47.55000 18.213
47.56000 17.237
47.57000 19.255
47.58000 18.348
47.59000 10.100
47.60000 13.083
47.61000 13.201
47.62000 23.538
47.63000 16.218
47.64000 16.480
47.65000 13.023
47.66000 19.214
47.67000 14.314
47.68000 17.107
47.69000 15.154
47.70000 16.226
47.71000 14.210
47.72000 15.181
47.73000 21.087
47.74000 19.281
47.75000 22.311
47.76000 27.236
47.77000 10.096
47.78000 13.977
47.79000 14.118
47.80000 13.116
47.81000 12.153
47.82000 19.293
47.83000 26.385
47.84000 25.150
47.85000 18.121
47.86000 18.133
47.87000 12.210
47.88000 18.231
47.89000 17.172
47.90000 15.148
47.91000 15.134
47.92000 24.223
47.93000 28.337
47.94000 16.295
47.95000 24.398
47.96000 13.077
47.97000 22.391
47.98000 18.012
47.99000 26.745
48.00000 14.052
48.01000 12.146
48.02000 16.273
48.03000 16.301
48.04000 18.376
48.05000 6.027
48.06000 13.165
48.07000 13.073
48.08000 11.167
48.09000 12.313
48.10000 19.166
48.11000 16.100
48.12000 23.257
48.13000 13.057
48.14000 23.388
48.15000 25.430
48.16000 19.456
48.17000 18.328
48.18000 18.271
48.19000 21.176
48.20000 21.314
48.21000 19.396
48.22000 11.254
48.23000 22.135
48.24000 14.103
48.25000 17.145
48.26000 15.354
48.27000 12.248
48.28000 11.152
48.29000 14.177
48.30000 9.114
48.31000 13.254
48.32000 19.271
48.33000 17.079
48.34000 24.362
48.35000 13.180
48.36000 18.329
48.37000 8.243
48.38000 20.241
48.39000 16.223
48.40000 13.251
48.41000 10.064
48.42000 20.056
48.43000 9.954
48.44000 19.403
48.45000 22.298
48.46000 22.154
48.47000 9.171
48.48000 16.344
48.49000 10.114
48.50000 16.123
48.51000 12.246
48.52000 17.996
48.53000 18.224
48.54000 22.596
48.55000 17.242
48.56000 20.328
48.57000 13.168
48.58000 15.264
48.59000 18.174
48.60000 18.309
48.61000 12.070
48.62000 20.317
48.63000 22.198
48.64000 19.368
48.65000 16.211
48.66000 16.455
48.67000 14.258
48.68000 10.090
48.69000 20.052
48.70000 18.140
48.71000 18.326
48.72000 18.190
48.73000 26.213
48.74000 15.199
48.75000 13.433
48.76000 22.174
48.77000 9.027
48.78000 10.092
48.79000 16.456
48.80000 25.265
48.81000 19.109
48.82000 18.180
48.83000 16.178
48.84000 15.320
48.85000 14.132
48.86000 17.351
48.87000 17.324
48.88000 15.049
48.89000 15.183
48.90000 16.124
48.91000 9.240
48.92000 14.227
48.93000 21.353
48.94000 10.251
48.95000 21.303
48.96000 14.246
48.97000 17.300
48.98000 18.361
48.99000 19.257
49.00000 13.146
49.01000 12.117
49.02000 23.360
49.03000 14.159
49.04000 16.304
49.05000 26.101
49.06000 20.293
49.07000 22.133
49.08000 17.101
49.09000 21.129
49.10000 18.071
49.11000 18.240
49.12000 14.126
49.13000 16.192
49.14000 23.294
49.15000 10.146
49.16000 14.310
49.17000 19.193
49.18000 18.155
49.19000 9.126
49.20000 13.358
49.21000 15.058
49.22000 18.426
49.23000 11.029
49.24000 9.108
49.25000 6.947
49.26000 17.208
49.27000 21.355
49.28000 15.201
49.29000 22.180
49.30000 13.206
49.31000 27.205
49.32000 25.375
49.33000 20.312
49.34000 19.168
49.35000 17.309
49.36000 12.072
49.37000 8.079
49.38000 18.311
49.39000 15.268
49.40000 13.274
49.41000 25.498
49.42000 22.204
49.43000 14.105
49.44000 17.232
49.45000 11.171
49.46000 18.991
49.47000 12.298
49.48000 10.314
49.49000 13.181
49.50000 21.424
49.51000 16.277
49.52000 10.026
49.53000 11.270
49.54000 20.264
49.55000 18.173
49.56000 16.253
49.57000 12.078
49.58000 20.138
49.59000 20.200
49.60000 18.086
49.61000 17.216
49.62000 16.123
49.63000 13.235
49.64000 26.373
49.65000 15.336
49.66000 11.121
49.67000 18.311
49.68000 21.439
49.69000 13.069
49.70000 12.298
49.71000 10.095
49.72000 12.112
49.73000 13.131
49.74000 13.128
49.75000 19.292
49.76000 10.980
49.77000 11.086
49.78000 16.110
49.79000 12.033
49.80000 20.286
49.81000 22.319
49.82000 12.098
49.83000 15.348
49.84000 17.026
49.85000 19.259
49.86000 18.144
49.87000 15.270
49.88000 20.315
49.89000 17.261
49.90000 16.147
49.91000 11.175
49.92000 16.187
49.93000 15.170
49.94000 17.233
49.95000 12.172
49.96000 18.104
49.97000 19.477
49.98000 16.196
49.99000 18.314
50.00000 12.086
50.01000 13.061
50.02000 15.110
50.03000 18.240
50.04000 10.219
50.05000 19.204
50.06000 22.464
50.07000 17.295
50.08000 10.257
50.09000 10.193
50.10000 9.032
50.11000 9.162
50.12000 12.025
50.13000 16.120
50.14000 17.022
50.15000 15.294
50.16000 15.207
50.17000 16.260
50.18000 17.080
50.19000 10.118
50.20000 14.193
50.21000 14.207
50.22000 13.155
50.23000 8.084
50.24000 11.231
50.25000 18.170
50.26000 6.171
50.27000 11.208
50.28000 10.120
50.29000 18.388
50.30000 12.299
50.31000 12.118
50.32000 11.182
50.33000 10.183
50.34000 13.111
50.35000 16.294
50.36000 14.160
50.37000 18.167
50.38000 16.313
50.39000 15.203
50.40000 18.201
50.41000 16.312
50.42000 16.019
50.43000 8.144
50.44000 10.182
50.45000 14.209
50.46000 12.186
50.47000 16.249
50.48000 14.333
50.49000 15.183
50.50000 15.228
50.51000 13.186
50.52000 22.144
50.53000 17.190
50.54000 20.258
50.55000 14.220
50.56000 13.068
50.57000 12.209
50.58000 20.469
50.59000 13.208
50.60000 13.185
50.61000 13.119
50.62000 15.148
50.63000 28.461
50.64000 13.165
50.65000 11.073
50.66000 14.129
50.67000 16.178
50.68000 14.197
50.69000 14.250
50.70000 17.187
50.71000 16.137
50.72000 16.272
50.73000 15.073
50.74000 16.200
50.75000 18.235
50.76000 15.306
50.77000 15.337
50.78000 13.188
50.79000 10.285
50.80000 16.285
50.81000 19.230
50.82000 6.118
50.83000 14.194
50.84000 17.295
50.85000 16.084
50.86000 16.042
50.87000 14.172
50.88000 12.250
50.89000 7.132
50.90000 16.366
50.91000 17.103
50.92000 14.163
50.93000 20.023
50.94000 16.278
50.95000 14.102
50.96000 14.126
50.97000 19.316
50.98000 23.415
50.99000 11.068
51.00000 15.194
51.01000 15.199
51.02000 12.142
51.03000 18.117
51.04000 11.104
51.05000 17.301
51.06000 20.366
51.07000 17.176
51.08000 11.150
51.09000 14.102
51.10000 18.548
51.11000 16.321
51.12000 10.208
51.13000 22.302
51.14000 10.170
51.15000 11.252
51.16000 10.153
51.17000 11.081
51.18000 17.272
51.19000 10.145
51.20000 12.281
51.21000 16.065
51.22000 9.302
51.23000 22.142
51.24000 13.334
51.25000 11.151
51.26000 15.241
51.27000 9.190
51.28000 18.275
51.29000 10.992
51.30000 11.099
51.31000 16.432
51.32000 20.200
51.33000 12.101
51.34000 23.369
51.35000 14.201
51.36000 15.123
51.37000 17.326
51.38000 16.150
51.39000 14.149
51.40000 18.168
51.41000 14.296
51.42000 16.124
51.43000 16.990
51.44000 20.158
51.45000 14.079
51.46000 14.266
51.47000 18.122
51.48000 17.364
51.49000 21.194
51.50000 12.024
51.51000 9.049
51.52000 11.173
51.53000 10.099
51.54000 15.169
51.55000 11.988
51.56000 11.098
51.57000 8.956
51.58000 11.107
51.59000 17.223
51.60000 9.032
51.61000 16.246
51.62000 19.214
51.63000 17.197
51.64000 20.280
51.65000 18.197
51.66000 19.440
51.67000 23.195
51.68000 16.247
51.69000 12.123
51.70000 12.174
51.71000 22.201
51.72000 17.146
51.73000 16.058
51.74000 16.208
51.75000 13.115
51.76000 12.241
51.77000 15.235
51.78000 14.171
51.79000 12.322
51.80000 14.320
51.81000 10.139
51.82000 15.191
51.83000 10.180
51.84000 17.127
51.85000 17.242
51.86000 13.207
51.87000 14.332
51.88000 19.446
51.89000 14.066
51.90000 14.079
51.91000 12.267
51.92000 17.192
51.93000 9.057
51.94000 11.266
51.95000 15.243
51.96000 16.295
51.97000 11.118
51.98000 17.228
51.99000 19.181
52.00000 13.076
52.01000 13.211
52.02000 14.042
52.03000 15.136
52.04000 16.332
52.05000 8.153
52.06000 21.315
52.07000 14.173
52.08000 13.208
52.09000 15.120
52.10000 20.448
52.11000 16.143
52.12000 6.023
52.13000 13.144
52.14000 21.368
52.15000 19.267
52.16000 15.241
52.17000 15.278
52.18000 17.236
52.19000 10.200
52.20000 15.342
52.21000 7.127
52.22000 6.997
52.23000 8.115
52.24000 10.038
52.25000 20.403
52.26000 18.431
52.27000 10.142
52.28000 12.221
52.29000 18.421
52.30000 13.037
52.31000 10.109
52.32000 10.192
52.33000 16.082
52.34000 11.242
52.35000 13.238
52.36000 17.269
52.37000 12.212
52.38000 20.247
52.39000 9.949
52.40000 20.371
52.41000 21.121
52.42000 24.258
52.43000 21.257
52.44000 12.299
52.45000 12.025
52.46000 5.163
52.47000 16.317
52.48000 9.074
52.49000 18.230
52.50000 20.191
52.51000 18.296
52.52000 15.114
52.53000 12.118
52.54000 15.177
52.55000 10.087
52.56000 14.158
52.57000 13.139
52.58000 10.170
52.59000 15.242
52.60000 10.194
52.61000 23.437
52.62000 12.229
52.63000 9.070
52.64000 11.060
52.65000 21.413
52.66000 19.174
52.67000 21.276
52.68000 20.199
52.69000 14.253
52.70000 10.301
52.71000 14.145
52.72000 16.323
52.73000 17.263
52.74000 9.098
52.75000 6.998
52.76000 25.258
52.77000 11.084
52.78000 12.344
52.79000 21.357
52.80000 12.120
52.81000 13.062
52.82000 12.166
52.83000 18.260
52.84000 19.268
52.85000 9.978
52.86000 16.248
52.87000 13.127
52.88000 7.100
52.89000 6.010
52.90000 21.149
52.91000 8.055
52.92000 10.081
52.93000 11.139
52.94000 12.195
52.95000 12.167
52.96000 9.142
52.97000 16.219
52.98000 23.234
52.99000 12.954
53.00000 16.046
53.01000 12.130
53.02000 10.994
53.03000 13.083
53.04000 13.290
53.05000 18.290
53.06000 14.242
53.07000 13.155
53.08000 22.267
53.09000 7.973
53.10000 8.121
53.11000 12.119
53.12000 12.317
53.13000 11.054
53.14000 20.182
53.15000 18.228
53.16000 20.279
53.17000 19.171
53.18000 13.222
53.19000 15.175
53.20000 15.250
53.21000 12.137
53.22000 19.162
53.23000 12.160
53.24000 9.210
53.25000 11.079
53.26000 13.142
53.27000 13.161
53.28000 12.261
53.29000 7.976
53.30000 19.179
53.31000 16.182
53.32000 13.316
53.33000 8.136
53.34000 12.232
53.35000 13.021
53.36000 14.352
53.37000 23.305
53.38000 13.239
53.39000 11.061
53.40000 15.043
53.41000 15.236
53.42000 8.034
53.43000 12.071
53.44000 6.969
53.45000 16.101
53.46000 13.041
53.47000 8.129
53.48000 10.104
53.49000 17.239
53.50000 11.051
53.51000 12.092
53.52000 14.158
53.53000 12.089
53.54000 12.168
53.55000 14.204
53.56000 15.186
53.57000 14.086
53.58000 13.168
53.59000 9.052
53.60000 17.277
53.61000 10.083
53.62000 13.913
53.63000 18.211
53.64000 15.345
53.65000 15.269
53.66000 14.171
53.67000 14.127
53.68000 9.054
53.69000 16.143
53.70000 13.259
53.71000 14.093
53.72000 15.459
53.73000 13.298
53.74000 16.067
53.75000 17.312
53.76000 16.194
53.77000 11.165
53.78000 12.071
53.79000 10.139
53.80000 22.343
53.81000 18.314
53.82000 7.024
53.83000 16.432
53.84000 17.212
53.85000 16.117
53.86000 12.155
53.87000 12.358
53.88000 10.177
53.89000 20.306
53.90000 12.243
53.91000 17.350
53.92000 16.131
53.93000 12.184
53.94000 7.106
53.95000 13.184
53.96000 7.986
53.97000 13.184
53.98000 4.971
53.99000 13.322
54.00000 26.321
54.01000 7.095
54.02000 12.025
54.03000 11.197
54.04000 11.274
54.05000 18.529
54.06000 10.089
54.07000 19.203
54.08000 8.216
54.09000 10.037
54.10000 13.250
54.11000 15.119
54.12000 16.260
54.13000 12.209
54.14000 11.117
54.15000 13.119
54.16000 7.020
54.17000 18.325
54.18000 16.393
54.19000 7.043
54.20000 10.128
54.21000 6.084
54.22000 19.492
54.23000 21.447
54.24000 9.113
54.25000 13.096
54.26000 15.253
54.27000 6.042
54.28000 9.199
54.29000 12.996
54.30000 7.033
54.31000 14.113
54.32000 10.116
54.33000 15.169
54.34000 16.268
54.35000 19.515
54.36000 11.194
54.37000 9.252
54.38000 9.074
54.39000 8.179
54.40000 15.118
54.41000 11.157
54.42000 13.164
54.43000 15.357
54.44000 14.186
54.45000 9.141
54.46000 19.271
54.47000 10.163
54.48000 14.344
54.49000 13.132
54.50000 14.087
54.51000 20.206
54.52000 10.229
54.53000 12.022
54.54000 13.110
54.55000 9.196
54.56000 13.153
54.57000 18.320
54.58000 15.220
54.59000 13.134
54.60000 11.108
54.61000 12.278
54.62000 10.035
54.63000 16.191
54.64000 10.030
54.65000 13.078
54.66000 8.148
54.67000 10.271
54.68000 19.181
54.69000 13.215
54.70000 20.075
54.71000 13.128
54.72000 16.293
54.73000 16.292
54.74000 13.167
54.75000 17.301
54.76000 13.133
54.77000 9.099
54.78000 10.083
54.79000 17.512
54.80000 6.135
54.81000 13.028
54.82000 7.198
54.83000 13.155
54.84000 10.049
54.85000 10.127
54.86000 17.265
54.87000 9.067
54.88000 20.069
54.89000 6.126
54.90000 13.120
54.91000 9.034
54.92000 16.274
54.93000 13.263
54.94000 7.040
54.95000 17.151
54.96000 16.992
54.97000 10.156
54.98000 15.191
54.99000 15.128
55.00000 18.182
55.01000 15.319
55.02000 8.043
55.03000 9.122
55.04000 9.154
55.05000 10.157
55.06000 12.177
55.07000 9.157
55.08000 8.161
55.09000 13.397
55.10000 14.210
55.11000 15.178
55.12000 13.137
55.13000 13.058
55.14000 13.143
55.15000 12.256
55.16000 17.327
55.17000 17.306
55.18000 12.239
55.19000 11.128
55.20000 17.238
55.21000 17.165
55.22000 17.204
55.23000 10.008
55.24000 8.104
55.25000 11.005
55.26000 16.192
55.27000 7.130
55.28000 11.182
55.29000 9.082
55.30000 8.011
55.31000 16.213
55.32000 15.218
55.33000 7.019
55.34000 14.353
55.35000 13.129
55.36000 16.168
55.37000 17.234
55.38000 17.372
55.39000 16.268
55.40000 9.007
55.41000 19.332
55.42000 15.309
55.43000 14.286
55.44000 12.359
55.45000 6.111
55.46000 12.099
55.47000 14.111
55.48000 8.174
55.49000 9.097
55.50000 12.294
55.51000 11.139
55.52000 17.306
55.53000 8.997
55.54000 11.045
55.55000 8.217
55.56000 15.147
55.57000 12.203
55.58000 16.364
55.59000 14.364
55.60000 15.205
55.61000 16.185
55.62000 20.103
55.63000 12.094
55.64000 8.189
55.65000 10.150
55.66000 11.195
55.67000 16.263
55.68000 16.322
55.69000 9.205
55.70000 10.131
55.71000 10.064
55.72000 12.168
55.73000 15.288
55.74000 12.282
55.75000 7.003
55.76000 6.170
55.77000 12.070
55.78000 7.966
55.79000 15.254
55.80000 11.182
55.81000 12.145
55.82000 14.250
55.83000 8.123
55.84000 10.001
55.85000 13.049
55.86000 10.326
55.87000 12.156
55.88000 18.434
55.89000 14.246
55.90000 14.285
55.91000 6.062
55.92000 10.018
55.93000 18.305
55.94000 10.186
55.95000 17.231
55.96000 17.367
55.97000 11.284
55.98000 13.226
55.99000 12.241
56.00000 9.088
56.01000 13.137
56.02000 8.161
56.03000 10.195
56.04000 18.227
56.05000 8.035
56.06000 11.244
56.07000 12.194
56.08000 13.076
56.09000 13.312
56.10000 13.294
56.11000 10.100
56.12000 11.241
56.13000 13.065
56.14000 9.964
56.15000 14.226
56.16000 15.258
56.17000 9.026
56.18000 8.091
56.19000 8.050
56.20000 7.157
56.21000 11.104
56.22000 10.087
56.23000 10.076
56.24000 15.168
56.25000 10.103
56.26000 16.084
56.27000 8.249
56.28000 17.260
56.29000 14.355
56.30000 8.948
56.31000 9.110
56.32000 12.248
56.33000 21.227
56.34000 7.189
56.35000 13.279
56.36000 13.112
56.37000 8.141
56.38000 11.081
56.39000 16.252
56.40000 11.239
56.41000 12.057
56.42000 12.009
56.43000 8.087
56.44000 16.148
56.45000 8.091
56.46000 7.205
56.47000 8.097
56.48000 6.097
56.49000 14.194
56.50000 16.280
56.51000 12.184
56.52000 15.154
56.53000 13.323
56.54000 13.257
56.55000 11.069
56.56000 3.942
56.57000 10.189
56.58000 10.220
56.59000 6.080
56.60000 5.027
56.61000 10.186
56.62000 15.090
56.63000 10.058
56.64000 6.078
56.65000 10.261
56.66000 12.132
56.67000 15.096
56.68000 13.192
56.69000 16.096
56.70000 10.151
56.71000 10.148
56.72000 10.133
56.73000 7.079
56.74000 8.076
56.75000 8.980
56.76000 7.115
56.77000 14.317
56.78000 8.004
56.79000 14.035
56.80000 11.167
56.81000 12.280
56.82000 10.083
56.83000 8.099
56.84000 6.125
56.85000 10.161
56.86000 11.116
56.87000 8.097
56.88000 16.145
56.89000 8.125
56.90000 15.252
56.91000 4.091
56.92000 15.220
56.93000 11.063
56.94000 8.083
56.95000 17.119
56.96000 19.141
56.97000 10.072
56.98000 15.052
56.99000 10.136
57.00000 18.217
57.01000 17.241
57.02000 12.273
57.03000 12.118
57.04000 15.406
57.05000 8.072
57.06000 10.113
57.07000 11.075
57.08000 14.160
57.09000 11.294
57.10000 15.156
57.11000 11.192
57.12000 13.239
57.13000 9.060
57.14000 16.239
57.15000 9.091
57.16000 11.280
57.17000 7.119
57.18000 16.148
57.19000 5.033
57.20000 8.941
57.21000 17.303
57.22000 11.197
57.23000 13.185
57.24000 13.017
57.25000 16.089
57.26000 8.202
57.27000 12.181
57.28000 11.049
57.29000 8.111
57.30000 15.236
57.31000 15.259
57.32000 11.140
57.33000 11.160
57.34000 9.105
57.35000 11.263
57.36000 4.068
57.37000 20.409
57.38000 11.043
57.39000 18.212
57.40000 9.151
57.41000 12.244
57.42000 11.147
57.43000 9.215
57.44000 11.246
57.45000 14.085
57.46000 10.055
57.47000 14.407
57.48000 15.198
57.49000 4.109
57.50000 16.224
57.51000 12.146
57.52000 5.084
57.53000 5.030
57.54000 12.271
57.55000 10.094
57.56000 14.337
57.57000 9.962
57.58000 13.166
57.59000 8.116
57.60000 10.178
57.61000 15.116
57.62000 14.018
57.63000 13.327
57.64000 16.311
57.65000 17.298
57.66000 11.182
57.67000 11.103
57.68000 15.212
57.69000 16.184
57.70000 6.029
57.71000 8.186
57.72000 8.073
57.73000 9.128
57.74000 8.135
57.75000 14.344
57.76000 14.126
57.77000 5.996
57.78000 8.117
57.79000 11.128
57.80000 9.050
57.81000 11.051
57.82000 15.150
57.83000 13.205
57.84000 4.982
57.85000 6.076
57.86000 7.987
57.87000 13.058
57.88000 7.150
57.89000 16.363
57.90000 7.991
57.91000 2.995
57.92000 7.052
57.93000 9.181
57.94000 9.014
57.95000 9.123
57.96000 12.274
57.97000 10.048
57.98000 6.083
57.99000 12.045
58.00000 4.971
58.01000 10.129
58.02000 10.078
58.03000 13.159
58.04000 15.250
58.05000 13.981
58.06000 11.149
58.07000 7.110
58.08000 13.239
58.09000 12.134
58.10000 11.239
58.11000 8.141
58.12000 9.096
58.13000 10.045
58.14000 16.196
58.15000 5.985
58.16000 10.061
58.17000 8.033
58.18000 12.201
58.19000 8.103
58.20000 14.353
58.21000 13.141
58.22000 3.003
58.23000 15.210
58.24000 15.192
58.25000 7.986
58.26000 8.960
58.27000 10.131
58.28000 12.100
58.29000 12.095
58.30000 12.306
58.31000 7.046
58.32000 11.096
58.33000 16.155
58.34000 7.112
58.35000 5.143
58.36000 9.088
58.37000 5.091
58.38000 5.039
58.39000 8.943
58.40000 15.056
58.41000 6.098
58.42000 9.172
58.43000 9.144
58.44000 10.120
58.45000 8.119
58.46000 4.096
58.47000 10.164
58.48000 12.200
58.49000 14.181
58.50000 6.985
58.51000 13.103
58.52000 11.450
58.53000 7.172
58.54000 10.092
58.55000 9.117
58.56000 8.075
58.57000 10.181
58.58000 6.161
58.59000 10.282
58.60000 12.144
58.61000 15.081
58.62000 11.079
58.63000 9.155
58.64000 12.261
58.65000 11.208
58.66000 14.185
58.67000 7.075
58.68000 12.176
58.69000 14.065
58.70000 7.197
58.71000 11.107
58.72000 8.090
58.73000 6.012
58.74000 9.132
58.75000 12.356
58.76000 16.059
58.77000 12.279
58.78000 9.175
58.79000 4.037
58.80000 8.092
58.81000 6.058
58.82000 13.248
58.83000 12.120
58.84000 6.112
58.85000 9.013
58.86000 8.064
58.87000 6.149
58.88000 8.170
58.89000 12.124
58.90000 10.098
58.91000 14.172
58.92000 9.078
58.93000 4.201
58.94000 6.992
58.95000 2.008
58.96000 12.250
58.97000 10.086
58.98000 7.097
58.99000 8.127
59.00000 7.137
59.01000 6.139
59.02000 7.064
59.03000 13.175
59.04000 9.042
59.05000 5.121
59.06000 8.070
59.07000 11.149
59.08000 3.148
59.09000 11.141
59.10000 6.062
59.11000 11.028
59.12000 2.988
59.13000 9.144
59.14000 11.061
59.15000 8.159
59.16000 8.049
59.17000 10.070
59.18000 9.196
59.19000 10.126
59.20000 7.995
59.21000 11.196
59.22000 5.022
59.23000 4.134
59.24000 11.112
59.25000 6.133
59.26000 12.104
59.27000 9.105
59.28000 9.085
59.29000 7.028
59.30000 2.990
59.31000 9.051
59.32000 10.066
59.33000 3.999
59.34000 8.173
59.35000 6.175
59.36000 14.140
59.37000 11.038
59.38000 10.062
59.39000 9.067
59.40000 12.167
59.41000 13.279
59.42000 10.102
59.43000 16.182
59.44000 13.061
59.45000 10.215
59.46000 7.128
59.47000 8.057
59.48000 4.972
59.49000 11.101
59.50000 3.076
59.51000 10.140
59.52000 8.233
59.53000 8.077
59.54000 14.198
59.55000 8.028
59.56000 9.112
59.57000 7.106
59.58000 13.179
59.59000 11.140
59.60000 7.009
59.61000 11.132
59.62000 9.182
59.63000 13.129
59.64000 7.039
59.65000 13.208
59.66000 17.326
59.67000 15.115
59.68000 14.106
59.69000 12.147
59.70000 16.263
59.71000 11.107
59.72000 8.291
59.73000 8.070
59.74000 7.084
59.75000 3.068
59.76000 6.984
59.77000 6.157
59.78000 16.244
59.79000 11.164
59.80000 9.088
59.81000 13.111
59.82000 6.197
59.83000 10.202
59.84000 9.062
59.85000 16.208
59.86000 9.112
59.87000 8.027
59.88000 8.192
59.89000 0.970
59.90000 6.067
59.91000 9.132
59.92000 7.068
59.93000 10.060
59.94000 7.038
59.95000 16.331
59.96000 9.135
59.97000 8.098
59.98000 13.048
59.99000 5.933
60.00000 9.098
60.01000 5.171
60.02000 6.016
60.03000 6.987
60.04000 2.039
60.05000 11.120
60.06000 11.182
60.07000 3.029
60.08000 8.078
60.09000 13.278
60.10000 7.182
60.11000 9.107
60.12000 6.064
60.13000 13.120
60.14000 6.150
60.15000 6.115
60.16000 5.183
60.17000 15.185
60.18000 6.162
60.19000 10.099
60.20000 7.121
60.21000 10.198
60.22000 5.053
60.23000 14.077
60.24000 7.068
60.25000 10.024
60.26000 3.088
60.27000 11.327
60.28000 11.097
60.29000 7.160
60.30000 10.058
60.31000 6.079
60.32000 7.036
60.33000 2.987
60.34000 11.155
60.35000 8.086
60.36000 11.066
60.37000 10.095
60.38000 6.028
60.39000 6.091
60.40000 11.238
60.41000 9.997
60.42000 11.212
60.43000 10.237
60.44000 8.154
60.45000 10.161
60.46000 6.192
60.47000 7.031
60.48000 7.119
60.49000 9.162
60.50000 10.061
60.51000 7.096
60.52000 8.006
60.53000 10.165
60.54000 17.089
60.55000 7.032
60.56000 11.210
60.57000 6.088
60.58000 4.965
60.59000 10.101
60.60000 11.065
60.61000 8.071
60.62000 10.068
60.63000 11.220
60.64000 10.161
60.65000 10.154
60.66000 6.093
60.67000 11.102
60.68000 18.188
60.69000 8.227
60.70000 9.098
60.71000 11.178
60.72000 7.082
60.73000 8.035
60.74000 2.065
60.75000 7.146
60.76000 7.131
60.77000 9.195
60.78000 11.046
60.79000 6.082
60.80000 7.107
60.81000 8.041
60.82000 8.088
60.83000 6.011
60.84000 4.029
60.85000 8.084
60.86000 8.108
60.87000 5.055
60.88000 7.029
60.89000 10.091
60.90000 6.136
60.91000 9.220
60.92000 8.093
60.93000 5.078
60.94000 11.090
60.95000 14.279
60.96000 6.129
60.97000 8.982
60.98000 5.034
60.99000 13.115
61.00000 5.131
61.01000 9.183
61.02000 4.038
61.03000 9.053
61.04000 6.072
61.05000 7.214
61.06000 7.004
61.07000 7.031
61.08000 10.163
61.09000 9.209
61.10000 9.199
61.11000 7.085
61.12000 7.124
61.13000 4.978
61.14000 11.109
61.15000 10.996
61.16000 8.167
61.17000 7.064
61.18000 5.035
61.19000 4.103
61.20000 6.092
61.21000 11.869
61.22000 10.063
61.23000 4.129
61.24000 4.022
61.25000 11.019
61.26000 9.069
61.27000 8.160
61.28000 13.124
61.29000 3.041
61.30000 7.041
61.31000 7.054
61.32000 9.156
61.33000 9.263
61.34000 7.094
61.35000 11.142
61.36000 5.101
61.37000 7.955
61.38000 6.115
61.39000 10.133
61.40000 4.124
61.41000 14.084
61.42000 14.076
61.43000 11.169
61.44000 7.032
61.45000 7.179
61.46000 9.105
61.47000 8.013
61.48000 7.155
61.49000 11.183
61.50000 9.089
61.51000 8.203
61.52000 6.075
61.53000 8.209
61.54000 5.094
61.55000 9.135
61.56000 9.205
61.57000 6.089
61.58000 8.154
61.59000 8.130
61.60000 8.072
61.61000 9.133
61.62000 9.203
61.63000 5.071
61.64000 7.137
61.65000 9.051
61.66000 9.198
61.67000 6.049
61.68000 8.023
61.69000 10.126
61.70000 9.180
61.71000 12.352
61.72000 13.260
61.73000 5.106
61.74000 8.031
61.75000 4.130
61.76000 9.126
61.77000 6.099
61.78000 5.019
61.79000 10.218
61.80000 9.199
61.81000 5.029
61.82000 9.159
61.83000 4.965
61.84000 7.165
61.85000 6.065
61.86000 10.267
61.87000 5.095
61.88000 8.055
61.89000 10.085
61.90000 9.073
61.91000 12.236
61.92000 11.276
61.93000 5.040
61.94000 7.047
61.95000 4.015
61.96000 5.051
61.97000 10.042
61.98000 9.037
61.99000 3.946
62.00000 12.065
62.01000 11.261
62.02000 12.266
62.03000 5.063
62.04000 10.180
62.05000 5.979
62.06000 8.032
62.07000 6.134
62.08000 8.142
62.09000 10.073
62.10000 5.076
62.11000 14.423
62.12000 11.119
62.13000 7.178
62.14000 5.071
62.15000 10.052
62.16000 8.120
62.17000 9.119
62.18000 10.135
62.19000 9.246
62.20000 7.109
62.21000 4.144
62.22000 4.072
62.23000 9.218
62.24000 3.049
62.25000 9.165
62.26000 7.252
62.27000 7.075
62.28000 11.245
62.29000 11.102
62.30000 5.050
62.31000 11.049
62.32000 8.132
62.33000 8.020
62.34000 5.098
62.35000 6.122
62.36000 8.111
62.37000 2.967
62.38000 10.106
62.39000 6.934
62.40000 6.006
62.41000 7.021
62.42000 10.121
62.43000 10.052
62.44000 6.080
62.45000 5.025
62.46000 9.100
62.47000 4.069
62.48000 9.944
62.49000 5.064
62.50000 4.059
62.51000 10.071
62.52000 3.087
62.53000 10.078
62.54000 8.069
62.55000 10.050
62.56000 10.997
62.57000 5.168
62.58000 10.047
62.59000 7.131
62.60000 5.121
62.61000 9.101
62.62000 10.196
62.63000 11.174
62.64000 10.190
62.65000 7.134
62.66000 6.075
62.67000 6.120
62.68000 10.080
62.69000 4.031
62.70000 9.120
62.71000 4.088
62.72000 6.021
62.73000 6.073
62.74000 6.092
62.75000 7.030
62.76000 9.144
62.77000 10.055
62.78000 15.361
62.79000 2.040
62.80000 10.154
62.81000 13.198
62.82000 6.158
62.83000 5.999
62.84000 12.074
62.85000 10.100
62.86000 5.975
62.87000 5.104
62.88000 8.057
62.89000 9.038
62.90000 3.046
62.91000 7.996
62.92000 6.982
62.93000 2.006
62.94000 9.103
62.95000 4.057
62.96000 7.012
62.97000 2.993
62.98000 5.038
62.99000 12.194
63.00000 6.081
63.01000 8.017
63.02000 3.065
63.03000 13.159
63.04000 5.073
63.05000 10.098
63.06000 7.163
63.07000 11.111
63.08000 3.998
63.09000 6.058
63.10000 8.053
63.11000 4.109
63.12000 12.130
63.13000 8.044
63.14000 4.078
63.15000 6.019
63.16000 8.056
63.17000 8.114
63.18000 12.965
63.19000 11.157
63.20000 3.016
63.21000 10.215
63.22000 0.977
63.23000 4.031
63.24000 6.030
63.25000 8.096
63.26000 12.261
63.27000 4.039
63.28000 9.203
63.29000 8.151
63.30000 8.097
63.31000 6.023
63.32000 10.223
63.33000 7.033
63.34000 5.101
63.35000 9.169
63.36000 6.063
63.37000 5.100
63.38000 13.099
63.39000 13.252
63.40000 6.131
63.41000 5.085
63.42000 8.058
63.43000 6.144
63.44000 10.065
63.45000 9.073
63.46000 4.980
63.47000 12.192
63.48000 12.215
63.49000 7.990
63.50000 10.147
63.51000 10.159
63.52000 8.189
63.53000 9.976
63.54000 9.187
63.55000 9.169
63.56000 3.957
63.57000 7.091
63.58000 11.171
63.59000 11.264
63.60000 9.079
63.61000 6.085
63.62000 6.047
63.63000 12.160
63.64000 9.011
63.65000 5.021
63.66000 10.197
63.67000 9.173
63.68000 10.207
63.69000 7.113
63.70000 3.006
63.71000 8.205
63.72000 4.006
63.73000 4.069
63.74000 8.093
63.75000 7.182
63.76000 11.018
63.77000 7.005
63.78000 7.075
63.79000 9.202
63.80000 9.183
63.81000 8.148
63.82000 7.072
63.83000 9.164
63.84000 9.148
63.85000 10.122
63.86000 9.126
63.87000 9.130
63.88000 9.278
63.89000 11.174
63.90000 7.043
63.91000 5.083
63.92000 7.110
63.93000 7.967
63.94000 7.191
63.95000 7.041
63.96000 11.071
63.97000 10.146
63.98000 10.148
63.99000 5.052
64.00000 4.981
64.01000 5.030
64.02000 12.149
64.03000 6.207
64.04000 11.144
64.05000 2.975
64.06000 1.969
64.07000 7.078
64.08000 8.073
64.09000 6.011
64.10000 4.998
64.11000 7.079
64.12000 5.066
64.13000 4.996
64.14000 7.033
64.15000 3.957
64.16000 8.094
64.17000 9.038
64.18000 7.070
64.19000 9.226
64.20000 8.027
64.21000 7.049
64.22000 9.085
64.23000 8.105
64.24000 12.109
64.25000 8.150
64.26000 9.052
64.27000 5.148
64.28000 7.054
64.29000 7.091
64.30000 6.081
64.31000 12.155
64.32000 3.055
64.33000 1.990
64.34000 7.149
64.35000 10.081
64.36000 6.156
64.37000 4.085
64.38000 9.026
64.39000 7.126
64.40000 2.017
64.41000 8.050
64.42000 10.071
64.43000 5.963
64.44000 6.185
64.45000 7.118
64.46000 7.201
64.47000 6.073
64.48000 8.330
64.49000 6.081
64.50000 7.054
64.51000 8.115
64.52000 15.340
64.53000 9.010
64.54000 5.084
64.55000 8.941
64.56000 8.995
64.57000 9.045
64.58000 5.018
64.59000 11.194
64.60000 9.255
64.61000 4.019
64.62000 6.047
64.63000 5.116
64.64000 10.162
64.65000 7.990
64.66000 5.011
64.67000 8.083
64.68000 7.123
64.69000 8.149
64.70000 3.039
64.71000 9.124
64.72000 13.160
64.73000 14.086
64.74000 5.131
64.75000 8.104
64.76000 1.988
64.77000 8.058
64.78000 9.163
64.79000 8.138
64.80000 10.127
64.81000 5.113
64.82000 7.096
64.83000 7.124
64.84000 8.180
64.85000 7.082
64.86000 4.023
64.87000 9.014
64.88000 7.076
64.89000 8.187
64.90000 7.065
64.91000 5.138
64.92000 3.013
64.93000 5.129
64.94000 7.080
64.95000 6.022
64.96000 14.150
64.97000 6.046
64.98000 3.943
64.99000 3.051
65.00000 6.085
