20.00000 146.291
20.01000 129.185
20.02000 153.351
20.03000 130.356
20.04000 124.620
20.05000 157.523
20.06000 143.436
20.07000 166.403
20.08000 125.448
20.09000 127.292
20.10000 145.687
20.11000 133.492
20.12000 114.965
20.13000 108.875
20.14000 123.154
20.15000 135.439
20.16000 147.041
20.17000 115.950
20.18000 127.893
20.19000 142.900
20.20000 123.093
20.21000 135.194
20.22000 120.743
20.23000 121.053
20.24000 120.383
20.25000 126.111
20.26000 137.831
20.27000 117.814
20.28000 141.517
20.29000 131.246
20.30000 142.367
20.31000 109.090
20.32000 113.398
20.33000 129.323
20.34000 129.074
20.35000 124.250
20.36000 120.238
20.37000 110.934
20.38000 128.457
20.39000 118.073
20.40000 131.713
20.41000 133.300
20.42000 124.223
20.43000 123.051
20.44000 115.567
20.45000 123.681
20.46000 122.133
20.47000 115.121
20.48000 100.079
20.49000 109.063
20.50000 106.894
20.51000 127.738
20.52000 131.900
20.53000 112.282
20.54000 108.370
20.55000 118.424
20.56000 137.164
20.57000 103.104
20.58000 108.201
20.59000 97.065
20.60000 125.171
20.61000 106.074
20.62000 118.998
20.63000 130.480
20.64000 96.046
20.65000 99.786
20.66000 103.629
20.67000 122.064
20.68000 90.927
20.69000 103.041
20.70000 109.069
20.71000 120.428
20.72000 101.802
20.73000 93.828
20.74000 104.922
20.75000 106.701
20.76000 101.715
20.77000 101.255
20.78000 88.625
20.79000 101.390
20.80000 98.755
20.81000 111.322
20.82000 87.689
20.83000 95.393
20.84000 84.921
20.85000 104.088
20.86000 103.958
20.87000 106.814
20.88000 101.736
20.89000 99.968
20.90000 92.596
20.91000 78.807
20.92000 108.308
20.93000 102.099
20.94000 90.114
20.95000 90.248
20.96000 97.279
20.97000 72.739
20.98000 66.577
20.99000 103.059
21.00000 106.867
21.01000 99.664
21.02000 91.134
21.03000 74.823
21.04000 92.211
21.05000 93.792
21.06000 102.011
21.07000 88.837
21.08000 79.459
21.09000 92.844
21.10000 79.338
21.11000 96.859
21.12000 75.633
21.13000 80.759
21.14000 99.705
21.15000 81.765
21.16000 99.800
21.17000 109.977
21.18000 82.172
21.19000 81.051
21.20000 109.851
21.21000 96.955
21.22000 87.104
21.23000 70.860
21.24000 67.716
21.25000 91.237
21.26000 83.937
21.27000 78.941
21.28000 69.505
21.29000 79.876
21.30000 93.907
21.31000 68.655
21.32000 76.905
21.33000 90.858
21.34000 83.642
21.35000 73.248
21.36000 78.562
21.37000 58.235
21.38000 84.714
21.39000 66.424
21.40000 84.074
21.41000 82.838
21.42000 74.451
21.43000 65.598
21.44000 81.541
21.45000 75.842
21.46000 68.772
21.47000 74.633
21.48000 68.367
21.49000 72.900
21.50000 67.491
21.51000 49.319
21.52000 81.771
21.53000 60.832
21.54000 79.022
21.55000 63.678
21.56000 71.547
21.57000 75.956
21.58000 82.182
21.59000 65.760
21.60000 75.606
21.61000 67.839
21.62000 62.545
21.63000 62.764
21.64000 73.180
21.65000 70.998
21.66000 74.047
21.67000 80.701
21.68000 64.805
21.69000 64.771
21.70000 53.665
21.71000 64.888
21.72000 76.855
21.73000 55.612
21.74000 69.661
21.75000 65.011
21.76000 69.778
21.77000 65.861
21.78000 59.307
21.79000 68.779
21.80000 63.763
21.81000 63.579
21.82000 61.634
21.83000 65.710
21.84000 51.607
21.85000 65.650
21.86000 70.639
21.87000 58.358
21.88000 53.633
21.89000 57.714
21.90000 67.704
21.91000 64.780
21.92000 56.833
21.93000 70.533
21.94000 53.357
21.95000 63.704
21.96000 57.561
21.97000 50.570
21.98000 57.431
21.99000 68.605
22.00000 47.103
22.01000 59.482
22.02000 61.467
22.03000 56.563
22.04000 54.754
22.05000 45.447
22.06000 57.717
22.07000 49.541
22.08000 58.692
22.09000 56.610
22.10000 48.392
22.11000 59.556
22.12000 45.495
22.13000 66.458
22.14000 53.573
22.15000 57.714
22.16000 38.269
22.17000 50.436
22.18000 56.427
22.19000 52.223
22.20000 40.387
22.21000 50.651
22.22000 46.369
22.23000 56.580
22.24000 58.647
22.25000 53.803
22.26000 53.556
22.27000 42.395
22.28000 50.567
22.29000 42.685
22.30000 46.303
22.31000 39.394
22.32000 63.582
22.33000 49.401
22.34000 49.417
22.35000 46.653
22.36000 43.555
22.37000 42.235
22.38000 49.820
22.39000 43.704
22.40000 35.583
22.41000 47.457
22.42000 50.484
22.43000 65.695
22.44000 50.637
22.45000 43.520
22.46000 55.850
22.47000 34.260
22.48000 54.559
22.49000 53.770
22.50000 41.296
22.51000 49.367
22.52000 38.438
22.53000 30.299
22.54000 42.420
22.55000 44.571
22.56000 45.142
22.57000 48.929
22.58000 57.731
22.59000 49.439
22.60000 39.345
22.61000 47.457
22.62000 27.347
22.63000 45.591
22.64000 39.290
22.65000 44.325
22.66000 41.535
22.67000 47.252
22.68000 51.496
22.69000 40.394
22.70000 48.905
22.71000 34.135
22.72000 35.435
22.73000 35.405
22.74000 31.199
22.75000 47.659
22.76000 40.365
22.77000 41.568
22.78000 44.592
22.79000 42.550
22.80000 33.144
22.81000 33.385
22.82000 36.423
22.83000 38.277
22.84000 40.319
22.85000 46.526
22.86000 41.239
22.87000 44.665
22.88000 31.249
22.89000 42.580
22.90000 39.137
22.91000 40.661
22.92000 28.205
22.93000 27.256
22.94000 31.326
22.95000 31.362
22.96000 24.255
22.97000 34.258
22.98000 36.228
22.99000 25.286
23.00000 47.524
23.01000 36.166
23.02000 42.440
23.03000 42.277
23.04000 30.301
23.05000 43.485
23.06000 36.384
23.07000 33.489
23.08000 34.399
23.09000 37.376
23.10000 27.306
23.11000 32.142
23.12000 34.542
23.13000 24.539
23.14000 32.375
23.15000 24.493
23.16000 25.432
23.17000 30.324
23.18000 37.675
23.19000 28.385
23.20000 24.310
23.21000 33.396
23.22000 34.429
23.23000 29.568
23.24000 39.607
23.25000 39.516
23.26000 35.332
23.27000 35.320
23.28000 38.435
23.29000 37.311
23.30000 32.447
23.31000 41.719
23.32000 25.411
23.33000 37.203
23.34000 34.279
23.35000 30.130
23.36000 28.327
23.37000 24.470
23.38000 27.194
23.39000 32.268
23.40000 38.230
23.41000 30.431
23.42000 37.581
23.43000 29.205
23.44000 31.473
23.45000 26.158
23.46000 25.431
23.47000 36.545
23.48000 35.188
23.49000 31.324
23.50000 42.321
23.51000 31.336
23.52000 31.429
23.53000 26.461
23.54000 30.232
23.55000 21.168
23.56000 27.385
23.57000 33.399
23.58000 19.021
23.59000 29.316
23.60000 41.410
23.61000 27.154
23.62000 24.279
23.63000 35.370
23.64000 26.267
23.65000 24.296
23.66000 23.377
23.67000 34.589
23.68000 29.340
23.69000 29.004
23.70000 25.181
23.71000 24.141
23.72000 27.324
23.73000 35.486
23.74000 29.346
23.75000 28.368
23.76000 34.378
23.77000 21.067
23.78000 26.393
23.79000 19.228
23.80000 30.192
23.81000 24.090
23.82000 25.469
23.83000 22.181
23.84000 33.136
23.85000 23.321
23.86000 22.246
23.87000 30.335
23.88000 20.154
23.89000 27.242
23.90000 20.290
23.91000 25.311
23.92000 18.201
23.93000 17.105
23.94000 22.429
23.95000 35.404
23.96000 28.364
23.97000 24.023
23.98000 25.316
23.99000 20.329
24.00000 19.180
24.01000 27.333
24.02000 30.242
24.03000 19.248
24.04000 26.399
24.05000 20.196
24.06000 28.416
24.07000 16.170
24.08000 23.325
24.09000 23.250
24.10000 24.259
24.11000 20.259
24.12000 23.150
24.13000 29.400
24.14000 25.201
24.15000 19.294
24.16000 31.129
24.17000 25.208
24.18000 25.385
24.19000 27.490
24.20000 25.099
24.21000 16.240
24.22000 24.230
24.23000 34.517
24.24000 23.302
24.25000 23.220
24.26000 30.433
24.27000 22.259
24.28000 21.119
24.29000 21.430
24.30000 19.313
24.31000 18.335
24.32000 27.302
24.33000 26.302
24.34000 31.376
24.35000 27.201
24.36000 21.310
24.37000 24.335
24.38000 24.386
24.39000 20.385
24.40000 23.271
24.41000 28.252
24.42000 14.108
24.43000 21.277
24.44000 23.203
24.45000 20.221
24.46000 18.259
24.47000 17.327
24.48000 11.090
24.49000 24.284
24.50000 26.341
24.51000 21.130
24.52000 18.382
24.53000 19.185
24.54000 24.375
24.55000 12.241
24.56000 15.174
24.57000 26.537
24.58000 19.116
24.59000 24.308
24.60000 25.258
24.61000 24.322
24.62000 17.287
24.63000 17.361
24.64000 16.154
24.65000 18.171
24.66000 18.181
24.67000 28.613
24.68000 16.349
24.69000 18.223
24.70000 13.057
24.71000 13.093
24.72000 19.088
24.73000 19.231
24.74000 14.268
24.75000 17.150
24.76000 19.297
24.77000 20.425
24.78000 17.323
24.79000 24.265
24.80000 23.388
24.81000 17.108
24.82000 13.048
24.83000 23.624
24.84000 13.348
24.85000 16.200
24.86000 18.032
24.87000 21.204
24.88000 10.039
24.89000 11.026
24.90000 16.432
24.91000 14.145
24.92000 13.113
24.93000 22.303
24.94000 19.241
24.95000 16.050
24.96000 20.283
24.97000 16.180
24.98000 23.312
24.99000 17.308
25.00000 21.268
25.01000 12.267
25.02000 11.175
25.03000 18.391
25.04000 14.256
25.05000 28.162
25.06000 19.204
25.07000 16.151
25.08000 20.455
25.09000 16.260
25.10000 20.156
25.11000 19.189
25.12000 18.399
25.13000 23.337
25.14000 14.169
25.15000 14.295
25.16000 11.207
25.17000 19.076
25.18000 17.242
25.19000 17.149
25.20000 18.203
25.21000 10.121
25.22000 14.090
25.23000 16.966
25.24000 20.225
25.25000 15.110
25.26000 17.120
25.27000 20.385
25.28000 19.156
25.29000 20.559
25.30000 15.188
25.31000 17.202
25.32000 12.287
25.33000 16.311
25.34000 18.126
25.35000 22.194
25.36000 15.133
25.37000 20.142
25.38000 14.168
25.39000 23.348
25.40000 23.248
25.41000 15.131
25.42000 19.379
25.43000 15.201
25.44000 19.547
25.45000 13.188
25.46000 17.254
25.47000 15.109
25.48000 16.232
25.49000 16.187
25.50000 13.077
25.51000 16.020
25.52000 7.083
25.53000 17.126
25.54000 14.083
25.55000 15.997
25.56000 15.142
25.57000 14.036
25.58000 20.226
25.59000 18.231
25.60000 18.169
25.61000 11.097
25.62000 14.094
25.63000 12.175
25.64000 19.172
25.65000 21.350
25.66000 10.130
25.67000 10.075
25.68000 20.197
25.69000 13.205
25.70000 17.177
25.71000 16.250
25.72000 15.152
25.73000 10.211
25.74000 10.191
25.75000 10.136
25.76000 17.348
25.77000 16.286
25.78000 18.456
25.79000 16.164
25.80000 14.071
25.81000 16.261
25.82000 15.095
25.83000 14.132
25.84000 13.110
25.85000 13.145
25.86000 11.185
25.87000 14.195
25.88000 14.153
25.89000 18.165
25.90000 13.262
25.91000 15.250
25.92000 19.310
25.93000 15.288
25.94000 17.337
25.95000 13.091
25.96000 14.132
25.97000 19.228
25.98000 16.284
25.99000 13.235
26.00000 13.168
26.01000 16.256
26.02000 17.308
26.03000 10.186
26.04000 7.105
26.05000 12.146
26.06000 18.268
26.07000 23.284
26.08000 9.000
26.09000 18.386
26.10000 12.395
26.11000 14.197
26.12000 16.014
26.13000 8.161
26.14000 11.230
26.15000 17.196
26.16000 17.067
26.17000 8.045
26.18000 16.366
26.19000 16.071
26.20000 19.213
26.21000 15.134
26.22000 9.092
26.23000 13.147
26.24000 17.472
26.25000 12.260
26.26000 10.086
26.27000 16.343
26.28000 19.364
26.29000 15.143
26.30000 14.122
26.31000 13.277
26.32000 11.138
26.33000 15.200
26.34000 19.598
26.35000 11.215
26.36000 9.073
26.37000 21.277
26.38000 15.204
26.39000 16.181
26.40000 14.232
26.41000 14.236
26.42000 15.037
26.43000 23.387
26.44000 19.299
26.45000 16.208
26.46000 9.153
26.47000 17.116
26.48000 18.307
26.49000 15.232
26.50000 18.147
26.51000 12.134
26.52000 13.194
26.53000 8.112
26.54000 12.132
26.55000 14.240
26.56000 12.110
26.57000 17.168
26.58000 19.128
26.59000 18.189
26.60000 10.159
26.61000 10.046
26.62000 7.189
26.63000 14.252
26.64000 11.200
26.65000 16.412
26.66000 17.317
26.67000 12.118
26.68000 13.292
26.69000 13.142
26.70000 14.213
26.71000 15.149
26.72000 12.173
26.73000 11.085
26.74000 11.086
26.75000 11.114
26.76000 9.010
26.77000 11.052
26.78000 14.094
26.79000 12.231
26.80000 9.958
26.81000 11.074
26.82000 7.061
26.83000 15.240
26.84000 13.211
26.85000 12.245
26.86000 15.230
26.87000 7.188
26.88000 19.284
26.89000 10.140
26.90000 14.026
26.91000 12.086
26.92000 13.249
26.93000 18.038
26.94000 15.135
26.95000 15.270
26.96000 10.008
26.97000 7.126
26.98000 16.328
26.99000 11.193
27.00000 10.232
27.01000 10.138
27.02000 12.121
27.03000 8.129
27.04000 12.125
27.05000 14.235
27.06000 13.105
27.07000 11.122
27.08000 12.164
27.09000 19.320
27.10000 15.198
27.11000 11.257
27.12000 10.103
27.13000 13.134
27.14000 13.121
27.15000 13.024
27.16000 11.149
27.17000 10.058
27.18000 10.082
27.19000 15.270
27.20000 12.211
27.21000 11.113
27.22000 9.094
27.23000 6.084
27.24000 12.259
27.25000 13.189
27.26000 12.227
27.27000 20.315
27.28000 13.038
27.29000 11.171
27.30000 9.180
27.31000 18.164
27.32000 14.176
27.33000 12.230
27.34000 13.234
27.35000 18.215
27.36000 10.278
27.37000 10.073
27.38000 11.219
27.39000 9.143
27.40000 11.181
27.41000 13.126
27.42000 8.088
27.43000 5.005
27.44000 19.100
27.45000 16.107
27.46000 12.221
27.47000 20.266
27.48000 12.256
27.49000 5.054
27.50000 16.178
27.51000 13.232
27.52000 11.196
27.53000 10.177
27.54000 11.170
27.55000 13.158
27.56000 15.246
27.57000 16.211
27.58000 7.186
27.59000 16.089
27.60000 4.992
27.61000 8.059
27.62000 6.032
27.63000 12.071
27.64000 13.215
27.65000 15.121
27.66000 8.156
27.67000 10.215
27.68000 13.205
27.69000 9.076
27.70000 11.045
27.71000 13.249
27.72000 17.254
27.73000 13.102
27.74000 10.092
27.75000 13.092
27.76000 15.070
27.77000 15.208
27.78000 11.047
27.79000 11.142
27.80000 13.185
27.81000 11.197
27.82000 7.177
27.83000 14.151
27.84000 9.153
27.85000 9.079
27.86000 11.166
27.87000 14.107
27.88000 7.104
27.89000 6.098
27.90000 9.026
27.91000 10.106
27.92000 11.173
27.93000 18.180
27.94000 12.349
27.95000 13.162
27.96000 12.138
27.97000 8.124
27.98000 12.097
27.99000 12.152
28.00000 8.322
28.01000 8.066
28.02000 13.237
28.03000 11.256
28.04000 7.949
28.05000 13.432
28.06000 11.261
28.07000 7.081
28.08000 13.332
28.09000 14.046
28.10000 11.271
28.11000 9.136
28.12000 15.315
28.13000 12.233
28.14000 12.123
28.15000 8.150
28.16000 7.201
28.17000 14.091
28.18000 8.095
28.19000 7.053
28.20000 12.116
28.21000 11.119
28.22000 9.101
28.23000 7.147
28.24000 6.148
28.25000 9.086
28.26000 10.142
28.27000 12.163
28.28000 7.036
28.29000 18.310
28.30000 7.157
28.31000 7.038
28.32000 7.059
28.33000 11.049
28.34000 11.144
28.35000 8.091
28.36000 15.165
28.37000 16.194
28.38000 11.222
28.39000 7.205
28.40000 9.131
28.41000 10.060
28.42000 14.311
28.43000 11.105
28.44000 10.138
28.45000 9.241
28.46000 10.214
28.47000 8.122
28.48000 16.135
28.49000 15.233
28.50000 5.006
28.51000 24.319
28.52000 7.147
28.53000 12.246
28.54000 7.215
28.55000 9.207
28.56000 12.152
28.57000 12.108
28.58000 9.075
28.59000 5.075
28.60000 12.043
28.61000 7.093
28.62000 11.107
28.63000 5.068
28.64000 11.168
28.65000 3.035
28.66000 11.108
28.67000 8.128
28.68000 5.109
28.69000 10.137
28.70000 13.097
28.71000 12.249
28.72000 7.098
28.73000 8.060
28.74000 11.103
28.75000 8.003
28.76000 8.024
28.77000 16.294
28.78000 6.996
28.79000 7.050
28.80000 15.247
28.81000 14.227
28.82000 13.230
28.83000 5.107
28.84000 8.169
28.85000 9.086
28.86000 11.333
28.87000 11.281
28.88000 8.171
28.89000 9.261
28.90000 9.167
28.91000 11.095
28.92000 9.053
28.93000 9.124
28.94000 9.258
28.95000 7.007
28.96000 12.370
28.97000 7.191
28.98000 11.279
28.99000 18.300
29.00000 15.244
29.01000 11.172
29.02000 13.162
29.03000 13.186
29.04000 9.066
29.05000 10.087
29.06000 9.178
29.07000 8.151
29.08000 11.025
29.09000 9.135
29.10000 20.225
29.11000 10.098
29.12000 17.199
29.13000 15.049
29.14000 9.009
29.15000 11.122
29.16000 3.097
29.17000 8.193
29.18000 9.074
29.19000 7.147
29.20000 7.044
29.21000 8.229
29.22000 8.002
29.23000 14.144
29.24000 11.229
29.25000 9.104
29.26000 4.014
29.27000 9.067
29.28000 9.069
29.29000 8.067
29.30000 6.092
29.31000 9.201
29.32000 6.161
29.33000 10.107
29.34000 16.256
29.35000 9.160
29.36000 9.057
29.37000 8.147
29.38000 16.081
29.39000 11.209
29.40000 13.202
29.41000 10.030
29.42000 11.201
29.43000 3.985
29.44000 4.019
29.45000 13.148
29.46000 9.098
29.47000 9.087
29.48000 7.235
29.49000 10.198
29.50000 9.171
29.51000 7.149
29.52000 14.164
29.53000 14.280
29.54000 17.229
29.55000 12.113
29.56000 11.159
29.57000 5.107
29.58000 6.078
29.59000 10.064
29.60000 7.101
29.61000 12.128
29.62000 14.121
29.63000 12.158
29.64000 7.164
29.65000 8.991
29.66000 5.076
29.67000 5.109
29.68000 14.231
29.69000 13.239
29.70000 11.140
29.71000 13.138
29.72000 7.046
29.73000 7.119
29.74000 9.201
29.75000 12.187
29.76000 11.207
29.77000 11.105
29.78000 13.121
29.79000 5.094
29.80000 9.187
29.81000 7.032
29.82000 16.200
29.83000 8.185
29.84000 10.066
29.85000 8.055
29.86000 6.044
29.87000 9.069
29.88000 5.144
29.89000 9.122
29.90000 6.070
29.91000 13.079
29.92000 10.160
29.93000 10.111
29.94000 5.110
29.95000 11.075
29.96000 6.022
29.97000 11.088
29.98000 12.142
29.99000 9.138
30.00000 10.283
30.01000 12.111
30.02000 6.021
30.03000 5.995
30.04000 11.043
30.05000 16.109
30.06000 7.201
30.07000 5.152
30.08000 6.082
30.09000 11.059
30.10000 7.985
30.11000 8.028
30.12000 8.963
30.13000 6.128
30.14000 3.026
30.15000 5.115
30.16000 8.040
30.17000 8.152
30.18000 6.151
30.19000 5.002
30.20000 6.120
30.21000 12.237
30.22000 8.165
30.23000 5.026
30.24000 6.074
30.25000 7.107
30.26000 5.137
30.27000 9.098
30.28000 9.134
30.29000 10.132
30.30000 13.047
30.31000 7.927
30.32000 11.294
30.33000 8.066
30.34000 7.032
30.35000 8.073
30.36000 16.414
30.37000 13.215
30.38000 8.216
30.39000 8.091
30.40000 7.048
30.41000 6.097
30.42000 11.246
30.43000 9.276
30.44000 7.100
30.45000 8.070
30.46000 13.074
30.47000 11.030
30.48000 8.041
30.49000 5.995
30.50000 8.124
30.51000 9.250
30.52000 13.159
30.53000 5.026
30.54000 7.063
30.55000 7.096
30.56000 11.347
30.57000 11.207
30.58000 15.219
30.59000 18.082
30.60000 5.061
30.61000 6.022
30.62000 8.146
30.63000 15.348
30.64000 7.043
30.65000 9.230
30.66000 11.163
30.67000 9.098
30.68000 5.044
30.69000 5.143
30.70000 3.111
30.71000 10.108
30.72000 11.015
30.73000 15.206
30.74000 7.153
30.75000 4.078
30.76000 14.379
30.77000 8.141
30.78000 13.210
30.79000 11.097
30.80000 5.062
30.81000 13.308
30.82000 7.021
30.83000 12.239
30.84000 4.033
30.85000 11.144
30.86000 5.101
30.87000 10.097
30.88000 10.176
30.89000 13.278
30.90000 15.105
30.91000 9.148
30.92000 8.990
30.93000 8.090
30.94000 7.125
30.95000 9.197
30.96000 15.239
30.97000 9.153
30.98000 10.166
30.99000 10.098
31.00000 12.081
31.01000 4.092
31.02000 9.123
31.03000 5.992
31.04000 11.211
31.05000 7.052
31.06000 6.265
31.07000 10.025
31.08000 11.242
31.09000 11.310
31.10000 11.223
31.11000 8.109
31.12000 8.143
31.13000 6.999
31.14000 8.123
31.15000 11.189
31.16000 7.150
31.17000 3.004
31.18000 13.185
31.19000 11.198
31.20000 5.023
31.21000 9.106
31.22000 9.097
31.23000 8.135
31.24000 13.196
31.25000 8.940
31.26000 12.180
31.27000 10.081
31.28000 7.130
31.29000 8.131
31.30000 10.099
31.31000 9.151
31.32000 9.087
31.33000 7.137
31.34000 10.153
31.35000 4.150
31.36000 14.230
31.37000 10.235
31.38000 6.094
31.39000 8.055
31.40000 9.045
31.41000 7.170
31.42000 7.072
31.43000 8.194
31.44000 7.135
31.45000 8.032
31.46000 10.949
31.47000 8.198
31.48000 8.080
31.49000 9.132
31.50000 5.022
31.51000 8.104
31.52000 8.147
31.53000 13.194
31.54000 5.081
31.55000 5.131
31.56000 11.122
31.57000 12.252
31.58000 10.111
31.59000 8.165
31.60000 12.115
31.61000 11.183
31.62000 10.148
31.63000 5.174
31.64000 6.145
31.65000 14.113
31.66000 8.128
31.67000 8.093
31.68000 11.187
31.69000 3.039
31.70000 7.168
31.71000 7.138
31.72000 7.187
31.73000 9.216
31.74000 7.086
31.75000 6.067
31.76000 8.085
31.77000 1.022
31.78000 4.001
31.79000 10.068
31.80000 6.094
31.81000 9.108
31.82000 3.086
31.83000 12.113
31.84000 11.110
31.85000 8.000
31.86000 9.065
31.87000 10.130
31.88000 8.131
31.89000 7.032
31.90000 7.981
31.91000 13.216
31.92000 13.238
31.93000 6.057
31.94000 8.056
31.95000 5.031
31.96000 8.212
31.97000 10.069
31.98000 7.280
31.99000 7.044
32.00000 5.042
32.01000 8.218
32.02000 9.193
32.03000 7.171
32.04000 13.166
32.05000 11.075
32.06000 13.255
32.07000 15.178
32.08000 10.017
32.09000 7.168
32.10000 7.113
32.11000 9.074
32.12000 13.085
32.13000 9.253
32.14000 13.114
32.15000 5.109
32.16000 12.134
32.17000 4.957
32.18000 5.107
32.19000 9.254
32.20000 8.068
32.21000 6.026
32.22000 3.957
32.23000 7.075
32.24000 4.946
32.25000 10.185
32.26000 8.040
32.27000 12.113
32.28000 6.110
32.29000 7.059
32.30000 12.274
32.31000 10.032
32.32000 10.076
32.33000 4.050
32.34000 6.028
32.35000 4.104
32.36000 9.107
32.37000 8.185
32.38000 7.095
32.39000 8.991
32.40000 10.039
32.41000 4.122
32.42000 7.123
32.43000 5.053
32.44000 8.966
32.45000 11.112
32.46000 5.027
32.47000 5.983
32.48000 7.027
32.49000 6.061
32.50000 6.050
32.51000 5.076
32.52000 9.015
32.53000 6.141
32.54000 7.216
32.55000 9.113
32.56000 8.128
32.57000 11.227
32.58000 10.289
32.59000 10.191
32.60000 3.098
32.61000 4.033
32.62000 11.325
32.63000 9.164
32.64000 2.996
32.65000 13.156
32.66000 7.071
32.67000 9.084
32.68000 10.052
32.69000 10.132
32.70000 11.146
32.71000 6.115
32.72000 6.106
32.73000 5.071
32.74000 11.332
32.75000 10.135
32.76000 9.144
32.77000 7.031
32.78000 8.117
32.79000 10.173
32.80000 10.141
32.81000 6.165
32.82000 16.137
32.83000 10.030
32.84000 5.045
32.85000 8.062
32.86000 11.207
32.87000 7.960
32.88000 2.031
32.89000 11.067
32.90000 4.017
32.91000 8.109
32.92000 7.046
32.93000 9.134
32.94000 6.053
32.95000 11.182
32.96000 8.037
32.97000 6.184
32.98000 7.131
32.99000 6.029
33.00000 9.136
33.01000 9.207
33.02000 8.076
33.03000 8.002
33.04000 8.048
33.05000 15.262
33.06000 8.142
33.07000 5.995
33.08000 5.025
33.09000 7.056
33.10000 3.048
33.11000 10.152
33.12000 7.022
33.13000 5.101
33.14000 7.125
33.15000 6.078
33.16000 9.230
33.17000 8.037
33.18000 4.086
33.19000 5.113
33.20000 11.088
33.21000 8.974
33.22000 8.092
33.23000 8.161
33.24000 6.165
33.25000 11.160
33.26000 9.061
33.27000 14.090
33.28000 8.098
33.29000 3.016
33.30000 10.070
33.31000 4.039
33.32000 8.096
33.33000 9.025
33.34000 2.027
33.35000 11.228
33.36000 3.040
33.37000 8.099
33.38000 7.045
33.39000 6.108
33.40000 10.100
33.41000 3.004
33.42000 6.178
33.43000 7.112
33.44000 5.036
33.45000 11.091
33.46000 7.069
33.47000 5.054
33.48000 4.084
33.49000 7.158
33.50000 7.059
33.51000 4.028
33.52000 6.019
33.53000 5.080
33.54000 7.062
33.55000 2.102
33.56000 6.117
33.57000 4.092
33.58000 4.067
33.59000 7.049
33.60000 7.946
33.61000 12.143
33.62000 10.143
33.63000 6.063
33.64000 6.124
33.65000 5.162
33.66000 8.009
33.67000 8.098
33.68000 8.122
33.69000 5.065
33.70000 6.009
33.71000 8.167
33.72000 8.071
33.73000 8.073
33.74000 8.176
33.75000 4.064
33.76000 6.972
33.77000 3.100
33.78000 6.091
33.79000 6.210
33.80000 4.009
33.81000 6.038
33.82000 14.192
33.83000 7.074
33.84000 9.090
33.85000 7.056
33.86000 9.114
33.87000 2.053
33.88000 5.058
33.89000 7.069
33.90000 6.119
33.91000 10.113
33.92000 9.143
33.93000 8.104
33.94000 5.062
33.95000 4.031
33.96000 7.159
33.97000 13.147
33.98000 6.075
33.99000 7.156
34.00000 12.216
34.01000 9.291
34.02000 5.047
34.03000 7.020
34.04000 8.146
34.05000 8.173
34.06000 11.102
34.07000 7.093
34.08000 8.031
34.09000 9.125
34.10000 9.089
34.11000 8.105
34.12000 4.030
34.13000 9.220
34.14000 7.082
34.15000 9.197
34.16000 6.089
34.17000 7.144
34.18000 5.004
34.19000 9.988
34.20000 10.227
34.21000 6.014
34.22000 4.027
34.23000 7.059
34.24000 5.167
34.25000 5.038
34.26000 4.109
34.27000 11.203
34.28000 2.998
34.29000 3.979
34.30000 11.129
34.31000 5.115
34.32000 6.201
34.33000 9.056
34.34000 6.060
34.35000 4.000
34.36000 2.029
34.37000 6.999
34.38000 2.003
34.39000 5.171
34.40000 5.074
34.41000 5.011
34.42000 6.063
34.43000 6.065
34.44000 4.046
34.45000 11.414
34.46000 11.132
34.47000 3.018
34.48000 7.128
34.49000 5.118
34.50000 6.992
34.51000 10.316
34.52000 9.181
34.53000 6.096
34.54000 7.062
34.55000 3.998
34.56000 6.056
34.57000 7.196
34.58000 6.036
34.59000 10.080
34.60000 8.098
34.61000 8.134
34.62000 6.104
34.63000 5.089
34.64000 11.159
34.65000 9.154
34.66000 5.095
34.67000 10.118
34.68000 6.189
34.69000 3.057
34.70000 10.108
34.71000 10.085
34.72000 0.990
34.73000 7.164
34.74000 5.124
34.75000 8.158
34.76000 6.072
34.77000 5.053
34.78000 4.022
34.79000 4.067
34.80000 4.038
34.81000 6.046
34.82000 7.159
34.83000 8.208
34.84000 7.176
34.85000 9.150
34.86000 4.093
34.87000 7.043
34.88000 5.033
34.89000 10.236
34.90000 8.216
34.91000 9.177
34.92000 5.037
34.93000 8.072
34.94000 6.138
34.95000 7.103
34.96000 5.994
34.97000 3.020
34.98000 5.075
34.99000 9.014
35.00000 6.086
35.01000 2.039
35.02000 5.156
35.03000 3.023
35.04000 7.066
35.05000 2.985
35.06000 5.100
35.07000 6.132
35.08000 4.035
35.09000 6.062
35.10000 3.145
35.11000 6.144
35.12000 7.129
35.13000 2.049
35.14000 4.094
35.15000 7.199
35.16000 4.055
35.17000 5.135
35.18000 7.028
35.19000 8.072
35.20000 4.039
35.21000 3.990
35.22000 6.188
35.23000 6.054
35.24000 5.085
35.25000 11.148
35.26000 8.100
35.27000 10.155
35.28000 8.214
35.29000 3.031
35.30000 6.074
35.31000 5.187
35.32000 5.012
35.33000 8.165
35.34000 4.997
35.35000 0.996
35.36000 6.027
35.37000 7.065
35.38000 7.078
35.39000 4.061
35.40000 3.005
35.41000 3.001
35.42000 7.070
35.43000 6.134
35.44000 5.118
35.45000 0.000
35.46000 6.050
35.47000 6.049
35.48000 5.051
35.49000 3.040
35.50000 6.088
35.51000 8.018
35.52000 5.052
35.53000 11.124
35.54000 8.092
35.55000 7.093
35.56000 4.076
35.57000 6.134
35.58000 6.081
35.59000 7.008
35.60000 6.102
35.61000 7.090
35.62000 6.053
35.63000 6.132
35.64000 7.199
35.65000 11.158
35.66000 3.095
35.67000 3.986
35.68000 5.071
35.69000 4.963
35.70000 4.023
35.71000 4.017
35.72000 6.157
35.73000 4.120
35.74000 6.097
35.75000 7.081
35.76000 4.101
35.77000 7.219
35.78000 10.066
35.79000 2.001
35.80000 6.988
35.81000 1.966
35.82000 7.025
35.83000 8.138
35.84000 1.000
35.85000 5.025
35.86000 4.051
35.87000 5.982
35.88000 6.101
35.89000 8.228
35.90000 6.123
35.91000 9.133
35.92000 3.155
35.93000 3.025
35.94000 8.009
35.95000 5.082
35.96000 7.063
35.97000 4.037
35.98000 5.099
35.99000 2.992
36.00000 10.200
36.01000 6.036
36.02000 0.983
36.03000 9.096
36.04000 8.981
36.05000 7.045
36.06000 6.049
36.07000 5.144
36.08000 7.103
36.09000 9.214
36.10000 5.071
36.11000 5.042
36.12000 2.110
36.13000 6.117
36.14000 4.052
36.15000 4.055
36.16000 6.043
36.17000 4.153
36.18000 1.983
36.19000 9.069
36.20000 6.052
36.21000 8.048
36.22000 5.119
36.23000 1.002
36.24000 6.150
36.25000 3.015
36.26000 4.049
36.27000 3.991
36.28000 5.989
36.29000 4.045
36.30000 2.018
36.31000 3.960
36.32000 11.162
36.33000 4.048
36.34000 4.021
36.35000 4.013
36.36000 6.103
36.37000 5.096
36.38000 6.162
36.39000 4.106
36.40000 3.032
36.41000 7.032
36.42000 4.069
36.43000 5.061
36.44000 2.069
36.45000 7.080
36.46000 11.210
36.47000 4.082
36.48000 4.033
36.49000 7.142
36.50000 1.092
36.51000 4.025
36.52000 3.052
36.53000 7.094
36.54000 10.184
36.55000 10.174
36.56000 8.214
36.57000 7.083
36.58000 4.090
36.59000 0.985
36.60000 5.078
36.61000 3.100
36.62000 6.998
36.63000 3.067
36.64000 6.031
36.65000 10.002
36.66000 7.154
36.67000 3.036
36.68000 8.048
36.69000 10.083
36.70000 9.156
36.71000 11.279
36.72000 7.168
36.73000 5.072
36.74000 3.051
36.75000 7.090
36.76000 7.075
36.77000 7.944
36.78000 6.130
36.79000 5.049
36.80000 6.984
36.81000 2.984
36.82000 6.081
36.83000 5.985
36.84000 6.070
36.85000 3.105
36.86000 5.055
36.87000 7.056
36.88000 2.030
36.89000 0.000
36.90000 8.029
36.91000 6.019
36.92000 4.062
36.93000 3.970
36.94000 5.008
36.95000 3.085
36.96000 5.117
36.97000 3.109
36.98000 5.056
36.99000 3.056
37.00000 5.109
37.01000 4.085
37.02000 2.038
37.03000 9.203
37.04000 4.090
37.05000 3.052
37.06000 9.112
37.07000 5.985
37.08000 10.230
37.09000 3.000
37.10000 6.129
37.11000 7.125
37.12000 0.991
37.13000 4.057
37.14000 8.057
37.15000 2.049
37.16000 6.062
37.17000 6.169
37.18000 6.134
37.19000 4.005
37.20000 4.011
37.21000 5.928
37.22000 5.182
37.23000 8.076
37.24000 3.049
37.25000 9.125
37.26000 0.998
37.27000 8.203
37.28000 6.158
37.29000 6.095
37.30000 0.978
37.31000 2.019
37.32000 4.035
37.33000 5.978
37.34000 2.038
37.35000 3.998
37.36000 0.999
37.37000 2.032
37.38000 6.026
37.39000 8.283
37.40000 4.027
37.41000 10.023
37.42000 6.103
37.43000 1.022
37.44000 8.081
37.45000 4.161
37.46000 5.076
37.47000 7.095
37.48000 1.037
37.49000 3.034
37.50000 6.045
37.51000 7.050
37.52000 7.116
37.53000 2.032
37.54000 8.098
37.55000 6.117
37.56000 1.026
37.57000 3.037
37.58000 1.966
37.59000 2.056
37.60000 4.087
37.61000 4.980
37.62000 8.064
37.63000 2.962
37.64000 4.012
37.65000 7.208
37.66000 7.142
37.67000 1.980
37.68000 6.184
37.69000 6.055
37.70000 6.123
37.71000 5.051
37.72000 8.108
37.73000 1.040
37.74000 5.093
37.75000 6.050
37.76000 4.987
37.77000 5.044
37.78000 1.023
37.79000 5.045
37.80000 5.147
37.81000 3.998
37.82000 1.057
37.83000 4.117
37.84000 3.034
37.85000 3.059
37.86000 3.022
37.87000 8.004
37.88000 6.089
37.89000 6.189
37.90000 8.138
37.91000 3.037
37.92000 4.104
37.93000 6.103
37.94000 9.227
37.95000 3.032
37.96000 5.052
37.97000 6.136
37.98000 5.098
37.99000 6.109
38.00000 4.073
38.01000 5.045
38.02000 3.079
38.03000 6.088
38.04000 7.115
38.05000 4.028
38.06000 5.114
38.07000 6.041
38.08000 5.121
38.09000 4.990
38.10000 6.991
38.11000 1.970
38.12000 7.051
38.13000 8.079
38.14000 10.152
38.15000 8.102
38.16000 3.073
38.17000 4.989
38.18000 4.990
38.19000 6.076
38.20000 5.081
38.21000 5.129
38.22000 2.041
38.23000 5.177
38.24000 3.964
38.25000 5.014
38.26000 11.287
38.27000 4.065
38.28000 5.997
38.29000 5.036
38.30000 6.050
38.31000 2.033
38.32000 2.023
38.33000 8.081
38.34000 5.069
38.35000 9.073
38.36000 5.068
38.37000 5.134
38.38000 8.139
38.39000 6.154
38.40000 6.135
38.41000 3.010
38.42000 3.048
38.43000 1.979
38.44000 4.152
38.45000 8.241
38.46000 6.086
38.47000 8.076
38.48000 4.097
38.49000 3.009
38.50000 6.092
38.51000 4.101
38.52000 2.058
38.53000 5.083
38.54000 4.059
38.55000 5.070
38.56000 7.096
38.57000 5.097
38.58000 6.156
38.59000 4.041
38.60000 3.006
38.61000 5.043
38.62000 6.129
38.63000 5.061
38.64000 2.012
38.65000 3.013
38.66000 3.089
38.67000 3.985
38.68000 5.103
38.69000 5.063
38.70000 4.036
38.71000 4.092
38.72000 3.970
38.73000 2.997
38.74000 6.012
38.75000 1.998
38.76000 7.067
38.77000 4.022
38.78000 7.060
38.79000 3.029
38.80000 6.054
38.81000 3.112
38.82000 3.023
38.83000 4.998
38.84000 7.148
38.85000 3.981
38.86000 3.089
38.87000 3.076
38.88000 1.992
38.89000 3.030
38.90000 9.243
38.91000 8.978
38.92000 3.019
38.93000 6.062
38.94000 4.064
38.95000 1.973
38.96000 8.057
38.97000 3.052
38.98000 4.059
38.99000 4.006
39.00000 5.080
39.01000 5.165
39.02000 1.981
39.03000 4.139
39.04000 8.142
39.05000 3.044
39.06000 9.086
39.07000 6.130
39.08000 9.063
39.09000 5.107
39.10000 6.031
39.11000 2.002
39.12000 3.074
39.13000 0.982
39.14000 9.042
39.15000 1.970
39.16000 4.069
39.17000 10.085
39.18000 5.124
39.19000 9.068
39.20000 3.032
39.21000 1.993
39.22000 3.032
39.23000 5.955
39.24000 10.264
39.25000 3.978
39.26000 4.063
39.27000 6.035
39.28000 4.019
39.29000 2.994
39.30000 8.107
39.31000 3.049
39.32000 3.028
39.33000 4.078
39.34000 4.111
39.35000 6.067
39.36000 8.047
39.37000 3.014
39.38000 7.042
39.39000 3.056
39.40000 2.961
39.41000 4.031
39.42000 4.116
39.43000 3.977
39.44000 4.015
39.45000 6.127
39.46000 3.027
39.47000 6.074
39.48000 2.004
39.49000 4.082
39.50000 4.087
39.51000 5.003
39.52000 4.072
39.53000 1.002
39.54000 8.149
39.55000 3.060
39.56000 8.258
39.57000 3.096
39.58000 7.053
39.59000 4.080
39.60000 10.226
39.61000 2.058
39.62000 5.029
39.63000 10.039
39.64000 9.093
39.65000 0.000
39.66000 7.068
39.67000 3.073
39.68000 6.054
39.69000 4.056
39.70000 3.013
39.71000 2.999
39.72000 4.016
39.73000 4.033
39.74000 1.002
39.75000 4.172
39.76000 5.141
39.77000 4.070
39.78000 1.036
39.79000 11.230
39.80000 3.021
39.81000 3.065
39.82000 5.040
39.83000 5.088
39.84000 3.059
39.85000 4.063
39.86000 6.210
39.87000 3.992
39.88000 4.021
39.89000 3.030
39.90000 3.056
39.91000 6.140
39.92000 5.047
39.93000 5.066
39.94000 6.014
39.95000 3.058
39.96000 7.182
39.97000 4.079
39.98000 3.011
39.99000 1.993
40.00000 2.020
40.01000 4.048
40.02000 3.089
40.03000 4.051
40.04000 4.002
40.05000 6.212
40.06000 11.177
40.07000 5.135
40.08000 5.976
40.09000 7.112
40.10000 7.150
40.11000 6.041
40.12000 5.130
40.13000 4.074
40.14000 3.069
40.15000 8.062
40.16000 6.080
40.17000 6.119
40.18000 6.028
40.19000 3.032
40.20000 5.117
40.21000 2.084
40.22000 8.169
40.23000 5.085
40.24000 3.027
40.25000 4.072
40.26000 4.065
40.27000 7.075
40.28000 4.038
40.29000 5.034
40.30000 5.167
40.31000 3.038
40.32000 4.094
40.33000 6.026
40.34000 4.057
40.35000 4.982
40.36000 4.945
40.37000 2.001
40.38000 9.133
40.39000 4.037
40.40000 4.113
40.41000 4.039
40.42000 3.047
40.43000 0.996
40.44000 7.185
40.45000 6.040
40.46000 5.068
40.47000 9.085
40.48000 2.002
40.49000 5.168
40.50000 4.018
40.51000 3.006
40.52000 5.118
40.53000 4.176
40.54000 3.014
40.55000 2.989
40.56000 1.994
40.57000 6.151
40.58000 7.047
40.59000 6.103
40.60000 5.037
40.61000 4.107
40.62000 2.987
40.63000 3.083
40.64000 4.030
40.65000 4.108
40.66000 5.999
40.67000 3.058
40.68000 3.032
40.69000 6.096
40.70000 4.115
40.71000 2.096
40.72000 6.190
40.73000 4.050
40.74000 5.060
40.75000 1.988
40.76000 5.068
40.77000 4.064
40.78000 5.994
40.79000 6.156
40.80000 7.199
40.81000 2.033
40.82000 7.159
40.83000 1.010
40.84000 1.988
40.85000 4.042
40.86000 3.002
40.87000 3.099
40.88000 5.106
40.89000 2.995
40.90000 6.113
40.91000 3.028
40.92000 2.005
40.93000 6.091
40.94000 3.059
40.95000 0.000
40.96000 6.077
40.97000 4.021
40.98000 4.103
40.99000 3.117
41.00000 7.087
41.01000 2.975
41.02000 2.028
41.03000 6.060
41.04000 3.042
41.05000 4.061
41.06000 6.065
41.07000 0.998
41.08000 5.074
41.09000 9.129
41.10000 3.108
41.11000 6.131
41.12000 1.988
41.13000 2.013
41.14000 1.992
41.15000 3.023
41.16000 6.155
41.17000 8.003
41.18000 2.996
41.19000 4.013
41.20000 3.983
41.21000 5.109
41.22000 4.044
41.23000 3.037
41.24000 8.040
41.25000 4.133
41.26000 1.981
41.27000 8.065
41.28000 3.067
41.29000 6.100
41.30000 6.102
41.31000 2.997
41.32000 5.076
41.33000 1.002
41.34000 3.025
41.35000 4.054
41.36000 4.144
41.37000 6.123
41.38000 5.122
41.39000 5.066
41.40000 3.065
41.41000 4.030
41.42000 4.000
41.43000 9.038
41.44000 2.049
41.45000 5.066
41.46000 4.166
41.47000 3.057
41.48000 2.982
41.49000 4.029
41.50000 4.039
41.51000 3.032
41.52000 5.990
41.53000 4.036
41.54000 3.022
41.55000 2.018
41.56000 4.091
41.57000 5.134
41.58000 7.165
41.59000 11.104
41.60000 3.050
41.61000 6.123
41.62000 5.097
41.63000 2.051
41.64000 10.010
41.65000 3.055
41.66000 8.013
41.67000 6.180
41.68000 4.041
41.69000 3.009
41.70000 7.040
41.71000 4.992
41.72000 1.050
41.73000 2.955
41.74000 1.006
41.75000 3.001
41.76000 3.055
41.77000 1.007
41.78000 4.063
41.79000 3.068
41.80000 6.201
41.81000 0.982
41.82000 5.038
41.83000 4.069
41.84000 6.123
41.85000 2.033
41.86000 2.973
41.87000 1.996
41.88000 1.020
41.89000 0.987
41.90000 1.016
41.91000 7.068
41.92000 3.074
41.93000 5.093
41.94000 1.998
41.95000 5.146
41.96000 2.002
41.97000 4.069
41.98000 0.000
41.99000 5.007
42.00000 6.062
42.01000 3.969
42.02000 6.119
42.03000 1.029
42.04000 2.084
42.05000 5.121
42.06000 3.124
42.07000 1.019
42.08000 4.023
42.09000 4.006
42.10000 6.033
42.11000 3.051
42.12000 4.025
42.13000 3.020
42.14000 5.064
42.15000 4.019
42.16000 4.027
42.17000 6.091
42.18000 4.039
42.19000 2.075
42.20000 5.080
42.21000 4.069
42.22000 5.129
42.23000 4.060
42.24000 0.000
42.25000 5.023
42.26000 2.104
42.27000 3.008
42.28000 2.039
42.29000 6.983
42.30000 1.012
42.31000 0.991
42.32000 6.084
42.33000 3.115
42.34000 4.000
42.35000 7.121
42.36000 1.024
42.37000 2.060
42.38000 1.942
42.39000 5.074
42.40000 3.037
42.41000 1.996
42.42000 3.087
42.43000 2.972
42.44000 5.000
42.45000 4.036
42.46000 4.071
42.47000 6.074
42.48000 4.070
42.49000 5.070
42.50000 2.047
42.51000 4.127
42.52000 4.150
42.53000 2.042
42.54000 4.094
42.55000 5.017
42.56000 5.072
42.57000 4.100
42.58000 5.049
42.59000 8.088
42.60000 5.053
42.61000 4.009
42.62000 2.079
42.63000 2.071
42.64000 2.010
42.65000 5.060
42.66000 4.049
42.67000 3.108
42.68000 4.075
42.69000 4.050
42.70000 5.058
42.71000 2.080
42.72000 3.070
42.73000 3.024
42.74000 5.116
42.75000 1.000
42.76000 3.009
42.77000 2.052
42.78000 2.052
42.79000 4.979
42.80000 2.039
42.81000 5.112
42.82000 1.954
42.83000 8.215
42.84000 4.980
42.85000 2.986
42.86000 2.034
42.87000 6.115
42.88000 7.076
42.89000 4.147
42.90000 3.044
42.91000 3.033
42.92000 0.998
42.93000 2.152
42.94000 2.073
42.95000 4.042
42.96000 3.026
42.97000 5.033
42.98000 7.047
42.99000 6.111
43.00000 2.068
43.01000 0.000
43.02000 3.021
43.03000 9.168
43.04000 0.990
43.05000 2.057
43.06000 5.081
43.07000 6.067
43.08000 4.057
43.09000 1.999
43.10000 4.072
43.11000 1.990
43.12000 3.051
43.13000 6.070
43.14000 4.033
43.15000 5.080
43.16000 3.043
43.17000 5.099
43.18000 6.111
43.19000 6.064
43.20000 2.067
43.21000 8.136
43.22000 1.030
43.23000 6.028
43.24000 9.076
43.25000 3.051
43.26000 2.999
43.27000 2.018
43.28000 0.997
43.29000 0.000
43.30000 3.991
43.31000 3.126
43.32000 3.063
43.33000 2.040
43.34000 9.073
43.35000 3.081
43.36000 5.094
43.37000 4.099
43.38000 6.218
43.39000 3.069
43.40000 0.000
43.41000 2.016
43.42000 6.047
43.43000 4.011
43.44000 3.029
43.45000 6.021
43.46000 2.049
43.47000 3.184
43.48000 6.087
43.49000 2.031
43.50000 1.003
43.51000 4.021
43.52000 3.979
43.53000 3.936
43.54000 4.023
43.55000 3.014
43.56000 1.998
43.57000 3.111
43.58000 7.081
43.59000 1.051
43.60000 1.996
43.61000 1.986
43.62000 4.075
43.63000 2.982
43.64000 5.017
43.65000 3.035
43.66000 3.041
43.67000 6.108
43.68000 5.095
43.69000 6.040
43.70000 2.991
43.71000 3.014
43.72000 2.991
43.73000 4.058
43.74000 4.001
43.75000 1.001
43.76000 2.046
43.77000 4.057
43.78000 5.081
43.79000 7.208
43.80000 7.205
43.81000 2.008
43.82000 0.995
43.83000 5.169
43.84000 3.045
43.85000 4.110
43.86000 2.003
43.87000 4.116
43.88000 2.014
43.89000 0.000
43.90000 10.220
43.91000 3.037
43.92000 7.945
43.93000 5.971
43.94000 5.143
43.95000 0.000
43.96000 2.030
43.97000 2.083
43.98000 2.050
43.99000 3.052
44.00000 6.089
44.01000 3.029
44.02000 4.096
44.03000 3.984
44.04000 3.086
44.05000 3.031
44.06000 0.991
44.07000 3.946
44.08000 2.007
44.09000 4.074
44.10000 8.074
44.11000 4.149
44.12000 3.058
44.13000 0.000
44.14000 3.005
44.15000 0.996
44.16000 1.034
44.17000 2.042
44.18000 8.095
44.19000 2.034
44.20000 7.112
44.21000 4.025
44.22000 4.962
44.23000 3.996
44.24000 4.054
44.25000 6.973
44.26000 2.976
44.27000 0.996
44.28000 2.066
44.29000 6.096
44.30000 2.053
44.31000 4.043
44.32000 2.102
44.33000 5.091
44.34000 5.178
44.35000 4.076
44.36000 2.053
44.37000 3.032
44.38000 5.060
44.39000 3.006
44.40000 3.999
44.41000 2.979
44.42000 3.008
44.43000 3.953
44.44000 7.078
44.45000 4.085
44.46000 5.169
44.47000 5.018
44.48000 1.048
44.49000 3.040
44.50000 2.036
44.51000 4.068
44.52000 0.000
44.53000 4.027
44.54000 6.176
44.55000 8.162
44.56000 4.065
44.57000 5.086
44.58000 3.066
44.59000 6.067
44.60000 2.030
44.61000 3.983
44.62000 7.185
44.63000 1.018
44.64000 2.017
44.65000 3.061
44.66000 0.985
44.67000 1.968
44.68000 3.078
44.69000 8.084
44.70000 3.025
44.71000 2.082
44.72000 2.969
44.73000 5.004
44.74000 3.059
44.75000 7.031
44.76000 4.008
44.77000 8.093
44.78000 3.082
44.79000 1.958
44.80000 3.008
44.81000 2.057
44.82000 10.073
44.83000 5.084
44.84000 9.088
44.85000 1.018
44.86000 6.001
44.87000 2.051
44.88000 5.027
44.89000 1.011
44.90000 4.074
44.91000 6.088
44.92000 7.232
44.93000 3.003
44.94000 5.998
44.95000 6.020
44.96000 2.096
44.97000 2.066
44.98000 1.010
44.99000 2.979
45.00000 2.005
45.01000 3.021
45.02000 2.008
45.03000 3.011
45.04000 3.061
45.05000 4.020
45.06000 1.032
45.07000 3.012
45.08000 4.035
45.09000 4.069
45.10000 2.017
45.11000 3.099
45.12000 2.026
45.13000 4.019
45.14000 4.077
45.15000 4.020
45.16000 7.101
45.17000 4.089
45.18000 3.018
45.19000 3.075
45.20000 6.050
45.21000 6.021
45.22000 3.051
45.23000 2.050
45.24000 1.994
45.25000 4.007
45.26000 2.061
45.27000 0.991
45.28000 6.153
45.29000 6.112
45.30000 0.977
45.31000 2.046
45.32000 9.203
45.33000 2.026
45.34000 3.062
45.35000 4.150
45.36000 6.018
45.37000 2.011
45.38000 2.018
45.39000 2.031
45.40000 2.014
45.41000 3.961
45.42000 4.122
45.43000 0.998
45.44000 5.087
45.45000 1.993
45.46000 1.987
45.47000 4.033
45.48000 3.016
45.49000 3.100
45.50000 3.076
45.51000 5.217
45.52000 6.056
45.53000 4.064
45.54000 2.031
45.55000 3.066
45.56000 1.089
45.57000 4.070
45.58000 1.050
45.59000 5.014
45.60000 0.000
45.61000 1.004
45.62000 5.084
45.63000 3.003
45.64000 1.001
45.65000 3.053
45.66000 5.067
45.67000 2.106
45.68000 5.028
45.69000 2.076
45.70000 6.134
45.71000 4.050
45.72000 1.017
45.73000 3.084
45.74000 2.029
45.75000 3.105
45.76000 1.976
45.77000 5.985
45.78000 3.092
45.79000 2.161
45.80000 3.053
45.81000 4.150
45.82000 4.101
45.83000 1.979
45.84000 2.057
45.85000 3.028
45.86000 1.011
45.87000 2.016
45.88000 4.106
45.89000 2.007
45.90000 1.000
45.91000 4.044
45.92000 3.036
45.93000 2.038
45.94000 4.064
45.95000 6.079
45.96000 3.989
45.97000 7.076
45.98000 0.982
45.99000 5.118
46.00000 6.072
46.01000 7.192
46.02000 1.007
46.03000 1.006
46.04000 8.052
46.05000 4.067
46.06000 1.987
46.07000 4.084
46.08000 3.035
46.09000 2.964
46.10000 1.956
46.11000 0.000
46.12000 3.040
46.13000 7.183
46.14000 3.016
46.15000 1.993
46.16000 4.073
46.17000 5.079
46.18000 6.036
46.19000 1.030
46.20000 4.065
46.21000 4.012
46.22000 4.992
46.23000 2.015
46.24000 1.000
46.25000 3.078
46.26000 3.053
46.27000 2.043
46.28000 4.057
46.29000 0.982
46.30000 5.034
46.31000 3.033
46.32000 3.006
46.33000 2.027
46.34000 4.018
46.35000 3.085
46.36000 5.035
46.37000 4.031
46.38000 4.914
46.39000 3.076
46.40000 2.058
46.41000 2.031
46.42000 5.046
46.43000 3.953
46.44000 1.040
46.45000 3.013
46.46000 1.027
46.47000 2.998
46.48000 3.054
46.49000 6.143
46.50000 5.105
46.51000 0.000
46.52000 0.000
46.53000 1.994
46.54000 2.049
46.55000 1.007
46.56000 2.030
46.57000 3.021
46.58000 5.078
46.59000 3.993
46.60000 0.984
46.61000 4.083
46.62000 1.017
46.63000 3.024
46.64000 6.041
46.65000 0.000
46.66000 2.068
46.67000 5.124
46.68000 4.034
46.69000 1.041
46.70000 4.017
46.71000 2.043
46.72000 1.015
46.73000 1.004
46.74000 3.035
46.75000 0.000
46.76000 6.042
46.77000 4.106
46.78000 3.120
46.79000 5.138
46.80000 6.049
46.81000 2.029
46.82000 6.050
46.83000 2.060
46.84000 5.109
46.85000 1.008
46.86000 1.004
46.87000 3.113
46.88000 3.062
46.89000 4.007
46.90000 4.021
46.91000 2.993
46.92000 5.043
46.93000 4.060
46.94000 5.152
46.95000 4.034
46.96000 1.068
46.97000 1.094
46.98000 5.015
46.99000 6.105
47.00000 1.003
47.01000 0.000
47.02000 1.007
47.03000 3.002
47.04000 1.047
47.05000 5.106
47.06000 5.027
47.07000 5.059
47.08000 4.055
47.09000 0.994
47.10000 4.025
47.11000 1.016
47.12000 5.090
47.13000 2.083
47.14000 0.000
47.15000 2.042
47.16000 3.009
47.17000 3.128
47.18000 2.987
47.19000 2.044
47.20000 2.061
47.21000 6.079
47.22000 0.994
47.23000 2.986
47.24000 2.045
47.25000 2.004
47.26000 3.002
47.27000 3.099
47.28000 3.030
47.29000 7.119
47.30000 3.054
47.31000 4.163
47.32000 0.996
47.33000 6.095
47.34000 3.096
47.35000 2.013
47.36000 3.980
47.37000 2.986
47.38000 1.050
47.39000 1.050
47.40000 1.022
47.41000 3.002
47.42000 4.058
47.43000 7.190
47.44000 2.010
47.45000 3.015
47.46000 3.012
47.47000 3.081
47.48000 1.039
47.49000 1.991
47.50000 6.129
47.51000 6.028
47.52000 3.042
47.53000 4.143
47.54000 6.027
47.55000 2.021
47.56000 3.058
47.57000 4.046
47.58000 3.947
47.59000 3.072
47.60000 1.060
47.61000 5.133
47.62000 4.013
47.63000 1.998
47.64000 6.092
47.65000 3.029
47.66000 4.034
47.67000 5.001
47.68000 5.087
47.69000 5.056
47.70000 5.044
47.71000 3.031
47.72000 2.027
47.73000 0.000
47.74000 0.000
47.75000 4.015
47.76000 4.036
47.77000 4.059
47.78000 0.000
47.79000 4.086
47.80000 1.024
47.81000 4.125
47.82000 3.054
47.83000 4.041
47.84000 3.083
47.85000 2.032
47.86000 0.997
47.87000 3.058
47.88000 6.094
47.89000 3.051
47.90000 2.059
47.91000 3.058
47.92000 4.081
47.93000 2.085
47.94000 5.040
47.95000 4.120
47.96000 2.069
47.97000 4.998
47.98000 5.029
47.99000 5.035
48.00000 5.037
48.01000 2.046
48.02000 2.033
48.03000 3.052
48.04000 3.021
48.05000 4.073
48.06000 4.086
48.07000 2.008
48.08000 4.072
48.09000 3.034
48.10000 1.043
48.11000 2.034
48.12000 3.051
48.13000 2.025
48.14000 4.088
48.15000 5.174
48.16000 5.127
48.17000 0.995
48.18000 4.018
48.19000 2.040
48.20000 4.041
48.21000 1.002
48.22000 0.000
48.23000 4.130
48.24000 3.019
48.25000 0.000
48.26000 3.058
48.27000 2.049
48.28000 4.034
48.29000 4.997
48.30000 5.125
48.31000 4.115
48.32000 3.092
48.33000 1.034
48.34000 3.020
48.35000 4.053
48.36000 3.089
48.37000 2.074
48.38000 4.053
48.39000 3.078
48.40000 4.047
48.41000 3.077
48.42000 0.973
48.43000 1.023
48.44000 3.019
48.45000 2.023
48.46000 4.151
48.47000 5.088
48.48000 2.995
48.49000 0.995
48.50000 0.990
48.51000 2.018
48.52000 2.034
48.53000 3.053
48.54000 4.106
48.55000 2.021
48.56000 4.067
48.57000 3.041
48.58000 5.066
48.59000 2.984
48.60000 2.966
48.61000 7.173
48.62000 3.001
48.63000 3.064
48.64000 1.992
48.65000 2.022
48.66000 3.013
48.67000 3.009
48.68000 0.000
48.69000 7.068
48.70000 4.062
48.71000 5.043
48.72000 1.018
48.73000 4.036
48.74000 6.049
48.75000 5.151
48.76000 1.016
48.77000 0.000
48.78000 5.060
48.79000 2.987
48.80000 3.003
48.81000 3.099
48.82000 1.012
48.83000 5.000
48.84000 1.000
48.85000 5.121
48.86000 5.052
48.87000 2.966
48.88000 4.072
48.89000 1.010
48.90000 6.007
48.91000 2.017
48.92000 4.041
48.93000 3.003
48.94000 2.044
48.95000 8.240
48.96000 6.011
48.97000 2.011
48.98000 3.061
48.99000 3.980
49.00000 3.065
49.01000 1.008
49.02000 2.091
49.03000 4.055
49.04000 2.994
49.05000 6.033
49.06000 1.010
49.07000 1.032
49.08000 0.984
49.09000 1.007
49.10000 3.048
49.11000 4.036
49.12000 3.034
49.13000 3.084
49.14000 5.058
49.15000 2.040
49.16000 2.061
49.17000 2.013
49.18000 4.104
49.19000 3.026
49.20000 4.082
49.21000 2.004
49.22000 3.062
49.23000 3.000
49.24000 3.058
49.25000 3.064
49.26000 3.090
49.27000 1.023
49.28000 5.114
49.29000 1.998
49.30000 3.024
49.31000 2.015
49.32000 0.000
49.33000 5.057
49.34000 0.000
49.35000 4.955
49.36000 1.997
49.37000 2.011
49.38000 3.131
49.39000 2.069
49.40000 3.017
49.41000 3.009
49.42000 5.175
49.43000 4.073
49.44000 0.990
49.45000 0.000
49.46000 5.113
49.47000 3.042
49.48000 4.020
49.49000 1.999
49.50000 5.089
49.51000 4.054
49.52000 5.107
49.53000 5.064
49.54000 4.042
49.55000 5.996
49.56000 1.000
49.57000 3.138
49.58000 5.026
49.59000 3.016
49.60000 2.061
49.61000 7.058
49.62000 3.059
49.63000 1.035
49.64000 1.016
49.65000 1.978
49.66000 2.995
49.67000 1.977
49.68000 4.028
49.69000 5.099
49.70000 2.097
49.71000 2.002
49.72000 2.023
49.73000 2.065
49.74000 1.999
49.75000 1.009
49.76000 3.970
49.77000 2.993
49.78000 4.049
49.79000 2.072
49.80000 8.060
49.81000 3.984
49.82000 4.056
49.83000 2.013
49.84000 4.037
49.85000 1.982
49.86000 10.032
49.87000 5.022
49.88000 3.088
49.89000 2.021
49.90000 0.000
49.91000 3.032
49.92000 2.069
49.93000 4.082
49.94000 2.023
49.95000 3.959
49.96000 0.981
49.97000 2.035
49.98000 0.988
49.99000 5.043
50.00000 5.193
50.01000 2.009
50.02000 3.060
50.03000 1.002
50.04000 0.000
50.05000 1.020
50.06000 0.993
50.07000 2.033
50.08000 1.032
50.09000 5.067
50.10000 4.049
50.11000 3.063
50.12000 2.068
50.13000 0.000
50.14000 5.079
50.15000 5.079
50.16000 3.010
50.17000 3.990
50.18000 1.042
50.19000 3.027
50.20000 1.974
50.21000 3.058
50.22000 2.045
50.23000 4.151
50.24000 6.036
50.25000 1.024
50.26000 1.994
50.27000 0.981
50.28000 2.985
50.29000 1.000
50.30000 1.037
50.31000 2.964
50.32000 4.039
50.33000 5.087
50.34000 2.069
50.35000 1.950
50.36000 3.037
50.37000 6.024
50.38000 4.043
50.39000 3.976
50.40000 1.994
50.41000 2.025
50.42000 3.019
50.43000 5.120
50.44000 2.017
50.45000 4.043
50.46000 1.004
50.47000 2.058
50.48000 3.017
50.49000 5.008
50.50000 3.022
50.51000 0.000
50.52000 2.037
50.53000 3.013
50.54000 3.110
50.55000 2.064
50.56000 3.974
50.57000 0.997
50.58000 2.039
50.59000 1.003
50.60000 4.115
50.61000 2.042
50.62000 2.019
50.63000 1.052
50.64000 5.039
50.65000 0.985
50.66000 1.023
50.67000 3.968
50.68000 1.108
50.69000 3.060
50.70000 2.104
50.71000 7.155
50.72000 1.024
50.73000 1.029
50.74000 0.000
50.75000 3.053
50.76000 4.013
50.77000 2.033
50.78000 2.027
50.79000 0.991
50.80000 2.013
50.81000 1.985
50.82000 1.016
50.83000 2.007
50.84000 3.097
50.85000 4.010
50.86000 5.095
50.87000 6.049
50.88000 0.994
50.89000 2.034
50.90000 0.000
50.91000 4.096
50.92000 3.993
50.93000 1.001
50.94000 1.033
50.95000 1.988
50.96000 4.085
50.97000 6.040
50.98000 4.079
50.99000 1.015
51.00000 1.032
51.01000 2.080
51.02000 4.003
51.03000 4.024
51.04000 0.979
51.05000 2.017
51.06000 2.000
51.07000 3.098
51.08000 3.008
51.09000 3.088
51.10000 4.042
51.11000 3.022
51.12000 4.052
51.13000 4.097
51.14000 4.088
51.15000 3.015
51.16000 0.998
51.17000 0.000
51.18000 3.028
51.19000 5.128
51.20000 4.104
51.21000 3.004
51.22000 2.110
51.23000 3.101
51.24000 2.054
51.25000 1.995
51.26000 1.978
51.27000 2.016
51.28000 0.000
51.29000 3.124
51.30000 1.981
51.31000 5.036
51.32000 1.997
51.33000 7.064
51.34000 5.023
51.35000 6.101
51.36000 0.990
51.37000 2.995
51.38000 2.036
51.39000 0.986
51.40000 5.078
51.41000 0.981
51.42000 2.992
51.43000 3.039
51.44000 3.114
51.45000 2.015
51.46000 3.068
51.47000 5.092
51.48000 4.037
51.49000 4.028
51.50000 6.142
51.51000 6.111
51.52000 5.019
51.53000 0.978
51.54000 0.983
51.55000 3.097
51.56000 0.000
51.57000 5.055
51.58000 2.008
51.59000 1.026
51.60000 6.153
51.61000 3.016
51.62000 3.139
51.63000 1.974
51.64000 1.017
51.65000 1.035
51.66000 1.006
51.67000 4.074
51.68000 6.966
51.69000 2.087
51.70000 2.043
51.71000 1.020
51.72000 3.032
51.73000 0.000
51.74000 2.977
51.75000 4.057
51.76000 5.089
51.77000 0.000
51.78000 1.994
51.79000 3.018
51.80000 4.017
51.81000 1.967
51.82000 3.042
51.83000 3.034
51.84000 1.002
51.85000 1.965
51.86000 0.000
51.87000 5.048
51.88000 5.062
51.89000 3.092
51.90000 2.024
51.91000 4.031
51.92000 2.997
51.93000 1.040
51.94000 0.989
51.95000 0.000
51.96000 3.025
51.97000 2.020
51.98000 3.073
51.99000 3.974
52.00000 1.019
52.01000 2.040
52.02000 1.994
52.03000 1.020
52.04000 3.079
52.05000 2.040
52.06000 3.073
52.07000 3.014
52.08000 1.987
52.09000 3.953
52.10000 1.038
52.11000 1.964
52.12000 2.058
52.13000 4.991
52.14000 6.022
52.15000 1.995
52.16000 4.986
52.17000 1.992
52.18000 0.000
52.19000 0.000
52.20000 6.093
52.21000 1.017
52.22000 2.069
52.23000 3.075
52.24000 6.123
52.25000 2.987
52.26000 2.029
52.27000 4.035
52.28000 1.012
52.29000 4.137
52.30000 1.034
52.31000 2.080
52.32000 4.033
52.33000 2.058
52.34000 1.010
52.35000 0.986
52.36000 0.000
52.37000 1.039
52.38000 1.031
52.39000 6.058
52.40000 1.995
52.41000 1.068
52.42000 2.004
52.43000 2.027
52.44000 0.985
52.45000 3.079
52.46000 2.022
52.47000 2.040
52.48000 1.978
52.49000 0.000
52.50000 2.033
52.51000 0.000
52.52000 4.082
52.53000 5.070
52.54000 3.089
52.55000 5.087
52.56000 2.061
52.57000 2.026
52.58000 3.055
52.59000 2.065
52.60000 0.998
52.61000 0.000
52.62000 2.016
52.63000 3.053
52.64000 3.119
52.65000 2.997
52.66000 3.023
52.67000 0.976
52.68000 1.035
52.69000 3.058
52.70000 7.077
52.71000 6.070
52.72000 2.026
52.73000 0.987
52.74000 1.965
52.75000 2.019
52.76000 2.055
52.77000 1.000
52.78000 3.028
52.79000 4.021
52.80000 4.027
52.81000 5.058
52.82000 1.959
52.83000 1.002
52.84000 3.007
52.85000 1.013
52.86000 2.040
52.87000 0.000
52.88000 4.054
52.89000 5.048
52.90000 5.103
52.91000 3.028
52.92000 5.065
52.93000 3.035
52.94000 4.102
52.95000 3.021
52.96000 5.075
52.97000 4.075
52.98000 2.002
52.99000 3.023
53.00000 3.042
53.01000 1.025
53.02000 2.027
53.03000 3.105
53.04000 5.010
53.05000 4.053
53.06000 4.152
53.07000 4.101
53.08000 2.007
53.09000 3.026
53.10000 5.024
53.11000 5.079
53.12000 2.043
53.13000 3.012
53.14000 3.065
53.15000 2.028
53.16000 2.004
53.17000 1.037
53.18000 2.060
53.19000 7.194
53.20000 0.000
53.21000 0.996
53.22000 0.000
53.23000 2.005
53.24000 0.000
53.25000 0.000
53.26000 2.003
53.27000 3.071
53.28000 0.000
53.29000 2.980
53.30000 3.009
53.31000 3.032
53.32000 2.032
53.33000 3.083
53.34000 3.064
53.35000 3.088
53.36000 4.090
53.37000 4.040
53.38000 6.076
53.39000 1.005
53.40000 0.000
53.41000 7.096
53.42000 3.942
53.43000 0.000
53.44000 3.993
53.45000 2.011
53.46000 0.000
53.47000 2.102
53.48000 3.041
53.49000 2.008
53.50000 4.019
53.51000 3.037
53.52000 2.022
53.53000 4.069
53.54000 2.003
53.55000 1.997
53.56000 4.976
53.57000 3.069
53.58000 2.038
53.59000 2.036
53.60000 2.007
53.61000 5.041
53.62000 6.074
53.63000 0.000
53.64000 1.988
53.65000 2.034
53.66000 0.000
53.67000 3.054
53.68000 2.002
53.69000 4.011
53.70000 1.000
53.71000 3.105
53.72000 3.003
53.73000 2.033
53.74000 5.112
53.75000 2.002
53.76000 2.025
53.77000 1.033
53.78000 3.009
53.79000 1.986
53.80000 2.028
53.81000 2.007
53.82000 1.977
53.83000 4.085
53.84000 0.000
53.85000 3.105
53.86000 4.007
53.87000 4.036
53.88000 2.098
53.89000 4.048
53.90000 3.003
53.91000 2.076
53.92000 2.963
53.93000 9.940
53.94000 4.065
53.95000 3.062
53.96000 5.153
53.97000 2.005
53.98000 3.996
53.99000 0.995
54.00000 0.982
54.01000 3.056
54.02000 2.007
54.03000 6.054
54.04000 0.995
54.05000 1.985
54.06000 2.997
54.07000 3.060
54.08000 2.977
54.09000 4.112
54.10000 3.007
54.11000 2.015
54.12000 1.011
54.13000 1.021
54.14000 3.051
54.15000 3.996
54.16000 2.099
54.17000 0.000
54.18000 0.980
54.19000 2.996
54.20000 1.069
54.21000 3.049
54.22000 2.049
54.23000 3.074
54.24000 5.009
54.25000 2.079
54.26000 0.000
54.27000 4.123
54.28000 4.145
54.29000 0.000
54.30000 3.028
54.31000 2.022
54.32000 3.035
54.33000 7.124
54.34000 3.071
54.35000 3.964
54.36000 1.016
54.37000 0.999
54.38000 2.011
54.39000 2.004
54.40000 1.014
54.41000 0.000
54.42000 0.000
54.43000 0.988
54.44000 2.061
54.45000 0.995
54.46000 3.081
54.47000 0.000
54.48000 0.000
54.49000 1.005
54.50000 3.027
54.51000 2.054
54.52000 3.004
54.53000 4.102
54.54000 3.023
54.55000 1.992
54.56000 3.987
54.57000 0.000
54.58000 0.000
54.59000 0.000
54.60000 2.016
54.61000 3.036
54.62000 1.034
54.63000 0.000
54.64000 2.061
54.65000 2.072
54.66000 2.017
54.67000 4.009
54.68000 2.042
54.69000 3.059
54.70000 2.010
54.71000 4.007
54.72000 2.981
54.73000 0.000
54.74000 2.993
54.75000 1.013
54.76000 4.054
54.77000 2.036
54.78000 3.026
54.79000 2.058
54.80000 2.041
54.81000 4.077
54.82000 0.990
54.83000 6.079
54.84000 5.060
54.85000 7.108
54.86000 1.003
54.87000 1.994
54.88000 1.020
54.89000 4.046
54.90000 0.000
54.91000 1.968
54.92000 4.154
54.93000 0.993
54.94000 5.070
54.95000 2.044
54.96000 4.004
54.97000 4.072
54.98000 1.010
54.99000 1.032
55.00000 0.000
55.01000 1.990
55.02000 4.070
55.03000 4.001
55.04000 0.000
55.05000 3.031
55.06000 1.978
55.07000 3.053
55.08000 4.072
55.09000 1.929
55.10000 1.012
55.11000 1.022
55.12000 3.043
55.13000 3.178
55.14000 0.000
55.15000 4.037
55.16000 4.060
55.17000 2.034
55.18000 6.057
55.19000 3.068
55.20000 2.030
55.21000 3.118
55.22000 2.005
55.23000 1.013
55.24000 0.974
55.25000 3.031
55.26000 0.988
55.27000 2.033
55.28000 3.032
55.29000 2.998
55.30000 0.000
55.31000 1.015
55.32000 1.035
55.33000 3.068
55.34000 0.000
55.35000 2.007
55.36000 4.099
55.37000 1.010
55.38000 3.047
55.39000 6.176
55.40000 7.003
55.41000 3.969
55.42000 0.000
55.43000 4.043
55.44000 5.971
55.45000 1.990
55.46000 1.027
55.47000 2.066
55.48000 3.038
55.49000 0.996
55.50000 5.111
55.51000 3.052
55.52000 1.012
55.53000 2.014
55.54000 2.024
55.55000 3.992
55.56000 3.150
55.57000 4.100
55.58000 3.049
55.59000 4.070
55.60000 4.060
55.61000 1.001
55.62000 2.013
55.63000 2.011
55.64000 2.004
55.65000 1.026
55.66000 3.086
55.67000 5.104
55.68000 1.028
55.69000 3.078
55.70000 1.039
55.71000 0.000
55.72000 3.023
55.73000 4.157
55.74000 6.184
55.75000 2.018
55.76000 0.000
55.77000 4.135
55.78000 3.062
55.79000 2.025
55.80000 1.012
55.81000 0.997
55.82000 1.990
55.83000 1.025
55.84000 3.057
55.85000 2.023
55.86000 0.994
55.87000 3.983
55.88000 3.017
55.89000 3.011
55.90000 1.994
55.91000 4.064
55.92000 2.035
55.93000 2.072
55.94000 1.009
55.95000 4.058
55.96000 3.063
55.97000 4.042
55.98000 1.022
55.99000 2.991
56.00000 6.090
56.01000 3.030
56.02000 0.000
56.03000 3.983
56.04000 2.041
56.05000 1.049
56.06000 2.045
56.07000 1.981
56.08000 3.076
56.09000 0.984
56.10000 3.136
56.11000 1.989
56.12000 2.014
56.13000 7.026
56.14000 2.023
56.15000 1.975
56.16000 2.004
56.17000 0.000
56.18000 4.057
56.19000 2.041
56.20000 3.028
56.21000 3.025
56.22000 4.969
56.23000 1.056
56.24000 0.000
56.25000 1.044
56.26000 3.044
56.27000 2.004
56.28000 4.015
56.29000 2.031
56.30000 0.000
56.31000 1.047
56.32000 1.006
56.33000 3.065
56.34000 1.057
56.35000 0.000
56.36000 5.002
56.37000 0.000
56.38000 3.053
56.39000 1.009
56.40000 3.045
56.41000 0.000
56.42000 3.021
56.43000 4.033
56.44000 3.028
56.45000 1.029
56.46000 0.983
56.47000 0.000
56.48000 1.976
56.49000 0.000
56.50000 3.038
56.51000 1.023
56.52000 2.043
56.53000 3.008
56.54000 0.991
56.55000 4.113
56.56000 3.008
56.57000 5.137
56.58000 1.996
56.59000 2.040
56.60000 4.079
56.61000 0.000
56.62000 3.066
56.63000 1.997
56.64000 1.023
56.65000 0.000
56.66000 1.985
56.67000 4.094
56.68000 0.000
56.69000 3.011
56.70000 0.977
56.71000 3.023
56.72000 3.090
56.73000 1.970
56.74000 1.058
56.75000 0.000
56.76000 1.039
56.77000 3.063
56.78000 6.059
56.79000 1.998
56.80000 0.000
56.81000 3.039
56.82000 4.049
56.83000 2.003
56.84000 0.998
56.85000 1.029
56.86000 0.000
56.87000 1.023
56.88000 1.050
56.89000 1.002
56.90000 1.999
56.91000 0.995
56.92000 3.054
56.93000 1.023
56.94000 1.029
56.95000 3.066
56.96000 1.028
56.97000 2.075
56.98000 0.000
56.99000 0.991
57.00000 0.975
57.01000 2.009
57.02000 1.006
57.03000 2.007
57.04000 0.000
57.05000 6.101
57.06000 3.021
57.07000 1.010
57.08000 0.997
57.09000 1.019
57.10000 3.021
57.11000 3.044
57.12000 3.032
57.13000 0.000
57.14000 2.024
57.15000 1.991
57.16000 1.031
57.17000 1.002
57.18000 2.978
57.19000 1.015
57.20000 5.073
57.21000 1.025
57.22000 2.045
57.23000 0.994
57.24000 1.023
57.25000 1.070
57.26000 0.000
57.27000 1.005
57.28000 0.000
57.29000 0.993
57.30000 1.032
57.31000 1.024
57.32000 2.071
57.33000 3.997
57.34000 1.034
57.35000 2.032
57.36000 5.068
57.37000 1.036
57.38000 0.978
57.39000 2.957
57.40000 2.011
57.41000 4.042
57.42000 3.002
57.43000 0.987
57.44000 0.000
57.45000 0.989
57.46000 4.072
57.47000 2.014
57.48000 5.064
57.49000 4.998
57.50000 5.993
57.51000 2.038
57.52000 1.993
57.53000 5.014
57.54000 0.000
57.55000 2.050
57.56000 4.991
57.57000 0.000
57.58000 2.014
57.59000 3.041
57.60000 0.990
57.61000 2.983
57.62000 1.009
57.63000 5.009
57.64000 2.064
57.65000 0.992
57.66000 5.139
57.67000 2.022
57.68000 3.032
57.69000 2.021
57.70000 0.000
57.71000 2.018
57.72000 4.011
57.73000 3.975
57.74000 3.032
57.75000 5.015
57.76000 3.985
57.77000 4.029
57.78000 4.061
57.79000 0.999
57.80000 3.044
57.81000 1.005
57.82000 1.002
57.83000 2.011
57.84000 0.000
57.85000 3.063
57.86000 5.084
57.87000 3.062
57.88000 4.040
57.89000 1.019
57.90000 1.010
57.91000 0.995
57.92000 1.010
57.93000 1.976
57.94000 1.012
57.95000 2.050
57.96000 3.039
57.97000 4.055
57.98000 3.075
57.99000 0.000
58.00000 0.000
58.01000 0.991
58.02000 2.060
58.03000 3.006
58.04000 1.983
58.05000 4.134
58.06000 5.962
58.07000 2.020
58.08000 4.050
58.09000 2.037
58.10000 1.966
58.11000 2.032
58.12000 2.976
58.13000 2.035
58.14000 3.068
58.15000 2.035
58.16000 2.973
58.17000 1.995
58.18000 1.024
58.19000 4.036
58.20000 0.970
58.21000 4.014
58.22000 4.120
58.23000 4.087
58.24000 0.000
58.25000 2.076
58.26000 0.000
58.27000 2.009
58.28000 1.011
58.29000 1.975
58.30000 0.000
58.31000 2.044
58.32000 2.955
58.33000 1.007
58.34000 1.034
58.35000 0.000
58.36000 2.021
58.37000 0.000
58.38000 2.032
58.39000 2.000
58.40000 3.026
58.41000 4.047
58.42000 0.000
58.43000 3.067
58.44000 0.000
58.45000 3.067
58.46000 1.040
58.47000 3.074
58.48000 5.046
58.49000 3.009
58.50000 4.047
58.51000 4.057
58.52000 1.988
58.53000 1.006
58.54000 0.000
58.55000 2.060
58.56000 0.000
58.57000 2.977
58.58000 0.992
58.59000 0.000
58.60000 5.010
58.61000 4.054
58.62000 3.051
58.63000 3.016
58.64000 0.982
58.65000 0.000
58.66000 3.073
58.67000 3.053
58.68000 2.085
58.69000 6.089
58.70000 3.071
58.71000 2.068
58.72000 0.980
58.73000 0.986
58.74000 3.014
58.75000 0.988
58.76000 1.014
58.77000 2.008
58.78000 2.990
58.79000 3.013
58.80000 4.036
58.81000 6.096
58.82000 3.004
58.83000 2.034
58.84000 2.005
58.85000 1.997
58.86000 4.159
58.87000 3.014
58.88000 5.080
58.89000 0.993
58.90000 2.060
58.91000 1.016
58.92000 7.100
58.93000 0.000
58.94000 3.022
58.95000 0.000
58.96000 4.024
58.97000 0.000
58.98000 3.012
58.99000 1.037
59.00000 4.017
59.01000 2.062
59.02000 2.100
59.03000 2.997
59.04000 2.035
59.05000 4.994
59.06000 4.073
59.07000 2.043
59.08000 2.026
59.09000 1.007
59.10000 3.038
59.11000 1.004
59.12000 3.006
59.13000 0.000
59.14000 0.000
59.15000 0.000
59.16000 4.036
59.17000 2.068
59.18000 3.022
59.19000 1.015
59.20000 0.000
59.21000 5.064
59.22000 4.079
59.23000 1.984
59.24000 1.025
59.25000 1.990
59.26000 1.020
59.27000 1.005
59.28000 0.981
59.29000 0.984
59.30000 1.002
59.31000 4.053
59.32000 2.028
59.33000 0.000
59.34000 1.010
59.35000 2.007
59.36000 3.006
59.37000 3.031
59.38000 0.000
59.39000 2.025
59.40000 2.988
59.41000 1.047
59.42000 1.989
59.43000 0.000
59.44000 2.007
59.45000 0.000
59.46000 4.082
59.47000 3.036
59.48000 3.985
59.49000 0.981
59.50000 1.023
59.51000 2.002
59.52000 3.055
59.53000 1.999
59.54000 2.024
59.55000 4.068
59.56000 0.969
59.57000 3.005
59.58000 3.053
59.59000 2.025
59.60000 3.058
59.61000 4.072
59.62000 1.007
59.63000 1.022
59.64000 0.000
59.65000 2.010
59.66000 2.024
59.67000 3.053
59.68000 2.028
59.69000 2.981
59.70000 4.124
59.71000 3.145
59.72000 0.000
59.73000 1.040
59.74000 1.003
59.75000 0.000
59.76000 3.001
59.77000 2.940
59.78000 2.005
59.79000 2.945
59.80000 3.050
59.81000 3.105
59.82000 1.018
59.83000 3.025
59.84000 2.026
59.85000 1.015
59.86000 2.035
59.87000 1.038
59.88000 3.029
59.89000 2.025
59.90000 3.025
59.91000 3.019
59.92000 2.032
59.93000 0.000
59.94000 2.000
59.95000 0.000
59.96000 0.000
59.97000 3.032
59.98000 0.000
59.99000 2.020
60.00000 2.940
60.01000 3.039
60.02000 0.000
60.03000 2.038
60.04000 3.025
60.05000 3.989
60.06000 2.045
60.07000 0.000
60.08000 3.080
60.09000 0.994
60.10000 4.043
60.11000 5.021
60.12000 0.000
60.13000 2.038
60.14000 1.061
60.15000 0.993
60.16000 1.001
60.17000 4.056
60.18000 1.054
60.19000 1.037
60.20000 1.992
60.21000 4.069
60.22000 4.032
60.23000 5.033
60.24000 1.009
60.25000 4.124
60.26000 0.000
60.27000 0.000
60.28000 0.000
60.29000 2.992
60.30000 2.041
60.31000 2.066
60.32000 2.074
60.33000 0.985
60.34000 0.999
60.35000 1.003
60.36000 0.000
60.37000 0.976
60.38000 0.997
60.39000 2.004
60.40000 1.016
60.41000 1.058
60.42000 1.005
60.43000 3.088
60.44000 0.000
60.45000 1.032
60.46000 1.958
60.47000 5.170
60.48000 1.041
60.49000 2.083
60.50000 2.027
60.51000 1.071
60.52000 3.014
60.53000 2.007
60.54000 2.012
60.55000 0.000
60.56000 0.000
60.57000 3.034
60.58000 1.015
60.59000 4.996
60.60000 1.064
60.61000 0.000
60.62000 1.990
60.63000 4.111
60.64000 3.018
60.65000 2.991
60.66000 1.031
60.67000 4.023
60.68000 2.003
60.69000 2.996
60.70000 2.053
60.71000 1.023
60.72000 0.000
60.73000 3.065
60.74000 4.023
60.75000 0.000
60.76000 3.029
60.77000 1.028
60.78000 1.960
60.79000 1.009
60.80000 1.034
60.81000 3.069
60.82000 4.033
60.83000 5.018
60.84000 2.054
60.85000 1.037
60.86000 1.024
60.87000 3.107
60.88000 1.049
60.89000 1.032
60.90000 2.038
60.91000 1.989
60.92000 2.030
60.93000 4.054
60.94000 0.993
60.95000 2.016
60.96000 0.000
60.97000 0.995
60.98000 4.051
60.99000 1.055
61.00000 0.999
61.01000 0.000
61.02000 3.078
61.03000 0.000
61.04000 2.093
61.05000 5.061
61.06000 2.067
61.07000 1.995
61.08000 0.989
61.09000 0.995
61.10000 3.098
61.11000 0.000
61.12000 1.982
61.13000 0.000
61.14000 0.983
61.15000 1.072
61.16000 0.000
61.17000 2.004
61.18000 1.020
61.19000 1.024
61.20000 1.005
61.21000 5.011
61.22000 2.018
61.23000 5.037
61.24000 2.004
61.25000 2.030
61.26000 2.053
61.27000 2.976
61.28000 1.058
61.29000 2.020
61.30000 4.031
61.31000 2.055
61.32000 0.000
61.33000 1.016
61.34000 0.999
61.35000 0.000
61.36000 2.023
61.37000 5.046
61.38000 2.035
61.39000 0.992
61.40000 3.092
61.41000 1.986
61.42000 0.000
61.43000 1.025
61.44000 3.037
61.45000 3.038
61.46000 4.061
61.47000 0.000
61.48000 1.980
61.49000 1.977
61.50000 1.042
61.51000 0.994
61.52000 2.019
61.53000 1.998
61.54000 1.977
61.55000 0.000
61.56000 1.033
61.57000 2.080
61.58000 1.986
61.59000 1.995
61.60000 2.029
61.61000 0.000
61.62000 1.957
61.63000 1.970
61.64000 1.008
61.65000 2.007
61.66000 1.027
61.67000 1.023
61.68000 0.968
61.69000 0.981
61.70000 1.031
61.71000 2.019
61.72000 1.027
61.73000 1.982
61.74000 3.017
61.75000 2.000
61.76000 1.048
61.77000 3.042
61.78000 0.999
61.79000 1.982
61.80000 0.000
61.81000 1.009
61.82000 0.000
61.83000 0.981
61.84000 3.166
61.85000 0.978
61.86000 0.000
61.87000 2.987
61.88000 0.000
61.89000 5.017
61.90000 1.039
61.91000 2.018
61.92000 3.057
61.93000 1.000
61.94000 0.999
61.95000 3.075
61.96000 1.030
61.97000 4.054
61.98000 2.035
61.99000 1.053
62.00000 3.065
62.01000 1.017
62.02000 6.036
62.03000 1.031
62.04000 2.016
62.05000 2.002
62.06000 3.946
62.07000 0.000
62.08000 3.075
62.09000 2.028
62.10000 4.049
62.11000 2.053
62.12000 3.081
62.13000 0.000
62.14000 2.024
62.15000 4.015
62.16000 0.985
62.17000 0.972
62.18000 1.078
62.19000 1.035
62.20000 3.019
62.21000 0.000
62.22000 0.000
62.23000 1.968
62.24000 1.988
62.25000 3.053
62.26000 1.986
62.27000 1.983
62.28000 2.008
62.29000 5.036
62.30000 1.979
62.31000 2.000
62.32000 3.118
62.33000 1.975
62.34000 1.002
62.35000 3.041
62.36000 0.986
62.37000 3.043
62.38000 2.002
62.39000 3.004
62.40000 2.058
62.41000 5.044
62.42000 3.048
62.43000 0.000
62.44000 0.996
62.45000 1.059
62.46000 4.072
62.47000 1.011
62.48000 0.985
62.49000 2.009
62.50000 0.000
62.51000 2.037
62.52000 1.039
62.53000 0.000
62.54000 0.000
62.55000 3.120
62.56000 2.017
62.57000 2.045
62.58000 2.980
62.59000 1.991
62.60000 3.056
62.61000 1.967
62.62000 2.021
62.63000 3.080
62.64000 0.000
62.65000 0.000
62.66000 0.000
62.67000 3.022
62.68000 3.017
62.69000 5.094
62.70000 2.027
62.71000 3.039
62.72000 0.977
62.73000 2.076
62.74000 0.991
62.75000 1.974
62.76000 3.045
62.77000 1.983
62.78000 0.000
62.79000 3.025
62.80000 0.981
62.81000 4.121
62.82000 1.011
62.83000 1.027
62.84000 2.078
62.85000 0.984
62.86000 4.064
62.87000 1.983
62.88000 1.043
62.89000 4.029
62.90000 2.051
62.91000 3.084
62.92000 1.017
62.93000 0.975
62.94000 4.059
62.95000 1.021
62.96000 1.970
62.97000 2.055
62.98000 3.021
62.99000 2.941
63.00000 1.995
63.01000 4.043
63.02000 3.058
63.03000 0.995
63.04000 2.061
63.05000 3.033
63.06000 4.036
63.07000 6.063
63.08000 0.000
63.09000 2.991
63.10000 2.031
63.11000 0.000
63.12000 0.981
63.13000 4.166
63.14000 2.053
63.15000 0.994
63.16000 0.970
63.17000 0.000
63.18000 1.992
63.19000 0.000
63.20000 1.018
63.21000 0.991
63.22000 2.005
63.23000 1.001
63.24000 3.037
63.25000 3.014
63.26000 0.974
63.27000 6.015
63.28000 4.001
63.29000 3.057
63.30000 1.032
63.31000 4.163
63.32000 4.002
63.33000 6.013
63.34000 0.000
63.35000 4.031
63.36000 4.066
63.37000 0.999
63.38000 0.000
63.39000 1.041
63.40000 2.050
63.41000 1.045
63.42000 1.980
63.43000 0.000
63.44000 3.983
63.45000 2.997
63.46000 4.034
63.47000 0.000
63.48000 3.036
63.49000 0.000
63.50000 3.027
63.51000 0.000
63.52000 1.051
63.53000 3.059
63.54000 1.004
63.55000 2.992
63.56000 1.042
63.57000 0.000
63.58000 2.057
63.59000 0.968
63.60000 0.000
63.61000 1.993
63.62000 2.002
63.63000 4.008
63.64000 1.018
63.65000 2.048
63.66000 1.033
63.67000 2.034
63.68000 1.977
63.69000 2.061
63.70000 1.064
63.71000 1.003
63.72000 4.080
63.73000 2.039
63.74000 2.003
63.75000 3.054
63.76000 6.136
63.77000 6.043
63.78000 2.123
63.79000 2.059
63.80000 4.067
63.81000 3.085
63.82000 3.100
63.83000 4.018
63.84000 1.010
63.85000 2.989
63.86000 1.997
63.87000 3.006
63.88000 2.058
63.89000 2.007
63.90000 0.000
63.91000 0.986
63.92000 0.987
63.93000 1.004
63.94000 2.038
63.95000 2.055
63.96000 0.000
63.97000 3.148
63.98000 4.070
63.99000 0.980
64.00000 0.000
64.01000 3.056
64.02000 0.000
64.03000 0.000
64.04000 2.984
64.05000 2.027
64.06000 1.016
64.07000 1.004
64.08000 3.101
64.09000 1.033
64.10000 5.068
64.11000 4.114
64.12000 1.018
64.13000 0.000
64.14000 0.000
64.15000 5.072
64.16000 1.003
64.17000 0.000
64.18000 2.057
64.19000 4.093
64.20000 3.010
64.21000 2.024
64.22000 1.967
64.23000 0.000
64.24000 1.034
64.25000 1.995
64.26000 6.022
64.27000 0.000
64.28000 3.090
64.29000 2.081
64.30000 3.025
64.31000 1.985
64.32000 0.000
64.33000 0.000
64.34000 1.022
64.35000 1.982
64.36000 0.000
64.37000 4.011
64.38000 1.009
64.39000 2.042
64.40000 3.035
64.41000 2.021
64.42000 3.041
64.43000 3.991
64.44000 0.998
64.45000 2.003
64.46000 0.000
64.47000 1.031
64.48000 2.029
64.49000 1.009
64.50000 2.028
64.51000 3.072
64.52000 6.125
64.53000 0.000
64.54000 2.069
64.55000 2.023
64.56000 3.064
64.57000 1.997
64.58000 6.031
64.59000 5.036
64.60000 2.031
64.61000 1.019
64.62000 1.991
64.63000 3.081
64.64000 3.018
64.65000 0.993
64.66000 2.059
64.67000 4.099
64.68000 4.136
64.69000 5.009
64.70000 2.033
64.71000 1.990
64.72000 2.085
64.73000 1.024
64.74000 1.981
64.75000 1.032
64.76000 1.028
64.77000 3.057
64.78000 0.000
64.79000 1.033
64.80000 3.022
64.81000 7.204
64.82000 1.046
64.83000 0.000
64.84000 0.000
64.85000 2.072
64.86000 3.106
64.87000 2.006
64.88000 3.100
64.89000 1.002
64.90000 0.000
64.91000 0.984
64.92000 1.023
64.93000 1.001
64.94000 2.012
64.95000 0.977
64.96000 1.025
64.97000 1.987
64.98000 1.972
64.99000 0.000
65.00000 2.022
