20.00000 24.423
20.01000 17.166
20.02000 23.442
20.03000 23.304
20.04000 23.231
20.05000 22.353
20.06000 22.404
20.07000 19.372
20.08000 15.144
20.09000 18.481
20.10000 16.190
20.11000 16.201
20.12000 18.047
20.13000 18.169
20.14000 20.342
20.15000 19.088
20.16000 17.234
20.17000 23.347
20.18000 21.333
20.19000 16.239
20.20000 17.117
20.21000 18.418
20.22000 23.259
20.23000 22.499
20.24000 21.274
20.25000 8.007
20.26000 19.157
20.27000 22.274
20.28000 17.247
20.29000 21.200
20.30000 15.162
20.31000 15.322
20.32000 15.510
20.33000 10.129
20.34000 20.221
20.35000 28.400
20.36000 15.292
20.37000 19.082
20.38000 18.201
20.39000 20.227
20.40000 25.515
20.41000 17.338
20.42000 14.094
20.43000 11.173
20.44000 26.454
20.45000 16.146
20.46000 19.358
20.47000 17.997
20.48000 21.195
20.49000 17.292
20.50000 21.289
20.51000 13.241
20.52000 21.245
20.53000 18.413
20.54000 11.127
20.55000 20.336
20.56000 18.146
20.57000 10.179
20.58000 16.173
20.59000 21.146
20.60000 19.332
20.61000 21.274
20.62000 29.268
20.63000 23.469
20.64000 23.274
20.65000 16.261
20.66000 26.446
20.67000 22.264
20.68000 19.258
20.69000 19.289
20.70000 18.113
20.71000 11.091
20.72000 27.496
20.73000 19.056
20.74000 20.221
20.75000 25.296
20.76000 25.434
20.77000 19.358
20.78000 21.236
20.79000 18.271
20.80000 14.190
20.81000 22.398
20.82000 18.326
20.83000 10.119
20.84000 26.639
20.85000 19.299
20.86000 25.405
20.87000 21.064
20.88000 21.135
20.89000 22.197
20.90000 22.227
20.91000 24.295
20.92000 29.481
20.93000 18.074
20.94000 23.240
20.95000 22.307
20.96000 20.270
20.97000 19.365
20.98000 13.218
20.99000 18.100
21.00000 14.147
21.01000 17.236
21.02000 11.135
21.03000 18.075
21.04000 23.237
21.05000 12.081
21.06000 21.332
21.07000 34.639
21.08000 23.238
21.09000 13.088
21.10000 22.163
21.11000 26.348
21.12000 19.362
21.13000 19.331
21.14000 17.196
21.15000 23.273
21.16000 19.253
21.17000 24.284
21.18000 24.141
21.19000 17.259
21.20000 16.262
21.21000 24.314
21.22000 23.285
21.23000 13.153
21.24000 16.129
21.25000 24.343
21.26000 26.584
21.27000 15.026
21.28000 21.316
21.29000 12.299
21.30000 17.234
21.31000 19.334
21.32000 20.387
21.33000 22.321
21.34000 21.345
21.35000 20.226
21.36000 22.230
21.37000 23.418
21.38000 23.201
21.39000 22.271
21.40000 20.296
21.41000 22.508
21.42000 19.304
21.43000 11.217
21.44000 14.259
21.45000 28.224
21.46000 16.294
21.47000 24.231
21.48000 18.235
21.49000 24.206
21.50000 21.188
21.51000 16.154
21.52000 24.298
21.53000 17.209
21.54000 31.430
21.55000 16.084
21.56000 22.244
21.57000 21.431
21.58000 18.089
21.59000 13.141
21.60000 23.242
21.61000 23.346
21.62000 20.426
21.63000 19.279
21.64000 19.347
21.65000 22.135
21.66000 23.302
21.67000 16.151
21.68000 21.399
21.69000 16.177
21.70000 22.151
21.71000 25.283
21.72000 25.312
21.73000 21.267
21.74000 22.243
21.75000 20.056
21.76000 19.177
21.77000 21.208
21.78000 20.388
21.79000 27.463
21.80000 19.396
21.81000 19.268
21.82000 28.210
21.83000 18.346
21.84000 18.250
21.85000 15.218
21.86000 18.169
21.87000 15.161
21.88000 22.319
21.89000 20.287
21.90000 25.396
21.91000 15.143
21.92000 21.184
21.93000 20.398
21.94000 22.176
21.95000 21.244
21.96000 16.354
21.97000 15.095
21.98000 14.266
21.99000 21.235
22.00000 16.083
22.01000 25.095
22.02000 22.288
22.03000 23.388
22.04000 25.615
22.05000 24.264
22.06000 13.252
22.07000 21.359
22.08000 19.403
22.09000 14.069
22.10000 18.249
22.11000 26.689
22.12000 18.348
22.13000 9.066
22.14000 21.209
22.15000 24.287
22.16000 22.970
22.17000 13.280
22.18000 16.199
22.19000 24.206
22.20000 27.229
22.21000 19.094
22.22000 22.189
22.23000 17.239
22.24000 24.241
22.25000 22.025
22.26000 26.542
22.27000 16.199
22.28000 21.233
22.29000 19.249
22.30000 18.520
22.31000 21.275
22.32000 22.353
22.33000 22.283
22.34000 23.428
22.35000 25.187
22.36000 32.192
22.37000 24.268
22.38000 21.371
22.39000 15.022
22.40000 14.333
22.41000 34.557
22.42000 22.141
22.43000 21.425
22.44000 23.224
22.45000 18.252
22.46000 27.385
22.47000 23.129
22.48000 30.344
22.49000 27.362
22.50000 19.282
22.51000 20.272
22.52000 22.300
22.53000 21.451
22.54000 26.295
22.55000 19.131
22.56000 24.114
22.57000 33.459
22.58000 17.349
22.59000 17.110
22.60000 28.390
22.61000 17.211
22.62000 19.307
22.63000 21.093
22.64000 19.353
22.65000 22.436
22.66000 20.271
22.67000 26.622
22.68000 18.205
22.69000 22.487
22.70000 17.287
22.71000 16.273
22.72000 19.210
22.73000 20.136
22.74000 22.171
22.75000 24.208
22.76000 23.103
22.77000 26.458
22.78000 23.142
22.79000 28.201
22.80000 25.206
22.81000 21.253
22.82000 16.077
22.83000 28.201
22.84000 23.544
22.85000 26.418
22.86000 23.345
22.87000 29.295
22.88000 20.394
22.89000 21.234
22.90000 22.215
22.91000 15.042
22.92000 21.141
22.93000 21.384
22.94000 20.099
22.95000 19.224
22.96000 24.300
22.97000 29.389
22.98000 15.199
22.99000 25.258
23.00000 17.005
23.01000 24.360
23.02000 20.262
23.03000 18.131
23.04000 21.389
23.05000 20.243
23.06000 21.155
23.07000 25.474
23.08000 32.327
23.09000 23.337
23.10000 26.553
23.11000 20.248
23.12000 29.529
23.13000 24.278
23.14000 19.190
23.15000 31.494
23.16000 30.249
23.17000 25.547
23.18000 29.153
23.19000 28.601
23.20000 28.269
23.21000 25.459
23.22000 24.246
23.23000 24.254
23.24000 22.087
23.25000 28.323
23.26000 13.268
23.27000 27.324
23.28000 18.359
23.29000 24.555
23.30000 30.263
23.31000 26.525
23.32000 18.247
23.33000 31.432
23.34000 20.222
23.35000 28.307
23.36000 27.138
23.37000 18.222
23.38000 33.529
23.39000 22.137
23.40000 25.427
23.41000 20.294
23.42000 33.567
23.43000 18.193
23.44000 16.327
23.45000 31.215
23.46000 22.359
23.47000 18.187
23.48000 24.389
23.49000 28.269
23.50000 17.161
23.51000 22.370
23.52000 19.332
23.53000 22.311
23.54000 24.405
23.55000 24.503
23.56000 24.480
23.57000 31.312
23.58000 16.150
23.59000 25.372
23.60000 24.459
23.61000 26.300
23.62000 27.347
23.63000 24.371
23.64000 32.416
23.65000 18.272
23.66000 25.267
23.67000 20.252
23.68000 36.459
23.69000 15.224
23.70000 25.284
23.71000 28.242
23.72000 31.440
23.73000 20.317
23.74000 25.464
23.75000 24.542
23.76000 32.515
23.77000 21.230
23.78000 30.238
23.79000 25.500
23.80000 32.462
23.81000 24.377
23.82000 32.377
23.83000 26.409
23.84000 20.212
23.85000 27.246
23.86000 25.333
23.87000 13.274
23.88000 27.377
23.89000 28.398
23.90000 20.449
23.91000 17.888
23.92000 23.357
23.93000 29.487
23.94000 24.160
23.95000 28.433
23.96000 25.190
23.97000 27.134
23.98000 27.500
23.99000 28.415
24.00000 19.283
24.01000 24.178
24.02000 25.294
24.03000 25.366
24.04000 36.529
24.05000 33.339
24.06000 27.246
24.07000 25.152
24.08000 36.335
24.09000 24.361
24.10000 25.238
24.11000 37.347
24.12000 29.419
24.13000 28.369
24.14000 26.427
24.15000 21.147
24.16000 31.754
24.17000 25.304
24.18000 24.267
24.19000 28.264
24.20000 26.448
24.21000 29.463
24.22000 25.523
24.23000 24.396
24.24000 21.242
24.25000 44.446
24.26000 30.499
24.27000 21.385
24.28000 41.653
24.29000 20.305
24.30000 33.345
24.31000 30.373
24.32000 30.275
24.33000 26.095
24.34000 27.331
24.35000 27.369
24.36000 30.303
24.37000 26.260
24.38000 25.248
24.39000 25.382
24.40000 25.212
24.41000 17.195
24.42000 24.273
24.43000 30.447
24.44000 28.404
24.45000 30.328
24.46000 21.122
24.47000 25.134
24.48000 48.542
24.49000 25.364
24.50000 23.261
24.51000 26.453
24.52000 24.107
24.53000 30.339
24.54000 30.325
24.55000 31.422
24.56000 22.402
24.57000 35.414
24.58000 36.438
24.59000 28.394
24.60000 33.586
24.61000 27.258
24.62000 29.350
24.63000 28.271
24.64000 31.344
24.65000 20.211
24.66000 27.346
24.67000 28.210
24.68000 28.121
24.69000 23.094
24.70000 23.389
24.71000 31.308
24.72000 39.632
24.73000 29.352
24.74000 36.607
24.75000 21.341
24.76000 22.401
24.77000 38.477
24.78000 33.153
24.79000 29.474
24.80000 30.382
24.81000 23.232
24.82000 23.354
24.83000 34.496
24.84000 29.200
24.85000 29.357
24.86000 33.548
24.87000 33.452
24.88000 30.539
24.89000 35.585
24.90000 33.413
24.91000 30.275
24.92000 32.573
24.93000 26.052
24.94000 23.384
24.95000 32.590
24.96000 31.595
24.97000 24.179
24.98000 36.534
24.99000 37.437
25.00000 33.597
25.01000 35.420
25.02000 44.585
25.03000 26.265
25.04000 33.400
25.05000 32.509
25.06000 33.456
25.07000 30.577
25.08000 27.238
25.09000 31.362
25.10000 39.718
25.11000 32.439
25.12000 26.224
25.13000 28.305
25.14000 23.293
25.15000 39.401
25.16000 33.610
25.17000 31.288
25.18000 30.356
25.19000 35.363
25.20000 27.457
25.21000 34.599
25.22000 37.374
25.23000 30.311
25.24000 30.302
25.25000 36.504
25.26000 30.385
25.27000 23.158
25.28000 27.208
25.29000 34.178
25.30000 39.420
25.31000 36.412
25.32000 36.497
25.33000 28.417
25.34000 38.590
25.35000 35.262
25.36000 35.646
25.37000 29.581
25.38000 27.187
25.39000 32.323
25.40000 40.649
25.41000 35.432
25.42000 27.408
25.43000 37.285
25.44000 27.133
25.45000 47.454
25.46000 40.669
25.47000 33.424
25.48000 31.342
25.49000 30.596
25.50000 29.428
25.51000 36.477
25.52000 40.616
25.53000 38.500
25.54000 49.538
25.55000 30.401
25.56000 38.809
25.57000 32.852
25.58000 31.349
25.59000 33.286
25.60000 27.326
25.61000 29.306
25.62000 30.401
25.63000 40.687
25.64000 39.647
25.65000 35.571
25.66000 28.376
25.67000 26.313
25.68000 41.564
25.69000 43.397
25.70000 35.571
25.71000 28.356
25.72000 29.173
25.73000 27.309
25.74000 39.650
25.75000 43.865
25.76000 30.253
25.77000 38.519
25.78000 31.422
25.79000 39.448
25.80000 35.703
25.81000 25.341
25.82000 32.309
25.83000 43.665
25.84000 34.187
25.85000 41.641
25.86000 41.445
25.87000 37.565
25.88000 32.373
25.89000 50.850
25.90000 39.546
25.91000 47.634
25.92000 40.494
25.93000 34.279
25.94000 43.741
25.95000 38.415
25.96000 33.597
25.97000 36.297
25.98000 34.586
25.99000 27.446
26.00000 33.720
26.01000 42.391
26.02000 38.231
26.03000 33.685
26.04000 45.599
26.05000 36.612
26.06000 41.667
26.07000 40.491
26.08000 38.546
26.09000 33.609
26.10000 38.636
26.11000 39.453
26.12000 49.694
26.13000 44.457
26.14000 34.436
26.15000 35.505
26.16000 45.580
26.17000 37.208
26.18000 48.623
26.19000 37.401
26.20000 28.383
26.21000 34.321
26.22000 50.442
26.23000 32.458
26.24000 41.636
26.25000 39.555
26.26000 30.449
26.27000 33.539
26.28000 44.382
26.29000 47.472
26.30000 38.540
26.31000 45.489
26.32000 37.510
26.33000 37.416
26.34000 38.578
26.35000 32.293
26.36000 36.424
26.37000 34.562
26.38000 46.837
26.39000 42.279
26.40000 34.404
26.41000 34.477
26.42000 33.429
26.43000 49.644
26.44000 37.566
26.45000 40.662
26.46000 43.666
26.47000 42.702
26.48000 48.947
26.49000 34.486
26.50000 43.565
26.51000 43.512
26.52000 46.631
26.53000 43.515
26.54000 36.541
26.55000 32.539
26.56000 48.562
26.57000 45.489
26.58000 41.278
26.59000 35.518
26.60000 52.801
26.61000 50.683
26.62000 32.289
26.63000 50.905
26.64000 37.276
26.65000 40.392
26.66000 38.417
26.67000 40.408
26.68000 41.362
26.69000 36.297
26.70000 37.720
26.71000 46.586
26.72000 42.686
26.73000 42.246
26.74000 39.327
26.75000 38.495
26.76000 46.906
26.77000 43.360
26.78000 28.516
26.79000 47.459
26.80000 38.864
26.81000 47.379
26.82000 44.511
26.83000 44.672
26.84000 40.450
26.85000 55.484
26.86000 51.460
26.87000 50.666
26.88000 44.832
26.89000 50.728
26.90000 40.401
26.91000 27.422
26.92000 47.743
26.93000 38.477
26.94000 39.586
26.95000 46.627
26.96000 43.493
26.97000 46.414
26.98000 52.822
26.99000 54.617
27.00000 43.532
27.01000 37.708
27.02000 47.916
27.03000 37.475
27.04000 40.312
27.05000 36.401
27.06000 48.753
27.07000 38.439
27.08000 37.161
27.09000 38.527
27.10000 40.867
27.11000 46.795
27.12000 40.612
27.13000 52.673
27.14000 51.617
27.15000 43.540
27.16000 34.329
27.17000 39.445
27.18000 42.645
27.19000 38.369
27.20000 53.686
27.21000 53.717
27.22000 37.512
27.23000 43.633
27.24000 37.463
27.25000 42.400
27.26000 45.610
27.27000 36.282
27.28000 42.370
27.29000 38.511
27.30000 52.629
27.31000 54.007
27.32000 45.349
27.33000 44.692
27.34000 49.343
27.35000 47.582
27.36000 43.746
27.37000 50.704
27.38000 43.601
27.39000 37.225
27.40000 58.728
27.41000 57.840
27.42000 43.446
27.43000 45.566
27.44000 55.577
27.45000 45.287
27.46000 57.188
27.47000 46.511
27.48000 43.515
27.49000 40.599
27.50000 33.246
27.51000 50.658
27.52000 47.472
27.53000 47.490
27.54000 40.350
27.55000 54.664
27.56000 50.907
27.57000 53.412
27.58000 37.278
27.59000 58.958
27.60000 49.879
27.61000 34.486
27.62000 36.662
27.63000 39.649
27.64000 51.683
27.65000 38.501
27.66000 39.362
27.67000 40.412
27.68000 46.605
27.69000 53.692
27.70000 43.351
27.71000 51.600
27.72000 41.852
27.73000 44.661
27.74000 50.702
27.75000 22.266
27.76000 48.705
27.77000 43.884
27.78000 53.958
27.79000 38.187
27.80000 52.483
27.81000 39.382
27.82000 40.537
27.83000 43.753
27.84000 37.650
27.85000 54.810
27.86000 46.631
27.87000 43.316
27.88000 32.611
27.89000 36.230
27.90000 42.530
27.91000 48.650
27.92000 46.471
27.93000 34.594
27.94000 53.609
27.95000 50.621
27.96000 61.714
27.97000 53.955
27.98000 51.420
27.99000 44.568
28.00000 48.750
28.01000 50.944
28.02000 44.661
28.03000 34.429
28.04000 47.405
28.05000 45.453
28.06000 53.609
28.07000 48.885
28.08000 44.473
28.09000 42.356
28.10000 35.729
28.11000 48.959
28.12000 44.782
28.13000 45.841
28.14000 56.739
28.15000 39.265
28.16000 37.287
28.17000 43.386
28.18000 43.580
28.19000 61.060
28.20000 50.584
28.21000 46.530
28.22000 49.469
28.23000 47.226
28.24000 47.517
28.25000 43.692
28.26000 43.570
28.27000 35.477
28.28000 34.425
28.29000 62.404
28.30000 46.527
28.31000 55.873
28.32000 46.692
28.33000 49.698
28.34000 52.752
28.35000 43.601
28.36000 37.495
28.37000 37.618
28.38000 42.574
28.39000 38.468
28.40000 51.612
28.41000 47.696
28.42000 51.591
28.43000 40.539
28.44000 49.628
28.45000 39.471
28.46000 55.166
28.47000 34.339
28.48000 43.449
28.49000 53.609
28.50000 38.556
28.51000 46.761
28.52000 42.586
28.53000 39.472
28.54000 41.529
28.55000 39.589
28.56000 43.495
28.57000 41.561
28.58000 38.596
28.59000 43.547
28.60000 47.485
28.61000 41.418
28.62000 37.640
28.63000 42.608
28.64000 37.548
28.65000 44.825
28.66000 52.666
28.67000 51.592
28.68000 34.580
28.69000 34.705
28.70000 37.564
28.71000 48.580
28.72000 37.363
28.73000 44.668
28.74000 43.295
28.75000 37.816
28.76000 45.573
28.77000 46.430
28.78000 39.336
28.79000 43.449
28.80000 41.816
28.81000 47.640
28.82000 40.476
28.83000 35.428
28.84000 36.469
28.85000 45.519
28.86000 41.587
28.87000 40.560
28.88000 35.497
28.89000 42.730
28.90000 53.713
28.91000 41.586
28.92000 30.269
28.93000 31.352
28.94000 47.367
28.95000 33.556
28.96000 47.601
28.97000 30.447
28.98000 30.108
28.99000 27.548
29.00000 47.461
29.01000 41.578
29.02000 34.321
29.03000 44.754
29.04000 40.576
29.05000 40.583
29.06000 50.584
29.07000 44.270
29.08000 34.582
29.09000 40.499
29.10000 52.760
29.11000 54.702
29.12000 49.714
29.13000 37.555
29.14000 42.560
29.15000 34.633
29.16000 55.811
29.17000 50.941
29.18000 41.791
29.19000 40.327
29.20000 54.612
29.21000 45.270
29.22000 42.408
29.23000 39.474
29.24000 40.252
29.25000 29.358
29.26000 32.501
29.27000 54.738
29.28000 45.490
29.29000 40.620
29.30000 36.372
29.31000 24.217
29.32000 39.676
29.33000 33.343
29.34000 55.950
29.35000 39.582
29.36000 31.385
29.37000 32.222
29.38000 36.436
29.39000 37.377
29.40000 33.129
29.41000 44.798
29.42000 38.446
29.43000 36.589
29.44000 33.227
29.45000 39.475
29.46000 39.463
29.47000 38.329
29.48000 24.367
29.49000 38.600
29.50000 26.427
29.51000 36.731
29.52000 42.697
29.53000 36.561
29.54000 38.433
29.55000 38.525
29.56000 32.665
29.57000 36.720
29.58000 41.615
29.59000 41.541
29.60000 32.410
29.61000 36.548
29.62000 36.566
29.63000 49.731
29.64000 26.103
29.65000 44.359
29.66000 29.205
29.67000 27.072
29.68000 33.359
29.69000 41.348
29.70000 38.223
29.71000 42.532
29.72000 36.588
29.73000 45.568
29.74000 23.301
29.75000 33.518
29.76000 22.152
29.77000 31.539
29.78000 34.546
29.79000 38.327
29.80000 30.461
29.81000 39.480
29.82000 39.700
29.83000 32.388
29.84000 32.361
29.85000 29.353
29.86000 44.696
29.87000 34.503
29.88000 23.165
29.89000 30.190
29.90000 35.619
29.91000 35.315
29.92000 34.377
29.93000 29.423
29.94000 43.245
29.95000 29.360
29.96000 39.443
29.97000 39.851
29.98000 26.393
29.99000 36.459
30.00000 31.244
30.01000 28.452
30.02000 36.437
30.03000 30.474
30.04000 34.606
30.05000 29.123
30.06000 22.428
30.07000 24.291
30.08000 38.593
30.09000 18.217
30.10000 39.813
30.11000 43.592
30.12000 40.551
30.13000 27.350
30.14000 30.473
30.15000 31.424
30.16000 27.482
30.17000 23.568
30.18000 33.457
30.19000 43.625
30.20000 26.285
30.21000 35.216
30.22000 25.322
30.23000 31.250
30.24000 30.270
30.25000 28.355
30.26000 30.430
30.27000 29.397
30.28000 35.376
30.29000 28.320
30.30000 36.399
30.31000 36.420
30.32000 28.462
30.33000 33.601
30.34000 35.458
30.35000 22.188
30.36000 25.516
30.37000 37.472
30.38000 25.516
30.39000 24.244
30.40000 22.521
30.41000 26.515
30.42000 39.409
30.43000 33.424
30.44000 28.507
30.45000 14.302
30.46000 31.429
30.47000 32.509
30.48000 27.473
30.49000 25.407
30.50000 29.445
30.51000 25.394
30.52000 39.449
30.53000 32.342
30.54000 24.255
30.55000 32.406
30.56000 29.285
30.57000 33.528
30.58000 38.532
30.59000 38.442
30.60000 29.150
30.61000 31.157
30.62000 26.365
30.63000 23.302
30.64000 22.423
30.65000 33.497
30.66000 27.365
30.67000 31.304
30.68000 24.374
30.69000 30.277
30.70000 25.331
30.71000 27.326
30.72000 32.346
30.73000 21.235
30.74000 27.364
30.75000 26.371
30.76000 32.368
30.77000 19.401
30.78000 30.391
30.79000 29.329
30.80000 30.239
30.81000 34.441
30.82000 28.454
30.83000 34.772
30.84000 24.239
30.85000 34.457
30.86000 27.238
30.87000 23.290
30.88000 24.214
30.89000 25.143
30.90000 27.250
30.91000 26.120
30.92000 30.291
30.93000 26.406
30.94000 20.108
30.95000 23.292
30.96000 22.363
30.97000 24.380
30.98000 22.191
30.99000 24.265
31.00000 34.201
31.01000 24.262
31.02000 24.334
31.03000 24.139
31.04000 30.315
31.05000 28.272
31.06000 29.361
31.07000 26.237
31.08000 21.290
31.09000 21.227
31.10000 22.288
31.11000 18.309
31.12000 26.260
31.13000 25.522
31.14000 28.439
31.15000 21.092
31.16000 26.119
31.17000 27.640
31.18000 27.436
31.19000 20.305
31.20000 25.490
31.21000 33.338
31.22000 27.411
31.23000 29.594
31.24000 25.294
31.25000 16.112
31.26000 28.576
31.27000 30.394
31.28000 23.530
31.29000 23.411
31.30000 29.478
31.31000 27.305
31.32000 27.194
31.33000 21.332
31.34000 23.487
31.35000 31.404
31.36000 24.262
31.37000 21.243
31.38000 27.291
31.39000 24.423
31.40000 24.320
31.41000 26.329
31.42000 22.491
31.43000 20.326
31.44000 22.270
31.45000 25.368
31.46000 21.193
31.47000 22.327
31.48000 17.394
31.49000 18.059
31.50000 27.082
31.51000 22.346
31.52000 31.431
31.53000 21.225
31.54000 32.395
31.55000 24.384
31.56000 21.300
31.57000 27.241
31.58000 17.295
31.59000 20.236
31.60000 39.520
31.61000 24.421
31.62000 32.371
31.63000 26.447
31.64000 20.299
31.65000 23.218
31.66000 21.213
31.67000 29.495
31.68000 30.396
31.69000 26.435
31.70000 27.190
31.71000 21.384
31.72000 21.372
31.73000 28.397
31.74000 17.393
31.75000 25.119
31.76000 22.137
31.77000 22.081
31.78000 33.491
31.79000 25.205
31.80000 23.428
31.81000 14.200
31.82000 20.465
31.83000 23.103
31.84000 26.179
31.85000 21.389
31.86000 19.220
31.87000 34.396
31.88000 15.210
31.89000 23.411
31.90000 17.135
31.91000 18.257
31.92000 29.381
31.93000 25.357
31.94000 26.547
31.95000 30.417
31.96000 25.341
31.97000 19.370
31.98000 23.245
31.99000 33.198
32.00000 27.223
32.01000 23.420
32.02000 24.280
32.03000 23.463
32.04000 32.449
32.05000 30.350
32.06000 25.225
32.07000 20.373
32.08000 20.295
32.09000 23.441
32.10000 15.238
32.11000 21.233
32.12000 30.311
32.13000 25.389
32.14000 26.317
32.15000 25.151
32.16000 25.227
32.17000 20.200
32.18000 33.457
32.19000 29.178
32.20000 33.391
32.21000 26.480
32.22000 33.439
32.23000 21.289
32.24000 22.299
32.25000 32.239
32.26000 20.304
32.27000 21.097
32.28000 35.587
32.29000 23.343
32.30000 39.358
32.31000 33.368
32.32000 20.256
32.33000 30.250
32.34000 34.322
32.35000 24.293
32.36000 24.249
32.37000 29.508
32.38000 32.560
32.39000 30.390
32.40000 26.135
32.41000 29.314
32.42000 35.757
32.43000 30.395
32.44000 24.326
32.45000 24.505
32.46000 23.393
32.47000 18.324
32.48000 19.300
32.49000 17.219
32.50000 29.581
32.51000 40.465
32.52000 28.374
32.53000 29.359
32.54000 37.640
32.55000 28.452
32.56000 26.277
32.57000 24.361
32.58000 24.175
32.59000 29.496
32.60000 28.473
32.61000 32.103
32.62000 22.458
32.63000 24.291
32.64000 22.337
32.65000 13.103
32.66000 26.538
32.67000 21.524
32.68000 22.055
32.69000 23.153
32.70000 18.250
32.71000 27.374
32.72000 23.274
32.73000 24.380
32.74000 29.453
32.75000 22.200
32.76000 17.302
32.77000 16.129
32.78000 22.398
32.79000 25.328
32.80000 17.318
32.81000 23.569
32.82000 19.044
32.83000 17.148
32.84000 21.119
32.85000 14.219
32.86000 22.406
32.87000 23.320
32.88000 21.114
32.89000 24.315
32.90000 21.281
32.91000 18.210
32.92000 23.315
32.93000 18.233
32.94000 18.044
32.95000 23.191
32.96000 14.139
32.97000 31.497
32.98000 18.294
32.99000 25.214
33.00000 17.055
33.01000 26.479
33.02000 29.285
33.03000 19.279
33.04000 15.130
33.05000 20.044
33.06000 16.013
33.07000 19.179
33.08000 24.154
33.09000 10.074
33.10000 24.344
33.11000 17.260
33.12000 12.109
33.13000 22.386
33.14000 19.273
33.15000 21.532
33.16000 19.219
33.17000 16.144
33.18000 12.128
33.19000 11.121
33.20000 16.109
33.21000 13.123
33.22000 23.312
33.23000 20.450
33.24000 17.444
33.25000 15.158
33.26000 22.077
33.27000 11.058
33.28000 26.251
33.29000 19.323
33.30000 25.225
33.31000 18.336
33.32000 22.359
33.33000 16.168
33.34000 27.218
33.35000 8.071
33.36000 18.188
33.37000 21.359
33.38000 25.452
33.39000 16.112
33.40000 15.200
33.41000 18.348
33.42000 13.184
33.43000 20.221
33.44000 27.515
33.45000 22.411
33.46000 13.242
33.47000 15.148
33.48000 25.284
33.49000 20.203
33.50000 22.147
33.51000 19.384
33.52000 13.978
33.53000 14.095
33.54000 11.113
33.55000 15.171
33.56000 22.304
33.57000 20.494
33.58000 10.207
33.59000 19.365
33.60000 11.209
33.61000 15.248
33.62000 17.223
33.63000 17.335
33.64000 22.118
33.65000 21.405
33.66000 11.155
33.67000 18.408
33.68000 18.120
33.69000 23.226
33.70000 23.245
33.71000 11.280
33.72000 15.234
33.73000 15.172
33.74000 15.295
33.75000 20.273
33.76000 21.347
33.77000 12.236
33.78000 21.121
33.79000 14.235
33.80000 11.216
33.81000 13.075
33.82000 16.301
33.83000 17.334
33.84000 15.296
33.85000 19.361
33.86000 20.223
33.87000 13.189
33.88000 16.151
33.89000 15.133
33.90000 15.343
33.91000 17.055
33.92000 14.316
33.93000 18.126
33.94000 21.267
33.95000 13.192
33.96000 16.179
33.97000 14.164
33.98000 17.333
33.99000 17.257
34.00000 11.102
34.01000 18.187
34.02000 8.085
34.03000 18.448
34.04000 19.284
34.05000 18.218
34.06000 11.109
34.07000 18.233
34.08000 15.040
34.09000 17.201
34.10000 10.151
34.11000 13.232
34.12000 8.077
34.13000 14.199
34.14000 11.128
34.15000 20.219
34.16000 14.070
34.17000 20.295
34.18000 8.073
34.19000 19.196
34.20000 16.158
34.21000 12.174
34.22000 11.037
34.23000 11.201
34.24000 11.295
34.25000 21.195
34.26000 19.186
34.27000 15.158
34.28000 15.195
34.29000 12.131
34.30000 19.272
34.31000 16.950
34.32000 12.177
34.33000 11.987
34.34000 11.178
34.35000 16.125
34.36000 14.234
34.37000 16.237
34.38000 16.153
34.39000 13.081
34.40000 19.205
34.41000 12.259
34.42000 13.165
34.43000 14.405
34.44000 15.283
34.45000 17.276
34.46000 16.137
34.47000 22.300
34.48000 13.216
34.49000 11.147
34.50000 18.211
34.51000 6.089
34.52000 22.332
34.53000 12.302
34.54000 12.032
34.55000 10.177
34.56000 17.231
34.57000 10.064
34.58000 11.981
34.59000 11.143
34.60000 13.109
34.61000 17.355
34.62000 15.323
34.63000 12.166
34.64000 18.380
34.65000 11.104
34.66000 13.087
34.67000 11.024
34.68000 13.353
34.69000 17.238
34.70000 18.122
34.71000 23.068
34.72000 23.284
34.73000 17.164
34.74000 16.205
34.75000 16.179
34.76000 15.247
34.77000 15.142
34.78000 14.098
34.79000 15.132
34.80000 14.154
34.81000 14.194
34.82000 13.140
34.83000 19.155
34.84000 13.159
34.85000 10.201
34.86000 20.300
34.87000 23.409
34.88000 22.228
34.89000 7.262
34.90000 16.356
34.91000 16.177
34.92000 13.067
34.93000 12.232
34.94000 10.105
34.95000 11.026
34.96000 20.109
34.97000 11.251
34.98000 19.247
34.99000 8.078
35.00000 20.227
35.01000 11.084
35.02000 17.315
35.03000 8.097
35.04000 24.332
35.05000 17.299
35.06000 16.157
35.07000 15.302
35.08000 11.337
35.09000 18.077
35.10000 15.327
35.11000 14.221
35.12000 14.105
35.13000 16.407
35.14000 15.198
35.15000 8.065
35.16000 12.193
35.17000 14.216
35.18000 17.288
35.19000 20.234
35.20000 14.120
35.21000 16.127
35.22000 15.102
35.23000 13.311
35.24000 10.198
35.25000 14.179
35.26000 18.231
35.27000 18.132
35.28000 18.155
35.29000 10.225
35.30000 18.356
35.31000 18.182
35.32000 17.276
35.33000 18.529
35.34000 14.296
35.35000 13.241
35.36000 13.234
35.37000 15.250
35.38000 12.263
35.39000 18.342
35.40000 15.210
35.41000 15.228
35.42000 15.355
35.43000 12.194
35.44000 21.389
35.45000 9.025
35.46000 14.200
35.47000 11.076
35.48000 21.452
35.49000 9.073
35.50000 12.085
35.51000 19.342
35.52000 18.192
35.53000 10.163
35.54000 8.048
35.55000 16.103
35.56000 12.231
35.57000 14.143
35.58000 13.025
35.59000 14.187
35.60000 18.208
35.61000 15.044
35.62000 11.201
35.63000 17.116
35.64000 6.101
35.65000 16.357
35.66000 20.355
35.67000 17.134
35.68000 16.487
35.69000 15.239
35.70000 16.308
35.71000 8.054
35.72000 13.002
35.73000 16.205
35.74000 17.187
35.75000 12.276
35.76000 16.130
35.77000 12.191
35.78000 13.187
35.79000 17.118
35.80000 20.240
35.81000 7.093
35.82000 20.264
35.83000 16.158
35.84000 7.077
35.85000 16.337
35.86000 14.132
35.87000 11.167
35.88000 8.115
35.89000 14.305
35.90000 18.182
35.91000 11.152
35.92000 11.209
35.93000 16.228
35.94000 15.236
35.95000 17.209
35.96000 20.232
35.97000 13.175
35.98000 9.237
35.99000 17.190
36.00000 10.280
36.01000 11.128
36.02000 17.152
36.03000 10.038
36.04000 19.479
36.05000 12.234
36.06000 15.301
36.07000 12.227
36.08000 22.304
36.09000 12.185
36.10000 9.969
36.11000 22.383
36.12000 14.143
36.13000 19.318
36.14000 19.197
36.15000 12.320
36.16000 12.221
36.17000 22.391
36.18000 16.052
36.19000 12.082
36.20000 8.055
36.21000 13.151
36.22000 9.180
36.23000 13.264
36.24000 12.327
36.25000 17.117
36.26000 16.091
36.27000 14.022
36.28000 19.221
36.29000 16.213
36.30000 15.447
36.31000 12.186
36.32000 17.243
36.33000 14.326
36.34000 10.144
36.35000 8.213
36.36000 9.276
36.37000 22.381
36.38000 14.285
36.39000 17.057
36.40000 17.376
36.41000 22.216
36.42000 16.239
36.43000 23.278
36.44000 18.167
36.45000 17.096
36.46000 15.151
36.47000 14.113
36.48000 19.286
36.49000 9.010
36.50000 11.165
36.51000 17.206
36.52000 10.125
36.53000 10.140
36.54000 13.162
36.55000 12.284
36.56000 16.118
36.57000 11.228
36.58000 16.146
36.59000 11.102
36.60000 15.171
36.61000 21.355
36.62000 13.129
36.63000 19.215
36.64000 19.320
36.65000 21.303
36.66000 10.226
36.67000 14.160
36.68000 18.240
36.69000 13.203
36.70000 15.120
36.71000 17.213
36.72000 18.377
36.73000 15.321
36.74000 14.148
36.75000 19.191
36.76000 17.190
36.77000 16.021
36.78000 16.120
36.79000 13.116
36.80000 18.232
36.81000 14.276
36.82000 14.166
36.83000 19.073
36.84000 17.142
36.85000 6.964
36.86000 10.164
36.87000 16.205
36.88000 16.252
36.89000 14.163
36.90000 12.149
36.91000 15.133
36.92000 21.162
36.93000 20.242
36.94000 18.411
36.95000 19.243
36.96000 12.035
36.97000 13.175
36.98000 23.116
36.99000 12.217
37.00000 10.214
37.01000 22.154
37.02000 27.161
37.03000 21.395
37.04000 18.291
37.05000 21.460
37.06000 14.312
37.07000 14.145
37.08000 13.234
37.09000 18.118
37.10000 16.263
37.11000 16.179
37.12000 17.017
37.13000 18.345
37.14000 15.232
37.15000 19.162
37.16000 16.413
37.17000 18.286
37.18000 10.099
37.19000 15.073
37.20000 12.188
37.21000 15.221
37.22000 10.128
37.23000 17.994
37.24000 18.292
37.25000 25.492
37.26000 19.442
37.27000 15.269
37.28000 15.147
37.29000 26.470
37.30000 24.045
37.31000 14.312
37.32000 17.263
37.33000 19.151
37.34000 17.234
37.35000 20.178
37.36000 24.394
37.37000 20.246
37.38000 11.111
37.39000 15.054
37.40000 12.133
37.41000 17.197
37.42000 15.129
37.43000 17.266
37.44000 12.112
37.45000 12.114
37.46000 15.103
37.47000 15.106
37.48000 15.138
37.49000 19.139
37.50000 17.237
37.51000 14.171
37.52000 14.201
37.53000 17.207
37.54000 18.202
37.55000 16.297
37.56000 19.321
37.57000 14.222
37.58000 16.247
37.59000 9.052
37.60000 10.246
37.61000 10.137
37.62000 16.279
37.63000 10.074
37.64000 9.141
37.65000 15.226
37.66000 16.078
37.67000 10.043
37.68000 13.156
37.69000 20.296
37.70000 9.192
37.71000 12.101
37.72000 20.163
37.73000 14.226
37.74000 24.301
37.75000 23.310
37.76000 22.294
37.77000 19.114
37.78000 17.161
37.79000 18.380
37.80000 14.217
37.81000 12.076
37.82000 16.145
37.83000 12.250
37.84000 19.176
37.85000 17.325
37.86000 13.332
37.87000 16.173
37.88000 17.243
37.89000 24.293
37.90000 18.213
37.91000 23.023
37.92000 21.205
37.93000 21.230
37.94000 12.138
37.95000 16.234
37.96000 15.166
37.97000 20.164
37.98000 19.268
37.99000 16.160
38.00000 15.223
38.01000 15.198
38.02000 22.341
38.03000 18.216
38.04000 12.062
38.05000 18.448
38.06000 15.250
38.07000 16.167
38.08000 21.370
38.09000 13.202
38.10000 20.301
38.11000 19.358
38.12000 12.153
38.13000 13.297
38.14000 22.328
38.15000 17.217
38.16000 12.257
38.17000 13.076
38.18000 22.409
38.19000 12.135
38.20000 5.014
38.21000 18.220
38.22000 26.230
38.23000 23.368
38.24000 12.259
38.25000 18.349
38.26000 22.206
38.27000 16.248
38.28000 20.157
38.29000 17.375
38.30000 12.152
38.31000 21.260
38.32000 21.153
38.33000 23.334
38.34000 11.958
38.35000 19.079
38.36000 25.525
38.37000 20.462
38.38000 22.335
38.39000 17.302
38.40000 24.405
38.41000 16.351
38.42000 17.298
38.43000 18.152
38.44000 14.200
38.45000 24.270
38.46000 18.088
38.47000 27.195
38.48000 19.224
38.49000 12.119
38.50000 21.188
38.51000 18.216
38.52000 20.242
38.53000 16.244
38.54000 16.251
38.55000 17.193
38.56000 15.148
38.57000 14.120
38.58000 18.049
38.59000 14.151
38.60000 17.308
38.61000 20.296
38.62000 17.014
38.63000 19.268
38.64000 16.393
38.65000 17.133
38.66000 18.088
38.67000 9.116
38.68000 23.389
38.69000 12.191
38.70000 17.103
38.71000 7.013
38.72000 20.384
38.73000 19.198
38.74000 18.149
38.75000 17.307
38.76000 19.367
38.77000 20.200
38.78000 15.139
38.79000 18.221
38.80000 14.093
38.81000 11.098
38.82000 16.194
38.83000 28.406
38.84000 18.205
38.85000 18.250
38.86000 18.293
38.87000 22.227
38.88000 15.191
38.89000 17.059
38.90000 19.240
38.91000 15.207
38.92000 19.235
38.93000 12.123
38.94000 13.150
38.95000 12.118
38.96000 19.292
38.97000 18.239
38.98000 12.276
38.99000 15.135
39.00000 12.120
39.01000 18.341
39.02000 22.210
39.03000 15.323
39.04000 17.248
39.05000 25.348
39.06000 10.234
39.07000 20.202
39.08000 19.156
39.09000 15.255
39.10000 14.271
39.11000 13.122
39.12000 21.234
39.13000 15.160
39.14000 23.129
39.15000 24.250
39.16000 15.284
39.17000 15.239
39.18000 16.115
39.19000 23.296
39.20000 18.081
39.21000 12.155
39.22000 24.068
39.23000 16.368
39.24000 15.097
39.25000 18.253
39.26000 16.262
39.27000 20.239
39.28000 28.440
39.29000 17.375
39.30000 20.164
39.31000 16.262
39.32000 20.182
39.33000 16.179
39.34000 25.286
39.35000 17.198
39.36000 15.063
39.37000 18.333
39.38000 20.306
39.39000 19.160
39.40000 15.183
39.41000 11.118
39.42000 15.101
39.43000 22.267
39.44000 22.244
39.45000 16.186
39.46000 14.136
39.47000 19.945
39.48000 27.534
39.49000 16.095
39.50000 13.154
39.51000 16.084
39.52000 21.197
39.53000 16.172
39.54000 14.117
39.55000 21.410
39.56000 18.280
39.57000 18.274
39.58000 16.237
39.59000 19.138
39.60000 12.158
39.61000 17.173
39.62000 24.370
39.63000 12.206
39.64000 8.017
39.65000 24.357
39.66000 21.078
39.67000 18.307
39.68000 23.415
39.69000 13.204
39.70000 19.221
39.71000 9.156
39.72000 16.179
39.73000 32.241
39.74000 20.171
39.75000 24.367
39.76000 18.229
39.77000 12.293
39.78000 19.285
39.79000 16.428
39.80000 18.268
39.81000 13.177
39.82000 21.094
39.83000 10.083
39.84000 21.367
39.85000 15.148
39.86000 20.252
39.87000 19.247
39.88000 21.266
39.89000 21.249
39.90000 13.216
39.91000 13.098
39.92000 18.258
39.93000 21.189
39.94000 22.282
39.95000 21.238
39.96000 17.200
39.97000 9.030
39.98000 16.175
39.99000 17.051
40.00000 25.397
40.01000 20.254
40.02000 16.256
40.03000 17.190
40.04000 15.050
40.05000 13.140
40.06000 20.288
40.07000 19.224
40.08000 16.256
40.09000 15.191
40.10000 19.223
40.11000 22.445
40.12000 17.321
40.13000 15.316
40.14000 21.522
40.15000 13.134
40.16000 16.013
40.17000 22.311
40.18000 21.180
40.19000 20.184
40.20000 17.329
40.21000 19.160
40.22000 22.356
40.23000 12.088
40.24000 15.160
40.25000 24.215
40.26000 28.260
40.27000 21.270
40.28000 22.206
40.29000 19.348
40.30000 14.259
40.31000 17.275
40.32000 18.175
40.33000 13.159
40.34000 11.172
40.35000 22.137
40.36000 15.316
40.37000 18.185
40.38000 18.311
40.39000 18.265
40.40000 12.234
40.41000 11.175
40.42000 21.245
40.43000 17.224
40.44000 21.116
40.45000 26.267
40.46000 17.278
40.47000 12.156
40.48000 15.260
40.49000 24.379
40.50000 14.986
40.51000 16.249
40.52000 24.304
40.53000 18.123
40.54000 13.093
40.55000 17.138
40.56000 16.102
40.57000 14.150
40.58000 21.391
40.59000 14.058
40.60000 13.312
40.61000 18.356
40.62000 10.078
40.63000 15.297
40.64000 22.490
40.65000 17.077
40.66000 21.075
40.67000 12.999
40.68000 14.147
40.69000 19.171
40.70000 17.183
40.71000 20.163
40.72000 23.346
40.73000 22.127
40.74000 13.120
40.75000 17.218
40.76000 17.286
40.77000 13.216
40.78000 13.118
40.79000 9.211
40.80000 26.329
40.81000 17.249
40.82000 18.413
40.83000 15.428
40.84000 13.065
40.85000 14.170
40.86000 14.121
40.87000 19.173
40.88000 14.204
40.89000 17.173
40.90000 16.049
40.91000 21.118
40.92000 17.231
40.93000 20.166
40.94000 13.202
40.95000 17.419
40.96000 17.178
40.97000 16.328
40.98000 17.175
40.99000 17.163
41.00000 16.234
41.01000 15.213
41.02000 8.117
41.03000 13.206
41.04000 18.324
41.05000 15.174
41.06000 21.262
41.07000 18.326
41.08000 20.317
41.09000 18.392
41.10000 12.120
41.11000 12.053
41.12000 26.333
41.13000 13.013
41.14000 13.064
41.15000 10.009
41.16000 19.277
41.17000 18.207
41.18000 12.122
41.19000 13.026
41.20000 18.027
41.21000 16.278
41.22000 17.223
41.23000 14.112
41.24000 14.090
41.25000 10.067
41.26000 14.205
41.27000 14.238
41.28000 18.198
41.29000 13.158
41.30000 14.140
41.31000 22.260
41.32000 21.182
41.33000 17.115
41.34000 12.222
41.35000 15.292
41.36000 16.222
41.37000 14.195
41.38000 21.284
41.39000 16.137
41.40000 17.416
41.41000 17.310
41.42000 11.015
41.43000 20.244
41.44000 18.253
41.45000 21.332
41.46000 13.114
41.47000 14.957
41.48000 16.386
41.49000 16.114
41.50000 12.219
41.51000 12.169
41.52000 19.265
41.53000 10.100
41.54000 8.145
41.55000 19.174
41.56000 22.372
41.57000 14.026
41.58000 29.420
41.59000 17.197
41.60000 19.160
41.61000 16.374
41.62000 12.200
41.63000 14.156
41.64000 17.134
41.65000 20.268
41.66000 13.195
41.67000 19.363
41.68000 18.296
41.69000 19.313
41.70000 13.385
41.71000 18.026
41.72000 6.045
41.73000 6.156
41.74000 16.255
41.75000 18.087
41.76000 21.305
41.77000 15.240
41.78000 22.250
41.79000 11.121
41.80000 18.279
41.81000 12.126
41.82000 25.337
41.83000 23.394
41.84000 27.221
41.85000 21.147
41.86000 18.274
41.87000 20.229
41.88000 22.455
41.89000 14.301
41.90000 21.213
41.91000 15.239
41.92000 25.238
41.93000 17.146
41.94000 8.032
41.95000 13.038
41.96000 17.299
41.97000 12.291
41.98000 17.208
41.99000 10.167
42.00000 21.271
42.01000 19.214
42.02000 21.136
42.03000 14.981
42.04000 13.135
42.05000 21.231
42.06000 19.339
42.07000 12.114
42.08000 20.165
42.09000 17.081
42.10000 15.272
42.11000 13.197
42.12000 20.295
42.13000 23.252
42.14000 19.345
42.15000 19.380
42.16000 19.176
42.17000 12.219
42.18000 13.089
42.19000 22.327
42.20000 15.110
42.21000 16.192
42.22000 12.219
42.23000 22.354
42.24000 23.262
42.25000 14.098
42.26000 20.278
42.27000 15.219
42.28000 23.081
42.29000 15.134
42.30000 19.081
42.31000 21.302
42.32000 19.303
42.33000 20.205
42.34000 17.208
42.35000 13.058
42.36000 16.208
42.37000 15.057
42.38000 15.244
42.39000 22.104
42.40000 14.120
42.41000 19.325
42.42000 12.154
42.43000 19.182
42.44000 13.281
42.45000 13.116
42.46000 10.262
42.47000 12.159
42.48000 23.358
42.49000 11.268
42.50000 17.294
42.51000 19.392
42.52000 17.295
42.53000 20.236
42.54000 19.136
42.55000 15.248
42.56000 17.262
42.57000 18.524
42.58000 20.268
42.59000 12.135
42.60000 15.176
42.61000 14.122
42.62000 22.567
42.63000 16.139
42.64000 15.264
42.65000 12.162
42.66000 22.254
42.67000 20.292
42.68000 19.314
42.69000 17.148
42.70000 19.085
42.71000 22.233
42.72000 19.168
42.73000 24.235
42.74000 16.188
42.75000 18.274
42.76000 17.014
42.77000 17.371
42.78000 24.272
42.79000 23.257
42.80000 22.321
42.81000 16.214
42.82000 15.106
42.83000 15.294
42.84000 16.219
42.85000 18.227
42.86000 17.188
42.87000 15.162
42.88000 20.251
42.89000 19.304
42.90000 13.164
42.91000 23.452
42.92000 14.251
42.93000 19.188
42.94000 17.154
42.95000 20.220
42.96000 21.239
42.97000 13.204
42.98000 22.133
42.99000 18.352
43.00000 14.209
43.01000 17.256
43.02000 16.493
43.03000 16.253
43.04000 19.212
43.05000 14.179
43.06000 15.258
43.07000 17.287
43.08000 18.280
43.09000 17.069
43.10000 16.358
43.11000 16.212
43.12000 19.313
43.13000 14.287
43.14000 24.341
43.15000 16.260
43.16000 21.266
43.17000 23.270
43.18000 19.335
43.19000 16.185
43.20000 12.114
43.21000 28.586
43.22000 17.306
43.23000 15.104
43.24000 22.314
43.25000 17.086
43.26000 23.169
43.27000 21.321
43.28000 11.103
43.29000 22.198
43.30000 15.196
43.31000 15.193
43.32000 21.185
43.33000 15.031
43.34000 12.181
43.35000 16.386
43.36000 11.117
43.37000 24.419
43.38000 13.090
43.39000 21.451
43.40000 19.329
43.41000 19.049
43.42000 11.318
43.43000 13.075
43.44000 21.237
43.45000 19.157
43.46000 24.298
43.47000 18.118
43.48000 22.395
43.49000 17.085
43.50000 17.203
43.51000 19.475
43.52000 25.152
43.53000 15.097
43.54000 20.318
43.55000 19.296
43.56000 18.154
43.57000 13.274
43.58000 15.212
43.59000 19.215
43.60000 18.349
43.61000 14.316
43.62000 12.127
43.63000 24.423
43.64000 17.309
43.65000 19.354
43.66000 12.262
43.67000 20.164
43.68000 17.334
43.69000 19.392
43.70000 25.356
43.71000 11.117
43.72000 8.055
43.73000 19.361
43.74000 18.049
43.75000 20.217
43.76000 20.302
43.77000 15.160
43.78000 14.195
43.79000 15.155
43.80000 24.259
43.81000 21.218
43.82000 14.154
43.83000 24.467
43.84000 20.217
43.85000 17.376
43.86000 21.379
43.87000 17.439
43.88000 14.049
43.89000 14.209
43.90000 18.408
43.91000 18.212
43.92000 24.326
43.93000 15.264
43.94000 19.060
43.95000 23.250
43.96000 23.278
43.97000 7.233
43.98000 24.372
43.99000 18.346
44.00000 21.206
44.01000 16.347
44.02000 26.168
44.03000 14.135
44.04000 21.213
44.05000 20.231
44.06000 17.210
44.07000 21.378
44.08000 14.176
44.09000 17.143
44.10000 18.434
44.11000 20.089
44.12000 16.191
44.13000 18.209
44.14000 28.482
44.15000 16.262
44.16000 17.325
44.17000 15.216
44.18000 12.173
44.19000 16.028
44.20000 20.227
44.21000 14.221
44.22000 23.399
44.23000 16.111
44.24000 16.185
44.25000 16.184
44.26000 12.155
44.27000 24.282
44.28000 21.212
44.29000 15.196
44.30000 20.369
44.31000 17.245
44.32000 24.452
44.33000 12.157
44.34000 15.234
44.35000 13.069
44.36000 11.057
44.37000 13.087
44.38000 18.141
44.39000 15.064
44.40000 13.151
44.41000 16.086
44.42000 19.166
44.43000 24.432
44.44000 13.117
44.45000 16.082
44.46000 17.207
44.47000 19.425
44.48000 16.190
44.49000 11.055
44.50000 15.111
44.51000 9.250
44.52000 15.159
44.53000 17.132
44.54000 22.346
44.55000 25.256
44.56000 18.252
44.57000 13.162
44.58000 21.243
44.59000 16.281
44.60000 24.433
44.61000 12.037
44.62000 13.324
44.63000 14.209
44.64000 15.212
44.65000 16.134
44.66000 11.070
44.67000 17.263
44.68000 16.200
44.69000 15.246
44.70000 17.939
44.71000 18.297
44.72000 23.248
44.73000 17.267
44.74000 24.294
44.75000 12.027
44.76000 20.406
44.77000 21.366
44.78000 11.163
44.79000 19.217
44.80000 10.075
44.81000 20.217
44.82000 11.088
44.83000 21.276
44.84000 12.059
44.85000 14.104
44.86000 14.275
44.87000 16.244
44.88000 11.017
44.89000 22.231
44.90000 20.391
44.91000 17.107
44.92000 17.268
44.93000 13.169
44.94000 11.267
44.95000 8.978
44.96000 19.221
44.97000 15.075
44.98000 20.428
44.99000 18.244
45.00000 16.358
45.01000 12.101
45.02000 21.116
45.03000 8.135
45.04000 14.299
45.05000 21.359
45.06000 16.239
45.07000 26.446
45.08000 18.330
45.09000 14.265
45.10000 13.288
45.11000 16.240
45.12000 17.429
45.13000 18.278
45.14000 16.534
45.15000 13.092
45.16000 17.080
45.17000 18.155
45.18000 18.188
45.19000 24.376
45.20000 16.160
45.21000 18.332
45.22000 8.192
45.23000 20.706
45.24000 23.181
45.25000 17.242
45.26000 15.125
45.27000 13.178
45.28000 15.271
45.29000 12.115
45.30000 12.224
45.31000 8.056
45.32000 12.229
45.33000 19.342
45.34000 22.378
45.35000 18.170
45.36000 16.201
45.37000 13.211
45.38000 21.492
45.39000 13.200
45.40000 19.209
45.41000 15.285
45.42000 12.266
45.43000 13.121
45.44000 9.021
45.45000 17.194
45.46000 15.186
45.47000 18.094
45.48000 14.102
45.49000 14.149
45.50000 17.137
45.51000 13.150
45.52000 24.363
45.53000 13.276
45.54000 16.160
45.55000 23.556
45.56000 14.070
45.57000 22.268
45.58000 14.210
45.59000 12.987
45.60000 14.995
45.61000 22.311
45.62000 15.316
45.63000 15.307
45.64000 16.120
45.65000 19.379
45.66000 22.461
45.67000 14.184
45.68000 11.350
45.69000 14.140
45.70000 18.350
45.71000 19.245
45.72000 14.180
45.73000 22.275
45.74000 19.341
45.75000 18.154
45.76000 19.417
45.77000 15.128
45.78000 21.263
45.79000 12.168
45.80000 14.239
45.81000 17.244
45.82000 23.166
45.83000 20.254
45.84000 15.184
45.85000 14.339
45.86000 14.265
45.87000 18.466
45.88000 11.077
45.89000 20.277
45.90000 25.313
45.91000 12.042
45.92000 13.171
45.93000 16.056
45.94000 24.421
45.95000 26.462
45.96000 19.269
45.97000 11.125
45.98000 21.291
45.99000 17.191
46.00000 15.200
46.01000 20.242
46.02000 20.302
46.03000 17.264
46.04000 16.183
46.05000 23.181
46.06000 13.276
46.07000 16.197
46.08000 12.218
46.09000 25.242
46.10000 22.353
46.11000 17.168
46.12000 20.087
46.13000 23.361
46.14000 21.235
46.15000 14.192
46.16000 17.121
46.17000 17.376
46.18000 14.999
46.19000 19.207
46.20000 10.140
46.21000 16.162
46.22000 23.397
46.23000 15.198
46.24000 17.249
46.25000 17.090
46.26000 19.216
46.27000 21.448
46.28000 18.145
46.29000 26.397
46.30000 17.226
46.31000 14.291
46.32000 14.118
46.33000 15.203
46.34000 17.229
46.35000 22.341
46.36000 17.216
46.37000 19.345
46.38000 18.179
46.39000 20.174
46.40000 20.294
46.41000 11.210
46.42000 30.115
46.43000 13.224
46.44000 27.259
46.45000 19.360
46.46000 17.178
46.47000 13.168
46.48000 16.311
46.49000 12.163
46.50000 19.376
46.51000 22.162
46.52000 25.529
46.53000 17.170
46.54000 23.435
46.55000 22.283
46.56000 10.280
46.57000 18.295
46.58000 20.223
46.59000 21.313
46.60000 19.218
46.61000 12.255
46.62000 27.732
46.63000 27.205
46.64000 21.234
46.65000 18.091
46.66000 25.436
46.67000 16.220
46.68000 15.320
46.69000 12.141
46.70000 18.295
46.71000 25.316
46.72000 13.215
46.73000 16.232
46.74000 18.182
46.75000 19.468
46.76000 21.193
46.77000 23.170
46.78000 14.259
46.79000 19.273
46.80000 19.236
46.81000 21.193
46.82000 14.983
46.83000 17.348
46.84000 20.493
46.85000 25.410
46.86000 14.042
46.87000 16.256
46.88000 16.256
46.89000 19.216
46.90000 19.251
46.91000 16.024
46.92000 15.306
46.93000 14.159
46.94000 12.157
46.95000 13.191
46.96000 14.232
46.97000 13.070
46.98000 18.099
46.99000 20.228
47.00000 19.035
47.01000 15.069
47.02000 13.206
47.03000 16.126
47.04000 27.244
47.05000 17.092
47.06000 15.370
47.07000 19.397
47.08000 18.087
47.09000 12.129
47.10000 13.188
47.11000 23.419
47.12000 13.199
47.13000 16.195
47.14000 20.199
47.15000 7.123
47.16000 21.157
47.17000 16.237
47.18000 16.275
47.19000 16.234
47.20000 14.265
47.21000 23.178
47.22000 18.225
47.23000 21.305
47.24000 21.267
47.25000 13.306
47.26000 19.352
47.27000 19.289
47.28000 19.493
47.29000 20.082
47.30000 12.151
47.31000 13.131
47.32000 12.222
47.33000 16.320
47.34000 25.195
47.35000 15.069
47.36000 17.277
47.37000 11.258
47.38000 10.169
47.39000 17.202
47.40000 15.207
47.41000 16.313
47.42000 22.376
47.43000 19.412
47.44000 16.285
47.45000 14.106
47.46000 21.358
47.47000 14.246
47.48000 11.098
47.49000 15.059
47.50000 12.993
47.51000 13.055
47.52000 14.253
47.53000 14.173
47.54000 10.041
47.55000 17.547
47.56000 12.164
47.57000 17.217
47.58000 17.368
47.59000 12.053
47.60000 10.142
47.61000 15.300
47.62000 18.332
47.63000 19.262
47.64000 15.160
47.65000 7.968
47.66000 16.040
47.67000 20.383
47.68000 13.036
47.69000 18.056
47.70000 10.097
47.71000 15.381
47.72000 10.028
47.73000 12.137
47.74000 21.218
47.75000 15.120
47.76000 15.144
47.77000 15.208
47.78000 20.248
47.79000 17.390
47.80000 16.152
47.81000 11.180
47.82000 17.141
47.83000 17.244
47.84000 15.260
47.85000 19.043
47.86000 16.272
47.87000 13.207
47.88000 15.074
47.89000 12.137
47.90000 13.232
47.91000 20.194
47.92000 15.110
47.93000 10.147
47.94000 23.319
47.95000 12.197
47.96000 18.175
47.97000 18.311
47.98000 24.194
47.99000 18.211
48.00000 20.249
48.01000 14.241
48.02000 12.142
48.03000 22.135
48.04000 11.119
48.05000 13.204
48.06000 14.396
48.07000 21.042
48.08000 16.109
48.09000 23.167
48.10000 10.003
48.11000 16.202
48.12000 13.087
48.13000 14.069
48.14000 15.236
48.15000 14.259
48.16000 18.154
48.17000 15.255
48.18000 11.172
48.19000 20.408
48.20000 22.182
48.21000 18.261
48.22000 18.058
48.23000 11.221
48.24000 20.207
48.25000 12.065
48.26000 21.262
48.27000 20.118
48.28000 20.424
48.29000 18.165
48.30000 18.096
48.31000 10.086
48.32000 13.228
48.33000 11.062
48.34000 11.193
48.35000 18.362
48.36000 19.232
48.37000 19.162
48.38000 16.137
48.39000 14.202
48.40000 17.452
48.41000 17.225
48.42000 15.383
48.43000 15.144
48.44000 9.979
48.45000 14.216
48.46000 18.245
48.47000 11.000
48.48000 15.996
48.49000 16.145
48.50000 16.201
48.51000 14.312
48.52000 19.242
48.53000 12.269
48.54000 9.151
48.55000 12.177
48.56000 19.339
48.57000 14.365
48.58000 16.220
48.59000 21.655
48.60000 13.105
48.61000 12.149
48.62000 15.153
48.63000 13.129
48.64000 14.335
48.65000 24.375
48.66000 24.257
48.67000 7.019
48.68000 16.267
48.69000 14.171
48.70000 14.196
48.71000 12.127
48.72000 21.126
48.73000 16.228
48.74000 22.363
48.75000 15.238
48.76000 17.149
48.77000 13.399
48.78000 20.254
48.79000 20.273
48.80000 14.105
48.81000 18.187
48.82000 23.219
48.83000 20.132
48.84000 16.256
48.85000 22.322
48.86000 12.210
48.87000 15.279
48.88000 13.137
48.89000 20.137
48.90000 17.204
48.91000 20.244
48.92000 12.048
48.93000 21.209
48.94000 17.109
48.95000 19.194
48.96000 15.320
48.97000 20.250
48.98000 26.311
48.99000 15.110
49.00000 17.188
49.01000 16.009
49.02000 17.157
49.03000 15.273
49.04000 11.167
49.05000 12.233
49.06000 15.103
49.07000 15.138
49.08000 19.083
49.09000 22.428
49.10000 15.233
49.11000 24.277
49.12000 7.094
49.13000 21.352
49.14000 21.372
49.15000 16.327
49.16000 20.095
49.17000 17.219
49.18000 22.280
49.19000 8.192
49.20000 15.260
49.21000 14.022
49.22000 12.204
49.23000 16.056
49.24000 10.160
49.25000 11.193
49.26000 17.279
49.27000 13.126
49.28000 14.290
49.29000 19.245
49.30000 11.234
49.31000 25.331
49.32000 14.097
49.33000 16.254
49.34000 17.150
49.35000 9.124
49.36000 17.196
49.37000 13.276
49.38000 12.072
49.39000 17.311
49.40000 15.285
49.41000 18.095
49.42000 21.309
49.43000 13.219
49.44000 15.190
49.45000 15.060
49.46000 16.189
49.47000 15.221
49.48000 15.036
49.49000 15.190
49.50000 14.238
49.51000 18.181
49.52000 16.350
49.53000 9.903
49.54000 11.144
49.55000 16.311
49.56000 12.170
49.57000 12.248
49.58000 12.043
49.59000 15.247
49.60000 17.106
49.61000 17.220
49.62000 23.350
49.63000 15.276
49.64000 22.270
49.65000 14.207
49.66000 17.186
49.67000 14.354
49.68000 10.131
49.69000 19.173
49.70000 10.210
49.71000 7.188
49.72000 14.402
49.73000 22.473
49.74000 13.332
49.75000 10.199
49.76000 22.344
49.77000 16.267
49.78000 20.256
49.79000 13.101
49.80000 19.249
49.81000 13.998
49.82000 16.283
49.83000 13.080
49.84000 16.174
49.85000 12.265
49.86000 20.191
49.87000 20.070
49.88000 14.250
49.89000 17.048
49.90000 11.138
49.91000 19.169
49.92000 17.275
49.93000 11.105
49.94000 18.241
49.95000 14.163
49.96000 12.181
49.97000 7.020
49.98000 17.330
49.99000 12.327
50.00000 8.185
50.01000 16.325
50.02000 14.140
50.03000 14.087
50.04000 12.153
50.05000 19.307
50.06000 14.155
50.07000 12.284
50.08000 15.303
50.09000 11.226
50.10000 15.101
50.11000 17.254
50.12000 12.238
50.13000 21.307
50.14000 10.996
50.15000 17.299
50.16000 21.354
50.17000 18.206
50.18000 19.317
50.19000 14.224
50.20000 18.240
50.21000 9.157
50.22000 14.162
50.23000 12.228
50.24000 11.246
50.25000 13.049
50.26000 13.317
50.27000 17.201
50.28000 21.444
50.29000 18.317
50.30000 12.089
50.31000 11.198
50.32000 19.217
50.33000 17.202
50.34000 12.134
50.35000 22.392
50.36000 20.302
50.37000 15.151
50.38000 12.120
50.39000 13.206
50.40000 17.205
50.41000 21.189
50.42000 12.228
50.43000 16.307
50.44000 15.248
50.45000 12.048
50.46000 21.409
50.47000 13.331
50.48000 12.412
50.49000 15.152
50.50000 14.241
50.51000 15.111
50.52000 17.149
50.53000 10.151
50.54000 5.087
50.55000 10.031
50.56000 10.092
50.57000 14.289
50.58000 21.201
50.59000 11.253
50.60000 21.342
50.61000 18.293
50.62000 20.083
50.63000 14.161
50.64000 12.114
50.65000 13.240
50.66000 20.163
50.67000 19.154
50.68000 12.197
50.69000 12.149
50.70000 19.266
50.71000 12.085
50.72000 21.193
50.73000 12.127
50.74000 15.358
50.75000 15.146
50.76000 14.112
50.77000 22.302
50.78000 18.374
50.79000 13.104
50.80000 12.042
50.81000 21.226
50.82000 18.032
50.83000 9.142
50.84000 9.022
50.85000 26.564
50.86000 18.069
50.87000 19.035
50.88000 11.177
50.89000 15.179
50.90000 21.188
50.91000 11.075
50.92000 17.097
50.93000 13.069
50.94000 13.270
50.95000 13.073
50.96000 16.153
50.97000 16.271
50.98000 10.140
50.99000 18.235
51.00000 8.179
51.01000 12.142
51.02000 18.171
51.03000 13.085
51.04000 16.297
51.05000 16.171
51.06000 18.140
51.07000 16.278
51.08000 14.334
51.09000 22.352
51.10000 11.126
51.11000 15.204
51.12000 16.398
51.13000 13.239
51.14000 18.135
51.15000 14.146
51.16000 10.015
51.17000 12.096
51.18000 19.019
51.19000 10.034
51.20000 15.314
51.21000 22.359
51.22000 11.169
51.23000 22.362
51.24000 16.394
51.25000 17.119
51.26000 12.980
51.27000 12.195
51.28000 13.144
51.29000 22.170
51.30000 13.097
51.31000 15.139
51.32000 12.187
51.33000 22.347
51.34000 15.153
51.35000 12.157
51.36000 16.374
51.37000 15.287
51.38000 10.229
51.39000 8.132
51.40000 16.075
51.41000 7.031
51.42000 10.017
51.43000 16.308
51.44000 8.087
51.45000 17.279
51.46000 16.320
51.47000 9.092
51.48000 12.193
51.49000 15.193
51.50000 12.116
51.51000 14.145
51.52000 16.158
51.53000 16.999
51.54000 12.254
51.55000 9.110
51.56000 20.541
51.57000 14.019
51.58000 21.323
51.59000 16.149
51.60000 16.163
51.61000 15.242
51.62000 11.144
51.63000 16.140
51.64000 11.098
51.65000 20.145
51.66000 15.134
51.67000 16.078
51.68000 8.094
51.69000 9.092
51.70000 13.099
51.71000 16.177
51.72000 17.111
51.73000 14.084
51.74000 8.019
51.75000 18.313
51.76000 15.203
51.77000 12.249
51.78000 17.283
51.79000 13.085
51.80000 18.413
51.81000 9.259
51.82000 18.298
51.83000 10.033
51.84000 13.062
51.85000 15.164
51.86000 15.095
51.87000 19.176
51.88000 14.183
51.89000 12.111
51.90000 15.274
51.91000 12.011
51.92000 18.182
51.93000 20.309
51.94000 12.945
51.95000 26.356
51.96000 20.359
51.97000 15.388
51.98000 5.014
51.99000 13.172
52.00000 13.125
52.01000 14.073
52.02000 19.441
52.03000 15.222
52.04000 18.213
52.05000 11.184
52.06000 13.077
52.07000 7.116
52.08000 12.314
52.09000 17.402
52.10000 19.259
52.11000 9.058
52.12000 24.273
52.13000 17.219
52.14000 14.163
52.15000 17.273
52.16000 9.148
52.17000 19.320
52.18000 8.207
52.19000 16.293
52.20000 8.154
52.21000 18.213
52.22000 16.203
52.23000 13.246
52.24000 9.936
52.25000 14.093
52.26000 12.090
52.27000 14.202
52.28000 14.208
52.29000 17.312
52.30000 14.065
52.31000 16.085
52.32000 23.206
52.33000 16.365
52.34000 14.234
52.35000 15.107
52.36000 11.047
52.37000 14.179
52.38000 13.116
52.39000 19.389
52.40000 13.186
52.41000 18.438
52.42000 8.038
52.43000 17.089
52.44000 14.144
52.45000 11.182
52.46000 18.275
52.47000 18.240
52.48000 16.218
52.49000 12.302
52.50000 14.214
52.51000 18.117
52.52000 8.117
52.53000 11.180
52.54000 17.246
52.55000 12.247
52.56000 19.253
52.57000 13.370
52.58000 16.211
52.59000 14.161
52.60000 13.081
52.61000 18.265
52.62000 12.274
52.63000 22.376
52.64000 14.213
52.65000 15.078
52.66000 10.062
52.67000 16.314
52.68000 16.278
52.69000 10.075
52.70000 10.129
52.71000 12.193
52.72000 16.272
52.73000 19.296
52.74000 11.344
52.75000 12.288
52.76000 11.168
52.77000 18.180
52.78000 22.251
52.79000 17.181
52.80000 13.092
52.81000 7.074
52.82000 13.097
52.83000 22.282
52.84000 9.191
52.85000 10.132
52.86000 14.258
52.87000 22.215
52.88000 9.118
52.89000 9.146
52.90000 13.304
52.91000 13.108
52.92000 17.388
52.93000 15.141
52.94000 10.114
52.95000 14.279
52.96000 17.118
52.97000 16.395
52.98000 16.160
52.99000 18.388
53.00000 12.088
53.01000 11.174
53.02000 9.129
53.03000 15.228
53.04000 23.202
53.05000 14.126
53.06000 18.489
53.07000 11.170
53.08000 11.128
53.09000 13.275
53.10000 10.982
53.11000 13.172
53.12000 14.069
53.13000 14.055
53.14000 13.169
53.15000 9.023
53.16000 15.175
53.17000 16.152
53.18000 14.177
53.19000 16.229
53.20000 8.229
53.21000 15.150
53.22000 17.209
53.23000 11.160
53.24000 10.038
53.25000 20.237
53.26000 15.065
53.27000 18.172
53.28000 18.156
53.29000 19.214
53.30000 18.261
53.31000 23.137
53.32000 8.314
53.33000 13.296
53.34000 17.153
53.35000 19.188
53.36000 9.149
53.37000 17.339
53.38000 21.345
53.39000 14.114
53.40000 12.162
53.41000 13.174
53.42000 18.311
53.43000 14.135
53.44000 17.163
53.45000 13.275
53.46000 14.065
53.47000 23.248
53.48000 11.186
53.49000 19.191
53.50000 12.110
53.51000 12.006
53.52000 16.342
53.53000 13.167
53.54000 9.212
53.55000 13.131
53.56000 9.196
53.57000 7.091
53.58000 11.075
53.59000 10.233
53.60000 16.029
53.61000 9.025
53.62000 10.067
53.63000 12.985
53.64000 11.174
53.65000 14.057
53.66000 11.130
53.67000 12.083
53.68000 16.133
53.69000 20.166
53.70000 12.128
53.71000 17.286
53.72000 12.188
53.73000 13.154
53.74000 11.927
53.75000 10.254
53.76000 17.415
53.77000 13.183
53.78000 11.121
53.79000 10.111
53.80000 11.233
53.81000 16.202
53.82000 17.166
53.83000 11.231
53.84000 18.176
53.85000 16.278
53.86000 11.116
53.87000 17.233
53.88000 11.267
53.89000 19.208
53.90000 11.027
53.91000 11.127
53.92000 11.214
53.93000 10.097
53.94000 12.104
53.95000 10.106
53.96000 16.083
53.97000 15.345
53.98000 11.944
53.99000 17.323
54.00000 7.098
54.01000 12.119
54.02000 10.062
54.03000 12.105
54.04000 15.243
54.05000 9.218
54.06000 12.212
54.07000 16.267
54.08000 15.068
54.09000 16.316
54.10000 11.037
54.11000 13.135
54.12000 12.241
54.13000 12.186
54.14000 24.195
54.15000 16.096
54.16000 13.093
54.17000 19.317
54.18000 16.266
54.19000 18.284
54.20000 13.173
54.21000 12.173
54.22000 15.117
54.23000 14.227
54.24000 15.191
54.25000 12.330
54.26000 18.258
54.27000 15.239
54.28000 12.123
54.29000 17.284
54.30000 17.358
54.31000 10.155
54.32000 18.164
54.33000 10.167
54.34000 10.099
54.35000 18.171
54.36000 12.248
54.37000 17.115
54.38000 11.121
54.39000 9.074
54.40000 11.256
54.41000 12.312
54.42000 9.010
54.43000 15.314
54.44000 20.208
54.45000 14.291
54.46000 14.176
54.47000 15.304
54.48000 14.123
54.49000 19.333
54.50000 6.202
54.51000 15.305
54.52000 9.004
54.53000 14.173
54.54000 17.254
54.55000 8.187
54.56000 14.163
54.57000 13.258
54.58000 6.184
54.59000 17.193
54.60000 13.191
54.61000 10.220
54.62000 17.368
54.63000 23.294
54.64000 16.216
54.65000 20.213
54.66000 11.179
54.67000 14.196
54.68000 14.310
54.69000 11.262
54.70000 15.253
54.71000 14.216
54.72000 15.219
54.73000 13.058
54.74000 13.201
54.75000 10.262
54.76000 10.083
54.77000 10.154
54.78000 13.240
54.79000 5.096
54.80000 22.418
54.81000 18.360
54.82000 20.351
54.83000 14.098
54.84000 14.225
54.85000 11.181
54.86000 8.154
54.87000 15.314
54.88000 18.275
54.89000 20.221
54.90000 10.155
54.91000 13.148
54.92000 10.076
54.93000 13.125
54.94000 14.180
54.95000 11.108
54.96000 19.252
54.97000 9.127
54.98000 8.093
54.99000 25.408
55.00000 14.178
55.01000 14.040
55.02000 13.054
55.03000 11.120
55.04000 15.160
55.05000 14.287
55.06000 5.114
55.07000 23.462
55.08000 15.061
55.09000 14.257
55.10000 16.255
55.11000 15.190
55.12000 11.152
55.13000 15.062
55.14000 13.171
55.15000 12.283
55.16000 12.210
55.17000 16.205
55.18000 8.101
55.19000 8.076
55.20000 17.180
55.21000 14.206
55.22000 13.189
55.23000 16.122
55.24000 14.013
55.25000 13.217
55.26000 13.140
55.27000 11.041
55.28000 9.149
55.29000 9.222
55.30000 17.279
55.31000 8.189
55.32000 9.987
55.33000 10.114
55.34000 17.001
55.35000 14.287
55.36000 17.174
55.37000 10.196
55.38000 14.180
55.39000 11.149
55.40000 9.122
55.41000 12.081
55.42000 9.188
55.43000 9.144
55.44000 9.181
55.45000 15.311
55.46000 13.310
55.47000 15.126
55.48000 14.112
55.49000 9.117
55.50000 13.050
55.51000 15.289
55.52000 11.089
55.53000 16.277
55.54000 12.100
55.55000 11.263
55.56000 15.236
55.57000 12.140
55.58000 19.962
55.59000 14.276
55.60000 14.159
55.61000 10.130
55.62000 10.116
55.63000 10.192
55.64000 16.214
55.65000 11.211
55.66000 11.040
55.67000 12.102
55.68000 14.284
55.69000 12.164
55.70000 12.117
55.71000 12.184
55.72000 12.070
55.73000 14.169
55.74000 10.209
55.75000 9.230
55.76000 7.026
55.77000 7.102
55.78000 15.286
55.79000 15.142
55.80000 12.173
55.81000 11.224
55.82000 8.101
55.83000 7.041
55.84000 13.144
55.85000 14.361
55.86000 6.100
55.87000 21.100
55.88000 15.072
55.89000 11.009
55.90000 20.072
55.91000 11.222
55.92000 18.079
55.93000 11.158
55.94000 14.208
55.95000 11.117
55.96000 17.351
55.97000 19.402
55.98000 5.995
55.99000 13.212
56.00000 16.336
56.01000 8.102
56.02000 15.289
56.03000 11.072
56.04000 12.155
56.05000 10.254
56.06000 10.033
56.07000 15.219
56.08000 14.167
56.09000 18.420
56.10000 12.035
56.11000 9.113
56.12000 10.274
56.13000 6.062
56.14000 12.196
56.15000 11.185
56.16000 5.067
56.17000 7.110
56.18000 16.202
56.19000 16.130
56.20000 12.997
56.21000 12.165
56.22000 18.332
56.23000 12.085
56.24000 10.071
56.25000 11.141
56.26000 14.263
56.27000 8.033
56.28000 13.262
56.29000 11.079
56.30000 8.094
56.31000 9.090
56.32000 11.224
56.33000 18.142
56.34000 15.012
56.35000 10.110
56.36000 12.171
56.37000 14.180
56.38000 19.966
56.39000 12.072
56.40000 13.044
56.41000 13.194
56.42000 15.233
56.43000 12.105
56.44000 10.196
56.45000 11.046
56.46000 12.105
56.47000 5.065
56.48000 11.340
56.49000 11.245
56.50000 15.294
56.51000 11.175
56.52000 9.101
56.53000 16.193
56.54000 11.145
56.55000 8.115
56.56000 13.127
56.57000 10.172
56.58000 9.012
56.59000 7.013
56.60000 13.182
56.61000 15.057
56.62000 14.128
56.63000 10.167
56.64000 8.073
56.65000 10.163
56.66000 6.130
56.67000 7.091
56.68000 9.039
56.69000 9.086
56.70000 9.235
56.71000 17.139
56.72000 7.105
56.73000 15.154
56.74000 10.154
56.75000 16.352
56.76000 11.229
56.77000 11.243
56.78000 13.243
56.79000 17.236
56.80000 15.194
56.81000 19.102
56.82000 11.150
56.83000 10.203
56.84000 16.368
56.85000 17.223
56.86000 8.153
56.87000 6.128
56.88000 17.458
56.89000 10.088
56.90000 13.382
56.91000 5.092
56.92000 7.110
56.93000 10.234
56.94000 14.150
56.95000 17.228
56.96000 12.007
56.97000 10.173
56.98000 11.197
56.99000 11.305
57.00000 11.123
57.01000 7.039
57.02000 14.293
57.03000 18.323
57.04000 11.237
57.05000 14.189
57.06000 8.117
57.07000 13.140
57.08000 13.242
57.09000 20.418
57.10000 13.102
57.11000 10.129
57.12000 8.093
57.13000 18.284
57.14000 15.311
57.15000 16.165
57.16000 7.047
57.17000 8.080
57.18000 5.036
57.19000 12.115
57.20000 13.103
57.21000 15.244
57.22000 9.159
57.23000 16.164
57.24000 8.081
57.25000 15.081
57.26000 12.103
57.27000 7.058
57.28000 13.132
57.29000 13.152
57.30000 14.091
57.31000 12.051
57.32000 13.063
57.33000 12.206
57.34000 8.125
57.35000 9.108
57.36000 11.261
57.37000 19.123
57.38000 17.240
57.39000 16.355
57.40000 15.182
57.41000 10.145
57.42000 11.262
57.43000 16.211
57.44000 12.121
57.45000 5.978
57.46000 12.171
57.47000 12.163
57.48000 15.005
57.49000 17.162
57.50000 16.180
57.51000 14.160
57.52000 12.030
57.53000 6.122
57.54000 15.217
57.55000 16.249
57.56000 19.275
57.57000 12.062
57.58000 6.014
57.59000 15.154
57.60000 11.090
57.61000 14.134
57.62000 12.332
57.63000 14.178
57.64000 7.132
57.65000 19.218
57.66000 8.101
57.67000 12.005
57.68000 6.061
57.69000 16.104
57.70000 18.300
57.71000 16.079
57.72000 11.217
57.73000 14.278
57.74000 9.024
57.75000 13.175
57.76000 7.007
57.77000 12.082
57.78000 15.181
57.79000 11.136
57.80000 10.983
57.81000 10.105
57.82000 6.986
57.83000 11.075
57.84000 16.339
57.85000 6.123
57.86000 16.441
57.87000 11.057
57.88000 6.094
57.89000 17.185
57.90000 12.038
57.91000 16.201
57.92000 12.257
57.93000 13.198
57.94000 12.118
57.95000 13.070
57.96000 12.156
57.97000 10.071
57.98000 16.236
57.99000 7.044
58.00000 15.224
58.01000 10.081
58.02000 13.274
58.03000 9.243
58.04000 11.268
58.05000 9.246
58.06000 8.144
58.07000 10.175
58.08000 9.319
58.09000 12.179
58.10000 8.256
58.11000 18.167
58.12000 11.048
58.13000 15.078
58.14000 7.081
58.15000 12.211
58.16000 16.253
58.17000 18.190
58.18000 11.300
58.19000 13.180
58.20000 16.226
58.21000 14.252
58.22000 13.262
58.23000 10.143
58.24000 16.234
58.25000 5.035
58.26000 8.168
58.27000 10.164
58.28000 15.138
58.29000 5.990
58.30000 15.126
58.31000 15.315
58.32000 15.132
58.33000 11.121
58.34000 11.174
58.35000 5.033
58.36000 6.102
58.37000 12.025
58.38000 18.297
58.39000 14.178
58.40000 10.029
58.41000 12.181
58.42000 16.248
58.43000 7.031
58.44000 10.102
58.45000 9.101
58.46000 12.074
58.47000 9.145
58.48000 11.090
58.49000 14.064
58.50000 11.115
58.51000 13.280
58.52000 6.067
58.53000 7.088
58.54000 14.212
58.55000 19.328
58.56000 18.085
58.57000 10.088
58.58000 4.987
58.59000 14.151
58.60000 11.149
58.61000 12.189
58.62000 15.205
58.63000 13.252
58.64000 17.035
58.65000 10.170
58.66000 11.189
58.67000 7.078
58.68000 13.207
58.69000 10.073
58.70000 13.249
58.71000 17.251
58.72000 11.103
58.73000 7.109
58.74000 8.139
58.75000 14.064
58.76000 7.168
58.77000 13.222
58.78000 16.169
58.79000 10.168
58.80000 11.014
58.81000 10.033
58.82000 15.265
58.83000 15.384
58.84000 14.132
58.85000 5.074
58.86000 8.973
58.87000 10.058
58.88000 11.222
58.89000 18.304
58.90000 7.167
58.91000 14.297
58.92000 13.158
58.93000 13.254
58.94000 8.078
58.95000 7.084
58.96000 9.066
58.97000 13.155
58.98000 8.093
58.99000 13.182
59.00000 15.258
59.01000 15.177
59.02000 5.030
59.03000 15.169
59.04000 13.127
59.05000 11.112
59.06000 5.115
59.07000 12.014
59.08000 7.067
59.09000 7.117
59.10000 11.106
59.11000 14.244
59.12000 12.188
59.13000 16.345
59.14000 9.982
59.15000 10.214
59.16000 6.078
59.17000 7.020
59.18000 13.376
59.19000 13.068
59.20000 11.012
59.21000 11.110
59.22000 4.089
59.23000 12.282
59.24000 8.056
59.25000 10.259
59.26000 10.115
59.27000 10.154
59.28000 13.211
59.29000 14.126
59.30000 13.112
59.31000 13.093
59.32000 7.111
59.33000 10.132
59.34000 13.093
59.35000 11.077
59.36000 13.070
59.37000 12.104
59.38000 6.153
59.39000 9.076
59.40000 9.076
59.41000 6.145
59.42000 18.224
59.43000 12.101
59.44000 11.142
59.45000 11.370
59.46000 14.092
59.47000 5.109
59.48000 8.177
59.49000 8.115
59.50000 7.139
59.51000 9.173
59.52000 5.024
59.53000 10.240
59.54000 12.129
59.55000 17.095
59.56000 16.444
59.57000 8.028
59.58000 15.085
59.59000 11.151
59.60000 10.128
59.61000 17.170
59.62000 14.199
59.63000 8.100
59.64000 15.263
59.65000 20.075
59.66000 11.185
59.67000 14.284
59.68000 10.218
59.69000 10.150
59.70000 7.069
59.71000 9.035
59.72000 10.029
59.73000 10.113
59.74000 7.092
59.75000 10.007
59.76000 11.203
59.77000 11.156
59.78000 11.106
59.79000 13.097
59.80000 15.102
59.81000 7.189
59.82000 12.167
59.83000 13.009
59.84000 10.240
59.85000 8.030
59.86000 10.147
59.87000 6.173
59.88000 9.116
59.89000 13.095
59.90000 10.142
59.91000 8.164
59.92000 15.101
59.93000 13.085
59.94000 10.121
59.95000 6.041
59.96000 11.141
59.97000 12.093
59.98000 9.139
59.99000 10.029
60.00000 10.251
60.01000 11.140
60.02000 10.123
60.03000 7.036
60.04000 12.081
60.05000 6.016
60.06000 11.132
60.07000 10.201
60.08000 7.115
60.09000 10.089
60.10000 15.224
60.11000 8.157
60.12000 13.136
60.13000 7.036
60.14000 11.111
60.15000 2.012
60.16000 6.074
60.17000 5.117
60.18000 9.102
60.19000 14.071
60.20000 11.136
60.21000 11.246
60.22000 6.080
60.23000 12.225
60.24000 13.328
60.25000 7.068
60.26000 13.063
60.27000 7.102
60.28000 9.235
60.29000 9.082
60.30000 15.026
60.31000 11.124
60.32000 17.364
60.33000 12.210
60.34000 5.974
60.35000 11.306
60.36000 14.049
60.37000 9.157
60.38000 10.085
60.39000 13.349
60.40000 10.061
60.41000 12.184
60.42000 8.123
60.43000 4.078
60.44000 8.280
60.45000 11.046
60.46000 9.048
60.47000 7.997
60.48000 13.241
60.49000 10.062
60.50000 13.091
60.51000 7.022
60.52000 12.077
60.53000 14.222
60.54000 11.112
60.55000 13.106
60.56000 3.025
60.57000 11.252
60.58000 13.165
60.59000 8.103
60.60000 4.054
60.61000 7.130
60.62000 10.367
60.63000 7.164
60.64000 10.126
60.65000 10.022
60.66000 16.986
60.67000 9.100
60.68000 8.114
60.69000 12.270
60.70000 13.018
60.71000 11.104
60.72000 15.147
60.73000 9.979
60.74000 7.046
60.75000 11.179
60.76000 4.024
60.77000 13.159
60.78000 6.033
60.79000 10.095
60.80000 11.274
60.81000 4.090
60.82000 13.240
60.83000 9.025
60.84000 11.117
60.85000 9.097
60.86000 10.140
60.87000 12.216
60.88000 9.052
60.89000 12.197
60.90000 15.275
60.91000 15.247
60.92000 16.147
60.93000 8.081
60.94000 10.201
60.95000 4.025
60.96000 12.137
60.97000 13.311
60.98000 13.174
60.99000 11.038
61.00000 9.192
61.01000 10.161
61.02000 6.102
61.03000 12.121
61.04000 16.150
61.05000 7.054
61.06000 13.184
61.07000 7.088
61.08000 14.421
61.09000 10.066
61.10000 7.031
61.11000 16.084
61.12000 7.155
61.13000 10.161
61.14000 11.135
61.15000 7.069
61.16000 11.032
61.17000 11.131
61.18000 5.117
61.19000 7.061
61.20000 11.133
61.21000 13.191
61.22000 12.292
61.23000 7.057
61.24000 6.980
61.25000 5.166
61.26000 3.004
61.27000 12.294
61.28000 7.118
61.29000 10.132
61.30000 7.128
61.31000 12.148
61.32000 6.195
61.33000 3.995
61.34000 10.001
61.35000 11.104
61.36000 10.085
61.37000 15.349
61.38000 12.054
61.39000 8.142
61.40000 9.138
61.41000 7.093
61.42000 13.130
61.43000 13.220
61.44000 7.135
61.45000 3.145
61.46000 9.159
61.47000 12.161
61.48000 11.060
61.49000 14.091
61.50000 8.103
61.51000 9.209
61.52000 14.206
61.53000 11.155
61.54000 8.280
61.55000 7.038
61.56000 7.077
61.57000 11.061
61.58000 7.083
61.59000 7.123
61.60000 6.103
61.61000 14.201
61.62000 12.176
61.63000 9.042
61.64000 9.047
61.65000 16.178
61.66000 15.190
61.67000 4.058
61.68000 9.129
61.69000 12.107
61.70000 1.035
61.71000 6.033
61.72000 10.063
61.73000 11.111
61.74000 9.098
61.75000 15.024
61.76000 11.124
61.77000 11.222
61.78000 12.096
61.79000 9.145
61.80000 7.111
61.81000 13.119
61.82000 12.255
61.83000 7.081
61.84000 8.181
61.85000 10.099
61.86000 7.998
61.87000 2.947
61.88000 14.165
61.89000 6.180
61.90000 17.172
61.91000 6.186
61.92000 6.031
61.93000 8.127
61.94000 7.165
61.95000 10.046
61.96000 6.181
61.97000 8.950
61.98000 14.185
61.99000 12.080
62.00000 5.128
62.01000 5.047
62.02000 11.034
62.03000 13.069
62.04000 12.201
62.05000 6.024
62.06000 12.089
62.07000 8.141
62.08000 6.040
62.09000 6.103
62.10000 15.243
62.11000 14.103
62.12000 11.211
62.13000 11.139
62.14000 9.008
62.15000 7.090
62.16000 10.178
62.17000 6.010
62.18000 13.124
62.19000 12.073
62.20000 10.185
62.21000 6.158
62.22000 5.980
62.23000 6.051
62.24000 8.162
62.25000 14.255
62.26000 7.011
62.27000 12.124
62.28000 10.101
62.29000 11.138
62.30000 8.168
62.31000 12.187
62.32000 4.976
62.33000 4.064
62.34000 12.351
62.35000 10.209
62.36000 9.055
62.37000 11.183
62.38000 4.994
62.39000 13.180
62.40000 13.407
62.41000 12.119
62.42000 10.137
62.43000 3.986
62.44000 11.214
62.45000 16.257
62.46000 6.099
62.47000 12.203
62.48000 11.353
62.49000 9.137
62.50000 8.119
62.51000 8.034
62.52000 10.167
62.53000 11.139
62.54000 5.108
62.55000 9.194
62.56000 11.225
62.57000 10.163
62.58000 11.111
62.59000 7.171
62.60000 7.128
62.61000 15.318
62.62000 8.041
62.63000 9.306
62.64000 6.131
62.65000 13.077
62.66000 9.087
62.67000 9.055
62.68000 5.074
62.69000 9.121
62.70000 3.106
62.71000 9.218
62.72000 10.218
62.73000 16.207
62.74000 8.110
62.75000 11.181
62.76000 10.148
62.77000 11.171
62.78000 12.045
62.79000 16.310
62.80000 7.064
62.81000 6.030
62.82000 9.145
62.83000 8.086
62.84000 5.948
62.85000 10.124
62.86000 8.142
62.87000 7.166
62.88000 10.151
62.89000 10.053
62.90000 8.108
62.91000 11.065
62.92000 8.086
62.93000 3.006
62.94000 14.107
62.95000 5.137
62.96000 8.076
62.97000 9.250
62.98000 6.089
62.99000 8.244
63.00000 11.185
63.01000 14.118
63.02000 5.092
63.03000 9.160
63.04000 6.167
63.05000 6.023
63.06000 5.004
63.07000 6.104
63.08000 5.976
63.09000 12.195
63.10000 17.206
63.11000 9.019
63.12000 6.009
63.13000 11.139
63.14000 3.076
63.15000 6.215
63.16000 13.247
63.17000 8.172
63.18000 11.208
63.19000 5.007
63.20000 11.171
63.21000 14.248
63.22000 7.034
63.23000 5.998
63.24000 10.121
63.25000 11.138
63.26000 9.033
63.27000 11.074
63.28000 7.066
63.29000 8.100
63.30000 17.104
63.31000 6.104
63.32000 11.114
63.33000 14.359
63.34000 12.167
63.35000 12.292
63.36000 10.246
63.37000 10.094
63.38000 7.168
63.39000 9.155
63.40000 6.078
63.41000 7.091
63.42000 7.039
63.43000 8.121
63.44000 8.151
63.45000 11.264
63.46000 10.163
63.47000 4.041
63.48000 9.038
63.49000 12.009
63.50000 10.122
63.51000 10.177
63.52000 8.201
63.53000 9.199
63.54000 9.052
63.55000 6.088
63.56000 7.054
63.57000 10.218
63.58000 8.084
63.59000 14.174
63.60000 7.057
63.61000 3.006
63.62000 9.125
63.63000 15.245
63.64000 7.151
63.65000 0.974
63.66000 9.167
63.67000 9.161
63.68000 4.019
63.69000 11.139
63.70000 7.991
63.71000 13.116
63.72000 7.074
63.73000 11.025
63.74000 15.143
63.75000 11.061
63.76000 9.047
63.77000 7.089
63.78000 4.013
63.79000 7.096
63.80000 9.056
63.81000 11.056
63.82000 12.239
63.83000 12.143
63.84000 7.069
63.85000 10.080
63.86000 13.251
63.87000 6.089
63.88000 8.101
63.89000 4.021
63.90000 13.168
63.91000 14.088
63.92000 6.249
63.93000 7.975
63.94000 11.220
63.95000 8.223
63.96000 11.133
63.97000 13.363
63.98000 6.156
63.99000 7.142
64.00000 6.152
64.01000 13.165
64.02000 6.021
64.03000 5.126
64.04000 9.180
64.05000 9.014
64.06000 7.086
64.07000 9.068
64.08000 6.119
64.09000 15.189
64.10000 8.232
64.11000 9.095
64.12000 9.089
64.13000 6.072
64.14000 8.071
64.15000 13.183
64.16000 9.134
64.17000 14.062
64.18000 12.336
64.19000 9.072
64.20000 6.074
64.21000 10.087
64.22000 11.007
64.23000 8.036
64.24000 13.134
64.25000 5.054
64.26000 8.060
64.27000 7.988
64.28000 12.247
64.29000 9.061
64.30000 8.961
64.31000 16.289
64.32000 9.268
64.33000 11.219
64.34000 13.192
64.35000 12.090
64.36000 9.273
64.37000 5.091
64.38000 5.075
64.39000 10.174
64.40000 12.149
64.41000 7.150
64.42000 13.164
64.43000 4.021
64.44000 8.140
64.45000 11.062
64.46000 15.155
64.47000 14.171
64.48000 7.112
64.49000 9.144
64.50000 13.231
64.51000 3.083
64.52000 10.248
64.53000 4.016
64.54000 10.076
64.55000 14.115
64.56000 8.056
64.57000 8.181
64.58000 16.136
64.59000 13.146
64.60000 12.238
64.61000 10.978
64.62000 4.096
64.63000 8.118
64.64000 10.120
64.65000 4.066
64.66000 8.003
64.67000 10.173
64.68000 10.032
64.69000 7.172
64.70000 11.960
64.71000 9.118
64.72000 12.232
64.73000 11.060
64.74000 9.993
64.75000 8.137
64.76000 12.076
64.77000 11.247
64.78000 5.031
64.79000 9.016
64.80000 7.124
64.81000 7.098
64.82000 12.138
64.83000 8.116
64.84000 6.189
64.85000 5.096
64.86000 9.074
64.87000 9.250
64.88000 10.276
64.89000 14.154
64.90000 6.075
64.91000 10.072
64.92000 3.050
64.93000 10.085
64.94000 13.140
64.95000 12.205
64.96000 12.089
64.97000 5.062
64.98000 8.119
64.99000 7.075
65.00000 12.141
