20.00000 23.296
20.01000 23.301
20.02000 21.193
20.03000 21.290
20.04000 16.124
20.05000 19.503
20.06000 18.287
20.07000 20.390
20.08000 20.315
20.09000 14.132
20.10000 13.343
20.11000 16.496
20.12000 18.109
20.13000 19.128
20.14000 15.262
20.15000 21.106
20.16000 13.213
20.17000 19.210
20.18000 14.170
20.19000 20.115
20.20000 16.282
20.21000 22.313
20.22000 20.348
20.23000 18.118
20.24000 17.171
20.25000 19.324
20.26000 9.166
20.27000 18.236
20.28000 30.411
20.29000 17.308
20.30000 16.141
20.31000 24.151
20.32000 18.245
20.33000 13.260
20.34000 20.171
20.35000 24.170
20.36000 27.628
20.37000 15.304
20.38000 28.657
20.39000 16.228
20.40000 24.308
20.41000 11.116
20.42000 27.336
20.43000 18.363
20.44000 19.334
20.45000 12.191
20.46000 12.182
20.47000 14.139
20.48000 17.186
20.49000 15.248
20.50000 17.267
20.51000 21.225
20.52000 30.429
20.53000 23.371
20.54000 22.306
20.55000 29.499
20.56000 23.134
20.57000 11.029
20.58000 17.221
20.59000 17.335
20.60000 21.344
20.61000 15.086
20.62000 10.057
20.63000 25.336
20.64000 10.284
20.65000 25.240
20.66000 25.367
20.67000 25.169
20.68000 17.387
20.69000 19.259
20.70000 28.482
20.71000 10.139
20.72000 16.183
20.73000 21.278
20.74000 14.269
20.75000 20.385
20.76000 13.093
20.77000 21.214
20.78000 18.250
20.79000 25.209
20.80000 13.260
20.81000 23.313
20.82000 24.519
20.83000 18.244
20.84000 24.400
20.85000 9.210
20.86000 17.130
20.87000 18.258
20.88000 22.282
20.89000 22.274
20.90000 27.344
20.91000 17.318
20.92000 23.210
20.93000 21.301
20.94000 16.010
20.95000 22.388
20.96000 16.153
20.97000 17.205
20.98000 20.222
20.99000 18.290
21.00000 20.425
21.01000 17.335
21.02000 23.204
21.03000 20.314
21.04000 16.350
21.05000 16.244
21.06000 17.141
21.07000 16.139
21.08000 16.203
21.09000 14.121
21.10000 21.336
21.11000 21.359
21.12000 18.373
21.13000 19.309
21.14000 21.232
21.15000 18.197
21.16000 18.313
21.17000 18.109
21.18000 14.140
21.19000 20.291
21.20000 10.126
21.21000 18.157
21.22000 14.125
21.23000 19.208
21.24000 17.177
21.25000 24.331
21.26000 20.244
21.27000 18.359
21.28000 17.364
21.29000 21.345
21.30000 17.173
21.31000 22.304
21.32000 18.139
21.33000 19.343
21.34000 23.375
21.35000 16.301
21.36000 15.199
21.37000 18.212
21.38000 21.125
21.39000 19.397
21.40000 17.111
21.41000 15.363
21.42000 20.287
21.43000 21.175
21.44000 16.267
21.45000 14.239
21.46000 22.364
21.47000 26.424
21.48000 19.263
21.49000 21.049
21.50000 16.023
21.51000 18.191
21.52000 22.368
21.53000 21.241
21.54000 21.375
21.55000 17.237
21.56000 21.148
21.57000 13.076
21.58000 16.115
21.59000 22.401
21.60000 20.110
21.61000 22.243
21.62000 16.205
21.63000 19.286
21.64000 20.261
21.65000 20.497
21.66000 31.322
21.67000 16.309
21.68000 19.150
21.69000 18.193
21.70000 25.183
21.71000 17.186
21.72000 20.083
21.73000 20.236
21.74000 19.159
21.75000 20.205
21.76000 15.243
21.77000 22.313
21.78000 25.201
21.79000 16.214
21.80000 20.249
21.81000 25.301
21.82000 19.217
21.83000 32.393
21.84000 18.202
21.85000 17.486
21.86000 21.248
21.87000 26.356
21.88000 18.291
21.89000 22.383
21.90000 19.295
21.91000 23.331
21.92000 14.160
21.93000 26.189
21.94000 19.032
21.95000 19.277
21.96000 24.390
21.97000 24.403
21.98000 29.334
21.99000 21.412
22.00000 19.101
22.01000 12.176
22.02000 20.321
22.03000 25.416
22.04000 14.259
22.05000 22.375
22.06000 17.153
22.07000 17.298
22.08000 15.106
22.09000 15.218
22.10000 16.197
22.11000 27.375
22.12000 18.226
22.13000 24.408
22.14000 24.123
22.15000 16.263
22.16000 26.390
22.17000 24.368
22.18000 17.323
22.19000 20.241
22.20000 22.411
22.21000 27.397
22.22000 21.242
22.23000 17.264
22.24000 22.403
22.25000 19.152
22.26000 18.352
22.27000 19.253
22.28000 28.616
22.29000 23.250
22.30000 21.126
22.31000 23.390
22.32000 21.312
22.33000 14.333
22.34000 18.257
22.35000 22.339
22.36000 21.073
22.37000 15.276
22.38000 26.317
22.39000 18.272
22.40000 24.316
22.41000 19.130
22.42000 24.412
22.43000 27.392
22.44000 32.236
22.45000 22.214
22.46000 18.251
22.47000 16.066
22.48000 24.524
22.49000 21.152
22.50000 18.226
22.51000 21.242
22.52000 16.304
22.53000 18.160
22.54000 16.162
22.55000 22.315
22.56000 18.166
22.57000 24.439
22.58000 26.315
22.59000 27.437
22.60000 19.154
22.61000 16.081
22.62000 26.367
22.63000 24.141
22.64000 30.582
22.65000 18.344
22.66000 23.597
22.67000 22.361
22.68000 16.211
22.69000 26.175
22.70000 21.384
22.71000 20.252
22.72000 24.329
22.73000 26.267
22.74000 24.269
22.75000 20.218
22.76000 23.604
22.77000 19.057
22.78000 22.319
22.79000 18.308
22.80000 31.302
22.81000 20.374
22.82000 21.109
22.83000 22.438
22.84000 27.347
22.85000 16.170
22.86000 19.132
22.87000 22.385
22.88000 24.540
22.89000 18.378
22.90000 15.079
22.91000 22.193
22.92000 23.161
22.93000 23.363
22.94000 19.120
22.95000 22.268
22.96000 28.239
22.97000 28.448
22.98000 32.253
22.99000 18.182
23.00000 22.290
23.01000 20.229
23.02000 12.133
23.03000 22.440
23.04000 34.396
23.05000 18.417
23.06000 22.281
23.07000 20.469
23.08000 30.323
23.09000 17.170
23.10000 21.359
23.11000 28.365
23.12000 27.452
23.13000 22.213
23.14000 20.363
23.15000 18.261
23.16000 24.412
23.17000 31.441
23.18000 18.267
23.19000 25.185
23.20000 21.450
23.21000 20.287
23.22000 17.400
23.23000 14.106
23.24000 31.582
23.25000 24.421
23.26000 30.230
23.27000 18.085
23.28000 27.486
23.29000 23.212
23.30000 26.436
23.31000 22.439
23.32000 24.968
23.33000 29.247
23.34000 29.441
23.35000 26.353
23.36000 22.250
23.37000 29.108
23.38000 25.350
23.39000 29.500
23.40000 16.073
23.41000 19.383
23.42000 27.498
23.43000 22.261
23.44000 16.089
23.45000 27.263
23.46000 27.254
23.47000 27.377
23.48000 28.478
23.49000 28.326
23.50000 19.388
23.51000 31.449
23.52000 24.367
23.53000 25.413
23.54000 22.176
23.55000 26.237
23.56000 28.434
23.57000 25.303
23.58000 26.144
23.59000 18.104
23.60000 22.228
23.61000 23.360
23.62000 25.068
23.63000 31.616
23.64000 24.336
23.65000 23.289
23.66000 27.203
23.67000 18.187
23.68000 25.284
23.69000 21.263
23.70000 37.475
23.71000 26.235
23.72000 30.484
23.73000 23.304
23.74000 29.371
23.75000 24.247
23.76000 27.259
23.77000 35.378
23.78000 21.339
23.79000 27.210
23.80000 27.470
23.81000 33.589
23.82000 31.503
23.83000 17.200
23.84000 20.201
23.85000 31.408
23.86000 28.241
23.87000 30.374
23.88000 29.720
23.89000 22.182
23.90000 32.276
23.91000 26.523
23.92000 35.390
23.93000 29.326
23.94000 25.438
23.95000 36.552
23.96000 26.301
23.97000 23.272
23.98000 24.430
23.99000 36.657
24.00000 27.232
24.01000 34.230
24.02000 29.425
24.03000 25.374
24.04000 20.272
24.05000 31.568
24.06000 21.402
24.07000 25.328
24.08000 30.532
24.09000 22.124
24.10000 24.273
24.11000 29.283
24.12000 28.176
24.13000 30.582
24.14000 27.321
24.15000 28.368
24.16000 24.405
24.17000 30.436
24.18000 31.351
24.19000 40.594
24.20000 30.430
24.21000 28.517
24.22000 33.485
24.23000 23.433
24.24000 29.493
24.25000 31.296
24.26000 26.137
24.27000 19.177
24.28000 26.264
24.29000 34.505
24.30000 27.367
24.31000 26.244
24.32000 25.416
24.33000 34.214
24.34000 19.306
24.35000 33.480
24.36000 27.661
24.37000 18.370
24.38000 25.215
24.39000 31.392
24.40000 40.279
24.41000 27.310
24.42000 28.282
24.43000 28.424
24.44000 25.410
24.45000 34.284
24.46000 20.295
24.47000 36.672
24.48000 27.533
24.49000 28.325
24.50000 42.713
24.51000 33.497
24.52000 27.469
24.53000 28.264
24.54000 40.632
24.55000 22.247
24.56000 23.349
24.57000 19.198
24.58000 39.449
24.59000 33.277
24.60000 33.449
24.61000 34.474
24.62000 31.431
24.63000 28.541
24.64000 20.110
24.65000 36.532
24.66000 34.445
24.67000 27.464
24.68000 20.263
24.69000 29.383
24.70000 31.289
24.71000 25.365
24.72000 35.486
24.73000 35.251
24.74000 30.632
24.75000 32.436
24.76000 36.407
24.77000 43.818
24.78000 31.296
24.79000 34.389
24.80000 34.276
24.81000 28.304
24.82000 31.295
24.83000 30.368
24.84000 42.572
24.85000 27.346
24.86000 30.348
24.87000 28.364
24.88000 41.539
24.89000 30.374
24.90000 34.551
24.91000 27.346
24.92000 29.201
24.93000 42.482
24.94000 32.568
24.95000 25.498
24.96000 29.426
24.97000 34.575
24.98000 42.673
24.99000 34.483
25.00000 31.554
25.01000 37.478
25.02000 40.248
25.03000 33.411
25.04000 28.589
25.05000 38.635
25.06000 32.532
25.07000 26.292
25.08000 37.357
25.09000 48.963
25.10000 36.426
25.11000 36.403
25.12000 27.300
25.13000 33.401
25.14000 27.707
25.15000 28.387
25.16000 24.271
25.17000 30.264
25.18000 30.542
25.19000 35.568
25.20000 38.400
25.21000 26.201
25.22000 44.650
25.23000 34.221
25.24000 37.253
25.25000 35.558
25.26000 31.375
25.27000 31.311
25.28000 33.183
25.29000 35.551
25.30000 40.600
25.31000 27.366
25.32000 33.499
25.33000 30.295
25.34000 37.525
25.35000 34.603
25.36000 28.314
25.37000 48.434
25.38000 32.116
25.39000 43.613
25.40000 32.421
25.41000 47.635
25.42000 40.602
25.43000 28.242
25.44000 43.402
25.45000 37.627
25.46000 28.330
25.47000 36.613
25.48000 34.570
25.49000 44.633
25.50000 36.459
25.51000 28.354
25.52000 42.685
25.53000 29.527
25.54000 38.539
25.55000 30.111
25.56000 34.415
25.57000 35.517
25.58000 33.693
25.59000 40.509
25.60000 37.602
25.61000 33.465
25.62000 46.465
25.63000 30.353
25.64000 47.813
25.65000 33.395
25.66000 31.578
25.67000 27.460
25.68000 35.613
25.69000 44.838
25.70000 37.439
25.71000 35.507
25.72000 39.365
25.73000 36.501
25.74000 37.579
25.75000 46.604
25.76000 42.272
25.77000 41.352
25.78000 41.423
25.79000 37.608
25.80000 39.636
25.81000 45.958
25.82000 30.520
25.83000 30.372
25.84000 33.480
25.85000 38.559
25.86000 46.710
25.87000 38.500
25.88000 31.516
25.89000 38.380
25.90000 40.491
25.91000 43.475
25.92000 40.820
25.93000 43.580
25.94000 41.392
25.95000 46.634
25.96000 41.456
25.97000 42.652
25.98000 42.534
25.99000 42.478
26.00000 39.501
26.01000 41.702
26.02000 38.206
26.03000 39.550
26.04000 38.130
26.05000 39.368
26.06000 46.273
26.07000 35.415
26.08000 38.606
26.09000 47.526
26.10000 45.686
26.11000 56.945
26.12000 42.326
26.13000 41.719
26.14000 42.682
26.15000 38.595
26.16000 30.211
26.17000 32.392
26.18000 37.491
26.19000 42.606
26.20000 43.804
26.21000 43.468
26.22000 38.482
26.23000 42.618
26.24000 32.546
26.25000 47.792
26.26000 35.320
26.27000 33.534
26.28000 39.630
26.29000 43.424
26.30000 37.733
26.31000 43.282
26.32000 48.645
26.33000 30.194
26.34000 35.382
26.35000 49.731
26.36000 30.501
26.37000 34.443
26.38000 39.446
26.39000 42.641
26.40000 41.532
26.41000 39.468
26.42000 35.460
26.43000 38.486
26.44000 35.434
26.45000 39.552
26.46000 38.655
26.47000 44.529
26.48000 44.690
26.49000 46.872
26.50000 59.048
26.51000 35.315
26.52000 33.370
26.53000 42.334
26.54000 42.475
26.55000 56.893
26.56000 54.604
26.57000 43.610
26.58000 39.963
26.59000 32.327
26.60000 30.288
26.61000 37.650
26.62000 36.271
26.63000 48.690
26.64000 41.643
26.65000 48.691
26.66000 42.502
26.67000 43.247
26.68000 45.417
26.69000 51.542
26.70000 50.605
26.71000 35.432
26.72000 35.497
26.73000 35.266
26.74000 38.580
26.75000 48.654
26.76000 37.286
26.77000 51.696
26.78000 49.850
26.79000 52.882
26.80000 36.629
26.81000 64.886
26.82000 42.861
26.83000 46.855
26.84000 46.569
26.85000 49.660
26.86000 39.707
26.87000 45.465
26.88000 58.991
26.89000 56.447
26.90000 40.261
26.91000 42.586
26.92000 64.035
26.93000 52.865
26.94000 48.523
26.95000 40.517
26.96000 42.521
26.97000 55.643
26.98000 49.747
26.99000 50.728
27.00000 39.360
27.01000 37.414
27.02000 46.640
27.03000 46.547
27.04000 62.528
27.05000 48.599
27.06000 44.668
27.07000 46.462
27.08000 54.348
27.09000 37.461
27.10000 37.530
27.11000 51.851
27.12000 50.548
27.13000 41.450
27.14000 39.549
27.15000 50.516
27.16000 47.310
27.17000 47.573
27.18000 46.721
27.19000 50.714
27.20000 54.824
27.21000 36.545
27.22000 47.629
27.23000 41.761
27.24000 48.873
27.25000 43.474
27.26000 41.657
27.27000 44.602
27.28000 55.800
27.29000 39.377
27.30000 45.719
27.31000 48.592
27.32000 39.427
27.33000 43.503
27.34000 47.481
27.35000 50.651
27.36000 52.514
27.37000 48.625
27.38000 38.391
27.39000 48.559
27.40000 43.729
27.41000 32.368
27.42000 46.589
27.43000 50.666
27.44000 63.901
27.45000 46.543
27.46000 47.540
27.47000 64.460
27.48000 40.381
27.49000 52.540
27.50000 39.505
27.51000 56.659
27.52000 56.825
27.53000 40.350
27.54000 55.352
27.55000 44.547
27.56000 43.382
27.57000 33.792
27.58000 56.637
27.59000 61.371
27.60000 51.819
27.61000 47.676
27.62000 44.321
27.63000 42.651
27.64000 51.260
27.65000 57.778
27.66000 40.354
27.67000 50.802
27.68000 37.397
27.69000 45.619
27.70000 35.378
27.71000 35.381
27.72000 54.713
27.73000 51.530
27.74000 43.492
27.75000 47.444
27.76000 53.571
27.77000 51.493
27.78000 48.652
27.79000 45.888
27.80000 52.694
27.81000 38.523
27.82000 64.650
27.83000 46.721
27.84000 37.465
27.85000 36.238
27.86000 43.452
27.87000 50.638
27.88000 51.756
27.89000 48.814
27.90000 51.823
27.91000 51.608
27.92000 43.704
27.93000 48.483
27.94000 57.586
27.95000 52.625
27.96000 49.623
27.97000 54.639
27.98000 44.361
27.99000 54.470
28.00000 61.828
28.01000 44.591
28.02000 49.795
28.03000 57.802
28.04000 39.300
28.05000 55.720
28.06000 54.766
28.07000 54.077
28.08000 44.547
28.09000 44.590
28.10000 52.625
28.11000 53.863
28.12000 53.582
28.13000 51.859
28.14000 47.956
28.15000 41.648
28.16000 44.314
28.17000 46.665
28.18000 42.625
28.19000 54.574
28.20000 50.812
28.21000 44.503
28.22000 42.469
28.23000 46.823
28.24000 52.602
28.25000 39.429
28.26000 42.608
28.27000 52.866
28.28000 44.520
28.29000 43.688
28.30000 46.609
28.31000 57.685
28.32000 51.958
28.33000 49.509
28.34000 47.626
28.35000 48.716
28.36000 50.562
28.37000 36.548
28.38000 52.683
28.39000 47.730
28.40000 42.743
28.41000 50.415
28.42000 52.659
28.43000 51.660
28.44000 52.728
28.45000 36.557
28.46000 57.839
28.47000 41.776
28.48000 39.249
28.49000 45.431
28.50000 48.786
28.51000 37.413
28.52000 41.613
28.53000 41.538
28.54000 54.588
28.55000 44.458
28.56000 43.708
28.57000 55.412
28.58000 32.834
28.59000 37.374
28.60000 50.695
28.61000 42.584
28.62000 36.291
28.63000 50.893
28.64000 38.613
28.65000 46.706
28.66000 52.595
28.67000 61.426
28.68000 42.701
28.69000 37.562
28.70000 40.592
28.71000 43.754
28.72000 41.335
28.73000 39.759
28.74000 46.831
28.75000 54.729
28.76000 38.602
28.77000 43.543
28.78000 45.618
28.79000 38.382
28.80000 49.526
28.81000 42.784
28.82000 37.773
28.83000 33.448
28.84000 24.329
28.85000 42.753
28.86000 38.592
28.87000 49.486
28.88000 43.444
28.89000 39.718
28.90000 38.415
28.91000 63.167
28.92000 39.494
28.93000 49.731
28.94000 47.406
28.95000 47.611
28.96000 56.011
28.97000 43.623
28.98000 44.497
28.99000 36.312
29.00000 47.490
29.01000 43.754
29.02000 37.439
29.03000 46.623
29.04000 45.087
29.05000 39.563
29.06000 50.479
29.07000 39.536
29.08000 26.451
29.09000 58.110
29.10000 42.457
29.11000 35.563
29.12000 28.623
29.13000 34.456
29.14000 68.251
29.15000 47.679
29.16000 48.721
29.17000 51.474
29.18000 43.766
29.19000 50.721
29.20000 43.637
29.21000 37.424
29.22000 45.555
29.23000 28.349
29.24000 52.536
29.25000 48.522
29.26000 44.499
29.27000 43.556
29.28000 36.473
29.29000 45.732
29.30000 36.264
29.31000 45.618
29.32000 42.593
29.33000 35.604
29.34000 38.471
29.35000 41.618
29.36000 42.361
29.37000 43.408
29.38000 41.832
29.39000 47.486
29.40000 41.475
29.41000 34.354
29.42000 40.759
29.43000 34.389
29.44000 33.519
29.45000 36.511
29.46000 39.604
29.47000 35.530
29.48000 47.817
29.49000 33.509
29.50000 42.321
29.51000 33.425
29.52000 45.444
29.53000 36.693
29.54000 35.281
29.55000 40.548
29.56000 39.871
29.57000 35.409
29.58000 44.297
29.59000 38.682
29.60000 51.771
29.61000 39.732
29.62000 32.402
29.63000 20.205
29.64000 41.370
29.65000 23.316
29.66000 39.696
29.67000 32.370
29.68000 34.362
29.69000 44.480
29.70000 32.388
29.71000 51.825
29.72000 42.551
29.73000 38.608
29.74000 38.560
29.75000 42.398
29.76000 54.857
29.77000 27.412
29.78000 24.368
29.79000 32.267
29.80000 40.428
29.81000 33.480
29.82000 24.536
29.83000 33.596
29.84000 22.330
29.85000 35.562
29.86000 35.367
29.87000 27.244
29.88000 28.421
29.89000 26.421
29.90000 37.687
29.91000 32.443
29.92000 36.278
29.93000 46.497
29.94000 42.647
29.95000 41.499
29.96000 30.342
29.97000 28.435
29.98000 45.507
29.99000 50.842
30.00000 33.559
30.01000 29.293
30.02000 33.435
30.03000 33.452
30.04000 28.333
30.05000 29.339
30.06000 34.369
30.07000 39.318
30.08000 36.486
30.09000 32.259
30.10000 38.390
30.11000 39.528
30.12000 34.496
30.13000 29.567
30.14000 35.513
30.15000 35.500
30.16000 33.106
30.17000 33.407
30.18000 33.375
30.19000 32.581
30.20000 34.438
30.21000 37.559
30.22000 40.599
30.23000 39.446
30.24000 35.218
30.25000 42.616
30.26000 36.454
30.27000 38.501
30.28000 36.244
30.29000 31.436
30.30000 34.506
30.31000 36.682
30.32000 25.496
30.33000 28.433
30.34000 33.254
30.35000 40.430
30.36000 33.458
30.37000 32.404
30.38000 34.750
30.39000 47.643
30.40000 26.202
30.41000 30.380
30.42000 20.399
30.43000 35.528
30.44000 32.324
30.45000 36.438
30.46000 33.323
30.47000 30.278
30.48000 21.127
30.49000 35.435
30.50000 40.451
30.51000 38.663
30.52000 39.467
30.53000 34.307
30.54000 33.549
30.55000 25.313
30.56000 21.096
30.57000 28.124
30.58000 29.491
30.59000 24.305
30.60000 36.529
30.61000 21.297
30.62000 33.492
30.63000 15.200
30.64000 27.247
30.65000 47.745
30.66000 30.509
30.67000 33.399
30.68000 29.396
30.69000 26.746
30.70000 28.306
30.71000 32.380
30.72000 29.535
30.73000 18.382
30.74000 29.436
30.75000 27.660
30.76000 31.159
30.77000 32.226
30.78000 33.556
30.79000 24.287
30.80000 25.341
30.81000 31.662
30.82000 35.430
30.83000 27.476
30.84000 17.090
30.85000 27.419
30.86000 23.359
30.87000 29.386
30.88000 34.245
30.89000 28.400
30.90000 35.367
30.91000 34.550
30.92000 25.664
30.93000 35.713
30.94000 23.295
30.95000 17.206
30.96000 25.137
30.97000 34.212
30.98000 24.315
30.99000 24.296
31.00000 25.359
31.01000 24.167
31.02000 36.260
31.03000 36.348
31.04000 27.237
31.05000 28.542
31.06000 30.323
31.07000 23.208
31.08000 35.335
31.09000 36.477
31.10000 32.534
31.11000 21.187
31.12000 34.453
31.13000 36.740
31.14000 27.375
31.15000 25.226
31.16000 21.283
31.17000 28.387
31.18000 30.281
31.19000 28.530
31.20000 24.185
31.21000 25.317
31.22000 29.239
31.23000 25.189
31.24000 33.546
31.25000 22.195
31.26000 28.399
31.27000 20.397
31.28000 31.324
31.29000 23.401
31.30000 24.356
31.31000 23.513
31.32000 29.354
31.33000 27.388
31.34000 24.324
31.35000 26.327
31.36000 21.209
31.37000 36.646
31.38000 33.571
31.39000 28.387
31.40000 29.391
31.41000 22.324
31.42000 23.023
31.43000 22.507
31.44000 18.053
31.45000 31.573
31.46000 25.268
31.47000 15.111
31.48000 33.441
31.49000 30.469
31.50000 29.404
31.51000 20.124
31.52000 26.349
31.53000 30.333
31.54000 28.342
31.55000 29.344
31.56000 18.202
31.57000 24.348
31.58000 26.194
31.59000 37.485
31.60000 37.410
31.61000 34.634
31.62000 24.334
31.63000 27.530
31.64000 15.049
31.65000 29.510
31.66000 24.279
31.67000 21.167
31.68000 22.512
31.69000 32.535
31.70000 24.352
31.71000 22.135
31.72000 19.135
31.73000 17.361
31.74000 23.486
31.75000 24.249
31.76000 20.316
31.77000 24.225
31.78000 28.323
31.79000 27.505
31.80000 22.247
31.81000 28.143
31.82000 24.562
31.83000 26.462
31.84000 21.213
31.85000 25.298
31.86000 29.347
31.87000 19.467
31.88000 20.079
31.89000 20.319
31.90000 20.318
31.91000 30.361
31.92000 23.277
31.93000 24.394
31.94000 28.386
31.95000 26.277
31.96000 37.439
31.97000 21.484
31.98000 18.169
31.99000 20.266
32.00000 33.592
32.01000 30.599
32.02000 27.288
32.03000 21.335
32.04000 28.476
32.05000 24.339
32.06000 22.304
32.07000 22.257
32.08000 26.522
32.09000 30.375
32.10000 24.424
32.11000 23.179
32.12000 25.423
32.13000 25.290
32.14000 27.448
32.15000 26.235
32.16000 27.533
32.17000 32.403
32.18000 19.313
32.19000 23.444
32.20000 30.514
32.21000 26.332
32.22000 23.446
32.23000 35.402
32.24000 30.453
32.25000 21.213
32.26000 33.391
32.27000 27.292
32.28000 25.226
32.29000 26.237
32.30000 30.036
32.31000 21.226
32.32000 19.230
32.33000 31.308
32.34000 26.388
32.35000 32.568
32.36000 30.345
32.37000 23.367
32.38000 30.445
32.39000 25.282
32.40000 31.411
32.41000 23.252
32.42000 25.146
32.43000 27.350
32.44000 33.048
32.45000 21.374
32.46000 27.467
32.47000 29.091
32.48000 23.403
32.49000 27.516
32.50000 23.382
32.51000 27.325
32.52000 25.456
32.53000 18.217
32.54000 22.382
32.55000 26.279
32.56000 19.375
32.57000 25.471
32.58000 17.198
32.59000 19.296
32.60000 25.466
32.61000 22.271
32.62000 31.490
32.63000 17.357
32.64000 25.396
32.65000 26.302
32.66000 22.297
32.67000 21.260
32.68000 31.295
32.69000 18.419
32.70000 22.191
32.71000 17.168
32.72000 19.222
32.73000 27.337
32.74000 17.181
32.75000 17.054
32.76000 27.524
32.77000 32.482
32.78000 24.416
32.79000 20.516
32.80000 23.338
32.81000 25.533
32.82000 20.111
32.83000 29.129
32.84000 25.480
32.85000 21.244
32.86000 16.062
32.87000 22.266
32.88000 31.253
32.89000 21.253
32.90000 21.401
32.91000 18.379
32.92000 30.289
32.93000 22.263
32.94000 24.350
32.95000 15.358
32.96000 16.081
32.97000 16.165
32.98000 21.377
32.99000 17.083
33.00000 12.158
33.01000 21.203
33.02000 19.148
33.03000 22.161
33.04000 8.094
33.05000 18.192
33.06000 18.094
33.07000 17.087
33.08000 22.394
33.09000 19.136
33.10000 14.108
33.11000 20.211
33.12000 18.334
33.13000 22.328
33.14000 16.366
33.15000 20.224
33.16000 18.184
33.17000 17.269
33.18000 21.236
33.19000 27.328
33.20000 20.236
33.21000 15.286
33.22000 15.074
33.23000 24.333
33.24000 23.135
33.25000 17.157
33.26000 22.250
33.27000 21.262
33.28000 18.265
33.29000 23.298
33.30000 15.165
33.31000 18.261
33.32000 19.328
33.33000 19.313
33.34000 17.124
33.35000 22.208
33.36000 15.272
33.37000 11.125
33.38000 17.208
33.39000 18.284
33.40000 20.075
33.41000 16.191
33.42000 20.303
33.43000 13.216
33.44000 19.258
33.45000 16.145
33.46000 25.148
33.47000 18.318
33.48000 19.076
33.49000 21.395
33.50000 22.285
33.51000 17.231
33.52000 19.336
33.53000 25.311
33.54000 15.090
33.55000 26.193
33.56000 21.334
33.57000 18.051
33.58000 15.234
33.59000 22.251
33.60000 14.198
33.61000 18.308
33.62000 20.156
33.63000 14.149
33.64000 26.246
33.65000 13.283
33.66000 18.232
33.67000 13.276
33.68000 16.260
33.69000 17.315
33.70000 17.101
33.71000 32.583
33.72000 13.102
33.73000 19.345
33.74000 19.278
33.75000 18.227
33.76000 15.237
33.77000 20.194
33.78000 20.238
33.79000 11.081
33.80000 18.264
33.81000 21.228
33.82000 14.030
33.83000 15.266
33.84000 16.165
33.85000 23.360
33.86000 18.281
33.87000 15.126
33.88000 15.197
33.89000 16.236
33.90000 13.140
33.91000 14.061
33.92000 7.097
33.93000 19.481
33.94000 17.265
33.95000 15.231
33.96000 12.096
33.97000 14.177
33.98000 19.224
33.99000 15.147
34.00000 19.248
34.01000 17.120
34.02000 17.212
34.03000 18.238
34.04000 11.281
34.05000 20.263
34.06000 18.401
34.07000 15.119
34.08000 15.100
34.09000 25.099
34.10000 18.177
34.11000 18.323
34.12000 18.135
34.13000 16.246
34.14000 17.241
34.15000 11.096
34.16000 15.187
34.17000 20.172
34.18000 21.392
34.19000 26.378
34.20000 17.268
34.21000 15.318
34.22000 19.319
34.23000 18.176
34.24000 17.278
34.25000 14.237
34.26000 19.052
34.27000 13.275
34.28000 16.459
34.29000 11.163
34.30000 22.217
34.31000 17.266
34.32000 12.209
34.33000 13.172
34.34000 19.210
34.35000 17.266
34.36000 10.168
34.37000 16.033
34.38000 18.067
34.39000 24.119
34.40000 15.082
34.41000 10.067
34.42000 23.171
34.43000 10.074
34.44000 13.186
34.45000 19.335
34.46000 16.221
34.47000 16.196
34.48000 20.314
34.49000 17.351
34.50000 15.990
34.51000 15.202
34.52000 16.227
34.53000 17.272
34.54000 21.464
34.55000 16.110
34.56000 19.079
34.57000 13.125
34.58000 20.438
34.59000 13.092
34.60000 14.146
34.61000 12.052
34.62000 19.241
34.63000 15.107
34.64000 16.198
34.65000 15.165
34.66000 18.206
34.67000 11.168
34.68000 14.033
34.69000 16.182
34.70000 13.313
34.71000 23.384
34.72000 13.253
34.73000 16.162
34.74000 16.220
34.75000 9.298
34.76000 8.052
34.77000 19.233
34.78000 12.164
34.79000 18.334
34.80000 19.313
34.81000 12.308
34.82000 14.217
34.83000 16.195
34.84000 17.249
34.85000 17.354
34.86000 18.226
34.87000 11.209
34.88000 16.147
34.89000 15.332
34.90000 19.243
34.91000 15.182
34.92000 15.177
34.93000 11.241
34.94000 16.266
34.95000 20.349
34.96000 17.142
34.97000 17.234
34.98000 15.205
34.99000 22.465
35.00000 19.334
35.01000 19.315
35.02000 20.196
35.03000 11.188
35.04000 18.035
35.05000 12.255
35.06000 13.484
35.07000 16.058
35.08000 16.354
35.09000 19.256
35.10000 14.310
35.11000 9.014
35.12000 17.402
35.13000 10.194
35.14000 11.131
35.15000 18.312
35.16000 14.097
35.17000 20.311
35.18000 11.200
35.19000 19.195
35.20000 19.436
35.21000 6.135
35.22000 10.122
35.23000 19.319
35.24000 15.148
35.25000 19.276
35.26000 22.272
35.27000 14.156
35.28000 17.136
35.29000 9.047
35.30000 10.163
35.31000 18.302
35.32000 14.247
35.33000 10.074
35.34000 9.947
35.35000 18.195
35.36000 16.078
35.37000 14.213
35.38000 19.189
35.39000 21.185
35.40000 15.177
35.41000 17.391
35.42000 14.207
35.43000 10.234
35.44000 11.059
35.45000 16.281
35.46000 17.328
35.47000 14.273
35.48000 7.149
35.49000 15.167
35.50000 11.185
35.51000 17.111
35.52000 12.178
35.53000 17.304
35.54000 12.056
35.55000 8.142
35.56000 17.232
35.57000 18.288
35.58000 15.240
35.59000 21.308
35.60000 18.376
35.61000 9.086
35.62000 15.321
35.63000 15.171
35.64000 16.324
35.65000 13.112
35.66000 7.231
35.67000 12.105
35.68000 23.307
35.69000 17.156
35.70000 14.122
35.71000 14.215
35.72000 16.246
35.73000 9.167
35.74000 11.075
35.75000 19.392
35.76000 15.250
35.77000 9.114
35.78000 15.079
35.79000 17.256
35.80000 21.253
35.81000 21.264
35.82000 21.006
35.83000 18.370
35.84000 14.334
35.85000 15.177
35.86000 15.227
35.87000 14.223
35.88000 11.206
35.89000 23.232
35.90000 12.070
35.91000 16.274
35.92000 16.165
35.93000 15.086
35.94000 14.161
35.95000 19.285
35.96000 11.112
35.97000 9.036
35.98000 18.330
35.99000 12.070
36.00000 19.379
36.01000 11.420
36.02000 11.993
36.03000 14.280
36.04000 13.212
36.05000 14.240
36.06000 20.114
36.07000 18.183
36.08000 13.203
36.09000 11.242
36.10000 23.259
36.11000 13.163
36.12000 19.307
36.13000 17.165
36.14000 16.294
36.15000 10.127
36.16000 7.125
36.17000 19.251
36.18000 15.049
36.19000 18.099
36.20000 16.317
36.21000 16.200
36.22000 9.079
36.23000 22.215
36.24000 14.195
36.25000 13.313
36.26000 21.090
36.27000 21.162
36.28000 22.442
36.29000 16.094
36.30000 10.022
36.31000 15.268
36.32000 8.103
36.33000 17.165
36.34000 16.236
36.35000 10.065
36.36000 15.243
36.37000 13.286
36.38000 18.217
36.39000 26.354
36.40000 15.194
36.41000 16.124
36.42000 16.061
36.43000 19.340
36.44000 19.340
36.45000 16.347
36.46000 8.154
36.47000 18.439
36.48000 19.260
36.49000 15.036
36.50000 16.184
36.51000 22.514
36.52000 16.030
36.53000 11.060
36.54000 15.235
36.55000 11.288
36.56000 20.281
36.57000 14.022
36.58000 15.276
36.59000 16.152
36.60000 13.171
36.61000 22.300
36.62000 21.130
36.63000 23.271
36.64000 16.153
36.65000 18.373
36.66000 16.351
36.67000 16.094
36.68000 27.325
36.69000 20.268
36.70000 17.271
36.71000 27.232
36.72000 23.477
36.73000 20.310
36.74000 17.311
36.75000 11.187
36.76000 18.242
36.77000 26.329
36.78000 14.253
36.79000 10.138
36.80000 21.249
36.81000 23.446
36.82000 14.133
36.83000 15.279
36.84000 16.140
36.85000 13.177
36.86000 17.306
36.87000 20.373
36.88000 11.085
36.89000 17.179
36.90000 15.232
36.91000 12.367
36.92000 14.263
36.93000 19.169
36.94000 11.137
36.95000 22.337
36.96000 15.161
36.97000 13.267
36.98000 16.125
36.99000 17.199
37.00000 16.197
37.01000 25.262
37.02000 15.236
37.03000 12.123
37.04000 14.027
37.05000 13.197
37.06000 20.102
37.07000 18.383
37.08000 17.194
37.09000 12.189
37.10000 18.035
37.11000 11.237
37.12000 18.523
37.13000 14.290
37.14000 17.214
37.15000 18.428
37.16000 15.982
37.17000 16.239
37.18000 19.167
37.19000 20.275
37.20000 15.157
37.21000 20.200
37.22000 19.215
37.23000 11.077
37.24000 21.206
37.25000 23.254
37.26000 17.075
37.27000 14.165
37.28000 12.177
37.29000 18.476
37.30000 13.016
37.31000 17.128
37.32000 23.342
37.33000 21.364
37.34000 20.174
37.35000 15.270
37.36000 19.130
37.37000 12.232
37.38000 16.356
37.39000 13.133
37.40000 13.110
37.41000 17.404
37.42000 14.185
37.43000 13.172
37.44000 20.258
37.45000 12.108
37.46000 13.109
37.47000 11.226
37.48000 14.184
37.49000 13.021
37.50000 17.291
37.51000 19.281
37.52000 13.159
37.53000 24.321
37.54000 16.229
37.55000 18.172
37.56000 19.144
37.57000 22.219
37.58000 19.177
37.59000 16.207
37.60000 19.445
37.61000 15.226
37.62000 19.371
37.63000 17.222
37.64000 17.235
37.65000 20.106
37.66000 19.296
37.67000 16.171
37.68000 15.094
37.69000 13.132
37.70000 21.101
37.71000 23.199
37.72000 14.145
37.73000 13.115
37.74000 17.235
37.75000 12.088
37.76000 18.145
37.77000 19.237
37.78000 22.262
37.79000 17.027
37.80000 13.200
37.81000 27.378
37.82000 16.034
37.83000 22.117
37.84000 9.302
37.85000 20.329
37.86000 12.025
37.87000 14.364
37.88000 19.348
37.89000 8.133
37.90000 16.099
37.91000 15.120
37.92000 15.156
37.93000 16.387
37.94000 18.327
37.95000 12.013
37.96000 15.218
37.97000 19.319
37.98000 22.448
37.99000 18.185
38.00000 15.097
38.01000 13.182
38.02000 15.136
38.03000 11.036
38.04000 15.090
38.05000 20.131
38.06000 15.179
38.07000 11.092
38.08000 23.356
38.09000 10.077
38.10000 18.248
38.11000 14.120
38.12000 14.167
38.13000 15.190
38.14000 10.250
38.15000 17.134
38.16000 23.417
38.17000 18.312
38.18000 18.143
38.19000 17.101
38.20000 18.249
38.21000 27.238
38.22000 19.215
38.23000 21.422
38.24000 12.117
38.25000 22.258
38.26000 12.161
38.27000 17.156
38.28000 18.292
38.29000 17.070
38.30000 18.310
38.31000 18.319
38.32000 22.322
38.33000 20.468
38.34000 13.181
38.35000 19.192
38.36000 12.140
38.37000 13.131
38.38000 18.160
38.39000 19.252
38.40000 19.170
38.41000 14.987
38.42000 15.263
38.43000 11.099
38.44000 20.334
38.45000 19.307
38.46000 13.185
38.47000 16.304
38.48000 15.236
38.49000 23.482
38.50000 15.103
38.51000 10.045
38.52000 13.415
38.53000 11.086
38.54000 19.374
38.55000 18.484
38.56000 20.480
38.57000 14.179
38.58000 22.358
38.59000 21.171
38.60000 21.172
38.61000 25.377
38.62000 9.085
38.63000 16.121
38.64000 20.315
38.65000 17.171
38.66000 19.122
38.67000 11.273
38.68000 20.265
38.69000 13.293
38.70000 19.430
38.71000 16.244
38.72000 15.196
38.73000 14.234
38.74000 17.391
38.75000 12.176
38.76000 20.405
38.77000 17.120
38.78000 21.062
38.79000 12.023
38.80000 18.273
38.81000 17.303
38.82000 11.118
38.83000 16.077
38.84000 12.080
38.85000 24.369
38.86000 17.213
38.87000 14.017
38.88000 19.280
38.89000 19.334
38.90000 23.229
38.91000 19.221
38.92000 15.263
38.93000 24.406
38.94000 24.309
38.95000 18.314
38.96000 16.414
38.97000 26.358
38.98000 20.149
38.99000 20.284
39.00000 11.106
39.01000 16.148
39.02000 10.221
39.03000 19.092
39.04000 16.271
39.05000 13.323
39.06000 26.380
39.07000 24.531
39.08000 19.207
39.09000 19.139
39.10000 12.196
39.11000 17.399
39.12000 13.348
39.13000 9.158
39.14000 20.149
39.15000 16.188
39.16000 16.359
39.17000 15.202
39.18000 11.183
39.19000 20.298
39.20000 23.251
39.21000 21.151
39.22000 16.207
39.23000 11.991
39.24000 16.302
39.25000 15.191
39.26000 10.107
39.27000 16.350
39.28000 16.213
39.29000 13.269
39.30000 32.466
39.31000 19.123
39.32000 23.372
39.33000 9.149
39.34000 12.108
39.35000 21.212
39.36000 13.219
39.37000 18.223
39.38000 17.144
39.39000 16.189
39.40000 19.018
39.41000 20.258
39.42000 15.262
39.43000 17.211
39.44000 22.314
39.45000 15.165
39.46000 18.237
39.47000 20.264
39.48000 18.148
39.49000 14.140
39.50000 18.128
39.51000 18.358
39.52000 22.180
39.53000 11.134
39.54000 18.128
39.55000 17.186
39.56000 23.470
39.57000 16.114
39.58000 22.168
39.59000 19.325
39.60000 17.238
39.61000 8.066
39.62000 18.156
39.63000 20.308
39.64000 19.427
39.65000 17.186
39.66000 13.275
39.67000 21.282
39.68000 19.304
39.69000 24.357
39.70000 16.165
39.71000 22.310
39.72000 15.028
39.73000 25.374
39.74000 12.098
39.75000 15.339
39.76000 24.271
39.77000 14.098
39.78000 18.239
39.79000 24.335
39.80000 17.316
39.81000 16.303
39.82000 24.246
39.83000 18.302
39.84000 18.183
39.85000 14.346
39.86000 16.169
39.87000 18.170
39.88000 15.144
39.89000 15.122
39.90000 14.167
39.91000 13.189
39.92000 30.388
39.93000 16.435
39.94000 20.315
39.95000 17.156
39.96000 19.178
39.97000 19.250
39.98000 33.439
39.99000 28.351
40.00000 21.146
40.01000 17.172
40.02000 26.339
40.03000 19.334
40.04000 17.329
40.05000 12.241
40.06000 18.286
40.07000 16.090
40.08000 16.106
40.09000 18.100
40.10000 19.267
40.11000 16.458
40.12000 22.459
40.13000 17.258
40.14000 23.494
40.15000 15.214
40.16000 13.125
40.17000 16.203
40.18000 19.113
40.19000 15.194
40.20000 26.384
40.21000 19.227
40.22000 12.098
40.23000 17.240
40.24000 11.157
40.25000 19.123
40.26000 18.143
40.27000 13.239
40.28000 15.124
40.29000 14.155
40.30000 12.136
40.31000 21.331
40.32000 16.494
40.33000 21.317
40.34000 20.351
40.35000 20.245
40.36000 29.210
40.37000 18.354
40.38000 25.332
40.39000 13.226
40.40000 23.344
40.41000 21.127
40.42000 16.157
40.43000 13.111
40.44000 22.337
40.45000 12.045
40.46000 18.240
40.47000 23.500
40.48000 17.363
40.49000 14.156
40.50000 17.366
40.51000 15.373
40.52000 16.213
40.53000 13.174
40.54000 21.335
40.55000 18.275
40.56000 15.180
40.57000 16.119
40.58000 13.168
40.59000 21.307
40.60000 18.240
40.61000 21.103
40.62000 21.311
40.63000 14.170
40.64000 24.117
40.65000 14.293
40.66000 21.248
40.67000 23.106
40.68000 20.317
40.69000 10.335
40.70000 15.354
40.71000 18.139
40.72000 11.053
40.73000 20.133
40.74000 21.079
40.75000 21.452
40.76000 17.188
40.77000 21.501
40.78000 9.101
40.79000 12.209
40.80000 16.200
40.81000 21.223
40.82000 20.331
40.83000 15.168
40.84000 11.158
40.85000 10.235
40.86000 19.200
40.87000 22.244
40.88000 15.104
40.89000 19.295
40.90000 24.278
40.91000 13.223
40.92000 16.282
40.93000 20.181
40.94000 14.180
40.95000 18.069
40.96000 14.062
40.97000 9.156
40.98000 21.296
40.99000 21.151
41.00000 15.186
41.01000 15.123
41.02000 18.249
41.03000 15.211
41.04000 23.304
41.05000 21.288
41.06000 23.244
41.07000 19.177
41.08000 15.055
41.09000 23.317
41.10000 18.179
41.11000 11.161
41.12000 19.183
41.13000 18.255
41.14000 19.274
41.15000 15.123
41.16000 26.050
41.17000 25.217
41.18000 22.247
41.19000 9.083
41.20000 15.185
41.21000 31.561
41.22000 20.244
41.23000 11.203
41.24000 19.234
41.25000 20.221
41.26000 24.372
41.27000 17.341
41.28000 16.126
41.29000 17.192
41.30000 16.261
41.31000 11.068
41.32000 14.281
41.33000 24.322
41.34000 21.207
41.35000 18.368
41.36000 17.266
41.37000 19.303
41.38000 16.200
41.39000 16.461
41.40000 19.055
41.41000 20.148
41.42000 19.226
41.43000 22.206
41.44000 13.167
41.45000 16.159
41.46000 16.272
41.47000 19.307
41.48000 17.258
41.49000 16.077
41.50000 13.262
41.51000 14.193
41.52000 28.455
41.53000 19.238
41.54000 23.406
41.55000 19.209
41.56000 17.427
41.57000 16.265
41.58000 21.375
41.59000 19.440
41.60000 11.233
41.61000 20.143
41.62000 16.192
41.63000 18.258
41.64000 21.228
41.65000 16.206
41.66000 25.202
41.67000 22.227
41.68000 17.182
41.69000 17.187
41.70000 18.302
41.71000 15.169
41.72000 18.058
41.73000 19.310
41.74000 20.436
41.75000 23.570
41.76000 17.219
41.77000 17.220
41.78000 12.076
41.79000 16.269
41.80000 19.288
41.81000 19.197
41.82000 25.244
41.83000 21.314
41.84000 16.414
41.85000 18.388
41.86000 18.530
41.87000 22.172
41.88000 18.207
41.89000 14.176
41.90000 12.177
41.91000 16.098
41.92000 16.984
41.93000 20.253
41.94000 18.119
41.95000 18.330
41.96000 14.175
41.97000 19.258
41.98000 18.203
41.99000 20.452
42.00000 17.139
42.01000 13.192
42.02000 16.265
42.03000 22.386
42.04000 23.358
42.05000 22.342
42.06000 19.276
42.07000 20.022
42.08000 20.317
42.09000 18.204
42.10000 12.147
42.11000 28.400
42.12000 14.180
42.13000 13.228
42.14000 25.427
42.15000 16.245
42.16000 10.079
42.17000 22.319
42.18000 16.164
42.19000 18.442
42.20000 26.304
42.21000 17.224
42.22000 18.456
42.23000 16.322
42.24000 11.052
42.25000 13.321
42.26000 21.169
42.27000 15.103
42.28000 18.211
42.29000 19.362
42.30000 15.133
42.31000 23.186
42.32000 21.309
42.33000 20.260
42.34000 20.348
42.35000 15.136
42.36000 14.162
42.37000 15.241
42.38000 19.245
42.39000 17.184
42.40000 16.239
42.41000 14.191
42.42000 18.150
42.43000 21.041
42.44000 20.252
42.45000 22.297
42.46000 22.200
42.47000 12.094
42.48000 19.188
42.49000 24.185
42.50000 17.070
42.51000 20.052
42.52000 15.203
42.53000 18.211
42.54000 22.353
42.55000 23.158
42.56000 18.268
42.57000 16.136
42.58000 18.251
42.59000 18.151
42.60000 20.147
42.61000 21.381
42.62000 24.523
42.63000 20.210
42.64000 11.102
42.65000 17.171
42.66000 25.410
42.67000 12.153
42.68000 20.241
42.69000 17.429
42.70000 20.173
42.71000 17.219
42.72000 25.268
42.73000 29.327
42.74000 23.326
42.75000 11.086
42.76000 16.278
42.77000 13.001
42.78000 11.277
42.79000 15.299
42.80000 20.098
42.81000 5.108
42.82000 16.262
42.83000 21.258
42.84000 22.473
42.85000 9.132
42.86000 21.045
42.87000 15.270
42.88000 13.257
42.89000 15.071
42.90000 22.342
42.91000 9.202
42.92000 15.404
42.93000 17.126
42.94000 14.271
42.95000 23.292
42.96000 21.187
42.97000 25.360
42.98000 15.264
42.99000 14.319
43.00000 15.265
43.01000 16.108
43.02000 18.376
43.03000 25.439
43.04000 23.216
43.05000 8.117
43.06000 20.153
43.07000 18.268
43.08000 27.312
43.09000 15.180
43.10000 17.180
43.11000 17.119
43.12000 16.136
43.13000 17.306
43.14000 15.194
43.15000 12.027
43.16000 17.287
43.17000 11.139
43.18000 17.083
43.19000 8.108
43.20000 23.114
43.21000 25.350
43.22000 17.102
43.23000 12.272
43.24000 13.258
43.25000 17.283
43.26000 17.310
43.27000 15.203
43.28000 15.292
43.29000 19.071
43.30000 20.412
43.31000 16.309
43.32000 15.116
43.33000 19.333
43.34000 23.146
43.35000 15.138
43.36000 19.226
43.37000 25.473
43.38000 19.193
43.39000 29.542
43.40000 15.307
43.41000 16.212
43.42000 22.363
43.43000 24.320
43.44000 21.437
43.45000 17.099
43.46000 17.318
43.47000 20.426
43.48000 13.081
43.49000 17.194
43.50000 14.263
43.51000 16.137
43.52000 18.179
43.53000 20.244
43.54000 25.452
43.55000 17.268
43.56000 14.033
43.57000 12.170
43.58000 25.287
43.59000 20.215
43.60000 18.135
43.61000 18.485
43.62000 21.106
43.63000 23.393
43.64000 12.158
43.65000 13.193
43.66000 18.209
43.67000 23.134
43.68000 21.024
43.69000 12.157
43.70000 20.223
43.71000 15.069
43.72000 18.180
43.73000 17.356
43.74000 18.975
43.75000 15.184
43.76000 18.314
43.77000 20.479
43.78000 14.121
43.79000 18.270
43.80000 12.105
43.81000 21.323
43.82000 21.084
43.83000 17.427
43.84000 16.915
43.85000 13.095
43.86000 19.971
43.87000 7.046
43.88000 17.214
43.89000 19.289
43.90000 20.267
43.91000 24.335
43.92000 14.152
43.93000 18.213
43.94000 23.135
43.95000 22.178
43.96000 19.312
43.97000 21.219
43.98000 11.207
43.99000 13.215
44.00000 16.187
44.01000 18.353
44.02000 12.246
44.03000 26.288
44.04000 11.106
44.05000 16.101
44.06000 21.358
44.07000 14.246
44.08000 13.010
44.09000 14.267
44.10000 23.347
44.11000 14.208
44.12000 11.270
44.13000 25.284
44.14000 13.131
44.15000 23.253
44.16000 22.295
44.17000 22.247
44.18000 12.174
44.19000 24.446
44.20000 16.142
44.21000 14.218
44.22000 15.442
44.23000 17.292
44.24000 14.283
44.25000 15.191
44.26000 12.146
44.27000 14.284
44.28000 20.270
44.29000 27.393
44.30000 20.280
44.31000 18.339
44.32000 15.096
44.33000 17.156
44.34000 15.166
44.35000 18.246
44.36000 17.228
44.37000 12.143
44.38000 22.348
44.39000 21.417
44.40000 15.266
44.41000 24.429
44.42000 14.100
44.43000 16.238
44.44000 23.189
44.45000 18.179
44.46000 15.203
44.47000 14.331
44.48000 23.173
44.49000 19.156
44.50000 20.167
44.51000 17.161
44.52000 19.104
44.53000 23.509
44.54000 18.157
44.55000 22.235
44.56000 15.183
44.57000 13.295
44.58000 21.334
44.59000 19.286
44.60000 11.139
44.61000 19.057
44.62000 15.131
44.63000 23.250
44.64000 22.190
44.65000 18.237
44.66000 23.207
44.67000 20.268
44.68000 12.083
44.69000 13.289
44.70000 21.218
44.71000 15.154
44.72000 16.088
44.73000 18.176
44.74000 20.206
44.75000 19.314
44.76000 17.221
44.77000 21.321
44.78000 24.309
44.79000 14.237
44.80000 21.179
44.81000 23.278
44.82000 13.294
44.83000 12.157
44.84000 23.384
44.85000 9.113
44.86000 19.301
44.87000 16.318
44.88000 18.129
44.89000 15.175
44.90000 24.351
44.91000 23.344
44.92000 18.199
44.93000 11.289
44.94000 15.165
44.95000 20.345
44.96000 19.095
44.97000 20.217
44.98000 27.574
44.99000 23.182
45.00000 18.243
45.01000 14.202
45.02000 14.245
45.03000 17.298
45.04000 20.080
45.05000 18.113
45.06000 22.351
45.07000 17.283
45.08000 9.034
45.09000 28.458
45.10000 19.265
45.11000 8.036
45.12000 16.275
45.13000 21.404
45.14000 19.089
45.15000 14.280
45.16000 19.205
45.17000 10.196
45.18000 21.415
45.19000 7.042
45.20000 16.122
45.21000 27.463
45.22000 15.288
45.23000 25.415
45.24000 17.077
45.25000 12.065
45.26000 21.169
45.27000 16.281
45.28000 17.062
45.29000 17.260
45.30000 22.176
45.31000 25.178
45.32000 24.340
45.33000 16.197
45.34000 19.259
45.35000 11.155
45.36000 14.198
45.37000 22.230
45.38000 17.082
45.39000 21.355
45.40000 17.214
45.41000 19.340
45.42000 14.281
45.43000 22.329
45.44000 23.171
45.45000 24.329
45.46000 15.411
45.47000 16.197
45.48000 22.314
45.49000 19.172
45.50000 15.381
45.51000 15.123
45.52000 21.128
45.53000 24.401
45.54000 9.048
45.55000 6.961
45.56000 16.216
45.57000 9.115
45.58000 15.429
45.59000 17.412
45.60000 15.173
45.61000 11.171
45.62000 17.062
45.63000 22.217
45.64000 13.276
45.65000 16.231
45.66000 16.203
45.67000 15.146
45.68000 17.201
45.69000 18.285
45.70000 8.153
45.71000 19.300
45.72000 17.220
45.73000 22.240
45.74000 12.112
45.75000 22.442
45.76000 26.297
45.77000 22.137
45.78000 11.310
45.79000 13.166
45.80000 19.311
45.81000 13.332
45.82000 24.184
45.83000 15.146
45.84000 18.097
45.85000 14.085
45.86000 22.412
45.87000 18.276
45.88000 19.302
45.89000 16.060
45.90000 15.179
45.91000 18.393
45.92000 20.271
45.93000 19.322
45.94000 13.188
45.95000 22.231
45.96000 19.275
45.97000 30.526
45.98000 22.306
45.99000 27.236
46.00000 18.276
46.01000 18.291
46.02000 21.267
46.03000 23.268
46.04000 17.314
46.05000 17.215
46.06000 22.423
46.07000 13.259
46.08000 14.132
46.09000 19.391
46.10000 17.226
46.11000 21.314
46.12000 20.169
46.13000 23.361
46.14000 15.287
46.15000 26.461
46.16000 17.370
46.17000 25.311
46.18000 20.183
46.19000 18.353
46.20000 23.316
46.21000 23.093
46.22000 23.289
46.23000 26.348
46.24000 23.217
46.25000 21.175
46.26000 17.304
46.27000 30.508
46.28000 27.222
46.29000 18.181
46.30000 24.142
46.31000 19.324
46.32000 20.145
46.33000 18.208
46.34000 10.240
46.35000 18.291
46.36000 18.226
46.37000 17.121
46.38000 13.284
46.39000 20.286
46.40000 18.254
46.41000 16.157
46.42000 18.171
46.43000 16.288
46.44000 15.272
46.45000 13.150
46.46000 10.148
46.47000 10.104
46.48000 24.227
46.49000 14.071
46.50000 12.238
46.51000 18.221
46.52000 10.119
46.53000 21.214
46.54000 20.378
46.55000 15.202
46.56000 20.233
46.57000 21.245
46.58000 20.216
46.59000 21.186
46.60000 12.159
46.61000 18.125
46.62000 18.182
46.63000 22.477
46.64000 17.035
46.65000 20.246
46.66000 16.399
46.67000 16.165
46.68000 19.376
46.69000 20.334
46.70000 25.565
46.71000 20.243
46.72000 17.188
46.73000 20.202
46.74000 16.207
46.75000 20.318
46.76000 18.033
46.77000 18.357
46.78000 15.271
46.79000 19.222
46.80000 20.271
46.81000 28.502
46.82000 17.262
46.83000 14.227
46.84000 15.198
46.85000 19.224
46.86000 28.319
46.87000 12.087
46.88000 18.028
46.89000 14.186
46.90000 10.174
46.91000 15.287
46.92000 22.224
46.93000 12.327
46.94000 19.416
46.95000 22.427
46.96000 22.454
46.97000 24.405
46.98000 17.432
46.99000 20.323
47.00000 16.234
47.01000 11.121
47.02000 24.312
47.03000 18.097
47.04000 11.311
47.05000 19.087
47.06000 20.244
47.07000 17.198
47.08000 22.603
47.09000 16.162
47.10000 15.282
47.11000 13.276
47.12000 17.250
47.13000 17.231
47.14000 15.087
47.15000 21.333
47.16000 19.189
47.17000 15.028
47.18000 19.106
47.19000 12.132
47.20000 14.343
47.21000 16.132
47.22000 19.383
47.23000 11.053
47.24000 14.310
47.25000 16.225
47.26000 17.312
47.27000 15.322
47.28000 28.569
47.29000 18.143
47.30000 19.169
47.31000 17.290
47.32000 20.293
47.33000 20.256
47.34000 13.092
47.35000 19.307
47.36000 11.128
47.37000 25.227
47.38000 23.442
47.39000 20.395
47.40000 20.249
47.41000 17.296
47.42000 24.285
47.43000 22.374
47.44000 16.310
47.45000 11.242
47.46000 17.203
47.47000 10.132
47.48000 10.111
47.49000 23.460
47.50000 17.227
47.51000 19.369
47.52000 16.118
47.53000 13.210
47.54000 11.018
47.55000 16.326
47.56000 22.368
47.57000 16.245
47.58000 10.136
47.59000 15.163
47.60000 22.164
47.61000 21.409
47.62000 17.268
47.63000 17.331
47.64000 16.155
47.65000 16.168
47.66000 20.354
47.67000 23.165
47.68000 16.278
47.69000 19.403
47.70000 28.346
47.71000 30.251
47.72000 17.244
47.73000 16.075
47.74000 16.183
47.75000 15.281
47.76000 14.007
47.77000 15.130
47.78000 16.057
47.79000 12.135
47.80000 21.340
47.81000 20.101
47.82000 15.401
47.83000 21.218
47.84000 22.310
47.85000 20.262
47.86000 17.101
47.87000 14.134
47.88000 19.108
47.89000 14.267
47.90000 18.509
47.91000 21.496
47.92000 21.187
47.93000 18.219
47.94000 23.160
47.95000 20.347
47.96000 20.203
47.97000 21.368
47.98000 13.200
47.99000 21.422
48.00000 13.242
48.01000 13.208
48.02000 20.178
48.03000 18.396
48.04000 27.212
48.05000 12.163
48.06000 14.165
48.07000 22.280
48.08000 18.198
48.09000 19.140
48.10000 14.320
48.11000 15.243
48.12000 13.389
48.13000 16.202
48.14000 17.135
48.15000 27.603
48.16000 18.246
48.17000 12.193
48.18000 19.170
48.19000 18.248
48.20000 15.336
48.21000 20.290
48.22000 17.239
48.23000 16.355
48.24000 19.241
48.25000 5.988
48.26000 17.094
48.27000 15.308
48.28000 18.270
48.29000 17.492
48.30000 10.041
48.31000 16.112
48.32000 15.227
48.33000 15.317
48.34000 16.269
48.35000 20.183
48.36000 19.138
48.37000 12.079
48.38000 25.372
48.39000 15.259
48.40000 15.214
48.41000 25.283
48.42000 17.119
48.43000 21.146
48.44000 11.043
48.45000 11.223
48.46000 18.357
48.47000 24.382
48.48000 17.117
48.49000 16.256
48.50000 17.302
48.51000 16.160
48.52000 20.294
48.53000 12.168
48.54000 8.018
48.55000 14.222
48.56000 23.215
48.57000 13.182
48.58000 17.249
48.59000 16.155
48.60000 17.305
48.61000 15.213
48.62000 25.251
48.63000 12.163
48.64000 20.364
48.65000 11.194
48.66000 14.304
48.67000 16.206
48.68000 16.093
48.69000 22.396
48.70000 14.269
48.71000 23.360
48.72000 20.275
48.73000 11.102
48.74000 13.206
48.75000 17.227
48.76000 12.074
48.77000 18.328
48.78000 16.213
48.79000 12.122
48.80000 10.060
48.81000 15.145
48.82000 20.125
48.83000 18.080
48.84000 11.060
48.85000 18.215
48.86000 17.170
48.87000 19.165
48.88000 21.280
48.89000 17.066
48.90000 11.144
48.91000 11.148
48.92000 15.226
48.93000 22.252
48.94000 14.239
48.95000 19.225
48.96000 11.008
48.97000 11.156
48.98000 19.344
48.99000 17.400
49.00000 18.150
49.01000 11.430
49.02000 19.258
49.03000 12.098
49.04000 14.114
49.05000 22.386
49.06000 16.116
49.07000 14.282
49.08000 13.164
49.09000 20.209
49.10000 16.373
49.11000 16.182
49.12000 19.216
49.13000 16.104
49.14000 15.049
49.15000 18.292
49.16000 21.376
49.17000 22.189
49.18000 19.280
49.19000 17.304
49.20000 13.128
49.21000 16.111
49.22000 14.284
49.23000 10.122
49.24000 25.492
49.25000 17.206
49.26000 26.335
49.27000 16.270
49.28000 18.274
49.29000 19.209
49.30000 12.231
49.31000 15.263
49.32000 19.209
49.33000 14.102
49.34000 16.378
49.35000 21.333
49.36000 13.032
49.37000 16.077
49.38000 9.138
49.39000 18.211
49.40000 19.364
49.41000 14.129
49.42000 18.321
49.43000 11.052
49.44000 19.285
49.45000 25.418
49.46000 17.223
49.47000 17.154
49.48000 19.181
49.49000 16.103
49.50000 20.140
49.51000 25.288
49.52000 13.135
49.53000 9.028
49.54000 11.112
49.55000 20.234
49.56000 16.215
49.57000 22.442
49.58000 18.026
49.59000 12.286
49.60000 13.252
49.61000 21.293
49.62000 14.254
49.63000 19.094
49.64000 13.139
49.65000 28.404
49.66000 16.279
49.67000 13.385
49.68000 13.301
49.69000 12.207
49.70000 15.120
49.71000 17.269
49.72000 13.176
49.73000 15.270
49.74000 12.008
49.75000 15.237
49.76000 17.183
49.77000 10.161
49.78000 20.601
49.79000 19.169
49.80000 13.192
49.81000 21.256
49.82000 17.347
49.83000 15.208
49.84000 16.179
49.85000 17.079
49.86000 15.292
49.87000 18.288
49.88000 8.008
49.89000 30.402
49.90000 10.197
49.91000 17.343
49.92000 14.417
49.93000 15.371
49.94000 16.294
49.95000 18.044
49.96000 18.272
49.97000 18.199
49.98000 18.319
49.99000 20.099
50.00000 19.194
50.01000 12.132
50.02000 17.171
50.03000 9.153
50.04000 9.195
50.05000 16.518
50.06000 15.239
50.07000 14.188
50.08000 18.389
50.09000 16.363
50.10000 15.336
50.11000 15.242
50.12000 10.185
50.13000 16.330
50.14000 13.217
50.15000 18.156
50.16000 12.215
50.17000 13.111
50.18000 19.288
50.19000 13.160
50.20000 18.244
50.21000 13.236
50.22000 24.514
50.23000 17.083
50.24000 17.282
50.25000 19.322
50.26000 13.251
50.27000 23.318
50.28000 17.175
50.29000 12.160
50.30000 16.119
50.31000 15.234
50.32000 19.223
50.33000 10.003
50.34000 12.155
50.35000 13.337
50.36000 14.394
50.37000 19.234
50.38000 15.275
50.39000 15.261
50.40000 12.136
50.41000 13.258
50.42000 12.256
50.43000 14.005
50.44000 21.468
50.45000 17.427
50.46000 18.366
50.47000 14.304
50.48000 14.120
50.49000 9.280
50.50000 16.179
50.51000 21.339
50.52000 12.170
50.53000 13.133
50.54000 15.259
50.55000 16.021
50.56000 16.307
50.57000 12.273
50.58000 14.185
50.59000 13.199
50.60000 11.097
50.61000 9.040
50.62000 12.239
50.63000 12.146
50.64000 18.063
50.65000 14.122
50.66000 14.195
50.67000 15.289
50.68000 19.270
50.69000 18.284
50.70000 18.289
50.71000 16.077
50.72000 16.291
50.73000 14.094
50.74000 15.371
50.75000 7.165
50.76000 16.135
50.77000 16.296
50.78000 19.332
50.79000 19.302
50.80000 17.106
50.81000 17.256
50.82000 14.115
50.83000 23.413
50.84000 14.186
50.85000 17.165
50.86000 22.156
50.87000 20.384
50.88000 15.332
50.89000 10.140
50.90000 13.146
50.91000 25.209
50.92000 14.195
50.93000 12.226
50.94000 18.337
50.95000 19.157
50.96000 15.093
50.97000 17.302
50.98000 14.083
50.99000 11.195
51.00000 12.081
51.01000 22.189
51.02000 13.236
51.03000 16.340
51.04000 22.365
51.05000 11.110
51.06000 13.138
51.07000 21.442
51.08000 25.312
51.09000 7.139
51.10000 13.149
51.11000 11.074
51.12000 13.029
51.13000 16.196
51.14000 13.065
51.15000 11.134
51.16000 16.271
51.17000 13.317
51.18000 11.204
51.19000 9.057
51.20000 8.092
51.21000 13.209
51.22000 18.254
51.23000 20.323
51.24000 13.150
51.25000 12.045
51.26000 19.250
51.27000 16.479
51.28000 11.184
51.29000 19.387
51.30000 23.517
51.31000 18.456
51.32000 15.079
51.33000 8.098
51.34000 18.161
51.35000 10.185
51.36000 7.090
51.37000 12.384
51.38000 14.201
51.39000 14.268
51.40000 9.153
51.41000 14.170
51.42000 17.309
51.43000 8.069
51.44000 15.353
51.45000 13.260
51.46000 14.207
51.47000 9.010
51.48000 15.224
51.49000 13.303
51.50000 14.138
51.51000 20.163
51.52000 17.140
51.53000 15.279
51.54000 15.435
51.55000 17.297
51.56000 10.021
51.57000 14.154
51.58000 15.101
51.59000 13.213
51.60000 10.178
51.61000 21.224
51.62000 11.112
51.63000 12.302
51.64000 17.428
51.65000 15.193
51.66000 11.169
51.67000 10.128
51.68000 11.119
51.69000 17.172
51.70000 16.154
51.71000 16.130
51.72000 14.176
51.73000 19.256
51.74000 14.030
51.75000 23.378
51.76000 16.353
51.77000 14.229
51.78000 12.154
51.79000 14.240
51.80000 14.134
51.81000 11.150
51.82000 22.141
51.83000 14.110
51.84000 20.204
51.85000 19.323
51.86000 15.268
51.87000 11.158
51.88000 18.197
51.89000 23.168
51.90000 11.189
51.91000 19.247
51.92000 14.162
51.93000 10.984
51.94000 16.247
51.95000 14.213
51.96000 11.030
51.97000 13.155
51.98000 11.210
51.99000 12.173
52.00000 16.237
52.01000 13.158
52.02000 19.303
52.03000 17.305
52.04000 20.232
52.05000 13.313
52.06000 8.153
52.07000 12.289
52.08000 17.249
52.09000 10.116
52.10000 16.178
52.11000 12.093
52.12000 21.384
52.13000 17.232
52.14000 15.253
52.15000 17.128
52.16000 15.237
52.17000 12.096
52.18000 10.050
52.19000 11.113
52.20000 14.185
52.21000 22.277
52.22000 14.199
52.23000 16.169
52.24000 8.167
52.25000 19.322
52.26000 6.077
52.27000 19.539
52.28000 16.217
52.29000 10.037
52.30000 11.226
52.31000 20.241
52.32000 19.221
52.33000 13.164
52.34000 15.166
52.35000 17.129
52.36000 15.131
52.37000 13.228
52.38000 15.199
52.39000 20.239
52.40000 10.114
52.41000 17.247
52.42000 16.311
52.43000 9.076
52.44000 20.011
52.45000 17.166
52.46000 15.141
52.47000 20.204
52.48000 18.238
52.49000 19.414
52.50000 15.248
52.51000 14.195
52.52000 18.251
52.53000 12.197
52.54000 10.190
52.55000 16.154
52.56000 13.215
52.57000 11.214
52.58000 14.199
52.59000 12.234
52.60000 19.535
52.61000 14.255
52.62000 14.248
52.63000 11.285
52.64000 17.437
52.65000 18.306
52.66000 19.271
52.67000 14.168
52.68000 18.081
52.69000 13.160
52.70000 13.162
52.71000 13.158
52.72000 19.552
52.73000 13.105
52.74000 7.090
52.75000 10.262
52.76000 10.201
52.77000 14.189
52.78000 13.193
52.79000 16.085
52.80000 13.148
52.81000 14.238
52.82000 16.338
52.83000 16.122
52.84000 12.202
52.85000 13.036
52.86000 23.375
52.87000 12.182
52.88000 12.078
52.89000 9.045
52.90000 10.160
52.91000 11.240
52.92000 11.050
52.93000 11.048
52.94000 20.409
52.95000 11.151
52.96000 14.184
52.97000 21.408
52.98000 10.108
52.99000 20.408
53.00000 12.172
53.01000 13.160
53.02000 10.176
53.03000 12.096
53.04000 16.238
53.05000 14.183
53.06000 19.292
53.07000 14.030
53.08000 18.287
53.09000 7.060
53.10000 15.262
53.11000 18.124
53.12000 19.292
53.13000 14.236
53.14000 12.152
53.15000 16.197
53.16000 16.096
53.17000 16.182
53.18000 12.251
53.19000 16.436
53.20000 7.101
53.21000 14.156
53.22000 17.159
53.23000 20.280
53.24000 22.387
53.25000 14.363
53.26000 9.152
53.27000 14.169
53.28000 13.230
53.29000 10.231
53.30000 20.255
53.31000 18.082
53.32000 12.073
53.33000 15.165
53.34000 15.077
53.35000 24.528
53.36000 18.232
53.37000 7.118
53.38000 13.323
53.39000 17.391
53.40000 16.110
53.41000 11.118
53.42000 10.124
53.43000 14.253
53.44000 17.159
53.45000 14.187
53.46000 13.156
53.47000 14.062
53.48000 17.061
53.49000 15.157
53.50000 10.210
53.51000 10.177
53.52000 13.183
53.53000 10.153
53.54000 13.154
53.55000 10.126
53.56000 14.059
53.57000 9.160
53.58000 17.286
53.59000 15.164
53.60000 14.049
53.61000 20.352
53.62000 16.045
53.63000 13.227
53.64000 18.205
53.65000 16.163
53.66000 15.197
53.67000 15.191
53.68000 20.206
53.69000 17.276
53.70000 13.158
53.71000 17.130
53.72000 16.300
53.73000 9.131
53.74000 19.168
53.75000 16.277
53.76000 18.249
53.77000 9.071
53.78000 13.174
53.79000 10.043
53.80000 14.211
53.81000 6.126
53.82000 14.282
53.83000 14.228
53.84000 10.139
53.85000 14.203
53.86000 12.122
53.87000 15.232
53.88000 13.105
53.89000 12.085
53.90000 7.027
53.91000 8.223
53.92000 9.135
53.93000 10.237
53.94000 18.263
53.95000 11.147
53.96000 16.241
53.97000 13.162
53.98000 15.225
53.99000 14.118
54.00000 11.057
54.01000 8.158
54.02000 13.276
54.03000 15.141
54.04000 18.235
54.05000 16.049
54.06000 15.156
54.07000 11.201
54.08000 11.090
54.09000 22.317
54.10000 16.121
54.11000 11.181
54.12000 25.591
54.13000 18.150
54.14000 8.032
54.15000 6.049
54.16000 16.324
54.17000 16.205
54.18000 13.266
54.19000 20.322
54.20000 15.202
54.21000 16.151
54.22000 18.196
54.23000 11.005
54.24000 16.302
54.25000 9.066
54.26000 10.210
54.27000 13.159
54.28000 14.119
54.29000 12.180
54.30000 17.367
54.31000 20.219
54.32000 15.188
54.33000 15.306
54.34000 18.347
54.35000 17.211
54.36000 8.093
54.37000 8.042
54.38000 11.313
54.39000 11.083
54.40000 9.199
54.41000 15.072
54.42000 6.115
54.43000 14.294
54.44000 15.187
54.45000 18.187
54.46000 16.139
54.47000 12.074
54.48000 14.115
54.49000 11.300
54.50000 10.012
54.51000 15.229
54.52000 14.213
54.53000 7.048
54.54000 11.116
54.55000 20.220
54.56000 18.349
54.57000 13.321
54.58000 15.241
54.59000 13.181
54.60000 10.150
54.61000 15.045
54.62000 15.214
54.63000 13.154
54.64000 15.274
54.65000 12.142
54.66000 12.109
54.67000 7.100
54.68000 12.118
54.69000 12.186
54.70000 16.248
54.71000 12.141
54.72000 10.056
54.73000 16.332
54.74000 11.123
54.75000 11.154
54.76000 19.319
54.77000 16.239
54.78000 5.952
54.79000 12.203
54.80000 15.269
54.81000 10.926
54.82000 17.292
54.83000 6.113
54.84000 9.042
54.85000 15.247
54.86000 8.064
54.87000 17.073
54.88000 12.127
54.89000 12.080
54.90000 21.199
54.91000 12.247
54.92000 17.385
54.93000 11.035
54.94000 10.150
54.95000 8.073
54.96000 9.066
54.97000 6.071
54.98000 11.175
54.99000 16.260
55.00000 14.077
55.01000 16.190
55.02000 18.235
55.03000 15.159
55.04000 7.077
55.05000 18.407
55.06000 13.279
55.07000 15.139
55.08000 8.048
55.09000 11.102
55.10000 11.068
55.11000 11.150
55.12000 13.089
55.13000 14.234
55.14000 7.145
55.15000 13.215
55.16000 16.195
55.17000 9.102
55.18000 14.156
55.19000 10.239
55.20000 10.078
55.21000 10.943
55.22000 17.295
55.23000 8.218
55.24000 11.149
55.25000 14.212
55.26000 15.216
55.27000 19.328
55.28000 17.463
55.29000 14.150
55.30000 17.214
55.31000 13.033
55.32000 21.087
55.33000 21.257
55.34000 11.037
55.35000 16.218
55.36000 14.106
55.37000 8.082
55.38000 13.150
55.39000 10.008
55.40000 11.163
55.41000 21.346
55.42000 11.170
55.43000 12.134
55.44000 14.286
55.45000 14.151
55.46000 7.155
55.47000 8.108
55.48000 10.151
55.49000 8.229
55.50000 11.997
55.51000 15.179
55.52000 14.124
55.53000 12.243
55.54000 18.413
55.55000 14.227
55.56000 15.147
55.57000 13.120
55.58000 13.258
55.59000 10.073
55.60000 12.240
55.61000 10.015
55.62000 14.272
55.63000 7.006
55.64000 8.116
55.65000 7.173
55.66000 15.135
55.67000 10.026
55.68000 9.136
55.69000 6.016
55.70000 13.029
55.71000 12.093
55.72000 14.419
55.73000 12.100
55.74000 14.099
55.75000 13.171
55.76000 17.216
55.77000 12.128
55.78000 18.342
55.79000 12.176
55.80000 19.210
55.81000 16.270
55.82000 13.152
55.83000 15.182
55.84000 17.179
55.85000 15.230
55.86000 15.154
55.87000 14.209
55.88000 8.066
55.89000 12.224
55.90000 9.151
55.91000 20.310
55.92000 15.325
55.93000 14.204
55.94000 10.259
55.95000 11.159
55.96000 11.993
55.97000 15.196
55.98000 19.379
55.99000 17.253
56.00000 18.297
56.01000 11.121
56.02000 15.090
56.03000 7.176
56.04000 20.379
56.05000 14.085
56.06000 12.165
56.07000 15.181
56.08000 16.147
56.09000 18.245
56.10000 8.160
56.11000 15.229
56.12000 18.353
56.13000 9.994
56.14000 18.259
56.15000 6.056
56.16000 7.128
56.17000 14.190
56.18000 14.050
56.19000 8.153
56.20000 10.137
56.21000 14.149
56.22000 16.235
56.23000 12.175
56.24000 10.203
56.25000 12.270
56.26000 13.169
56.27000 16.340
56.28000 13.171
56.29000 13.105
56.30000 12.029
56.31000 14.062
56.32000 15.214
56.33000 15.235
56.34000 4.065
56.35000 12.227
56.36000 8.184
56.37000 22.199
56.38000 13.302
56.39000 17.348
56.40000 14.214
56.41000 17.202
56.42000 14.163
56.43000 6.186
56.44000 9.112
56.45000 16.312
56.46000 9.040
56.47000 16.092
56.48000 9.185
56.49000 14.275
56.50000 10.036
56.51000 13.154
56.52000 11.087
56.53000 10.079
56.54000 17.299
56.55000 11.030
56.56000 16.111
56.57000 8.126
56.58000 16.032
56.59000 14.151
56.60000 15.098
56.61000 9.117
56.62000 13.190
56.63000 9.120
56.64000 19.236
56.65000 13.002
56.66000 13.257
56.67000 9.006
56.68000 12.152
56.69000 12.135
56.70000 14.219
56.71000 10.045
56.72000 16.254
56.73000 14.267
56.74000 9.054
56.75000 12.266
56.76000 14.300
56.77000 16.320
56.78000 11.036
56.79000 14.210
56.80000 17.249
56.81000 6.943
56.82000 11.246
56.83000 16.291
56.84000 14.282
56.85000 14.191
56.86000 11.938
56.87000 10.078
56.88000 6.109
56.89000 16.075
56.90000 10.322
56.91000 16.220
56.92000 20.214
56.93000 13.101
56.94000 13.219
56.95000 15.275
56.96000 12.142
56.97000 13.308
56.98000 13.127
56.99000 13.031
57.00000 14.240
57.01000 15.228
57.02000 9.124
57.03000 8.108
57.04000 15.175
57.05000 12.005
57.06000 12.101
57.07000 10.212
57.08000 12.037
57.09000 18.400
57.10000 12.221
57.11000 12.033
57.12000 8.103
57.13000 15.205
57.14000 11.046
57.15000 8.071
57.16000 14.155
57.17000 15.125
57.18000 14.107
57.19000 17.273
57.20000 12.236
57.21000 18.112
57.22000 10.022
57.23000 14.175
57.24000 15.093
57.25000 16.234
57.26000 17.222
57.27000 12.133
57.28000 17.277
57.29000 6.220
57.30000 15.157
57.31000 10.183
57.32000 12.207
57.33000 15.297
57.34000 15.310
57.35000 14.085
57.36000 11.224
57.37000 14.174
57.38000 12.144
57.39000 20.135
57.40000 8.088
57.41000 11.120
57.42000 17.355
57.43000 12.170
57.44000 9.162
57.45000 13.273
57.46000 11.125
57.47000 14.227
57.48000 8.039
57.49000 13.231
57.50000 10.354
57.51000 12.117
57.52000 8.070
57.53000 17.297
57.54000 17.194
57.55000 16.074
57.56000 15.110
57.57000 10.085
57.58000 15.299
57.59000 13.032
57.60000 9.118
57.61000 6.020
57.62000 13.206
57.63000 11.285
57.64000 11.187
57.65000 19.245
57.66000 10.117
57.67000 9.019
57.68000 21.348
57.69000 18.266
57.70000 13.067
57.71000 10.176
57.72000 13.196
57.73000 18.204
57.74000 18.244
57.75000 12.116
57.76000 9.131
57.77000 12.163
57.78000 9.056
57.79000 8.069
57.80000 17.413
57.81000 21.132
57.82000 10.046
57.83000 15.144
57.84000 12.124
57.85000 9.961
57.86000 15.074
57.87000 14.261
57.88000 15.316
57.89000 12.179
57.90000 15.151
57.91000 13.228
57.92000 12.182
57.93000 14.172
57.94000 11.135
57.95000 11.200
57.96000 5.997
57.97000 9.235
57.98000 12.130
57.99000 14.117
58.00000 12.087
58.01000 16.049
58.02000 15.225
58.03000 6.059
58.04000 9.029
58.05000 11.132
58.06000 5.049
58.07000 12.212
58.08000 19.239
58.09000 12.207
58.10000 17.273
58.11000 8.100
58.12000 5.085
58.13000 7.013
58.14000 21.368
58.15000 12.106
58.16000 13.314
58.17000 11.127
58.18000 14.377
58.19000 5.027
58.20000 14.129
58.21000 13.189
58.22000 15.126
58.23000 10.201
58.24000 14.036
58.25000 15.075
58.26000 19.277
58.27000 10.937
58.28000 10.021
58.29000 10.103
58.30000 10.073
58.31000 9.209
58.32000 10.204
58.33000 13.264
58.34000 11.078
58.35000 14.086
58.36000 7.161
58.37000 6.069
58.38000 14.092
58.39000 12.244
58.40000 14.102
58.41000 14.262
58.42000 14.254
58.43000 13.115
58.44000 9.131
58.45000 13.214
58.46000 11.091
58.47000 7.065
58.48000 21.260
58.49000 11.156
58.50000 12.133
58.51000 11.025
58.52000 9.975
58.53000 21.285
58.54000 11.152
58.55000 7.192
58.56000 6.983
58.57000 5.160
58.58000 14.206
58.59000 11.189
58.60000 13.138
58.61000 12.130
58.62000 13.955
58.63000 11.267
58.64000 15.252
58.65000 9.057
58.66000 9.102
58.67000 12.200
58.68000 12.209
58.69000 11.153
58.70000 12.018
58.71000 7.107
58.72000 9.069
58.73000 12.185
58.74000 8.107
58.75000 10.061
58.76000 13.199
58.77000 13.103
58.78000 19.214
58.79000 9.127
58.80000 11.145
58.81000 9.178
58.82000 11.133
58.83000 9.179
58.84000 12.238
58.85000 11.201
58.86000 13.384
58.87000 14.251
58.88000 12.212
58.89000 13.198
58.90000 13.255
58.91000 8.217
58.92000 15.254
58.93000 18.225
58.94000 9.996
58.95000 9.101
58.96000 10.229
58.97000 8.105
58.98000 16.196
58.99000 10.199
59.00000 7.145
59.01000 10.061
59.02000 11.043
59.03000 7.082
59.04000 9.119
59.05000 10.164
59.06000 8.166
59.07000 9.944
59.08000 14.200
59.09000 10.074
59.10000 9.079
59.11000 6.284
59.12000 18.316
59.13000 7.989
59.14000 13.252
59.15000 8.103
59.16000 15.278
59.17000 6.003
59.18000 11.122
59.19000 9.202
59.20000 10.142
59.21000 6.983
59.22000 13.229
59.23000 10.068
59.24000 9.114
59.25000 5.113
59.26000 12.089
59.27000 9.117
59.28000 12.205
59.29000 15.133
59.30000 11.102
59.31000 20.437
59.32000 6.021
59.33000 13.221
59.34000 10.148
59.35000 8.148
59.36000 13.303
59.37000 6.004
59.38000 8.251
59.39000 9.076
59.40000 12.121
59.41000 18.248
59.42000 8.091
59.43000 16.200
59.44000 6.070
59.45000 20.377
59.46000 8.955
59.47000 15.123
59.48000 10.078
59.49000 14.184
59.50000 12.076
59.51000 7.092
59.52000 15.259
59.53000 12.099
59.54000 9.032
59.55000 11.098
59.56000 8.150
59.57000 5.090
59.58000 10.110
59.59000 17.236
59.60000 12.264
59.61000 4.054
59.62000 14.084
59.63000 12.259
59.64000 10.041
59.65000 13.150
59.66000 9.312
59.67000 9.098
59.68000 10.208
59.69000 10.213
59.70000 4.027
59.71000 10.120
59.72000 6.183
59.73000 12.103
59.74000 11.047
59.75000 17.283
59.76000 21.184
59.77000 10.100
59.78000 14.155
59.79000 6.051
59.80000 14.146
59.81000 16.252
59.82000 5.088
59.83000 5.072
59.84000 10.155
59.85000 7.095
59.86000 14.258
59.87000 10.175
59.88000 15.111
59.89000 9.205
59.90000 12.192
59.91000 12.174
59.92000 12.165
59.93000 11.144
59.94000 6.104
59.95000 11.284
59.96000 7.040
59.97000 14.217
59.98000 10.108
59.99000 8.998
60.00000 11.175
60.01000 10.025
60.02000 6.044
60.03000 7.163
60.04000 9.245
60.05000 13.189
60.06000 8.152
60.07000 10.159
60.08000 17.121
60.09000 7.958
60.10000 10.186
60.11000 11.087
60.12000 8.096
60.13000 9.017
60.14000 9.008
60.15000 9.115
60.16000 8.025
60.17000 9.225
60.18000 13.203
60.19000 7.127
60.20000 9.298
60.21000 7.036
60.22000 13.151
60.23000 10.143
60.24000 7.089
60.25000 10.148
60.26000 11.144
60.27000 12.222
60.28000 11.075
60.29000 10.126
60.30000 9.113
60.31000 11.133
60.32000 12.144
60.33000 11.184
60.34000 9.165
60.35000 14.310
60.36000 11.087
60.37000 14.048
60.38000 11.124
60.39000 14.223
60.40000 7.023
60.41000 12.273
60.42000 12.065
60.43000 14.231
60.44000 10.064
60.45000 11.130
60.46000 11.115
60.47000 2.006
60.48000 6.079
60.49000 8.013
60.50000 9.238
60.51000 4.075
60.52000 10.071
60.53000 8.082
60.54000 10.063
60.55000 12.121
60.56000 12.132
60.57000 11.190
60.58000 7.010
60.59000 9.037
60.60000 16.301
60.61000 8.131
60.62000 8.164
60.63000 10.060
60.64000 6.136
60.65000 9.049
60.66000 11.137
60.67000 7.022
60.68000 11.202
60.69000 12.071
60.70000 16.160
60.71000 6.175
60.72000 8.017
60.73000 10.247
60.74000 8.032
60.75000 7.011
60.76000 12.302
60.77000 9.059
60.78000 8.211
60.79000 10.134
60.80000 9.126
60.81000 13.181
60.82000 9.109
60.83000 18.054
60.84000 8.063
60.85000 20.254
60.86000 10.225
60.87000 15.217
60.88000 12.133
60.89000 4.032
60.90000 9.024
60.91000 14.162
60.92000 6.043
60.93000 9.079
60.94000 16.154
60.95000 9.075
60.96000 4.116
60.97000 11.209
60.98000 7.093
60.99000 12.092
61.00000 9.037
61.01000 7.983
61.02000 15.260
61.03000 11.014
61.04000 13.229
61.05000 1.980
61.06000 9.155
61.07000 13.258
61.08000 7.179
61.09000 17.248
61.10000 5.040
61.11000 13.425
61.12000 16.263
61.13000 9.062
61.14000 9.204
61.15000 14.263
61.16000 9.987
61.17000 11.218
61.18000 14.106
61.19000 4.015
61.20000 8.027
61.21000 8.096
61.22000 8.046
61.23000 6.080
61.24000 13.153
61.25000 6.087
61.26000 13.127
61.27000 12.173
61.28000 9.062
61.29000 12.211
61.30000 12.202
61.31000 9.114
61.32000 9.051
61.33000 16.031
61.34000 13.254
61.35000 9.041
61.36000 7.036
61.37000 12.097
61.38000 15.236
61.39000 15.301
61.40000 6.082
61.41000 13.097
61.42000 15.413
61.43000 9.051
61.44000 5.093
61.45000 13.087
61.46000 9.157
61.47000 11.217
61.48000 9.178
61.49000 11.160
61.50000 10.225
61.51000 13.199
61.52000 10.183
61.53000 14.253
61.54000 13.251
61.55000 10.235
61.56000 3.982
61.57000 10.219
61.58000 11.256
61.59000 6.018
61.60000 16.350
61.61000 7.163
61.62000 15.153
61.63000 13.248
61.64000 11.151
61.65000 15.238
61.66000 8.060
61.67000 10.209
61.68000 5.085
61.69000 12.150
61.70000 10.266
61.71000 9.131
61.72000 14.168
61.73000 9.029
61.74000 11.322
61.75000 9.187
61.76000 14.303
61.77000 12.042
61.78000 6.054
61.79000 12.167
61.80000 8.112
61.81000 13.123
61.82000 8.287
61.83000 9.013
61.84000 12.158
61.85000 16.268
61.86000 11.166
61.87000 11.225
61.88000 6.076
61.89000 10.101
61.90000 9.221
61.91000 9.016
61.92000 8.170
61.93000 15.336
61.94000 13.112
61.95000 12.251
61.96000 7.004
61.97000 8.213
61.98000 13.182
61.99000 11.148
62.00000 12.239
62.01000 13.200
62.02000 8.128
62.03000 12.093
62.04000 11.168
62.05000 6.113
62.06000 11.125
62.07000 7.073
62.08000 10.088
62.09000 12.113
62.10000 15.072
62.11000 11.116
62.12000 9.054
62.13000 12.139
62.14000 8.175
62.15000 11.185
62.16000 14.199
62.17000 8.141
62.18000 8.039
62.19000 12.229
62.20000 4.111
62.21000 8.086
62.22000 7.985
62.23000 12.150
62.24000 8.155
62.25000 8.028
62.26000 11.051
62.27000 10.088
62.28000 12.102
62.29000 7.196
62.30000 8.080
62.31000 9.143
62.32000 8.044
62.33000 10.218
62.34000 9.027
62.35000 10.070
62.36000 11.110
62.37000 3.976
62.38000 11.189
62.39000 10.025
62.40000 13.007
62.41000 9.123
62.42000 8.089
62.43000 10.035
62.44000 13.123
62.45000 12.282
62.46000 10.981
62.47000 9.060
62.48000 19.091
62.49000 11.218
62.50000 8.142
62.51000 6.066
62.52000 12.229
62.53000 9.111
62.54000 13.158
62.55000 7.167
62.56000 11.234
62.57000 8.191
62.58000 12.256
62.59000 8.225
62.60000 9.093
62.61000 13.274
62.62000 13.201
62.63000 9.959
62.64000 16.217
62.65000 12.145
62.66000 13.960
62.67000 11.130
62.68000 13.326
62.69000 11.205
62.70000 8.927
62.71000 11.181
62.72000 13.209
62.73000 7.089
62.74000 14.250
62.75000 14.026
62.76000 9.172
62.77000 7.080
62.78000 7.109
62.79000 9.242
62.80000 10.084
62.81000 12.266
62.82000 13.097
62.83000 10.250
62.84000 11.088
62.85000 7.099
62.86000 9.034
62.87000 7.041
62.88000 11.111
62.89000 12.292
62.90000 8.087
62.91000 6.147
62.92000 10.087
62.93000 13.117
62.94000 16.138
62.95000 11.136
62.96000 11.097
62.97000 11.319
62.98000 11.127
62.99000 10.108
63.00000 5.959
63.01000 10.222
63.02000 9.214
63.03000 8.216
63.04000 14.320
63.05000 9.089
63.06000 10.019
63.07000 10.194
63.08000 12.076
63.09000 9.032
63.10000 10.101
63.11000 8.069
63.12000 2.979
63.13000 3.991
63.14000 6.019
63.15000 12.237
63.16000 13.175
63.17000 6.042
63.18000 7.095
63.19000 12.138
63.20000 9.091
63.21000 6.089
63.22000 8.129
63.23000 13.061
63.24000 7.107
63.25000 13.132
63.26000 15.183
63.27000 6.093
63.28000 10.114
63.29000 8.143
63.30000 16.082
63.31000 12.137
63.32000 11.110
63.33000 7.022
63.34000 14.081
63.35000 13.271
63.36000 10.080
63.37000 13.212
63.38000 15.207
63.39000 13.105
63.40000 11.088
63.41000 11.065
63.42000 13.124
63.43000 17.104
63.44000 12.061
63.45000 11.021
63.46000 10.058
63.47000 5.098
63.48000 5.075
63.49000 8.033
63.50000 9.117
63.51000 8.087
63.52000 7.081
63.53000 11.951
63.54000 8.018
63.55000 13.216
63.56000 7.128
63.57000 12.006
63.58000 7.066
63.59000 12.168
63.60000 10.242
63.61000 8.109
63.62000 5.029
63.63000 10.975
63.64000 11.179
63.65000 6.984
63.66000 8.033
63.67000 7.034
63.68000 8.096
63.69000 6.056
63.70000 9.131
63.71000 13.206
63.72000 15.188
63.73000 13.076
63.74000 8.125
63.75000 9.096
63.76000 10.103
63.77000 11.078
63.78000 5.221
63.79000 16.124
63.80000 12.093
63.81000 5.248
63.82000 6.108
63.83000 6.034
63.84000 9.198
63.85000 12.149
63.86000 10.122
63.87000 13.199
63.88000 10.036
63.89000 13.149
63.90000 10.111
63.91000 17.253
63.92000 11.126
63.93000 10.169
63.94000 6.017
63.95000 14.256
63.96000 5.055
63.97000 8.002
63.98000 9.040
63.99000 19.135
64.00000 10.187
64.01000 13.227
64.02000 8.220
64.03000 11.254
64.04000 12.972
64.05000 8.074
64.06000 14.016
64.07000 10.019
64.08000 8.032
64.09000 5.063
64.10000 19.333
64.11000 12.085
64.12000 8.030
64.13000 20.256
64.14000 9.122
64.15000 10.118
64.16000 7.161
64.17000 6.161
64.18000 14.078
64.19000 12.146
64.20000 16.330
64.21000 10.206
64.22000 7.084
64.23000 6.201
64.24000 9.101
64.25000 18.241
64.26000 8.135
64.27000 4.052
64.28000 5.068
64.29000 5.147
64.30000 12.119
64.31000 10.114
64.32000 9.036
64.33000 9.088
64.34000 6.048
64.35000 11.159
64.36000 9.957
64.37000 9.039
64.38000 10.152
64.39000 16.444
64.40000 7.172
64.41000 9.058
64.42000 7.092
64.43000 13.258
64.44000 8.113
64.45000 12.213
64.46000 6.178
64.47000 9.109
64.48000 11.222
64.49000 8.908
64.50000 13.171
64.51000 11.181
64.52000 8.191
64.53000 10.036
64.54000 6.066
64.55000 13.229
64.56000 10.121
64.57000 14.104
64.58000 13.160
64.59000 12.131
64.60000 12.070
64.61000 6.067
64.62000 6.070
64.63000 10.199
64.64000 4.037
64.65000 9.157
64.66000 13.348
64.67000 14.299
64.68000 7.038
64.69000 7.033
64.70000 7.097
64.71000 10.043
64.72000 12.174
64.73000 16.156
64.74000 9.968
64.75000 6.158
64.76000 9.143
64.77000 7.097
64.78000 8.090
64.79000 8.075
64.80000 7.071
64.81000 13.092
64.82000 7.080
64.83000 10.104
64.84000 11.978
64.85000 15.247
64.86000 7.035
64.87000 8.079
64.88000 7.245
64.89000 9.052
64.90000 10.090
64.91000 14.288
64.92000 4.945
64.93000 13.033
64.94000 7.139
64.95000 10.881
64.96000 7.041
64.97000 8.176
64.98000 12.086
64.99000 5.044
65.00000 10.118
