20.00000 14.276
20.01000 19.046
20.02000 17.173
20.03000 22.245
20.04000 20.148
20.05000 23.317
20.06000 23.341
20.07000 15.189
20.08000 14.213
20.09000 17.360
20.10000 19.206
20.11000 22.139
20.12000 17.277
20.13000 20.178
20.14000 21.437
20.15000 19.166
20.16000 21.212
20.17000 21.334
20.18000 14.016
20.19000 13.275
20.20000 20.104
20.21000 21.243
20.22000 13.039
20.23000 18.304
20.24000 13.303
20.25000 21.448
20.26000 8.005
20.27000 26.391
20.28000 18.298
20.29000 19.043
20.30000 19.319
20.31000 24.396
20.32000 18.108
20.33000 19.168
20.34000 18.513
20.35000 17.138
20.36000 23.344
20.37000 26.395
20.38000 24.276
20.39000 18.215
20.40000 25.393
20.41000 21.186
20.42000 29.585
20.43000 18.186
20.44000 14.108
20.45000 13.200
20.46000 15.326
20.47000 23.229
20.48000 30.498
20.49000 18.348
20.50000 19.433
20.51000 17.275
20.52000 20.450
20.53000 27.232
20.54000 18.420
20.55000 17.241
20.56000 15.249
20.57000 15.210
20.58000 16.287
20.59000 11.003
20.60000 22.241
20.61000 24.324
20.62000 20.256
20.63000 15.246
20.64000 26.263
20.65000 24.312
20.66000 24.423
20.67000 15.126
20.68000 18.139
20.69000 15.169
20.70000 31.408
20.71000 13.166
20.72000 18.280
20.73000 18.169
20.74000 21.101
20.75000 20.568
20.76000 19.362
20.77000 14.156
20.78000 23.575
20.79000 19.112
20.80000 21.327
20.81000 21.316
20.82000 15.178
20.83000 19.103
20.84000 21.442
20.85000 14.253
20.86000 9.035
20.87000 17.457
20.88000 17.384
20.89000 22.328
20.90000 18.073
20.91000 24.323
20.92000 17.340
20.93000 17.104
20.94000 21.531
20.95000 14.256
20.96000 16.284
20.97000 32.402
20.98000 19.161
20.99000 16.270
21.00000 20.181
21.01000 17.398
21.02000 14.273
21.03000 18.336
21.04000 20.316
21.05000 14.996
21.06000 14.121
21.07000 17.078
21.08000 22.226
21.09000 23.411
21.10000 18.162
21.11000 24.333
21.12000 15.118
21.13000 14.197
21.14000 16.215
21.15000 19.182
21.16000 20.132
21.17000 19.279
21.18000 26.323
21.19000 29.159
21.20000 21.354
21.21000 17.266
21.22000 25.180
21.23000 20.066
21.24000 20.086
21.25000 25.280
21.26000 15.172
21.27000 7.084
21.28000 19.511
21.29000 24.340
21.30000 17.153
21.31000 21.360
21.32000 25.244
21.33000 18.199
21.34000 25.530
21.35000 15.347
21.36000 16.062
21.37000 18.121
21.38000 19.216
21.39000 19.380
21.40000 26.445
21.41000 24.419
21.42000 20.351
21.43000 20.276
21.44000 21.410
21.45000 29.470
21.46000 18.255
21.47000 20.110
21.48000 17.254
21.49000 14.285
21.50000 17.291
21.51000 28.296
21.52000 15.941
21.53000 25.280
21.54000 22.438
21.55000 14.035
21.56000 16.285
21.57000 15.064
21.58000 17.196
21.59000 24.326
21.60000 15.093
21.61000 18.107
21.62000 18.231
21.63000 20.525
21.64000 20.246
21.65000 15.110
21.66000 16.173
21.67000 17.256
21.68000 24.248
21.69000 15.272
21.70000 25.349
21.71000 21.316
21.72000 19.279
21.73000 18.222
21.74000 22.323
21.75000 12.116
21.76000 20.235
21.77000 16.195
21.78000 24.320
21.79000 22.181
21.80000 24.189
21.81000 14.066
21.82000 19.153
21.83000 17.236
21.84000 13.217
21.85000 18.463
21.86000 21.375
21.87000 28.453
21.88000 17.307
21.89000 22.280
21.90000 14.288
21.91000 18.155
21.92000 19.474
21.93000 28.193
21.94000 32.437
21.95000 14.294
21.96000 21.294
21.97000 19.187
21.98000 31.289
21.99000 22.359
22.00000 19.084
22.01000 22.316
22.02000 22.242
22.03000 31.140
22.04000 21.029
22.05000 18.343
22.06000 20.167
22.07000 22.456
22.08000 25.365
22.09000 20.411
22.10000 22.300
22.11000 19.250
22.12000 22.381
22.13000 15.259
22.14000 18.248
22.15000 20.342
22.16000 20.380
22.17000 16.140
22.18000 14.179
22.19000 25.277
22.20000 15.285
22.21000 22.136
22.22000 18.180
22.23000 21.303
22.24000 21.255
22.25000 18.377
22.26000 19.330
22.27000 24.245
22.28000 23.166
22.29000 21.188
22.30000 17.254
22.31000 23.333
22.32000 16.208
22.33000 20.369
22.34000 21.411
22.35000 22.141
22.36000 29.435
22.37000 20.384
22.38000 19.215
22.39000 19.118
22.40000 14.195
22.41000 21.219
22.42000 17.318
22.43000 28.331
22.44000 24.267
22.45000 18.303
22.46000 18.283
22.47000 23.069
22.48000 22.472
22.49000 27.291
22.50000 20.397
22.51000 21.080
22.52000 25.204
22.53000 20.194
22.54000 30.310
22.55000 29.515
22.56000 29.452
22.57000 19.322
22.58000 28.559
22.59000 20.296
22.60000 19.385
22.61000 19.244
22.62000 21.260
22.63000 16.151
22.64000 18.243
22.65000 21.437
22.66000 25.136
22.67000 21.299
22.68000 15.339
22.69000 21.437
22.70000 32.584
22.71000 31.363
22.72000 21.292
22.73000 17.094
22.74000 21.391
22.75000 18.224
22.76000 30.409
22.77000 20.173
22.78000 27.333
22.79000 19.201
22.80000 22.268
22.81000 23.473
22.82000 12.027
22.83000 26.550
22.84000 26.148
22.85000 29.292
22.86000 21.298
22.87000 23.312
22.88000 31.439
22.89000 38.548
22.90000 19.234
22.91000 20.526
22.92000 26.232
22.93000 23.517
22.94000 16.256
22.95000 25.186
22.96000 20.376
22.97000 25.374
22.98000 28.107
22.99000 20.192
23.00000 29.409
23.01000 27.247
23.02000 20.240
23.03000 28.271
23.04000 26.380
23.05000 23.177
23.06000 38.343
23.07000 26.193
23.08000 17.067
23.09000 27.402
23.10000 21.455
23.11000 33.315
23.12000 19.115
23.13000 30.287
23.14000 23.228
23.15000 20.170
23.16000 25.192
23.17000 26.311
23.18000 25.108
23.19000 31.294
23.20000 18.291
23.21000 23.045
23.22000 20.239
23.23000 19.127
23.24000 26.354
23.25000 17.213
23.26000 13.206
23.27000 16.075
23.28000 22.669
23.29000 26.335
23.30000 14.087
23.31000 27.327
23.32000 22.194
23.33000 30.321
23.34000 24.319
23.35000 18.186
23.36000 27.268
23.37000 17.225
23.38000 23.219
23.39000 26.343
23.40000 30.629
23.41000 20.242
23.42000 29.398
23.43000 29.221
23.44000 21.149
23.45000 30.413
23.46000 25.328
23.47000 18.219
23.48000 15.041
23.49000 23.128
23.50000 32.573
23.51000 20.229
23.52000 29.262
23.53000 23.348
23.54000 34.357
23.55000 27.441
23.56000 21.279
23.57000 25.544
23.58000 26.203
23.59000 28.241
23.60000 27.057
23.61000 17.274
23.62000 23.336
23.63000 28.169
23.64000 28.452
23.65000 25.422
23.66000 26.245
23.67000 21.291
23.68000 27.246
23.69000 20.266
23.70000 27.252
23.71000 31.518
23.72000 29.237
23.73000 34.437
23.74000 28.301
23.75000 27.346
23.76000 22.447
23.77000 21.267
23.78000 29.339
23.79000 27.509
23.80000 29.318
23.81000 28.157
23.82000 28.353
23.83000 28.412
23.84000 30.355
23.85000 23.205
23.86000 26.640
23.87000 22.277
23.88000 36.571
23.89000 27.200
23.90000 25.332
23.91000 27.257
23.92000 20.274
23.93000 30.216
23.94000 20.271
23.95000 22.105
23.96000 27.314
23.97000 22.073
23.98000 29.236
23.99000 26.253
24.00000 32.370
24.01000 26.306
24.02000 30.413
24.03000 16.269
24.04000 20.150
24.05000 26.326
24.06000 26.320
24.07000 25.334
24.08000 23.221
24.09000 27.192
24.10000 27.371
24.11000 27.260
24.12000 32.393
24.13000 24.251
24.14000 34.367
24.15000 28.302
24.16000 26.425
24.17000 34.235
24.18000 25.257
24.19000 26.262
24.20000 25.047
24.21000 23.420
24.22000 29.392
24.23000 42.323
24.24000 39.247
24.25000 18.280
24.26000 32.328
24.27000 35.280
24.28000 30.606
24.29000 20.331
24.30000 33.361
24.31000 23.379
24.32000 24.493
24.33000 30.516
24.34000 30.400
24.35000 30.214
24.36000 21.293
24.37000 24.564
24.38000 38.367
24.39000 21.271
24.40000 23.335
24.41000 41.683
24.42000 31.443
24.43000 40.126
24.44000 29.350
24.45000 22.192
24.46000 35.483
24.47000 28.390
24.48000 24.218
24.49000 18.215
24.50000 32.406
24.51000 28.356
24.52000 32.457
24.53000 34.358
24.54000 30.484
24.55000 32.377
24.56000 37.529
24.57000 31.454
24.58000 27.343
24.59000 32.564
24.60000 33.238
24.61000 29.399
24.62000 40.240
24.63000 29.487
24.64000 38.350
24.65000 24.403
24.66000 26.462
24.67000 24.406
24.68000 22.384
24.69000 25.538
24.70000 33.656
24.71000 29.322
24.72000 27.417
24.73000 34.530
24.74000 34.433
24.75000 27.427
24.76000 23.183
24.77000 28.279
24.78000 30.725
24.79000 21.297
24.80000 24.697
24.81000 30.240
24.82000 21.234
24.83000 26.405
24.84000 38.420
24.85000 35.553
24.86000 39.286
24.87000 28.296
24.88000 33.561
24.89000 27.388
24.90000 30.112
24.91000 35.380
24.92000 36.639
24.93000 32.300
24.94000 38.569
24.95000 28.407
24.96000 31.255
24.97000 32.516
24.98000 36.408
24.99000 32.566
25.00000 28.312
25.01000 15.988
25.02000 42.589
25.03000 36.349
25.04000 33.553
25.05000 30.580
25.06000 36.300
25.07000 29.415
25.08000 33.353
25.09000 24.354
25.10000 31.288
25.11000 38.657
25.12000 30.389
25.13000 26.306
25.14000 36.451
25.15000 44.540
25.16000 24.206
25.17000 35.477
25.18000 31.227
25.19000 34.414
25.20000 34.510
25.21000 24.441
25.22000 24.177
25.23000 32.548
25.24000 39.339
25.25000 36.558
25.26000 24.326
25.27000 28.402
25.28000 37.738
25.29000 31.379
25.30000 39.583
25.31000 41.336
25.32000 29.459
25.33000 28.688
25.34000 48.492
25.35000 37.549
25.36000 37.591
25.37000 25.274
25.38000 33.456
25.39000 31.327
25.40000 37.457
25.41000 53.527
25.42000 36.482
25.43000 35.349
25.44000 35.398
25.45000 22.231
25.46000 36.324
25.47000 43.215
25.48000 44.480
25.49000 42.716
25.50000 40.593
25.51000 44.590
25.52000 27.357
25.53000 46.562
25.54000 39.472
25.55000 34.663
25.56000 47.757
25.57000 43.390
25.58000 37.416
25.59000 23.397
25.60000 42.611
25.61000 38.311
25.62000 41.357
25.63000 34.590
25.64000 37.322
25.65000 38.462
25.66000 49.674
25.67000 34.336
25.68000 28.450
25.69000 35.416
25.70000 31.417
25.71000 45.354
25.72000 33.148
25.73000 40.773
25.74000 37.227
25.75000 34.464
25.76000 39.248
25.77000 50.773
25.78000 46.535
25.79000 32.208
25.80000 47.385
25.81000 52.877
25.82000 36.769
25.83000 33.522
25.84000 48.643
25.85000 37.541
25.86000 39.333
25.87000 41.294
25.88000 51.741
25.89000 35.554
25.90000 39.520
25.91000 43.585
25.92000 40.511
25.93000 48.574
25.94000 47.997
25.95000 36.397
25.96000 44.515
25.97000 41.203
25.98000 51.780
25.99000 33.390
26.00000 26.310
26.01000 44.767
26.02000 42.652
26.03000 39.728
26.04000 36.183
26.05000 46.591
26.06000 41.402
26.07000 37.217
26.08000 30.444
26.09000 39.705
26.10000 38.514
26.11000 33.491
26.12000 48.748
26.13000 40.515
26.14000 36.462
26.15000 48.786
26.16000 46.372
26.17000 38.583
26.18000 38.279
26.19000 31.337
26.20000 48.599
26.21000 57.811
26.22000 39.654
26.23000 43.345
26.24000 44.838
26.25000 52.839
26.26000 34.479
26.27000 43.332
26.28000 39.371
26.29000 49.527
26.30000 40.553
26.31000 33.599
26.32000 47.697
26.33000 40.482
26.34000 48.637
26.35000 39.561
26.36000 51.429
26.37000 34.305
26.38000 43.547
26.39000 43.209
26.40000 38.506
26.41000 40.624
26.42000 45.465
26.43000 49.519
26.44000 54.092
26.45000 45.856
26.46000 49.753
26.47000 48.556
26.48000 45.110
26.49000 40.299
26.50000 53.626
26.51000 40.267
26.52000 38.304
26.53000 45.695
26.54000 48.596
26.55000 34.396
26.56000 46.684
26.57000 50.911
26.58000 45.417
26.59000 57.749
26.60000 43.600
26.61000 55.443
26.62000 43.679
26.63000 44.276
26.64000 59.772
26.65000 44.469
26.66000 44.898
26.67000 39.404
26.68000 42.632
26.69000 42.486
26.70000 49.408
26.71000 47.593
26.72000 41.302
26.73000 41.696
26.74000 37.432
26.75000 36.524
26.76000 52.964
26.77000 38.433
26.78000 45.622
26.79000 34.227
26.80000 46.644
26.81000 42.439
26.82000 39.739
26.83000 51.480
26.84000 57.802
26.85000 51.577
26.86000 46.608
26.87000 52.704
26.88000 50.769
26.89000 42.760
26.90000 53.816
26.91000 47.530
26.92000 47.294
26.93000 53.799
26.94000 45.546
26.95000 41.611
26.96000 47.474
26.97000 56.795
26.98000 33.605
26.99000 44.397
27.00000 56.002
27.01000 51.770
27.02000 44.582
27.03000 53.591
27.04000 42.306
27.05000 46.546
27.06000 47.562
27.07000 42.801
27.08000 54.602
27.09000 52.542
27.10000 50.571
27.11000 43.579
27.12000 41.621
27.13000 52.260
27.14000 53.730
27.15000 54.952
27.16000 50.246
27.17000 51.523
27.18000 56.077
27.19000 38.628
27.20000 48.784
27.21000 56.997
27.22000 47.797
27.23000 51.481
27.24000 51.565
27.25000 55.902
27.26000 42.788
27.27000 46.652
27.28000 48.596
27.29000 55.881
27.30000 60.669
27.31000 57.822
27.32000 45.431
27.33000 50.783
27.34000 49.790
27.35000 48.781
27.36000 51.531
27.37000 49.593
27.38000 54.530
27.39000 56.847
27.40000 45.636
27.41000 50.711
27.42000 48.697
27.43000 51.697
27.44000 38.566
27.45000 50.902
27.46000 48.806
27.47000 56.394
27.48000 49.535
27.49000 47.052
27.50000 54.537
27.51000 47.010
27.52000 66.699
27.53000 49.508
27.54000 48.887
27.55000 51.498
27.56000 40.786
27.57000 63.559
27.58000 37.696
27.59000 42.315
27.60000 62.942
27.61000 50.716
27.62000 40.801
27.63000 43.714
27.64000 53.771
27.65000 51.405
27.66000 44.544
27.67000 54.750
27.68000 39.569
27.69000 50.429
27.70000 58.925
27.71000 48.768
27.72000 42.354
27.73000 49.698
27.74000 48.646
27.75000 59.832
27.76000 41.503
27.77000 50.507
27.78000 49.755
27.79000 52.663
27.80000 50.519
27.81000 61.955
27.82000 48.494
27.83000 47.567
27.84000 46.566
27.85000 63.460
27.86000 56.869
27.87000 58.910
27.88000 45.800
27.89000 58.874
27.90000 40.722
27.91000 53.816
27.92000 49.663
27.93000 46.747
27.94000 36.370
27.95000 37.487
27.96000 43.660
27.97000 59.638
27.98000 46.832
27.99000 45.379
28.00000 49.724
28.01000 58.122
28.02000 50.858
28.03000 49.506
28.04000 46.615
28.05000 56.941
28.06000 48.486
28.07000 55.968
28.08000 69.417
28.09000 47.451
28.10000 54.434
28.11000 51.859
28.12000 56.867
28.13000 44.307
28.14000 46.587
28.15000 47.494
28.16000 43.843
28.17000 51.844
28.18000 47.496
28.19000 27.576
28.20000 45.652
28.21000 61.097
28.22000 53.938
28.23000 50.027
28.24000 43.624
28.25000 47.552
28.26000 37.555
28.27000 48.575
28.28000 49.907
28.29000 60.585
28.30000 52.918
28.31000 45.714
28.32000 48.662
28.33000 51.555
28.34000 45.762
28.35000 52.769
28.36000 49.888
28.37000 36.388
28.38000 52.662
28.39000 56.590
28.40000 48.890
28.41000 55.712
28.42000 51.727
28.43000 36.862
28.44000 45.467
28.45000 37.339
28.46000 56.600
28.47000 49.670
28.48000 59.775
28.49000 33.529
28.50000 39.468
28.51000 50.812
28.52000 42.148
28.53000 40.411
28.54000 43.503
28.55000 49.577
28.56000 47.827
28.57000 42.803
28.58000 42.471
28.59000 59.003
28.60000 42.576
28.61000 37.654
28.62000 48.456
28.63000 59.261
28.64000 51.541
28.65000 59.700
28.66000 46.245
28.67000 37.699
28.68000 44.619
28.69000 54.818
28.70000 52.561
28.71000 44.539
28.72000 46.481
28.73000 51.662
28.74000 56.548
28.75000 35.552
28.76000 39.498
28.77000 51.744
28.78000 45.477
28.79000 53.515
28.80000 36.657
28.81000 45.670
28.82000 58.524
28.83000 44.694
28.84000 46.522
28.85000 30.605
28.86000 38.515
28.87000 43.564
28.88000 50.583
28.89000 42.858
28.90000 40.574
28.91000 50.698
28.92000 40.516
28.93000 36.563
28.94000 46.464
28.95000 36.520
28.96000 51.793
28.97000 62.835
28.98000 55.604
28.99000 49.691
29.00000 39.628
29.01000 60.471
29.02000 38.377
29.03000 44.568
29.04000 50.756
29.05000 41.723
29.06000 55.869
29.07000 30.463
29.08000 44.490
29.09000 54.723
29.10000 32.331
29.11000 47.807
29.12000 42.522
29.13000 43.868
29.14000 40.338
29.15000 46.512
29.16000 29.461
29.17000 53.777
29.18000 43.677
29.19000 42.962
29.20000 36.777
29.21000 38.570
29.22000 48.897
29.23000 39.560
29.24000 38.783
29.25000 36.443
29.26000 45.480
29.27000 46.719
29.28000 50.618
29.29000 47.778
29.30000 43.808
29.31000 39.600
29.32000 40.644
29.33000 45.385
29.34000 44.389
29.35000 30.366
29.36000 36.652
29.37000 40.559
29.38000 43.721
29.39000 45.656
29.40000 40.436
29.41000 30.399
29.42000 56.921
29.43000 32.353
29.44000 47.794
29.45000 34.197
29.46000 38.435
29.47000 36.149
29.48000 42.717
29.49000 47.352
29.50000 40.656
29.51000 46.694
29.52000 34.552
29.53000 35.771
29.54000 38.493
29.55000 33.424
29.56000 41.554
29.57000 43.535
29.58000 38.530
29.59000 46.551
29.60000 42.664
29.61000 41.338
29.62000 46.768
29.63000 47.591
29.64000 38.667
29.65000 32.404
29.66000 44.542
29.67000 46.649
29.68000 52.556
29.69000 39.216
29.70000 24.201
29.71000 25.391
29.72000 36.316
29.73000 45.651
29.74000 41.660
29.75000 40.752
29.76000 34.432
29.77000 53.577
29.78000 47.616
29.79000 30.307
29.80000 48.480
29.81000 32.516
29.82000 43.766
29.83000 42.949
29.84000 35.383
29.85000 35.282
29.86000 37.781
29.87000 50.745
29.88000 39.538
29.89000 33.320
29.90000 24.416
29.91000 43.587
29.92000 44.697
29.93000 39.940
29.94000 36.205
29.95000 33.503
29.96000 43.620
29.97000 29.453
29.98000 38.604
29.99000 45.639
30.00000 35.481
30.01000 28.263
30.02000 28.332
30.03000 43.500
30.04000 38.788
30.05000 35.497
30.06000 37.520
30.07000 40.679
30.08000 32.422
30.09000 37.456
30.10000 37.634
30.11000 35.553
30.12000 36.503
30.13000 39.555
30.14000 42.623
30.15000 38.515
30.16000 28.502
30.17000 36.336
30.18000 27.240
30.19000 37.626
30.20000 36.515
30.21000 37.480
30.22000 35.548
30.23000 26.564
30.24000 28.315
30.25000 23.335
30.26000 36.704
30.27000 34.317
30.28000 50.625
30.29000 33.471
30.30000 32.446
30.31000 33.348
30.32000 25.143
30.33000 34.426
30.34000 29.298
30.35000 31.441
30.36000 26.246
30.37000 30.444
30.38000 40.556
30.39000 37.440
30.40000 26.654
30.41000 38.554
30.42000 38.546
30.43000 42.510
30.44000 33.670
30.45000 22.257
30.46000 41.157
30.47000 33.412
30.48000 31.301
30.49000 36.618
30.50000 30.315
30.51000 26.238
30.52000 29.391
30.53000 36.252
30.54000 41.661
30.55000 30.536
30.56000 30.260
30.57000 44.670
30.58000 29.447
30.59000 29.320
30.60000 26.193
30.61000 39.375
30.62000 29.661
30.63000 16.168
30.64000 42.516
30.65000 30.499
30.66000 23.378
30.67000 20.247
30.68000 26.277
30.69000 28.605
30.70000 31.594
30.71000 38.625
30.72000 28.398
30.73000 32.092
30.74000 32.369
30.75000 25.478
30.76000 27.286
30.77000 26.358
30.78000 23.389
30.79000 33.594
30.80000 33.241
30.81000 24.432
30.82000 22.247
30.83000 34.499
30.84000 27.333
30.85000 24.134
30.86000 22.163
30.87000 42.588
30.88000 41.298
30.89000 23.457
30.90000 37.460
30.91000 38.497
30.92000 29.430
30.93000 35.411
30.94000 25.241
30.95000 31.478
30.96000 21.385
30.97000 32.453
30.98000 32.266
30.99000 25.369
31.00000 31.344
31.01000 39.490
31.02000 27.285
31.03000 20.298
31.04000 24.578
31.05000 27.278
31.06000 29.349
31.07000 34.326
31.08000 28.328
31.09000 27.287
31.10000 35.714
31.11000 22.416
31.12000 25.487
31.13000 25.280
31.14000 23.106
31.15000 36.496
31.16000 26.380
31.17000 26.109
31.18000 32.570
31.19000 20.278
31.20000 29.496
31.21000 30.468
31.22000 38.682
31.23000 27.396
31.24000 24.342
31.25000 29.442
31.26000 30.311
31.27000 28.199
31.28000 17.231
31.29000 22.273
31.30000 19.261
31.31000 25.340
31.32000 40.497
31.33000 25.348
31.34000 22.249
31.35000 31.549
31.36000 16.264
31.37000 29.380
31.38000 16.215
31.39000 22.242
31.40000 28.653
31.41000 27.091
31.42000 21.170
31.43000 41.365
31.44000 31.503
31.45000 27.423
31.46000 23.327
31.47000 22.389
31.48000 23.206
31.49000 23.156
31.50000 21.302
31.51000 29.141
31.52000 35.328
31.53000 28.357
31.54000 20.434
31.55000 15.985
31.56000 22.291
31.57000 29.271
31.58000 23.434
31.59000 24.337
31.60000 22.414
31.61000 19.256
31.62000 25.571
31.63000 19.325
31.64000 34.397
31.65000 16.116
31.66000 35.448
31.67000 29.298
31.68000 27.124
31.69000 22.237
31.70000 26.074
31.71000 24.213
31.72000 21.314
31.73000 27.598
31.74000 23.148
31.75000 26.294
31.76000 23.465
31.77000 26.462
31.78000 28.382
31.79000 25.258
31.80000 19.211
31.81000 28.333
31.82000 25.273
31.83000 19.074
31.84000 24.327
31.85000 29.362
31.86000 23.538
31.87000 18.977
31.88000 21.289
31.89000 26.652
31.90000 32.054
31.91000 26.139
31.92000 29.337
31.93000 33.479
31.94000 16.214
31.95000 28.491
31.96000 19.295
31.97000 30.391
31.98000 34.510
31.99000 31.563
32.00000 21.411
32.01000 28.335
32.02000 26.472
32.03000 24.312
32.04000 24.244
32.05000 21.110
32.06000 19.268
32.07000 34.366
32.08000 27.440
32.09000 19.173
32.10000 20.083
32.11000 20.323
32.12000 24.387
32.13000 27.445
32.14000 30.682
32.15000 30.763
32.16000 19.212
32.17000 24.313
32.18000 30.214
32.19000 29.313
32.20000 32.227
32.21000 27.306
32.22000 28.328
32.23000 21.078
32.24000 29.413
32.25000 24.433
32.26000 25.247
32.27000 23.397
32.28000 20.363
32.29000 35.559
32.30000 33.536
32.31000 32.562
32.32000 24.203
32.33000 29.386
32.34000 32.395
32.35000 25.466
32.36000 30.408
32.37000 26.328
32.38000 40.680
32.39000 21.445
32.40000 19.137
32.41000 29.432
32.42000 20.389
32.43000 26.169
32.44000 22.449
32.45000 28.307
32.46000 18.284
32.47000 21.207
32.48000 20.406
32.49000 26.443
32.50000 32.190
32.51000 25.092
32.52000 31.352
32.53000 27.202
32.54000 21.456
32.55000 30.387
32.56000 27.178
32.57000 11.114
32.58000 27.239
32.59000 37.660
32.60000 22.395
32.61000 23.170
32.62000 31.258
32.63000 27.267
32.64000 22.301
32.65000 25.125
32.66000 20.222
32.67000 25.412
32.68000 21.278
32.69000 24.417
32.70000 18.149
32.71000 26.268
32.72000 29.465
32.73000 19.378
32.74000 18.191
32.75000 22.354
32.76000 17.339
32.77000 22.461
32.78000 24.280
32.79000 22.358
32.80000 14.207
32.81000 27.428
32.82000 17.126
32.83000 20.064
32.84000 19.286
32.85000 22.335
32.86000 16.365
32.87000 22.059
32.88000 19.266
32.89000 17.188
32.90000 22.223
32.91000 18.182
32.92000 18.240
32.93000 16.115
32.94000 23.216
32.95000 19.371
32.96000 20.159
32.97000 18.258
32.98000 26.377
32.99000 19.106
33.00000 20.190
33.01000 24.233
33.02000 12.157
33.03000 14.207
33.04000 14.449
33.05000 15.084
33.06000 19.337
33.07000 22.249
33.08000 18.315
33.09000 16.064
33.10000 20.270
33.11000 18.202
33.12000 13.032
33.13000 17.248
33.14000 16.192
33.15000 12.130
33.16000 18.228
33.17000 27.356
33.18000 19.183
33.19000 23.378
33.20000 17.293
33.21000 17.229
33.22000 19.272
33.23000 24.451
33.24000 15.026
33.25000 22.228
33.26000 20.487
33.27000 18.147
33.28000 17.159
33.29000 24.549
33.30000 21.182
33.31000 18.246
33.32000 7.098
33.33000 22.231
33.34000 25.521
33.35000 13.193
33.36000 15.147
33.37000 17.275
33.38000 20.247
33.39000 22.241
33.40000 19.222
33.41000 15.227
33.42000 23.222
33.43000 15.208
33.44000 15.302
33.45000 13.212
33.46000 13.075
33.47000 13.276
33.48000 12.105
33.49000 15.088
33.50000 34.497
33.51000 13.166
33.52000 13.056
33.53000 19.133
33.54000 18.230
33.55000 15.323
33.56000 15.267
33.57000 15.309
33.58000 24.326
33.59000 11.194
33.60000 21.206
33.61000 19.216
33.62000 12.173
33.63000 24.388
33.64000 17.248
33.65000 12.166
33.66000 13.140
33.67000 17.252
33.68000 16.178
33.69000 19.114
33.70000 16.092
33.71000 11.138
33.72000 22.303
33.73000 12.333
33.74000 13.077
33.75000 24.201
33.76000 17.203
33.77000 12.163
33.78000 13.129
33.79000 18.323
33.80000 18.250
33.81000 13.274
33.82000 14.314
33.83000 24.259
33.84000 21.348
33.85000 16.117
33.86000 18.500
33.87000 19.244
33.88000 16.210
33.89000 18.231
33.90000 17.341
33.91000 13.110
33.92000 22.429
33.93000 16.167
33.94000 10.115
33.95000 17.275
33.96000 16.168
33.97000 16.277
33.98000 16.151
33.99000 19.333
34.00000 16.194
34.01000 19.371
34.02000 16.462
34.03000 17.202
34.04000 19.255
34.05000 13.186
34.06000 14.175
34.07000 18.315
34.08000 16.256
34.09000 16.330
34.10000 14.116
34.11000 18.168
34.12000 12.140
34.13000 16.135
34.14000 27.429
34.15000 19.297
34.16000 20.346
34.17000 13.146
34.18000 14.204
34.19000 11.320
34.20000 16.292
34.21000 17.260
34.22000 16.020
34.23000 17.079
34.24000 12.198
34.25000 22.314
34.26000 17.272
34.27000 13.164
34.28000 25.214
34.29000 23.292
34.30000 19.066
34.31000 13.140
34.32000 9.019
34.33000 8.168
34.34000 6.040
34.35000 18.104
34.36000 18.201
34.37000 18.348
34.38000 21.224
34.39000 23.443
34.40000 19.246
34.41000 10.023
34.42000 22.236
34.43000 20.153
34.44000 20.163
34.45000 13.149
34.46000 13.056
34.47000 21.227
34.48000 14.187
34.49000 17.271
34.50000 18.254
34.51000 15.013
34.52000 27.303
34.53000 14.079
34.54000 25.401
34.55000 17.354
34.56000 8.258
34.57000 17.095
34.58000 16.192
34.59000 15.260
34.60000 28.356
34.61000 12.267
34.62000 16.251
34.63000 14.063
34.64000 12.240
34.65000 9.189
34.66000 10.103
34.67000 20.147
34.68000 15.343
34.69000 12.029
34.70000 8.092
34.71000 22.061
34.72000 20.293
34.73000 17.329
34.74000 21.360
34.75000 13.029
34.76000 14.170
34.77000 19.214
34.78000 13.202
34.79000 12.113
34.80000 11.968
34.81000 24.441
34.82000 21.406
34.83000 17.264
34.84000 17.244
34.85000 19.273
34.86000 14.165
34.87000 16.087
34.88000 25.179
34.89000 11.079
34.90000 15.149
34.91000 8.999
34.92000 16.229
34.93000 13.067
34.94000 13.107
34.95000 14.154
34.96000 18.177
34.97000 17.420
34.98000 20.189
34.99000 16.335
35.00000 13.159
35.01000 16.192
35.02000 13.356
35.03000 16.314
35.04000 17.278
35.05000 10.323
35.06000 21.343
35.07000 13.175
35.08000 24.195
35.09000 13.084
35.10000 12.283
35.11000 15.182
35.12000 17.322
35.13000 16.271
35.14000 8.154
35.15000 13.310
35.16000 13.095
35.17000 24.132
35.18000 12.996
35.19000 22.092
35.20000 16.245
35.21000 15.183
35.22000 15.250
35.23000 14.017
35.24000 16.206
35.25000 24.510
35.26000 11.156
35.27000 15.260
35.28000 11.069
35.29000 11.114
35.30000 16.302
35.31000 14.172
35.32000 22.474
35.33000 13.078
35.34000 12.374
35.35000 19.088
35.36000 12.171
35.37000 13.264
35.38000 15.211
35.39000 20.274
35.40000 11.063
35.41000 18.236
35.42000 8.115
35.43000 15.239
35.44000 17.173
35.45000 18.316
35.46000 13.311
35.47000 11.412
35.48000 14.190
35.49000 19.268
35.50000 29.478
35.51000 7.133
35.52000 13.167
35.53000 12.075
35.54000 20.321
35.55000 13.088
35.56000 18.325
35.57000 14.229
35.58000 14.110
35.59000 7.242
35.60000 17.357
35.61000 21.472
35.62000 16.167
35.63000 13.285
35.64000 16.957
35.65000 14.012
35.66000 10.036
35.67000 15.391
35.68000 16.415
35.69000 16.122
35.70000 18.079
35.71000 14.132
35.72000 11.119
35.73000 20.216
35.74000 19.317
35.75000 20.202
35.76000 14.148
35.77000 15.141
35.78000 11.123
35.79000 15.127
35.80000 14.041
35.81000 17.206
35.82000 18.345
35.83000 16.091
35.84000 10.192
35.85000 11.165
35.86000 10.015
35.87000 12.176
35.88000 16.187
35.89000 13.167
35.90000 17.032
35.91000 21.316
35.92000 13.217
35.93000 11.204
35.94000 14.260
35.95000 24.199
35.96000 12.290
35.97000 24.338
35.98000 16.397
35.99000 15.243
36.00000 14.271
36.01000 20.307
36.02000 18.372
36.03000 7.999
36.04000 18.116
36.05000 21.196
36.06000 14.214
36.07000 13.177
36.08000 16.232
36.09000 19.282
36.10000 11.341
36.11000 15.048
36.12000 13.105
36.13000 15.158
36.14000 10.057
36.15000 16.304
36.16000 14.062
36.17000 14.355
36.18000 14.083
36.19000 24.295
36.20000 20.297
36.21000 16.311
36.22000 13.156
36.23000 14.078
36.24000 16.388
36.25000 16.202
36.26000 13.229
36.27000 16.428
36.28000 18.218
36.29000 17.274
36.30000 15.215
36.31000 19.269
36.32000 18.235
36.33000 21.241
36.34000 14.305
36.35000 16.083
36.36000 16.304
36.37000 17.176
36.38000 9.262
36.39000 16.021
36.40000 17.192
36.41000 25.296
36.42000 16.136
36.43000 21.420
36.44000 15.521
36.45000 16.273
36.46000 13.074
36.47000 22.348
36.48000 20.201
36.49000 8.188
36.50000 14.320
36.51000 20.233
36.52000 11.077
36.53000 7.119
36.54000 14.175
36.55000 11.171
36.56000 13.384
36.57000 13.136
36.58000 17.336
36.59000 13.129
36.60000 23.269
36.61000 14.228
36.62000 19.227
36.63000 13.083
36.64000 18.469
36.65000 12.983
36.66000 21.192
36.67000 13.149
36.68000 15.272
36.69000 20.238
36.70000 17.059
36.71000 14.035
36.72000 10.125
36.73000 13.453
36.74000 17.189
36.75000 15.193
36.76000 12.153
36.77000 21.516
36.78000 18.469
36.79000 14.140
36.80000 14.203
36.81000 15.111
36.82000 15.307
36.83000 15.032
36.84000 19.000
36.85000 18.201
36.86000 9.165
36.87000 14.212
36.88000 17.191
36.89000 19.272
36.90000 20.205
36.91000 9.117
36.92000 12.213
36.93000 22.203
36.94000 21.148
36.95000 19.185
36.96000 12.030
36.97000 9.047
36.98000 15.081
36.99000 20.320
37.00000 12.026
37.01000 15.056
37.02000 16.170
37.03000 13.204
37.04000 16.059
37.05000 25.271
37.06000 18.342
37.07000 21.353
37.08000 15.099
37.09000 15.314
37.10000 13.294
37.11000 20.434
37.12000 20.242
37.13000 16.215
37.14000 14.187
37.15000 19.265
37.16000 13.233
37.17000 16.158
37.18000 19.999
37.19000 16.286
37.20000 13.120
37.21000 13.338
37.22000 18.277
37.23000 12.224
37.24000 18.097
37.25000 21.162
37.26000 6.035
37.27000 18.420
37.28000 20.200
37.29000 19.207
37.30000 11.211
37.31000 12.119
37.32000 19.258
37.33000 23.109
37.34000 17.177
37.35000 17.247
37.36000 18.422
37.37000 16.467
37.38000 22.227
37.39000 17.164
37.40000 22.159
37.41000 8.162
37.42000 13.209
37.43000 13.990
37.44000 21.166
37.45000 15.215
37.46000 24.360
37.47000 16.244
37.48000 14.183
37.49000 20.349
37.50000 10.047
37.51000 19.423
37.52000 11.076
37.53000 14.206
37.54000 15.159
37.55000 18.224
37.56000 16.244
37.57000 19.153
37.58000 17.335
37.59000 17.400
37.60000 19.349
37.61000 23.372
37.62000 12.246
37.63000 20.107
37.64000 16.109
37.65000 13.089
37.66000 24.346
37.67000 17.151
37.68000 18.208
37.69000 24.292
37.70000 18.294
37.71000 18.179
37.72000 16.050
37.73000 11.142
37.74000 16.270
37.75000 21.304
37.76000 16.231
37.77000 10.132
37.78000 14.136
37.79000 12.249
37.80000 11.078
37.81000 21.195
37.82000 19.960
37.83000 19.240
37.84000 16.172
37.85000 15.211
37.86000 17.108
37.87000 19.185
37.88000 16.227
37.89000 15.141
37.90000 10.011
37.91000 16.341
37.92000 20.328
37.93000 25.378
37.94000 10.112
37.95000 24.174
37.96000 17.182
37.97000 21.307
37.98000 22.467
37.99000 20.144
38.00000 14.200
38.01000 15.280
38.02000 20.351
38.03000 10.164
38.04000 13.018
38.05000 12.244
38.06000 12.974
38.07000 17.160
38.08000 21.281
38.09000 19.350
38.10000 21.388
38.11000 17.303
38.12000 21.256
38.13000 18.476
38.14000 11.204
38.15000 15.324
38.16000 20.189
38.17000 19.241
38.18000 13.063
38.19000 25.216
38.20000 10.299
38.21000 16.271
38.22000 21.308
38.23000 13.172
38.24000 24.418
38.25000 19.317
38.26000 11.104
38.27000 15.229
38.28000 18.248
38.29000 22.298
38.30000 9.149
38.31000 21.495
38.32000 19.251
38.33000 17.185
38.34000 12.192
38.35000 20.389
38.36000 23.339
38.37000 19.387
38.38000 16.160
38.39000 16.029
38.40000 13.310
38.41000 12.044
38.42000 18.933
38.43000 12.296
38.44000 11.283
38.45000 16.166
38.46000 14.240
38.47000 16.119
38.48000 9.125
38.49000 25.540
38.50000 13.100
38.51000 10.133
38.52000 12.092
38.53000 14.123
38.54000 17.206
38.55000 17.117
38.56000 10.156
38.57000 10.219
38.58000 17.321
38.59000 11.045
38.60000 26.146
38.61000 16.184
38.62000 19.353
38.63000 21.190
38.64000 21.282
38.65000 14.119
38.66000 17.267
38.67000 17.293
38.68000 21.235
38.69000 19.200
38.70000 15.101
38.71000 15.203
38.72000 16.075
38.73000 16.232
38.74000 10.275
38.75000 17.166
38.76000 26.210
38.77000 12.192
38.78000 18.270
38.79000 21.326
38.80000 21.424
38.81000 11.218
38.82000 16.332
38.83000 22.307
38.84000 18.184
38.85000 14.077
38.86000 24.385
38.87000 14.998
38.88000 9.150
38.89000 11.165
38.90000 17.218
38.91000 14.228
38.92000 13.150
38.93000 18.132
38.94000 16.244
38.95000 17.217
38.96000 14.172
38.97000 15.099
38.98000 20.353
38.99000 16.256
39.00000 18.374
39.01000 20.281
39.02000 21.287
39.03000 20.335
39.04000 17.281
39.05000 18.392
39.06000 18.255
39.07000 15.065
39.08000 20.322
39.09000 10.148
39.10000 17.323
39.11000 18.363
39.12000 21.275
39.13000 18.107
39.14000 14.261
39.15000 19.227
39.16000 16.370
39.17000 24.293
39.18000 17.367
39.19000 24.187
39.20000 14.252
39.21000 19.197
39.22000 14.240
39.23000 22.379
39.24000 22.362
39.25000 18.210
39.26000 16.255
39.27000 16.273
39.28000 25.339
39.29000 16.167
39.30000 16.132
39.31000 16.166
39.32000 17.317
39.33000 22.372
39.34000 19.191
39.35000 24.486
39.36000 12.222
39.37000 22.249
39.38000 25.365
39.39000 11.130
39.40000 14.177
39.41000 19.272
39.42000 22.317
39.43000 16.235
39.44000 18.051
39.45000 25.167
39.46000 11.085
39.47000 21.304
39.48000 14.187
39.49000 23.210
39.50000 14.322
39.51000 18.184
39.52000 11.024
39.53000 10.100
39.54000 18.094
39.55000 20.101
39.56000 21.162
39.57000 16.341
39.58000 22.296
39.59000 14.319
39.60000 14.204
39.61000 20.164
39.62000 28.224
39.63000 23.425
39.64000 16.301
39.65000 23.217
39.66000 19.172
39.67000 16.034
39.68000 13.080
39.69000 17.335
39.70000 27.490
39.71000 28.209
39.72000 20.330
39.73000 32.369
39.74000 20.323
39.75000 15.324
39.76000 17.316
39.77000 18.134
39.78000 13.271
39.79000 18.403
39.80000 20.243
39.81000 23.199
39.82000 20.228
39.83000 21.210
39.84000 17.103
39.85000 20.110
39.86000 16.230
39.87000 18.306
39.88000 31.551
39.89000 19.346
39.90000 20.487
39.91000 20.342
39.92000 26.400
39.93000 33.667
39.94000 22.156
39.95000 21.194
39.96000 25.554
39.97000 21.509
39.98000 24.138
39.99000 16.301
40.00000 21.314
40.01000 19.240
40.02000 26.280
40.03000 15.175
40.04000 22.404
40.05000 14.181
40.06000 20.032
40.07000 22.593
40.08000 10.196
40.09000 17.324
40.10000 25.288
40.11000 24.359
40.12000 21.201
40.13000 17.274
40.14000 23.228
40.15000 27.461
40.16000 17.354
40.17000 25.327
40.18000 23.331
40.19000 23.345
40.20000 15.051
40.21000 19.188
40.22000 21.310
40.23000 14.174
40.24000 18.244
40.25000 18.179
40.26000 19.098
40.27000 22.249
40.28000 16.185
40.29000 13.078
40.30000 18.303
40.31000 17.250
40.32000 17.168
40.33000 21.382
40.34000 13.145
40.35000 20.226
40.36000 22.519
40.37000 16.149
40.38000 25.212
40.39000 15.246
40.40000 15.131
40.41000 27.216
40.42000 16.113
40.43000 12.201
40.44000 19.366
40.45000 26.500
40.46000 19.316
40.47000 17.274
40.48000 14.352
40.49000 14.247
40.50000 13.101
40.51000 19.362
40.52000 19.353
40.53000 31.440
40.54000 24.156
40.55000 18.232
40.56000 16.210
40.57000 18.305
40.58000 9.054
40.59000 14.179
40.60000 24.462
40.61000 16.152
40.62000 18.229
40.63000 23.363
40.64000 13.120
40.65000 18.214
40.66000 24.296
40.67000 18.189
40.68000 22.111
40.69000 12.284
40.70000 14.225
40.71000 22.515
40.72000 17.267
40.73000 11.119
40.74000 21.187
40.75000 20.134
40.76000 16.031
40.77000 17.104
40.78000 17.193
40.79000 16.051
40.80000 22.212
40.81000 22.250
40.82000 17.282
40.83000 17.207
40.84000 16.308
40.85000 22.264
40.86000 21.332
40.87000 20.250
40.88000 24.387
40.89000 18.184
40.90000 18.100
40.91000 18.191
40.92000 20.332
40.93000 20.286
40.94000 20.403
40.95000 13.387
40.96000 19.282
40.97000 20.216
40.98000 18.184
40.99000 19.565
41.00000 22.191
41.01000 21.251
41.02000 17.074
41.03000 20.102
41.04000 20.390
41.05000 18.095
41.06000 24.261
41.07000 22.266
41.08000 17.231
41.09000 15.247
41.10000 14.189
41.11000 16.287
41.12000 14.121
41.13000 16.044
41.14000 20.319
41.15000 23.226
41.16000 21.243
41.17000 16.246
41.18000 18.231
41.19000 15.257
41.20000 18.097
41.21000 27.382
41.22000 18.293
41.23000 13.156
41.24000 25.397
41.25000 18.226
41.26000 24.290
41.27000 24.402
41.28000 18.214
41.29000 14.198
41.30000 18.474
41.31000 17.106
41.32000 18.189
41.33000 15.211
41.34000 17.246
41.35000 15.037
41.36000 24.241
41.37000 19.354
41.38000 18.028
41.39000 21.192
41.40000 13.115
41.41000 11.193
41.42000 19.370
41.43000 15.085
41.44000 12.143
41.45000 19.098
41.46000 17.262
41.47000 21.313
41.48000 16.320
41.49000 22.384
41.50000 16.185
41.51000 20.193
41.52000 22.056
41.53000 22.158
41.54000 28.231
41.55000 27.582
41.56000 18.280
41.57000 15.378
41.58000 18.182
41.59000 24.264
41.60000 21.254
41.61000 24.117
41.62000 29.447
41.63000 18.286
41.64000 15.084
41.65000 24.388
41.66000 19.223
41.67000 27.340
41.68000 19.482
41.69000 15.075
41.70000 23.256
41.71000 10.089
41.72000 18.282
41.73000 13.276
41.74000 22.389
41.75000 20.239
41.76000 19.221
41.77000 16.328
41.78000 17.208
41.79000 23.374
41.80000 26.413
41.81000 17.144
41.82000 24.312
41.83000 30.361
41.84000 18.186
41.85000 16.395
41.86000 19.114
41.87000 30.393
41.88000 25.212
41.89000 27.284
41.90000 15.182
41.91000 16.340
41.92000 17.159
41.93000 21.329
41.94000 17.249
41.95000 17.205
41.96000 17.234
41.97000 17.357
41.98000 11.094
41.99000 21.132
42.00000 23.516
42.01000 19.268
42.02000 19.245
42.03000 21.241
42.04000 17.284
42.05000 20.253
42.06000 18.059
42.07000 25.238
42.08000 16.441
42.09000 19.111
42.10000 15.067
42.11000 20.084
42.12000 14.128
42.13000 21.254
42.14000 19.180
42.15000 12.102
42.16000 17.119
42.17000 18.088
42.18000 20.183
42.19000 13.239
42.20000 20.415
42.21000 13.117
42.22000 14.068
42.23000 24.394
42.24000 14.999
42.25000 16.161
42.26000 23.220
42.27000 17.168
42.28000 20.465
42.29000 20.310
42.30000 24.296
42.31000 15.317
42.32000 18.224
42.33000 15.043
42.34000 16.231
42.35000 11.154
42.36000 11.067
42.37000 15.061
42.38000 19.236
42.39000 16.301
42.40000 13.143
42.41000 17.319
42.42000 16.091
42.43000 22.370
42.44000 25.395
42.45000 26.339
42.46000 16.200
42.47000 16.157
42.48000 23.362
42.49000 22.295
42.50000 12.106
42.51000 15.223
42.52000 27.456
42.53000 22.351
42.54000 24.223
42.55000 27.601
42.56000 28.166
42.57000 13.207
42.58000 19.356
42.59000 29.325
42.60000 23.247
42.61000 12.184
42.62000 14.158
42.63000 18.125
42.64000 16.130
42.65000 18.145
42.66000 16.276
42.67000 19.492
42.68000 16.262
42.69000 17.227
42.70000 26.442
42.71000 21.266
42.72000 15.166
42.73000 32.400
42.74000 20.297
42.75000 21.206
42.76000 19.330
42.77000 24.234
42.78000 24.486
42.79000 16.238
42.80000 24.287
42.81000 15.119
42.82000 20.215
42.83000 20.150
42.84000 31.222
42.85000 21.352
42.86000 19.163
42.87000 16.273
42.88000 19.269
42.89000 27.364
42.90000 14.094
42.91000 19.225
42.92000 15.365
42.93000 20.287
42.94000 13.201
42.95000 27.382
42.96000 17.106
42.97000 18.252
42.98000 20.359
42.99000 15.006
43.00000 26.311
43.01000 22.241
43.02000 12.372
43.03000 12.229
43.04000 19.174
43.05000 18.111
43.06000 15.098
43.07000 12.155
43.08000 13.089
43.09000 19.223
43.10000 21.350
43.11000 14.056
43.12000 16.128
43.13000 16.343
43.14000 21.233
43.15000 10.145
43.16000 18.314
43.17000 22.184
43.18000 16.228
43.19000 17.216
43.20000 16.363
43.21000 13.188
43.22000 26.196
43.23000 19.281
43.24000 22.229
43.25000 15.189
43.26000 16.355
43.27000 25.099
43.28000 26.359
43.29000 21.254
43.30000 19.140
43.31000 14.160
43.32000 15.307
43.33000 10.132
43.34000 20.372
43.35000 16.213
43.36000 21.038
43.37000 19.362
43.38000 18.112
43.39000 21.295
43.40000 10.128
43.41000 10.081
43.42000 18.207
43.43000 22.328
43.44000 19.354
43.45000 14.201
43.46000 19.188
43.47000 21.358
43.48000 20.101
43.49000 13.970
43.50000 21.224
43.51000 20.414
43.52000 23.426
43.53000 22.133
43.54000 22.247
43.55000 9.149
43.56000 10.129
43.57000 18.134
43.58000 18.338
43.59000 20.260
43.60000 23.292
43.61000 18.223
43.62000 20.165
43.63000 26.416
43.64000 17.204
43.65000 19.197
43.66000 11.911
43.67000 17.305
43.68000 14.094
43.69000 18.136
43.70000 15.104
43.71000 17.140
43.72000 13.119
43.73000 14.185
43.74000 27.236
43.75000 15.129
43.76000 20.099
43.77000 28.228
43.78000 18.131
43.79000 23.322
43.80000 9.302
43.81000 13.253
43.82000 16.105
43.83000 17.147
43.84000 21.309
43.85000 23.171
43.86000 21.478
43.87000 13.149
43.88000 13.125
43.89000 21.160
43.90000 7.085
43.91000 22.538
43.92000 16.411
43.93000 18.237
43.94000 31.497
43.95000 14.192
43.96000 17.083
43.97000 21.207
43.98000 18.232
43.99000 13.106
44.00000 23.299
44.01000 28.192
44.02000 14.120
44.03000 24.322
44.04000 19.268
44.05000 26.261
44.06000 17.257
44.07000 21.113
44.08000 18.260
44.09000 21.308
44.10000 23.264
44.11000 15.187
44.12000 19.238
44.13000 26.482
44.14000 20.299
44.15000 28.273
44.16000 18.117
44.17000 21.197
44.18000 13.141
44.19000 21.072
44.20000 18.159
44.21000 21.472
44.22000 8.068
44.23000 17.374
44.24000 17.371
44.25000 26.447
44.26000 21.265
44.27000 18.281
44.28000 21.331
44.29000 18.213
44.30000 20.262
44.31000 14.285
44.32000 19.381
44.33000 13.090
44.34000 19.073
44.35000 22.252
44.36000 22.454
44.37000 24.477
44.38000 25.287
44.39000 20.307
44.40000 22.468
44.41000 19.080
44.42000 14.216
44.43000 17.018
44.44000 16.140
44.45000 18.234
44.46000 18.264
44.47000 14.334
44.48000 19.299
44.49000 18.127
44.50000 16.253
44.51000 16.206
44.52000 22.410
44.53000 21.053
44.54000 13.085
44.55000 13.224
44.56000 11.188
44.57000 21.336
44.58000 15.277
44.59000 16.182
44.60000 14.139
44.61000 27.491
44.62000 20.345
44.63000 14.320
44.64000 21.377
44.65000 12.011
44.66000 18.210
44.67000 22.244
44.68000 19.315
44.69000 22.241
44.70000 18.322
44.71000 15.273
44.72000 21.630
44.73000 18.151
44.74000 23.277
44.75000 18.382
44.76000 15.041
44.77000 25.382
44.78000 15.249
44.79000 15.238
44.80000 18.233
44.81000 11.158
44.82000 21.357
44.83000 18.226
44.84000 18.237
44.85000 22.182
44.86000 16.089
44.87000 21.229
44.88000 28.516
44.89000 25.332
44.90000 23.223
44.91000 23.471
44.92000 16.216
44.93000 15.229
44.94000 13.196
44.95000 14.408
44.96000 18.312
44.97000 20.136
44.98000 12.142
44.99000 26.232
45.00000 15.202
45.01000 18.341
45.02000 18.058
45.03000 25.300
45.04000 25.378
45.05000 15.154
45.06000 16.154
45.07000 11.187
45.08000 16.213
45.09000 19.077
45.10000 26.250
45.11000 19.321
45.12000 21.151
45.13000 16.236
45.14000 24.379
45.15000 20.445
45.16000 17.416
45.17000 17.304
45.18000 20.378
45.19000 8.035
45.20000 17.126
45.21000 14.108
45.22000 21.453
45.23000 29.434
45.24000 12.244
45.25000 25.344
45.26000 20.171
45.27000 17.156
45.28000 16.180
45.29000 17.224
45.30000 19.377
45.31000 13.237
45.32000 23.197
45.33000 24.337
45.34000 27.340
45.35000 20.197
45.36000 13.182
45.37000 15.283
45.38000 12.156
45.39000 12.227
45.40000 17.313
45.41000 14.061
45.42000 13.108
45.43000 20.338
45.44000 20.054
45.45000 18.377
45.46000 19.107
45.47000 23.376
45.48000 15.125
45.49000 22.191
45.50000 13.162
45.51000 13.173
45.52000 20.118
45.53000 14.280
45.54000 17.299
45.55000 21.167
45.56000 21.302
45.57000 14.180
45.58000 14.207
45.59000 13.066
45.60000 18.248
45.61000 22.221
45.62000 12.199
45.63000 15.291
45.64000 17.353
45.65000 14.176
45.66000 17.120
45.67000 17.211
45.68000 20.355
45.69000 17.279
45.70000 18.331
45.71000 24.459
45.72000 20.526
45.73000 17.345
45.74000 9.203
45.75000 17.211
45.76000 28.585
45.77000 15.113
45.78000 22.319
45.79000 13.251
45.80000 16.188
45.81000 22.193
45.82000 18.269
45.83000 19.193
45.84000 13.064
45.85000 13.230
45.86000 20.166
45.87000 22.356
45.88000 13.104
45.89000 16.293
45.90000 20.300
45.91000 17.427
45.92000 14.239
45.93000 24.219
45.94000 13.076
45.95000 17.164
45.96000 13.113
45.97000 9.167
45.98000 23.247
45.99000 16.114
46.00000 19.198
46.01000 18.129
46.02000 19.328
46.03000 21.346
46.04000 26.296
46.05000 25.427
46.06000 23.211
46.07000 20.245
46.08000 21.119
46.09000 14.163
46.10000 24.152
46.11000 18.196
46.12000 14.343
46.13000 16.158
46.14000 28.462
46.15000 14.108
46.16000 14.282
46.17000 28.417
46.18000 18.936
46.19000 16.106
46.20000 26.225
46.21000 24.489
46.22000 22.007
46.23000 13.186
46.24000 21.348
46.25000 17.125
46.26000 17.130
46.27000 15.278
46.28000 23.174
46.29000 19.427
46.30000 19.292
46.31000 18.370
46.32000 13.100
46.33000 19.287
46.34000 16.073
46.35000 21.392
46.36000 18.176
46.37000 25.467
46.38000 17.224
46.39000 22.353
46.40000 34.333
46.41000 20.173
46.42000 14.187
46.43000 24.297
46.44000 15.375
46.45000 21.322
46.46000 13.221
46.47000 12.062
46.48000 14.322
46.49000 18.202
46.50000 19.200
46.51000 20.330
46.52000 13.294
46.53000 26.245
46.54000 18.183
46.55000 18.382
46.56000 23.225
46.57000 19.107
46.58000 18.309
46.59000 25.332
46.60000 17.228
46.61000 16.264
46.62000 17.292
46.63000 13.162
46.64000 21.258
46.65000 22.191
46.66000 17.268
46.67000 20.318
46.68000 20.581
46.69000 13.168
46.70000 23.272
46.71000 26.377
46.72000 22.425
46.73000 21.306
46.74000 12.131
46.75000 22.391
46.76000 17.274
46.77000 15.130
46.78000 18.402
46.79000 15.078
46.80000 13.219
46.81000 21.529
46.82000 20.325
46.83000 25.161
46.84000 22.246
46.85000 18.079
46.86000 19.381
46.87000 22.365
46.88000 17.242
46.89000 21.173
46.90000 16.149
46.91000 13.109
46.92000 23.260
46.93000 12.964
46.94000 11.093
46.95000 22.237
46.96000 17.198
46.97000 22.291
46.98000 19.249
46.99000 17.162
47.00000 28.445
47.01000 17.309
47.02000 10.996
47.03000 16.340
47.04000 23.385
47.05000 19.286
47.06000 22.174
47.07000 15.398
47.08000 16.369
47.09000 16.203
47.10000 15.164
47.11000 10.251
47.12000 17.953
47.13000 27.192
47.14000 18.162
47.15000 14.094
47.16000 22.198
47.17000 11.257
47.18000 14.340
47.19000 25.270
47.20000 18.194
47.21000 19.183
47.22000 21.181
47.23000 21.330
47.24000 23.166
47.25000 28.492
47.26000 19.252
47.27000 17.381
47.28000 12.244
47.29000 13.162
47.30000 20.245
47.31000 17.146
47.32000 21.300
47.33000 17.128
47.34000 15.129
47.35000 19.210
47.36000 18.183
47.37000 20.360
47.38000 18.374
47.39000 12.093
47.40000 17.238
47.41000 19.211
47.42000 11.191
47.43000 16.209
47.44000 16.329
47.45000 12.142
47.46000 13.088
47.47000 18.121
47.48000 17.345
47.49000 18.224
47.50000 13.155
47.51000 17.391
47.52000 22.220
47.53000 15.111
47.54000 19.358
47.55000 20.214
47.56000 16.259
47.57000 16.097
47.58000 27.517
47.59000 15.122
47.60000 21.333
47.61000 22.298
47.62000 14.178
47.63000 16.214
47.64000 21.283
47.65000 15.207
47.66000 16.390
47.67000 25.411
47.68000 21.281
47.69000 15.073
47.70000 19.141
47.71000 23.162
47.72000 16.207
47.73000 17.203
47.74000 19.163
47.75000 22.349
47.76000 13.159
47.77000 19.336
47.78000 10.408
47.79000 19.348
47.80000 11.172
47.81000 18.392
47.82000 16.211
47.83000 25.371
47.84000 21.348
47.85000 19.185
47.86000 16.151
47.87000 15.217
47.88000 21.290
47.89000 19.227
47.90000 22.327
47.91000 19.335
47.92000 20.171
47.93000 18.062
47.94000 18.163
47.95000 22.396
47.96000 18.177
47.97000 13.159
47.98000 27.253
47.99000 18.168
48.00000 22.281
48.01000 23.149
48.02000 19.153
48.03000 17.148
48.04000 22.472
48.05000 16.275
48.06000 15.462
48.07000 15.070
48.08000 17.321
48.09000 24.508
48.10000 18.174
48.11000 19.223
48.12000 16.303
48.13000 18.185
48.14000 20.399
48.15000 13.057
48.16000 27.382
48.17000 20.388
48.18000 15.183
48.19000 25.336
48.20000 15.092
48.21000 27.202
48.22000 21.207
48.23000 12.010
48.24000 23.273
48.25000 17.191
48.26000 18.411
48.27000 20.151
48.28000 14.025
48.29000 16.168
48.30000 17.272
48.31000 21.141
48.32000 18.195
48.33000 20.094
48.34000 22.396
48.35000 18.094
48.36000 18.368
48.37000 18.436
48.38000 21.144
48.39000 20.080
48.40000 13.107
48.41000 25.467
48.42000 20.061
48.43000 15.108
48.44000 16.226
48.45000 20.200
48.46000 22.356
48.47000 20.423
48.48000 18.167
48.49000 16.057
48.50000 17.089
48.51000 13.184
48.52000 24.061
48.53000 24.332
48.54000 15.121
48.55000 19.306
48.56000 16.218
48.57000 14.091
48.58000 16.073
48.59000 8.206
48.60000 18.272
48.61000 16.177
48.62000 26.391
48.63000 16.221
48.64000 19.152
48.65000 11.297
48.66000 22.400
48.67000 17.139
48.68000 20.324
48.69000 10.146
48.70000 19.160
48.71000 14.102
48.72000 27.266
48.73000 25.229
48.74000 24.359
48.75000 17.081
48.76000 11.124
48.77000 9.119
48.78000 12.968
48.79000 23.436
48.80000 19.416
48.81000 19.226
48.82000 17.305
48.83000 19.135
48.84000 13.060
48.85000 22.225
48.86000 15.034
48.87000 20.122
48.88000 24.330
48.89000 20.333
48.90000 13.133
48.91000 11.137
48.92000 20.217
48.93000 14.168
48.94000 18.342
48.95000 16.346
48.96000 19.337
48.97000 9.070
48.98000 15.147
48.99000 14.040
49.00000 11.161
49.01000 22.164
49.02000 12.113
49.03000 27.337
49.04000 16.177
49.05000 10.160
49.06000 21.391
49.07000 14.143
49.08000 9.055
49.09000 15.259
49.10000 17.169
49.11000 14.219
49.12000 16.994
49.13000 18.263
49.14000 17.525
49.15000 16.092
49.16000 19.135
49.17000 22.399
49.18000 23.244
49.19000 11.271
49.20000 25.337
49.21000 17.307
49.22000 19.381
49.23000 11.084
49.24000 20.496
49.25000 24.292
49.26000 18.306
49.27000 15.319
49.28000 11.142
49.29000 15.251
49.30000 23.466
49.31000 19.150
49.32000 21.267
49.33000 15.290
49.34000 21.307
49.35000 18.268
49.36000 20.207
49.37000 18.258
49.38000 11.130
49.39000 22.093
49.40000 16.257
49.41000 17.071
49.42000 20.393
49.43000 23.397
49.44000 21.335
49.45000 12.177
49.46000 9.084
49.47000 14.338
49.48000 15.117
49.49000 17.308
49.50000 15.310
49.51000 16.318
49.52000 17.204
49.53000 20.216
49.54000 19.132
49.55000 14.206
49.56000 19.433
49.57000 20.367
49.58000 12.215
49.59000 19.138
49.60000 16.153
49.61000 14.100
49.62000 16.120
49.63000 7.091
49.64000 18.211
49.65000 16.272
49.66000 21.448
49.67000 24.132
49.68000 16.242
49.69000 19.238
49.70000 15.285
49.71000 15.298
49.72000 14.115
49.73000 18.283
49.74000 14.239
49.75000 15.120
49.76000 15.149
49.77000 17.249
49.78000 15.104
49.79000 16.246
49.80000 18.192
49.81000 18.198
49.82000 18.096
49.83000 8.076
49.84000 14.248
49.85000 16.064
49.86000 18.303
49.87000 10.070
49.88000 12.049
49.89000 25.313
49.90000 9.065
49.91000 6.003
49.92000 18.344
49.93000 12.208
49.94000 17.234
49.95000 16.153
49.96000 13.183
49.97000 13.084
49.98000 11.205
49.99000 21.252
50.00000 12.129
50.01000 17.211
50.02000 13.296
50.03000 23.448
50.04000 19.315
50.05000 11.126
50.06000 9.043
50.07000 24.243
50.08000 19.337
50.09000 17.314
50.10000 16.247
50.11000 18.153
50.12000 17.429
50.13000 11.048
50.14000 8.020
50.15000 12.237
50.16000 15.072
50.17000 10.077
50.18000 16.447
50.19000 21.427
50.20000 11.084
50.21000 14.192
50.22000 22.310
50.23000 16.286
50.24000 10.149
50.25000 13.286
50.26000 13.103
50.27000 18.029
50.28000 15.103
50.29000 12.216
50.30000 15.356
50.31000 16.270
50.32000 18.088
50.33000 17.272
50.34000 18.143
50.35000 16.337
50.36000 11.177
50.37000 16.117
50.38000 14.146
50.39000 20.240
50.40000 13.995
50.41000 18.299
50.42000 25.515
50.43000 20.184
50.44000 21.224
50.45000 21.311
50.46000 13.053
50.47000 18.386
50.48000 15.147
50.49000 12.042
50.50000 12.257
50.51000 21.541
50.52000 14.325
50.53000 11.027
50.54000 16.247
50.55000 16.226
50.56000 26.378
50.57000 13.272
50.58000 22.425
50.59000 21.541
50.60000 13.093
50.61000 11.215
50.62000 15.407
50.63000 20.233
50.64000 14.259
50.65000 12.208
50.66000 14.063
50.67000 14.228
50.68000 14.372
50.69000 13.284
50.70000 17.203
50.71000 18.436
50.72000 18.244
50.73000 13.128
50.74000 25.316
50.75000 13.301
50.76000 20.214
50.77000 14.251
50.78000 17.513
50.79000 13.156
50.80000 19.097
50.81000 11.214
50.82000 14.174
50.83000 21.356
50.84000 11.230
50.85000 17.139
50.86000 22.159
50.87000 21.201
50.88000 19.134
50.89000 13.211
50.90000 17.082
50.91000 11.119
50.92000 18.182
50.93000 18.110
50.94000 14.199
50.95000 16.345
50.96000 16.111
50.97000 18.290
50.98000 7.220
50.99000 18.391
51.00000 25.331
51.01000 13.259
51.02000 19.181
51.03000 20.246
51.04000 7.011
51.05000 16.243
51.06000 15.950
51.07000 12.217
51.08000 16.300
51.09000 15.272
51.10000 16.091
51.11000 14.135
51.12000 20.225
51.13000 15.168
51.14000 18.139
51.15000 16.251
51.16000 17.214
51.17000 16.212
51.18000 14.350
51.19000 15.055
51.20000 17.020
51.21000 21.316
51.22000 11.236
51.23000 15.192
51.24000 13.092
51.25000 17.290
51.26000 8.173
51.27000 14.172
51.28000 16.298
51.29000 15.111
51.30000 20.247
51.31000 15.003
51.32000 11.156
51.33000 20.142
51.34000 20.084
51.35000 12.157
51.36000 8.256
51.37000 13.177
51.38000 12.079
51.39000 20.489
51.40000 23.511
51.41000 23.349
51.42000 18.205
51.43000 16.183
51.44000 13.356
51.45000 16.194
51.46000 12.033
51.47000 16.239
51.48000 25.513
51.49000 19.244
51.50000 12.108
51.51000 13.063
51.52000 19.193
51.53000 15.242
51.54000 15.274
51.55000 18.433
51.56000 20.334
51.57000 14.246
51.58000 15.034
51.59000 9.077
51.60000 14.105
51.61000 18.165
51.62000 11.111
51.63000 17.196
51.64000 12.179
51.65000 16.026
51.66000 18.253
51.67000 18.399
51.68000 19.304
51.69000 23.434
51.70000 19.132
51.71000 19.237
51.72000 19.258
51.73000 15.175
51.74000 14.186
51.75000 10.909
51.76000 20.409
51.77000 15.298
51.78000 13.283
51.79000 16.054
51.80000 21.222
51.81000 14.021
51.82000 16.264
51.83000 19.337
51.84000 16.344
51.85000 9.177
51.86000 16.248
51.87000 23.386
51.88000 11.185
51.89000 17.186
51.90000 10.039
51.91000 13.030
51.92000 12.138
51.93000 13.140
51.94000 25.471
51.95000 23.222
51.96000 13.291
51.97000 21.341
51.98000 18.233
51.99000 15.062
52.00000 12.146
52.01000 11.118
52.02000 10.188
52.03000 21.244
52.04000 13.173
52.05000 16.343
52.06000 19.175
52.07000 14.142
52.08000 15.228
52.09000 13.263
52.10000 9.147
52.11000 19.214
52.12000 24.560
52.13000 24.149
52.14000 8.038
52.15000 12.163
52.16000 17.064
52.17000 13.179
52.18000 10.065
52.19000 16.126
52.20000 14.192
52.21000 14.220
52.22000 10.054
52.23000 17.151
52.24000 19.309
52.25000 15.151
52.26000 15.078
52.27000 15.148
52.28000 9.066
52.29000 22.209
52.30000 16.381
52.31000 14.087
52.32000 19.255
52.33000 12.207
52.34000 14.244
52.35000 16.149
52.36000 16.287
52.37000 16.089
52.38000 16.121
52.39000 18.327
52.40000 20.281
52.41000 13.121
52.42000 15.194
52.43000 15.190
52.44000 9.158
52.45000 14.232
52.46000 11.154
52.47000 12.157
52.48000 17.134
52.49000 16.124
52.50000 16.252
52.51000 11.164
52.52000 12.174
52.53000 11.044
52.54000 25.428
52.55000 11.181
52.56000 17.268
52.57000 24.314
52.58000 18.200
52.59000 18.182
52.60000 15.221
52.61000 14.309
52.62000 13.086
52.63000 21.264
52.64000 12.122
52.65000 16.314
52.66000 14.079
52.67000 10.058
52.68000 11.124
52.69000 15.136
52.70000 11.188
52.71000 16.349
52.72000 16.117
52.73000 18.356
52.74000 15.157
52.75000 16.150
52.76000 16.122
52.77000 20.187
52.78000 17.238
52.79000 12.231
52.80000 20.361
52.81000 14.151
52.82000 18.204
52.83000 18.310
52.84000 28.323
52.85000 15.043
52.86000 21.329
52.87000 17.223
52.88000 19.118
52.89000 16.213
52.90000 19.381
52.91000 13.145
52.92000 9.039
52.93000 14.254
52.94000 20.237
52.95000 22.171
52.96000 13.256
52.97000 16.223
52.98000 18.219
52.99000 14.232
53.00000 13.222
53.01000 11.247
53.02000 13.260
53.03000 23.487
53.04000 17.157
53.05000 18.407
53.06000 19.243
53.07000 17.966
53.08000 9.042
53.09000 13.058
53.10000 16.290
53.11000 13.151
53.12000 10.361
53.13000 15.138
53.14000 16.211
53.15000 15.289
53.16000 10.127
53.17000 12.091
53.18000 13.235
53.19000 18.152
53.20000 11.115
53.21000 17.320
53.22000 13.282
53.23000 11.223
53.24000 12.251
53.25000 16.240
53.26000 14.262
53.27000 11.138
53.28000 13.174
53.29000 13.045
53.30000 15.134
53.31000 20.259
53.32000 17.416
53.33000 15.343
53.34000 13.215
53.35000 14.127
53.36000 6.016
53.37000 13.311
53.38000 20.164
53.39000 8.207
53.40000 12.274
53.41000 14.343
53.42000 23.289
53.43000 16.137
53.44000 10.128
53.45000 20.124
53.46000 13.209
53.47000 15.078
53.48000 11.061
53.49000 16.218
53.50000 16.314
53.51000 16.058
53.52000 22.341
53.53000 15.052
53.54000 9.140
53.55000 16.260
53.56000 11.061
53.57000 16.252
53.58000 17.266
53.59000 15.351
53.60000 15.285
53.61000 9.158
53.62000 15.295
53.63000 18.027
53.64000 9.148
53.65000 16.081
53.66000 7.095
53.67000 17.264
53.68000 16.337
53.69000 13.086
53.70000 16.356
53.71000 11.147
53.72000 14.165
53.73000 16.313
53.74000 12.121
53.75000 11.001
53.76000 14.164
53.77000 17.313
53.78000 16.197
53.79000 10.159
53.80000 16.230
53.81000 9.080
53.82000 2.973
53.83000 11.057
53.84000 6.104
53.85000 8.272
53.86000 15.413
53.87000 9.112
53.88000 11.050
53.89000 9.048
53.90000 20.182
53.91000 15.110
53.92000 15.092
53.93000 21.132
53.94000 17.223
53.95000 23.312
53.96000 11.103
53.97000 17.130
53.98000 15.207
53.99000 12.382
54.00000 16.399
54.01000 19.208
54.02000 13.064
54.03000 6.962
54.04000 15.167
54.05000 18.126
54.06000 17.171
54.07000 11.020
54.08000 11.201
54.09000 16.261
54.10000 11.169
54.11000 13.233
54.12000 16.224
54.13000 16.213
54.14000 9.130
54.15000 15.109
54.16000 19.320
54.17000 12.204
54.18000 11.053
54.19000 15.212
54.20000 9.153
54.21000 12.107
54.22000 11.262
54.23000 8.140
54.24000 15.231
54.25000 17.237
54.26000 26.339
54.27000 10.279
54.28000 14.292
54.29000 16.114
54.30000 16.053
54.31000 15.136
54.32000 12.172
54.33000 15.206
54.34000 14.312
54.35000 15.202
54.36000 13.137
54.37000 11.083
54.38000 13.276
54.39000 12.194
54.40000 16.294
54.41000 16.338
54.42000 23.317
54.43000 10.091
54.44000 13.110
54.45000 12.107
54.46000 9.049
54.47000 16.121
54.48000 17.218
54.49000 7.138
54.50000 15.294
54.51000 8.149
54.52000 14.208
54.53000 14.203
54.54000 8.055
54.55000 11.071
54.56000 17.255
54.57000 13.110
54.58000 13.087
54.59000 14.143
54.60000 14.204
54.61000 13.270
54.62000 10.195
54.63000 18.305
54.64000 17.301
54.65000 14.124
54.66000 11.184
54.67000 12.222
54.68000 19.201
54.69000 12.240
54.70000 15.187
54.71000 16.337
54.72000 11.177
54.73000 11.086
54.74000 24.352
54.75000 17.353
54.76000 16.212
54.77000 12.115
54.78000 8.079
54.79000 12.136
54.80000 8.135
54.81000 14.336
54.82000 14.274
54.83000 20.292
54.84000 19.141
54.85000 10.219
54.86000 13.377
54.87000 13.179
54.88000 14.278
54.89000 18.448
54.90000 17.272
54.91000 17.077
54.92000 12.250
54.93000 13.076
54.94000 13.195
54.95000 12.200
54.96000 15.168
54.97000 16.074
54.98000 13.269
54.99000 9.066
55.00000 13.304
55.01000 10.143
55.02000 14.000
55.03000 10.066
55.04000 18.209
55.05000 8.127
55.06000 10.189
55.07000 13.107
55.08000 14.150
55.09000 10.117
55.10000 15.212
55.11000 11.429
55.12000 7.089
55.13000 11.173
55.14000 18.228
55.15000 20.475
55.16000 16.303
55.17000 14.186
55.18000 11.233
55.19000 13.063
55.20000 19.296
55.21000 11.117
55.22000 13.271
55.23000 11.350
55.24000 15.337
55.25000 6.171
55.26000 15.297
55.27000 13.206
55.28000 16.077
55.29000 12.217
55.30000 16.130
55.31000 10.276
55.32000 22.236
55.33000 12.183
55.34000 12.159
55.35000 12.117
55.36000 15.118
55.37000 13.181
55.38000 9.164
55.39000 16.207
55.40000 17.173
55.41000 14.168
55.42000 14.260
55.43000 19.263
55.44000 12.105
55.45000 17.200
55.46000 17.224
55.47000 16.218
55.48000 15.131
55.49000 12.186
55.50000 21.219
55.51000 18.297
55.52000 7.091
55.53000 15.142
55.54000 12.239
55.55000 20.191
55.56000 21.381
55.57000 6.095
55.58000 15.203
55.59000 15.065
55.60000 12.057
55.61000 12.275
55.62000 6.069
55.63000 11.030
55.64000 11.063
55.65000 15.297
55.66000 15.154
55.67000 11.079
55.68000 14.107
55.69000 21.311
55.70000 12.229
55.71000 15.197
55.72000 21.506
55.73000 7.981
55.74000 12.074
55.75000 9.006
55.76000 19.068
55.77000 16.404
55.78000 13.246
55.79000 14.081
55.80000 10.160
55.81000 18.203
55.82000 15.046
55.83000 14.170
55.84000 15.339
55.85000 16.247
55.86000 21.256
55.87000 9.057
55.88000 13.207
55.89000 9.996
55.90000 10.240
55.91000 16.144
55.92000 21.255
55.93000 11.073
55.94000 11.088
55.95000 15.179
55.96000 11.104
55.97000 14.216
55.98000 12.168
55.99000 19.117
56.00000 14.362
56.01000 7.096
56.02000 8.147
56.03000 14.408
56.04000 16.182
56.05000 3.010
56.06000 10.245
56.07000 11.108
56.08000 13.100
56.09000 10.109
56.10000 11.096
56.11000 15.383
56.12000 11.050
56.13000 12.182
56.14000 8.028
56.15000 11.222
56.16000 8.029
56.17000 10.134
56.18000 9.011
56.19000 12.161
56.20000 12.053
56.21000 14.212
56.22000 13.234
56.23000 13.170
56.24000 16.208
56.25000 16.293
56.26000 11.348
56.27000 12.260
56.28000 14.144
56.29000 14.266
56.30000 11.085
56.31000 11.154
56.32000 21.186
56.33000 12.126
56.34000 15.045
56.35000 14.270
56.36000 11.212
56.37000 9.143
56.38000 9.929
56.39000 17.117
56.40000 15.116
56.41000 14.104
56.42000 12.173
56.43000 8.117
56.44000 11.160
56.45000 14.115
56.46000 11.177
56.47000 17.272
56.48000 8.116
56.49000 12.067
56.50000 12.199
56.51000 17.345
56.52000 13.135
56.53000 16.189
56.54000 13.287
56.55000 22.309
56.56000 10.095
56.57000 18.321
56.58000 15.244
56.59000 12.317
56.60000 7.046
56.61000 7.071
56.62000 11.124
56.63000 14.244
56.64000 18.115
56.65000 12.164
56.66000 6.112
56.67000 17.359
56.68000 10.122
56.69000 5.992
56.70000 11.146
56.71000 12.159
56.72000 11.194
56.73000 16.079
56.74000 20.335
56.75000 13.137
56.76000 13.195
56.77000 10.159
56.78000 10.240
56.79000 15.238
56.80000 13.078
56.81000 20.200
56.82000 8.100
56.83000 12.239
56.84000 12.135
56.85000 8.045
56.86000 9.144
56.87000 13.974
56.88000 10.172
56.89000 11.198
56.90000 9.061
56.91000 12.118
56.92000 14.096
56.93000 20.331
56.94000 13.219
56.95000 16.071
56.96000 18.245
56.97000 16.161
56.98000 13.167
56.99000 13.171
57.00000 17.319
57.01000 12.193
57.02000 8.993
57.03000 4.101
57.04000 12.081
57.05000 12.064
57.06000 10.103
57.07000 16.288
57.08000 8.190
57.09000 12.111
57.10000 11.129
57.11000 11.222
57.12000 15.144
57.13000 13.318
57.14000 15.202
57.15000 11.124
57.16000 18.161
57.17000 15.142
57.18000 11.131
57.19000 18.252
57.20000 10.113
57.21000 14.192
57.22000 15.222
57.23000 19.442
57.24000 9.061
57.25000 15.182
57.26000 5.995
57.27000 19.163
57.28000 12.104
57.29000 9.123
57.30000 14.282
57.31000 15.192
57.32000 24.039
57.33000 11.167
57.34000 10.129
57.35000 10.223
57.36000 15.198
57.37000 15.409
57.38000 14.069
57.39000 12.226
57.40000 14.011
57.41000 15.341
57.42000 10.075
57.43000 12.064
57.44000 15.423
57.45000 8.043
57.46000 18.140
57.47000 22.260
57.48000 15.204
57.49000 21.432
57.50000 18.299
57.51000 15.272
57.52000 14.101
57.53000 12.018
57.54000 23.296
57.55000 14.241
57.56000 18.229
57.57000 8.095
57.58000 14.072
57.59000 13.106
57.60000 12.179
57.61000 8.997
57.62000 13.155
57.63000 6.127
57.64000 12.061
57.65000 15.354
57.66000 15.260
57.67000 14.135
57.68000 10.135
57.69000 9.082
57.70000 10.135
57.71000 14.210
57.72000 11.997
57.73000 15.057
57.74000 4.087
57.75000 23.298
57.76000 19.169
57.77000 12.001
57.78000 15.063
57.79000 16.255
57.80000 12.046
57.81000 10.184
57.82000 12.169
57.83000 19.162
57.84000 15.092
57.85000 13.081
57.86000 17.247
57.87000 19.243
57.88000 18.177
57.89000 11.191
57.90000 10.181
57.91000 17.169
57.92000 8.088
57.93000 15.183
57.94000 13.155
57.95000 13.175
57.96000 9.168
57.97000 14.182
57.98000 9.103
57.99000 12.064
58.00000 8.267
58.01000 16.122
58.02000 15.192
58.03000 15.199
58.04000 10.178
58.05000 18.140
58.06000 13.158
58.07000 10.207
58.08000 10.100
58.09000 13.104
58.10000 19.402
58.11000 9.142
58.12000 12.216
58.13000 12.104
58.14000 12.069
58.15000 7.106
58.16000 9.130
58.17000 10.173
58.18000 14.176
58.19000 18.245
58.20000 13.235
58.21000 15.136
58.22000 11.267
58.23000 9.052
58.24000 12.327
58.25000 10.976
58.26000 12.114
58.27000 8.155
58.28000 15.341
58.29000 15.019
58.30000 11.170
58.31000 6.063
58.32000 11.997
58.33000 11.014
58.34000 13.057
58.35000 17.333
58.36000 9.148
58.37000 14.064
58.38000 9.162
58.39000 13.201
58.40000 11.074
58.41000 9.129
58.42000 14.321
58.43000 11.099
58.44000 10.084
58.45000 16.144
58.46000 11.090
58.47000 8.102
58.48000 13.139
58.49000 12.172
58.50000 15.301
58.51000 16.248
58.52000 13.108
58.53000 9.125
58.54000 18.066
58.55000 9.968
58.56000 11.092
58.57000 17.219
58.58000 11.179
58.59000 9.979
58.60000 17.274
58.61000 12.386
58.62000 11.033
58.63000 10.291
58.64000 12.210
58.65000 12.291
58.66000 13.065
58.67000 13.135
58.68000 11.083
58.69000 13.231
58.70000 14.183
58.71000 14.172
58.72000 5.066
58.73000 12.171
58.74000 7.085
58.75000 9.036
58.76000 7.958
58.77000 5.009
58.78000 13.017
58.79000 15.200
58.80000 13.092
58.81000 12.293
58.82000 17.196
58.83000 10.220
58.84000 10.078
58.85000 12.180
58.86000 12.208
58.87000 15.082
58.88000 10.125
58.89000 14.192
58.90000 8.197
58.91000 11.117
58.92000 10.179
58.93000 14.273
58.94000 16.239
58.95000 10.219
58.96000 7.005
58.97000 14.212
58.98000 7.180
58.99000 13.201
59.00000 12.128
59.01000 15.169
59.02000 11.067
59.03000 4.031
59.04000 17.206
59.05000 14.329
59.06000 12.102
59.07000 11.284
59.08000 20.204
59.09000 11.081
59.10000 10.112
59.11000 20.423
59.12000 12.236
59.13000 17.093
59.14000 15.437
59.15000 10.056
59.16000 12.116
59.17000 11.252
59.18000 9.982
59.19000 23.411
59.20000 8.224
59.21000 13.218
59.22000 9.942
59.23000 10.179
59.24000 11.124
59.25000 13.012
59.26000 11.174
59.27000 8.130
59.28000 14.122
59.29000 14.306
59.30000 13.010
59.31000 5.119
59.32000 9.008
59.33000 17.180
59.34000 8.118
59.35000 10.233
59.36000 11.104
59.37000 10.249
59.38000 13.263
59.39000 11.056
59.40000 12.196
59.41000 11.145
59.42000 10.134
59.43000 14.155
59.44000 8.147
59.45000 12.225
59.46000 12.192
59.47000 7.045
59.48000 13.210
59.49000 4.079
59.50000 12.237
59.51000 17.214
59.52000 4.099
59.53000 7.157
59.54000 11.080
59.55000 12.093
59.56000 10.060
59.57000 12.126
59.58000 9.068
59.59000 12.095
59.60000 13.111
59.61000 11.094
59.62000 11.061
59.63000 13.138
59.64000 9.118
59.65000 11.114
59.66000 14.088
59.67000 16.343
59.68000 14.185
59.69000 12.144
59.70000 5.072
59.71000 10.141
59.72000 10.166
59.73000 16.346
59.74000 11.136
59.75000 2.954
59.76000 11.122
59.77000 11.107
59.78000 13.195
59.79000 13.075
59.80000 14.254
59.81000 11.163
59.82000 12.190
59.83000 15.131
59.84000 15.277
59.85000 5.998
59.86000 11.151
59.87000 10.107
59.88000 6.990
59.89000 7.111
59.90000 5.149
59.91000 11.260
59.92000 15.278
59.93000 13.121
59.94000 11.139
59.95000 9.063
59.96000 10.040
59.97000 8.066
59.98000 12.114
59.99000 12.004
60.00000 11.127
60.01000 8.062
60.02000 13.288
60.03000 9.015
60.04000 14.243
60.05000 13.182
60.06000 10.055
60.07000 6.101
60.08000 13.154
60.09000 9.163
60.10000 14.060
60.11000 7.165
60.12000 13.166
60.13000 13.175
60.14000 10.030
60.15000 11.046
60.16000 9.226
60.17000 6.016
60.18000 12.094
60.19000 12.283
60.20000 14.255
60.21000 10.090
60.22000 12.196
60.23000 9.141
60.24000 9.139
60.25000 7.198
60.26000 7.994
60.27000 11.182
60.28000 10.972
60.29000 5.096
60.30000 14.290
60.31000 7.094
60.32000 11.051
60.33000 16.314
60.34000 9.275
60.35000 9.991
60.36000 11.125
60.37000 7.204
60.38000 16.240
60.39000 9.077
60.40000 17.179
60.41000 7.099
60.42000 11.107
60.43000 18.271
60.44000 13.065
60.45000 17.262
60.46000 9.144
60.47000 9.215
60.48000 5.071
60.49000 8.107
60.50000 8.086
60.51000 12.175
60.52000 11.248
60.53000 10.099
60.54000 8.128
60.55000 12.310
60.56000 18.269
60.57000 11.138
60.58000 16.346
60.59000 4.098
60.60000 9.219
60.61000 10.122
60.62000 10.139
60.63000 11.279
60.64000 14.969
60.65000 12.151
60.66000 15.205
60.67000 8.073
60.68000 10.207
60.69000 11.204
60.70000 6.034
60.71000 6.065
60.72000 19.412
60.73000 10.072
60.74000 8.149
60.75000 14.202
60.76000 10.128
60.77000 10.109
60.78000 6.060
60.79000 10.051
60.80000 8.090
60.81000 6.063
60.82000 17.199
60.83000 4.954
60.84000 10.091
60.85000 4.119
60.86000 11.220
60.87000 9.110
60.88000 14.231
60.89000 11.248
60.90000 13.321
60.91000 10.004
60.92000 11.108
60.93000 18.221
60.94000 11.204
60.95000 8.121
60.96000 14.178
60.97000 9.107
60.98000 10.128
60.99000 11.276
61.00000 10.102
61.01000 9.155
61.02000 12.181
61.03000 15.163
61.04000 12.110
61.05000 12.147
61.06000 10.101
61.07000 12.213
61.08000 7.060
61.09000 12.266
61.10000 7.186
61.11000 5.987
61.12000 12.064
61.13000 7.036
61.14000 14.239
61.15000 11.202
61.16000 14.073
61.17000 9.148
61.18000 7.069
61.19000 10.057
61.20000 8.030
61.21000 14.138
61.22000 13.136
61.23000 12.228
61.24000 11.088
61.25000 11.983
61.26000 12.065
61.27000 12.099
61.28000 9.133
61.29000 18.226
61.30000 6.148
61.31000 9.132
61.32000 13.176
61.33000 6.115
61.34000 1.983
61.35000 13.146
61.36000 12.075
61.37000 7.079
61.38000 6.075
61.39000 11.194
61.40000 8.084
61.41000 6.083
61.42000 12.031
61.43000 6.003
61.44000 14.164
61.45000 12.016
61.46000 8.136
61.47000 12.170
61.48000 10.057
61.49000 14.078
61.50000 6.074
61.51000 6.136
61.52000 7.990
61.53000 11.179
61.54000 11.075
61.55000 10.187
61.56000 13.128
61.57000 15.137
61.58000 14.270
61.59000 9.217
61.60000 8.096
61.61000 9.063
61.62000 11.154
61.63000 6.021
61.64000 13.147
61.65000 9.230
61.66000 15.305
61.67000 7.188
61.68000 9.116
61.69000 7.131
61.70000 8.053
61.71000 6.027
61.72000 12.222
61.73000 9.030
61.74000 11.094
61.75000 12.152
61.76000 8.066
61.77000 10.186
61.78000 13.297
61.79000 16.168
61.80000 13.073
61.81000 10.243
61.82000 6.072
61.83000 10.150
61.84000 6.004
61.85000 14.294
61.86000 10.164
61.87000 9.055
61.88000 9.076
61.89000 9.196
61.90000 9.199
61.91000 11.271
61.92000 10.114
61.93000 12.238
61.94000 9.142
61.95000 18.198
61.96000 10.164
61.97000 11.059
61.98000 7.164
61.99000 9.164
62.00000 13.131
62.01000 5.036
62.02000 15.212
62.03000 10.187
62.04000 10.081
62.05000 12.191
62.06000 9.067
62.07000 8.203
62.08000 10.054
62.09000 9.008
62.10000 14.232
62.11000 11.073
62.12000 11.156
62.13000 14.215
62.14000 11.220
62.15000 10.139
62.16000 16.262
62.17000 12.209
62.18000 17.170
62.19000 12.213
62.20000 10.159
62.21000 8.008
62.22000 10.080
62.23000 8.224
62.24000 9.135
62.25000 5.047
62.26000 18.058
62.27000 6.065
62.28000 15.290
62.29000 16.347
62.30000 6.035
62.31000 9.264
62.32000 9.095
62.33000 5.144
62.34000 12.141
62.35000 10.060
62.36000 12.149
62.37000 8.191
62.38000 8.071
62.39000 9.135
62.40000 10.148
62.41000 8.084
62.42000 7.057
62.43000 5.033
62.44000 10.053
62.45000 11.132
62.46000 6.112
62.47000 19.193
62.48000 6.013
62.49000 13.005
62.50000 10.157
62.51000 9.112
62.52000 8.022
62.53000 10.302
62.54000 8.060
62.55000 7.031
62.56000 8.077
62.57000 14.127
62.58000 10.177
62.59000 15.174
62.60000 10.131
62.61000 11.091
62.62000 12.113
62.63000 10.062
62.64000 9.158
62.65000 11.209
62.66000 8.065
62.67000 4.049
62.68000 9.198
62.69000 12.053
62.70000 4.067
62.71000 12.165
62.72000 8.120
62.73000 14.128
62.74000 13.124
62.75000 9.201
62.76000 7.102
62.77000 11.148
62.78000 8.100
62.79000 6.024
62.80000 8.037
62.81000 9.184
62.82000 12.040
62.83000 14.175
62.84000 7.103
62.85000 11.273
62.86000 7.048
62.87000 8.062
62.88000 7.114
62.89000 8.012
62.90000 6.147
62.91000 12.230
62.92000 18.284
62.93000 5.084
62.94000 7.038
62.95000 4.063
62.96000 8.121
62.97000 7.007
62.98000 14.347
62.99000 13.077
63.00000 10.058
63.01000 15.134
63.02000 10.172
63.03000 18.065
63.04000 15.112
63.05000 8.055
63.06000 10.238
63.07000 4.024
63.08000 17.213
63.09000 11.172
63.10000 9.129
63.11000 12.158
63.12000 14.234
63.13000 6.088
63.14000 15.088
63.15000 7.017
63.16000 7.174
63.17000 11.058
63.18000 9.178
63.19000 7.078
63.20000 15.242
63.21000 10.022
63.22000 7.064
63.23000 8.219
63.24000 16.362
63.25000 11.090
63.26000 5.108
63.27000 8.965
63.28000 15.205
63.29000 12.099
63.30000 9.117
63.31000 10.045
63.32000 5.095
63.33000 15.442
63.34000 11.140
63.35000 15.147
63.36000 5.158
63.37000 8.133
63.38000 8.073
63.39000 7.231
63.40000 7.132
63.41000 12.051
63.42000 11.130
63.43000 10.083
63.44000 9.123
63.45000 9.084
63.46000 8.063
63.47000 7.144
63.48000 16.212
63.49000 10.153
63.50000 9.236
63.51000 2.980
63.52000 6.013
63.53000 11.225
63.54000 14.348
63.55000 15.076
63.56000 10.068
63.57000 14.310
63.58000 9.195
63.59000 8.095
63.60000 5.006
63.61000 11.116
63.62000 9.062
63.63000 9.103
63.64000 7.056
63.65000 10.024
63.66000 11.030
63.67000 14.242
63.68000 11.058
63.69000 6.045
63.70000 6.082
63.71000 11.052
63.72000 14.140
63.73000 6.003
63.74000 7.049
63.75000 15.101
63.76000 4.961
63.77000 12.214
63.78000 10.107
63.79000 13.075
63.80000 9.087
63.81000 8.156
63.82000 14.161
63.83000 2.004
63.84000 6.029
63.85000 12.076
63.86000 12.335
63.87000 6.030
63.88000 12.219
63.89000 8.080
63.90000 5.026
63.91000 6.048
63.92000 10.121
63.93000 7.133
63.94000 8.175
63.95000 7.044
63.96000 12.195
63.97000 10.105
63.98000 8.039
63.99000 7.253
64.00000 9.237
64.01000 10.150
64.02000 10.158
64.03000 9.098
64.04000 8.057
64.05000 16.466
64.06000 4.990
64.07000 18.160
64.08000 9.122
64.09000 11.136
64.10000 9.277
64.11000 9.173
64.12000 11.154
64.13000 7.976
64.14000 12.097
64.15000 9.107
64.16000 9.085
64.17000 6.089
64.18000 16.093
64.19000 11.071
64.20000 9.077
64.21000 10.182
64.22000 9.067
64.23000 11.106
64.24000 5.972
64.25000 10.277
64.26000 10.099
64.27000 10.049
64.28000 14.108
64.29000 6.009
64.30000 8.095
64.31000 11.185
64.32000 13.048
64.33000 6.043
64.34000 10.164
64.35000 10.094
64.36000 10.058
64.37000 12.105
64.38000 12.182
64.39000 7.104
64.40000 13.208
64.41000 13.144
64.42000 12.254
64.43000 6.041
64.44000 9.094
64.45000 9.122
64.46000 7.040
64.47000 7.107
64.48000 9.125
64.49000 6.065
64.50000 5.023
64.51000 6.079
64.52000 10.258
64.53000 16.142
64.54000 7.980
64.55000 10.248
64.56000 8.160
64.57000 8.097
64.58000 8.074
64.59000 5.117
64.60000 15.139
64.61000 3.029
64.62000 12.169
64.63000 3.979
64.64000 12.102
64.65000 13.174
64.66000 8.106
64.67000 8.120
64.68000 10.932
64.69000 10.214
64.70000 13.119
64.71000 9.189
64.72000 11.104
64.73000 15.251
64.74000 9.186
64.75000 11.033
64.76000 12.265
64.77000 10.104
64.78000 8.180
64.79000 9.058
64.80000 9.073
64.81000 13.108
64.82000 13.156
64.83000 16.185
64.84000 13.173
64.85000 8.005
64.86000 14.119
64.87000 15.356
64.88000 16.030
64.89000 11.032
64.90000 11.145
64.91000 7.191
64.92000 9.260
64.93000 10.012
64.94000 6.095
64.95000 10.142
64.96000 18.285
64.97000 12.202
64.98000 6.157
64.99000 11.962
65.00000 9.221
