20.00000 175.267
20.01000 179.066
20.02000 183.697
20.03000 157.915
20.04000 160.769
20.05000 151.748
20.06000 155.230
20.07000 179.145
20.08000 184.968
20.09000 180.267
20.10000 178.945
20.11000 158.420
20.12000 173.580
20.13000 162.670
20.14000 168.480
20.15000 188.729
20.16000 182.320
20.17000 164.609
20.18000 164.213
20.19000 149.185
20.20000 169.689
20.21000 162.449
20.22000 166.035
20.23000 159.729
20.24000 172.956
20.25000 144.113
20.26000 165.726
20.27000 146.567
20.28000 157.309
20.29000 187.467
20.30000 171.587
20.31000 158.230
20.32000 138.225
20.33000 162.092
20.34000 162.746
20.35000 165.356
20.36000 163.486
20.37000 157.213
20.38000 152.377
20.39000 180.143
20.40000 181.783
20.41000 138.535
20.42000 152.537
20.43000 181.852
20.44000 162.779
20.45000 168.482
20.46000 158.510
20.47000 146.467
20.48000 171.526
20.49000 176.999
20.50000 150.643
20.51000 162.059
20.52000 166.198
20.53000 155.554
20.54000 154.428
20.55000 147.237
20.56000 155.533
20.57000 149.901
20.58000 141.949
20.59000 132.168
20.60000 150.011
20.61000 153.288
20.62000 143.989
20.63000 165.857
20.64000 148.583
20.65000 145.172
20.66000 147.814
20.67000 138.367
20.68000 146.528
20.69000 135.321
20.70000 132.037
20.71000 167.307
20.72000 144.246
20.73000 145.979
20.74000 151.415
20.75000 148.296
20.76000 143.345
20.77000 155.495
20.78000 149.966
20.79000 157.479
20.80000 124.292
20.81000 159.379
20.82000 138.301
20.83000 140.013
20.84000 150.891
20.85000 134.675
20.86000 128.330
20.87000 122.832
20.88000 150.614
20.89000 120.711
20.90000 127.406
20.91000 146.041
20.92000 135.131
20.93000 146.460
20.94000 145.459
20.95000 134.330
20.96000 130.060
20.97000 153.446
20.98000 130.889
20.99000 131.221
21.00000 125.307
21.01000 135.430
21.02000 134.037
21.03000 124.438
21.04000 131.324
21.05000 112.955
21.06000 120.456
21.07000 122.070
21.08000 134.183
21.09000 98.847
21.10000 138.381
21.11000 120.177
21.12000 124.141
21.13000 140.498
21.14000 123.138
21.15000 132.326
21.16000 132.119
21.17000 114.076
21.18000 137.792
21.19000 134.784
21.20000 129.655
21.21000 134.143
21.22000 117.032
21.23000 141.399
21.24000 135.191
21.25000 124.190
21.26000 120.644
21.27000 115.519
21.28000 135.572
21.29000 134.450
21.30000 127.299
21.31000 134.031
21.32000 124.211
21.33000 127.441
21.34000 130.337
21.35000 113.071
21.36000 121.938
21.37000 92.611
21.38000 97.922
21.39000 117.969
21.40000 124.156
21.41000 103.044
21.42000 111.747
21.43000 103.731
21.44000 121.387
21.45000 125.519
21.46000 98.493
21.47000 128.217
21.48000 117.551
21.49000 109.138
21.50000 107.204
21.51000 114.159
21.52000 100.083
21.53000 100.165
21.54000 121.134
21.55000 101.085
21.56000 94.494
21.57000 110.094
21.58000 115.165
21.59000 106.037
21.60000 118.922
21.61000 103.420
21.62000 96.938
21.63000 115.247
21.64000 114.801
21.65000 92.928
21.66000 100.578
21.67000 106.202
21.68000 136.238
21.69000 104.810
21.70000 97.856
21.71000 113.232
21.72000 107.906
21.73000 96.073
21.74000 107.887
21.75000 108.979
21.76000 96.925
21.77000 85.580
21.78000 106.814
21.79000 91.259
21.80000 90.154
21.81000 89.591
21.82000 90.072
21.83000 86.810
21.84000 99.026
21.85000 86.544
21.86000 116.078
21.87000 97.209
21.88000 99.938
21.89000 101.259
21.90000 91.885
21.91000 86.698
21.92000 95.507
21.93000 94.993
21.94000 82.617
21.95000 106.713
21.96000 89.588
21.97000 97.045
21.98000 103.263
21.99000 81.783
22.00000 83.744
22.01000 95.907
22.02000 96.036
22.03000 92.993
22.04000 106.081
22.05000 97.117
22.06000 95.130
22.07000 81.677
22.08000 88.665
22.09000 95.023
22.10000 79.069
22.11000 95.695
22.12000 110.154
22.13000 83.407
22.14000 89.837
22.15000 82.898
22.16000 95.988
22.17000 78.930
22.18000 88.917
22.19000 89.078
22.20000 74.623
22.21000 76.556
22.22000 92.531
22.23000 99.494
22.24000 82.848
22.25000 101.256
22.26000 87.148
22.27000 94.984
22.28000 74.704
22.29000 90.361
22.30000 81.644
22.31000 85.597
22.32000 65.641
22.33000 78.825
22.34000 91.959
22.35000 79.684
22.36000 79.951
22.37000 68.914
22.38000 73.847
22.39000 73.933
22.40000 86.600
22.41000 78.831
22.42000 83.752
22.43000 72.289
22.44000 73.692
22.45000 78.046
22.46000 70.772
22.47000 59.258
22.48000 79.941
22.49000 78.994
22.50000 83.672
22.51000 71.817
22.52000 80.902
22.53000 59.869
22.54000 72.683
22.55000 58.725
22.56000 67.870
22.57000 79.778
22.58000 76.686
22.59000 70.539
22.60000 78.697
22.61000 75.771
22.62000 61.570
22.63000 78.176
22.64000 67.634
22.65000 76.747
22.66000 65.623
22.67000 71.727
22.68000 65.453
22.69000 64.661
22.70000 58.349
22.71000 71.787
22.72000 75.812
22.73000 53.631
22.74000 64.642
22.75000 59.556
22.76000 63.676
22.77000 74.843
22.78000 60.772
22.79000 64.329
22.80000 62.583
22.81000 71.599
22.82000 66.894
22.83000 63.491
22.84000 75.869
22.85000 75.950
22.86000 70.866
22.87000 58.613
22.88000 57.490
22.89000 67.914
22.90000 63.729
22.91000 61.627
22.92000 58.709
22.93000 70.585
22.94000 61.699
22.95000 58.697
22.96000 61.589
22.97000 64.873
22.98000 45.640
22.99000 67.835
23.00000 69.834
23.01000 47.389
23.02000 56.418
23.03000 70.616
23.04000 49.295
23.05000 60.866
23.06000 63.450
23.07000 53.488
23.08000 57.592
23.09000 45.565
23.10000 50.359
23.11000 52.639
23.12000 49.714
23.13000 39.078
23.14000 67.695
23.15000 58.710
23.16000 46.591
23.17000 61.468
23.18000 57.773
23.19000 63.578
23.20000 54.444
23.21000 63.366
23.22000 56.795
23.23000 45.297
23.24000 43.522
23.25000 45.428
23.26000 49.489
23.27000 55.819
23.28000 53.590
23.29000 65.607
23.30000 45.400
23.31000 41.385
23.32000 63.817
23.33000 56.611
23.34000 40.560
23.35000 57.568
23.36000 56.742
23.37000 56.563
23.38000 50.512
23.39000 49.526
23.40000 42.425
23.41000 54.457
23.42000 51.510
23.43000 44.437
23.44000 40.738
23.45000 62.593
23.46000 50.259
23.47000 42.398
23.48000 40.102
23.49000 43.451
23.50000 51.575
23.51000 53.724
23.52000 52.610
23.53000 39.812
23.54000 44.518
23.55000 48.498
23.56000 41.514
23.57000 39.572
23.58000 45.633
23.59000 55.704
23.60000 43.335
23.61000 45.179
23.62000 48.500
23.63000 55.644
23.64000 59.834
23.65000 44.642
23.66000 40.420
23.67000 43.135
23.68000 44.661
23.69000 53.549
23.70000 45.542
23.71000 45.375
23.72000 44.201
23.73000 42.534
23.74000 42.582
23.75000 46.469
23.76000 33.456
23.77000 50.555
23.78000 36.673
23.79000 37.503
23.80000 39.452
23.81000 48.750
23.82000 37.503
23.83000 46.473
23.84000 37.524
23.85000 40.600
23.86000 39.293
23.87000 41.335
23.88000 50.394
23.89000 53.327
23.90000 44.754
23.91000 36.524
23.92000 30.446
23.93000 41.659
23.94000 41.589
23.95000 34.400
23.96000 32.363
23.97000 32.455
23.98000 32.431
23.99000 40.591
24.00000 37.183
24.01000 41.462
24.02000 33.633
24.03000 38.402
24.04000 37.506
24.05000 36.374
24.06000 36.334
24.07000 32.237
24.08000 37.472
24.09000 27.278
24.10000 39.348
24.11000 55.357
24.12000 39.542
24.13000 35.148
24.14000 34.574
24.15000 37.270
24.16000 45.422
24.17000 34.393
24.18000 29.250
24.19000 37.519
24.20000 34.459
24.21000 24.183
24.22000 31.414
24.23000 42.273
24.24000 21.302
24.25000 44.861
24.26000 34.411
24.27000 29.201
24.28000 44.660
24.29000 35.225
24.30000 27.461
24.31000 31.261
24.32000 33.353
24.33000 35.333
24.34000 27.107
24.35000 30.116
24.36000 42.359
24.37000 32.369
24.38000 26.348
24.39000 23.217
24.40000 34.375
24.41000 38.426
24.42000 32.374
24.43000 24.248
24.44000 32.089
24.45000 33.383
24.46000 35.550
24.47000 38.538
24.48000 28.534
24.49000 29.455
24.50000 22.359
24.51000 27.159
24.52000 19.318
24.53000 32.330
24.54000 37.385
24.55000 27.225
24.56000 33.542
24.57000 32.542
24.58000 24.415
24.59000 27.278
24.60000 23.281
24.61000 23.269
24.62000 27.159
24.63000 23.025
24.64000 25.315
24.65000 24.364
24.66000 29.217
24.67000 28.461
24.68000 21.256
24.69000 35.442
24.70000 23.082
24.71000 32.415
24.72000 19.936
24.73000 25.232
24.74000 23.369
24.75000 32.442
24.76000 27.211
24.77000 21.377
24.78000 25.132
24.79000 36.393
24.80000 29.378
24.81000 18.086
24.82000 29.396
24.83000 32.519
24.84000 25.280
24.85000 27.297
24.86000 24.437
24.87000 19.975
24.88000 26.210
24.89000 23.128
24.90000 33.245
24.91000 21.284
24.92000 27.163
24.93000 30.259
24.94000 22.264
24.95000 16.138
24.96000 23.296
24.97000 20.366
24.98000 37.339
24.99000 14.285
25.00000 22.149
25.01000 25.078
25.02000 20.400
25.03000 20.183
25.04000 18.321
25.05000 32.411
25.06000 24.232
25.07000 23.266
25.08000 25.506
25.09000 27.415
25.10000 24.284
25.11000 24.288
25.12000 24.313
25.13000 20.248
25.14000 33.403
25.15000 25.271
25.16000 26.354
25.17000 26.282
25.18000 13.000
25.19000 19.295
25.20000 25.182
25.21000 29.286
25.22000 14.030
25.23000 29.246
25.24000 23.266
25.25000 23.389
25.26000 18.195
25.27000 20.498
25.28000 22.207
25.29000 22.240
25.30000 14.153
25.31000 30.477
25.32000 19.062
25.33000 24.400
25.34000 19.197
25.35000 24.168
25.36000 24.275
25.37000 20.183
25.38000 26.152
25.39000 22.115
25.40000 23.406
25.41000 11.090
25.42000 17.194
25.43000 20.266
25.44000 27.360
25.45000 21.076
25.46000 30.316
25.47000 26.433
25.48000 24.280
25.49000 24.290
25.50000 19.215
25.51000 23.282
25.52000 22.111
25.53000 23.266
25.54000 18.337
25.55000 20.270
25.56000 19.447
25.57000 17.189
25.58000 15.974
25.59000 20.140
25.60000 17.267
25.61000 22.279
25.62000 22.292
25.63000 22.338
25.64000 19.314
25.65000 23.355
25.66000 22.180
25.67000 14.314
25.68000 22.237
25.69000 19.314
25.70000 11.137
25.71000 19.325
25.72000 15.273
25.73000 14.180
25.74000 16.293
25.75000 27.362
25.76000 19.298
25.77000 17.237
25.78000 18.130
25.79000 23.316
25.80000 25.365
25.81000 18.132
25.82000 21.266
25.83000 18.278
25.84000 18.270
25.85000 20.177
25.86000 15.265
25.87000 15.016
25.88000 19.204
25.89000 26.115
25.90000 21.279
25.91000 20.336
25.92000 18.219
25.93000 13.260
25.94000 15.143
25.95000 19.319
25.96000 11.128
25.97000 16.329
25.98000 19.278
25.99000 18.288
26.00000 20.161
26.01000 18.356
26.02000 19.243
26.03000 24.430
26.04000 23.454
26.05000 16.281
26.06000 20.097
26.07000 20.232
26.08000 12.214
26.09000 20.247
26.10000 20.268
26.11000 18.260
26.12000 19.172
26.13000 15.126
26.14000 15.061
26.15000 10.228
26.16000 22.240
26.17000 15.233
26.18000 5.037
26.19000 15.197
26.20000 24.290
26.21000 13.103
26.22000 21.393
26.23000 18.246
26.24000 13.189
26.25000 20.139
26.26000 18.331
26.27000 18.164
26.28000 15.221
26.29000 17.905
26.30000 13.105
26.31000 15.112
26.32000 16.175
26.33000 12.040
26.34000 19.195
26.35000 9.076
26.36000 11.161
26.37000 17.357
26.38000 12.065
26.39000 17.124
26.40000 21.081
26.41000 12.174
26.42000 16.078
26.43000 17.257
26.44000 14.087
26.45000 15.295
26.46000 17.198
26.47000 18.159
26.48000 18.404
26.49000 19.135
26.50000 17.205
26.51000 20.218
26.52000 15.207
26.53000 11.099
26.54000 16.165
26.55000 12.126
26.56000 10.097
26.57000 14.218
26.58000 13.155
26.59000 18.234
26.60000 17.221
26.61000 11.144
26.62000 14.112
26.63000 14.346
26.64000 13.401
26.65000 13.184
26.66000 18.310
26.67000 16.327
26.68000 18.207
26.69000 12.031
26.70000 18.200
26.71000 20.150
26.72000 14.297
26.73000 14.253
26.74000 20.313
26.75000 13.150
26.76000 16.141
26.77000 14.173
26.78000 15.241
26.79000 18.214
26.80000 17.176
26.81000 18.184
26.82000 17.170
26.83000 16.256
26.84000 9.144
26.85000 10.297
26.86000 15.133
26.87000 17.339
26.88000 16.155
26.89000 17.124
26.90000 16.197
26.91000 16.102
26.92000 16.290
26.93000 18.462
26.94000 15.156
26.95000 15.041
26.96000 10.138
26.97000 9.113
26.98000 15.120
26.99000 13.086
27.00000 9.224
27.01000 15.132
27.02000 15.147
27.03000 12.157
27.04000 12.089
27.05000 22.265
27.06000 13.188
27.07000 20.987
27.08000 7.162
27.09000 10.015
27.10000 15.225
27.11000 12.085
27.12000 12.114
27.13000 13.194
27.14000 9.078
27.15000 16.039
27.16000 17.382
27.17000 12.244
27.18000 17.167
27.19000 9.083
27.20000 18.114
27.21000 14.035
27.22000 16.334
27.23000 17.158
27.24000 22.224
27.25000 16.178
27.26000 15.176
27.27000 12.168
27.28000 16.214
27.29000 17.080
27.30000 14.298
27.31000 19.282
27.32000 17.451
27.33000 15.172
27.34000 16.238
27.35000 13.231
27.36000 8.017
27.37000 10.166
27.38000 10.180
27.39000 17.165
27.40000 19.312
27.41000 14.286
27.42000 14.062
27.43000 9.171
27.44000 10.011
27.45000 8.010
27.46000 17.382
27.47000 11.269
27.48000 9.994
27.49000 8.134
27.50000 13.097
27.51000 17.381
27.52000 11.043
27.53000 12.004
27.54000 13.102
27.55000 10.095
27.56000 7.117
27.57000 10.193
27.58000 18.189
27.59000 12.213
27.60000 6.015
27.61000 17.522
27.62000 13.274
27.63000 16.200
27.64000 14.203
27.65000 11.209
27.66000 13.249
27.67000 14.150
27.68000 12.048
27.69000 11.152
27.70000 21.207
27.71000 15.097
27.72000 11.092
27.73000 10.217
27.74000 9.095
27.75000 16.236
27.76000 10.111
27.77000 4.090
27.78000 7.086
27.79000 12.248
27.80000 13.236
27.81000 8.104
27.82000 18.397
27.83000 16.335
27.84000 13.030
27.85000 10.179
27.86000 22.247
27.87000 10.105
27.88000 10.136
27.89000 13.195
27.90000 10.123
27.91000 13.131
27.92000 13.032
27.93000 12.263
27.94000 7.024
27.95000 8.075
27.96000 16.461
27.97000 15.229
27.98000 17.135
27.99000 13.124
28.00000 13.109
28.01000 8.082
28.02000 18.260
28.03000 14.190
28.04000 18.203
28.05000 14.069
28.06000 12.111
28.07000 14.115
28.08000 16.213
28.09000 14.094
28.10000 19.213
28.11000 14.247
28.12000 14.085
28.13000 13.128
28.14000 9.121
28.15000 9.169
28.16000 12.284
28.17000 9.014
28.18000 8.092
28.19000 7.000
28.20000 12.289
28.21000 12.135
28.22000 7.020
28.23000 10.062
28.24000 17.193
28.25000 14.079
28.26000 11.043
28.27000 18.181
28.28000 10.108
28.29000 14.187
28.30000 5.988
28.31000 13.172
28.32000 11.100
28.33000 11.210
28.34000 10.207
28.35000 13.268
28.36000 10.020
28.37000 10.973
28.38000 7.976
28.39000 12.133
28.40000 11.114
28.41000 13.262
28.42000 11.267
28.43000 10.111
28.44000 3.008
28.45000 10.064
28.46000 8.147
28.47000 16.129
28.48000 14.211
28.49000 5.115
28.50000 8.160
28.51000 13.122
28.52000 15.193
28.53000 9.134
28.54000 9.012
28.55000 14.158
28.56000 6.988
28.57000 12.154
28.58000 10.099
28.59000 10.101
28.60000 11.119
28.61000 15.136
28.62000 15.296
28.63000 10.186
28.64000 11.163
28.65000 7.041
28.66000 8.120
28.67000 9.114
28.68000 12.187
28.69000 12.991
28.70000 14.179
28.71000 11.124
28.72000 8.070
28.73000 15.189
28.74000 15.074
28.75000 13.307
28.76000 8.147
28.77000 18.246
28.78000 11.092
28.79000 10.135
28.80000 12.060
28.81000 6.082
28.82000 13.237
28.83000 14.336
28.84000 10.122
28.85000 12.085
28.86000 13.223
28.87000 15.091
28.88000 9.302
28.89000 10.074
28.90000 8.027
28.91000 14.271
28.92000 17.248
28.93000 10.087
28.94000 10.179
28.95000 10.195
28.96000 11.140
28.97000 9.212
28.98000 9.152
28.99000 10.145
29.00000 8.254
29.01000 12.065
29.02000 13.195
29.03000 15.097
29.04000 6.113
29.05000 11.043
29.06000 14.143
29.07000 12.034
29.08000 11.191
29.09000 15.199
29.10000 9.982
29.11000 11.089
29.12000 12.115
29.13000 6.084
29.14000 12.246
29.15000 11.158
29.16000 13.231
29.17000 15.269
29.18000 12.131
29.19000 8.078
29.20000 12.114
29.21000 9.093
29.22000 12.171
29.23000 10.092
29.24000 15.174
29.25000 16.158
29.26000 12.095
29.27000 12.137
29.28000 6.117
29.29000 8.115
29.30000 4.054
29.31000 15.194
29.32000 19.349
29.33000 8.967
29.34000 10.161
29.35000 13.229
29.36000 14.270
29.37000 14.156
29.38000 12.207
29.39000 11.189
29.40000 10.102
29.41000 8.065
29.42000 14.119
29.43000 11.276
29.44000 12.207
29.45000 8.040
29.46000 11.245
29.47000 15.121
29.48000 15.292
29.49000 16.230
29.50000 6.044
29.51000 8.017
29.52000 13.328
29.53000 13.129
29.54000 9.100
29.55000 7.012
29.56000 10.282
29.57000 5.086
29.58000 6.965
29.59000 6.082
29.60000 5.955
29.61000 12.341
29.62000 10.072
29.63000 13.163
29.64000 17.270
29.65000 7.041
29.66000 10.037
29.67000 4.090
29.68000 13.235
29.69000 8.078
29.70000 8.306
29.71000 5.016
29.72000 9.119
29.73000 11.286
29.74000 3.083
29.75000 10.193
29.76000 4.086
29.77000 15.202
29.78000 11.183
29.79000 12.142
29.80000 7.157
29.81000 8.113
29.82000 5.033
29.83000 3.098
29.84000 16.319
29.85000 12.136
29.86000 9.143
29.87000 10.145
29.88000 6.105
29.89000 9.983
29.90000 7.070
29.91000 12.388
29.92000 8.081
29.93000 9.188
29.94000 13.112
29.95000 7.067
29.96000 7.103
29.97000 4.033
29.98000 14.210
29.99000 7.092
30.00000 8.032
30.01000 11.141
30.02000 13.272
30.03000 6.153
30.04000 15.204
30.05000 7.076
30.06000 6.117
30.07000 6.018
30.08000 8.075
30.09000 14.101
30.10000 10.042
30.11000 16.386
30.12000 12.087
30.13000 7.126
30.14000 9.085
30.15000 6.140
30.16000 5.996
30.17000 10.046
30.18000 9.042
30.19000 9.029
30.20000 12.178
30.21000 11.119
30.22000 9.132
30.23000 7.225
30.24000 11.236
30.25000 11.114
30.26000 10.173
30.27000 14.241
30.28000 6.137
30.29000 7.165
30.30000 5.061
30.31000 10.123
30.32000 8.052
30.33000 9.256
30.34000 7.151
30.35000 8.161
30.36000 8.101
30.37000 13.224
30.38000 8.114
30.39000 8.118
30.40000 11.182
30.41000 8.149
30.42000 7.081
30.43000 4.007
30.44000 9.030
30.45000 6.111
30.46000 8.252
30.47000 11.208
30.48000 18.069
30.49000 8.979
30.50000 9.153
30.51000 8.122
30.52000 10.157
30.53000 10.110
30.54000 14.328
30.55000 8.199
30.56000 6.007
30.57000 8.172
30.58000 4.138
30.59000 15.220
30.60000 7.165
30.61000 6.129
30.62000 7.037
30.63000 5.009
30.64000 11.109
30.65000 13.338
30.66000 9.131
30.67000 5.099
30.68000 5.029
30.69000 12.175
30.70000 11.352
30.71000 11.265
30.72000 11.123
30.73000 4.020
30.74000 9.083
30.75000 7.044
30.76000 13.110
30.77000 9.243
30.78000 7.175
30.79000 6.173
30.80000 4.072
30.81000 13.298
30.82000 8.093
30.83000 9.080
30.84000 10.110
30.85000 11.285
30.86000 8.182
30.87000 8.059
30.88000 6.100
30.89000 6.983
30.90000 5.076
30.91000 11.124
30.92000 12.189
30.93000 6.000
30.94000 7.048
30.95000 9.081
30.96000 9.123
30.97000 8.120
30.98000 6.168
30.99000 3.956
31.00000 11.144
31.01000 14.171
31.02000 8.988
31.03000 9.081
31.04000 14.230
31.05000 7.211
31.06000 9.179
31.07000 11.063
31.08000 8.137
31.09000 6.072
31.10000 10.201
31.11000 9.143
31.12000 10.977
31.13000 9.090
31.14000 6.079
31.15000 9.110
31.16000 8.067
31.17000 10.284
31.18000 9.052
31.19000 10.124
31.20000 6.035
31.21000 8.113
31.22000 10.128
31.23000 13.317
31.24000 6.048
31.25000 5.029
31.26000 12.215
31.27000 10.076
31.28000 10.090
31.29000 9.120
31.30000 10.244
31.31000 11.255
31.32000 7.125
31.33000 11.197
31.34000 4.012
31.35000 8.955
31.36000 13.139
31.37000 12.210
31.38000 4.985
31.39000 6.138
31.40000 8.248
31.41000 8.216
31.42000 9.125
31.43000 12.319
31.44000 9.048
31.45000 6.052
31.46000 6.085
31.47000 14.360
31.48000 2.015
31.49000 14.158
31.50000 9.161
31.51000 5.976
31.52000 8.124
31.53000 10.192
31.54000 6.068
31.55000 13.075
31.56000 11.240
31.57000 6.057
31.58000 15.055
31.59000 6.113
31.60000 8.084
31.61000 6.042
31.62000 10.264
31.63000 7.961
31.64000 5.161
31.65000 8.232
31.66000 7.082
31.67000 9.127
31.68000 10.039
31.69000 10.958
31.70000 9.013
31.71000 5.025
31.72000 11.048
31.73000 11.206
31.74000 6.113
31.75000 9.091
31.76000 11.065
31.77000 10.170
31.78000 8.113
31.79000 2.999
31.80000 8.083
31.81000 1.967
31.82000 7.132
31.83000 8.139
31.84000 7.096
31.85000 9.064
31.86000 5.005
31.87000 6.989
31.88000 8.166
31.89000 12.104
31.90000 9.094
31.91000 13.125
31.92000 6.999
31.93000 9.146
31.94000 12.097
31.95000 9.090
31.96000 5.032
31.97000 7.087
31.98000 8.041
31.99000 5.030
32.00000 6.045
32.01000 11.251
32.02000 0.000
32.03000 14.152
32.04000 7.188
32.05000 7.167
32.06000 5.941
32.07000 7.147
32.08000 10.241
32.09000 12.124
32.10000 8.201
32.11000 4.119
32.12000 3.989
32.13000 11.074
32.14000 10.065
32.15000 7.034
32.16000 9.236
32.17000 3.034
32.18000 3.031
32.19000 5.089
32.20000 7.062
32.21000 6.009
32.22000 7.039
32.23000 7.206
32.24000 9.143
32.25000 9.251
32.26000 8.179
32.27000 4.042
32.28000 6.170
32.29000 7.054
32.30000 8.011
32.31000 4.117
32.32000 12.188
32.33000 8.004
32.34000 3.037
32.35000 6.027
32.36000 9.024
32.37000 9.140
32.38000 4.102
32.39000 8.035
32.40000 9.169
32.41000 10.106
32.42000 5.127
32.43000 8.111
32.44000 10.280
32.45000 8.109
32.46000 10.888
32.47000 9.180
32.48000 9.108
32.49000 4.001
32.50000 7.112
32.51000 3.991
32.52000 13.270
32.53000 5.045
32.54000 4.995
32.55000 14.172
32.56000 11.089
32.57000 10.121
32.58000 11.112
32.59000 4.099
32.60000 9.121
32.61000 14.092
32.62000 5.054
32.63000 6.013
32.64000 8.148
32.65000 1.007
32.66000 9.175
32.67000 6.114
32.68000 9.094
32.69000 8.151
32.70000 8.086
32.71000 12.156
32.72000 9.123
32.73000 5.118
32.74000 6.075
32.75000 6.073
32.76000 4.050
32.77000 14.270
32.78000 9.163
32.79000 13.210
32.80000 10.045
32.81000 3.023
32.82000 9.102
32.83000 5.012
32.84000 8.133
32.85000 5.051
32.86000 4.011
32.87000 3.003
32.88000 8.038
32.89000 7.055
32.90000 8.189
32.91000 7.079
32.92000 3.132
32.93000 4.036
32.94000 5.075
32.95000 9.962
32.96000 7.135
32.97000 5.161
32.98000 6.135
32.99000 8.310
33.00000 12.045
33.01000 13.084
33.02000 7.095
33.03000 8.130
33.04000 6.207
33.05000 3.967
33.06000 8.994
33.07000 5.010
33.08000 9.108
33.09000 8.051
33.10000 8.087
33.11000 10.218
33.12000 8.208
33.13000 6.167
33.14000 9.076
33.15000 8.270
33.16000 7.155
33.17000 5.002
33.18000 12.173
33.19000 4.048
33.20000 7.080
33.21000 9.055
33.22000 10.124
33.23000 12.167
33.24000 6.012
33.25000 6.024
33.26000 7.110
33.27000 7.111
33.28000 8.116
33.29000 8.081
33.30000 9.151
33.31000 10.113
33.32000 15.154
33.33000 7.969
33.34000 5.145
33.35000 16.328
33.36000 8.043
33.37000 7.239
33.38000 7.074
33.39000 6.128
33.40000 4.060
33.41000 5.076
33.42000 6.117
33.43000 5.048
33.44000 5.028
33.45000 1.977
33.46000 6.034
33.47000 10.249
33.48000 7.090
33.49000 9.081
33.50000 7.131
33.51000 6.000
33.52000 7.116
33.53000 4.050
33.54000 4.073
33.55000 10.164
33.56000 4.983
33.57000 4.077
33.58000 7.052
33.59000 5.219
33.60000 11.072
33.61000 5.087
33.62000 8.080
33.63000 7.216
33.64000 3.026
33.65000 6.071
33.66000 7.024
33.67000 4.959
33.68000 7.164
33.69000 10.171
33.70000 8.136
33.71000 13.184
33.72000 11.130
33.73000 8.053
33.74000 5.053
33.75000 5.055
33.76000 7.086
33.77000 4.045
33.78000 9.108
33.79000 9.112
33.80000 8.128
33.81000 11.038
33.82000 7.132
33.83000 6.962
33.84000 5.011
33.85000 6.223
33.86000 6.062
33.87000 5.036
33.88000 8.116
33.89000 7.088
33.90000 3.015
33.91000 8.031
33.92000 9.193
33.93000 6.062
33.94000 8.077
33.95000 4.050
33.96000 5.091
33.97000 5.048
33.98000 4.067
33.99000 4.023
34.00000 5.123
34.01000 3.053
34.02000 4.076
34.03000 7.042
34.04000 9.121
34.05000 3.106
34.06000 10.116
34.07000 6.095
34.08000 6.053
34.09000 7.184
34.10000 12.054
34.11000 5.021
34.12000 7.128
34.13000 9.068
34.14000 1.000
34.15000 6.087
34.16000 6.118
34.17000 3.002
34.18000 12.229
34.19000 1.032
34.20000 4.061
34.21000 11.100
34.22000 8.138
34.23000 6.121
34.24000 6.110
34.25000 5.058
34.26000 3.068
34.27000 3.068
34.28000 7.058
34.29000 4.965
34.30000 10.226
34.31000 4.094
34.32000 11.124
34.33000 5.023
34.34000 2.010
34.35000 7.133
34.36000 9.067
34.37000 3.042
34.38000 1.964
34.39000 1.031
34.40000 9.131
34.41000 8.006
34.42000 10.109
34.43000 12.223
34.44000 4.017
34.45000 7.068
34.46000 9.213
34.47000 9.012
34.48000 3.018
34.49000 7.146
34.50000 12.044
34.51000 8.046
34.52000 4.071
34.53000 6.028
34.54000 5.119
34.55000 6.084
34.56000 2.970
34.57000 5.055
34.58000 5.149
34.59000 10.024
34.60000 8.067
34.61000 6.066
34.62000 5.082
34.63000 3.036
34.64000 3.018
34.65000 10.244
34.66000 8.115
34.67000 5.027
34.68000 12.183
34.69000 5.030
34.70000 8.038
34.71000 7.984
34.72000 6.054
34.73000 7.009
34.74000 3.980
34.75000 9.113
34.76000 7.144
34.77000 8.093
34.78000 9.046
34.79000 8.073
34.80000 6.164
34.81000 6.099
34.82000 11.144
34.83000 9.021
34.84000 9.147
34.85000 3.964
34.86000 5.064
34.87000 7.031
34.88000 6.017
34.89000 7.130
34.90000 3.016
34.91000 1.063
34.92000 4.039
34.93000 7.090
34.94000 9.930
34.95000 6.119
34.96000 9.125
34.97000 8.115
34.98000 5.003
34.99000 2.979
35.00000 8.168
35.01000 5.105
35.02000 3.056
35.03000 8.204
35.04000 4.134
35.05000 5.139
35.06000 5.094
35.07000 9.037
35.08000 5.011
35.09000 5.012
35.10000 4.095
35.11000 6.077
35.12000 6.136
35.13000 2.092
35.14000 9.257
35.15000 5.108
35.16000 6.075
35.17000 8.115
35.18000 13.318
35.19000 5.108
35.20000 8.278
35.21000 6.120
35.22000 4.092
35.23000 4.040
35.24000 4.049
35.25000 8.018
35.26000 2.960
35.27000 8.019
35.28000 7.210
35.29000 7.048
35.30000 7.965
35.31000 6.092
35.32000 11.202
35.33000 10.145
35.34000 8.176
35.35000 4.102
35.36000 7.076
35.37000 7.109
35.38000 6.006
35.39000 4.146
35.40000 6.208
35.41000 6.099
35.42000 5.001
35.43000 7.055
35.44000 7.082
35.45000 5.086
35.46000 9.049
35.47000 6.995
35.48000 4.092
35.49000 4.104
35.50000 5.093
35.51000 7.963
35.52000 10.164
35.53000 9.023
35.54000 11.131
35.55000 6.066
35.56000 9.101
35.57000 7.042
35.58000 9.140
35.59000 4.126
35.60000 6.043
35.61000 7.198
35.62000 7.068
35.63000 7.009
35.64000 5.098
35.65000 5.043
35.66000 10.214
35.67000 10.194
35.68000 8.053
35.69000 5.066
35.70000 3.966
35.71000 4.064
35.72000 5.067
35.73000 5.032
35.74000 4.084
35.75000 5.095
35.76000 3.066
35.77000 3.044
35.78000 10.017
35.79000 7.119
35.80000 7.106
35.81000 10.141
35.82000 6.120
35.83000 10.058
35.84000 5.035
35.85000 6.993
35.86000 7.113
35.87000 7.071
35.88000 6.171
35.89000 4.059
35.90000 6.013
35.91000 7.093
35.92000 4.090
35.93000 4.055
35.94000 5.117
35.95000 9.085
35.96000 9.221
35.97000 12.133
35.98000 4.101
35.99000 4.007
36.00000 3.086
36.01000 7.103
36.02000 6.111
36.03000 3.043
36.04000 6.171
36.05000 9.019
36.06000 6.031
36.07000 4.007
36.08000 8.126
36.09000 6.128
36.10000 2.107
36.11000 11.108
36.12000 7.076
36.13000 3.051
36.14000 13.101
36.15000 3.098
36.16000 4.991
36.17000 3.019
36.18000 9.101
36.19000 5.023
36.20000 6.066
36.21000 8.124
36.22000 4.036
36.23000 4.964
36.24000 5.078
36.25000 7.087
36.26000 9.161
36.27000 11.051
36.28000 8.072
36.29000 3.014
36.30000 9.099
36.31000 6.127
36.32000 5.945
36.33000 13.175
36.34000 5.121
36.35000 5.028
36.36000 6.019
36.37000 4.008
36.38000 7.181
36.39000 6.042
36.40000 8.065
36.41000 1.992
36.42000 3.008
36.43000 2.000
36.44000 9.100
36.45000 7.139
36.46000 7.035
36.47000 7.011
36.48000 6.032
36.49000 5.108
36.50000 7.220
36.51000 9.102
36.52000 5.034
36.53000 11.045
36.54000 4.033
36.55000 5.065
36.56000 5.989
36.57000 12.057
36.58000 8.044
36.59000 6.139
36.60000 10.116
36.61000 4.056
36.62000 7.054
36.63000 7.137
36.64000 3.099
36.65000 5.007
36.66000 4.990
36.67000 8.154
36.68000 5.106
36.69000 7.061
36.70000 10.148
36.71000 10.020
36.72000 8.147
36.73000 3.014
36.74000 6.003
36.75000 8.164
36.76000 5.049
36.77000 6.203
36.78000 7.061
36.79000 4.071
36.80000 6.057
36.81000 6.989
36.82000 9.201
36.83000 8.137
36.84000 6.081
36.85000 3.038
36.86000 9.132
36.87000 9.062
36.88000 3.974
36.89000 2.026
36.90000 3.027
36.91000 6.995
36.92000 3.044
36.93000 4.012
36.94000 6.099
36.95000 6.022
36.96000 7.099
36.97000 3.032
36.98000 4.131
36.99000 7.093
37.00000 6.029
37.01000 4.034
37.02000 3.023
37.03000 6.097
37.04000 6.047
37.05000 9.062
37.06000 2.997
37.07000 5.049
37.08000 3.099
37.09000 6.000
37.10000 7.047
37.11000 4.028
37.12000 3.055
37.13000 9.155
37.14000 2.075
37.15000 6.012
37.16000 8.233
37.17000 1.983
37.18000 5.134
37.19000 3.042
37.20000 10.166
37.21000 11.180
37.22000 3.992
37.23000 4.074
37.24000 4.946
37.25000 7.085
37.26000 8.100
37.27000 4.123
37.28000 6.097
37.29000 5.988
37.30000 3.085
37.31000 9.092
37.32000 2.088
37.33000 7.144
37.34000 4.006
37.35000 3.978
37.36000 8.120
37.37000 7.035
37.38000 6.030
37.39000 11.163
37.40000 4.027
37.41000 6.082
37.42000 8.154
37.43000 1.999
37.44000 1.001
37.45000 4.031
37.46000 9.063
37.47000 5.074
37.48000 7.062
37.49000 4.055
37.50000 5.006
37.51000 8.081
37.52000 4.087
37.53000 1.058
37.54000 2.998
37.55000 5.103
37.56000 10.050
37.57000 4.983
37.58000 2.005
37.59000 5.024
37.60000 3.053
37.61000 6.113
37.62000 6.047
37.63000 7.133
37.64000 5.065
37.65000 6.042
37.66000 9.014
37.67000 4.105
37.68000 5.039
37.69000 7.054
37.70000 5.072
37.71000 8.042
37.72000 0.000
37.73000 8.128
37.74000 6.049
37.75000 9.085
37.76000 4.044
37.77000 7.000
37.78000 6.084
37.79000 5.111
37.80000 1.006
37.81000 9.152
37.82000 4.129
37.83000 5.110
37.84000 3.040
37.85000 5.985
37.86000 5.018
37.87000 4.131
37.88000 4.049
37.89000 7.035
37.90000 5.115
37.91000 4.041
37.92000 6.052
37.93000 2.017
37.94000 5.173
37.95000 8.217
37.96000 7.099
37.97000 5.949
37.98000 1.043
37.99000 3.981
38.00000 7.166
38.01000 5.043
38.02000 3.056
38.03000 5.105
38.04000 6.165
38.05000 5.050
38.06000 6.988
38.07000 1.983
38.08000 7.059
38.09000 6.160
38.10000 5.057
38.11000 3.051
38.12000 3.065
38.13000 2.006
38.14000 5.142
38.15000 8.132
38.16000 6.045
38.17000 5.083
38.18000 2.026
38.19000 8.101
38.20000 4.022
38.21000 4.063
38.22000 9.079
38.23000 4.146
38.24000 10.091
38.25000 7.091
38.26000 3.021
38.27000 9.074
38.28000 5.028
38.29000 4.051
38.30000 8.051
38.31000 10.991
38.32000 5.071
38.33000 4.023
38.34000 3.077
38.35000 2.010
38.36000 3.086
38.37000 6.080
38.38000 3.978
38.39000 6.107
38.40000 3.043
38.41000 2.075
38.42000 8.212
38.43000 5.088
38.44000 6.143
38.45000 3.037
38.46000 8.150
38.47000 6.107
38.48000 4.097
38.49000 5.040
38.50000 1.025
38.51000 7.081
38.52000 5.059
38.53000 4.010
38.54000 7.121
38.55000 4.046
38.56000 2.000
38.57000 10.120
38.58000 5.989
38.59000 6.025
38.60000 2.052
38.61000 7.047
38.62000 4.006
38.63000 4.054
38.64000 4.041
38.65000 3.008
38.66000 3.022
38.67000 3.994
38.68000 4.043
38.69000 6.018
38.70000 2.952
38.71000 6.001
38.72000 7.039
38.73000 4.058
38.74000 6.989
38.75000 3.041
38.76000 10.107
38.77000 0.993
38.78000 5.094
38.79000 9.294
38.80000 3.036
38.81000 7.101
38.82000 3.109
38.83000 6.112
38.84000 3.122
38.85000 5.023
38.86000 2.012
38.87000 7.097
38.88000 7.055
38.89000 5.985
38.90000 5.093
38.91000 7.056
38.92000 5.100
38.93000 3.063
38.94000 4.044
38.95000 4.989
38.96000 5.042
38.97000 3.065
38.98000 2.024
38.99000 5.063
39.00000 3.045
39.01000 6.013
39.02000 3.062
39.03000 4.059
39.04000 3.011
39.05000 2.977
39.06000 8.082
39.07000 4.003
39.08000 6.079
39.09000 6.114
39.10000 2.005
39.11000 3.072
39.12000 4.034
39.13000 5.137
39.14000 2.991
39.15000 8.075
39.16000 8.097
39.17000 2.046
39.18000 1.951
39.19000 10.096
39.20000 6.168
39.21000 4.039
39.22000 2.050
39.23000 9.103
39.24000 2.010
39.25000 4.048
39.26000 3.009
39.27000 3.979
39.28000 4.005
39.29000 3.004
39.30000 8.224
39.31000 5.114
39.32000 6.117
39.33000 4.047
39.34000 8.062
39.35000 7.128
39.36000 4.166
39.37000 4.957
39.38000 6.064
39.39000 3.044
39.40000 4.043
39.41000 0.998
39.42000 6.167
39.43000 4.036
39.44000 6.001
39.45000 3.051
39.46000 2.089
39.47000 4.061
39.48000 4.041
39.49000 7.071
39.50000 4.034
39.51000 5.103
39.52000 5.086
39.53000 2.079
39.54000 4.064
39.55000 4.032
39.56000 5.038
39.57000 5.953
39.58000 5.094
39.59000 7.042
39.60000 6.021
39.61000 7.260
39.62000 8.225
39.63000 7.068
39.64000 4.066
39.65000 7.043
39.66000 3.987
39.67000 5.995
39.68000 7.044
39.69000 6.040
39.70000 2.966
39.71000 9.073
39.72000 5.064
39.73000 4.041
39.74000 1.986
39.75000 1.980
39.76000 9.124
39.77000 5.072
39.78000 4.026
39.79000 1.968
39.80000 5.110
39.81000 1.006
39.82000 6.083
39.83000 8.095
39.84000 3.071
39.85000 9.028
39.86000 4.047
39.87000 3.027
39.88000 8.042
39.89000 1.019
39.90000 7.096
39.91000 4.042
39.92000 4.067
39.93000 6.034
39.94000 5.046
39.95000 4.125
39.96000 11.134
39.97000 0.000
39.98000 8.222
39.99000 6.155
40.00000 5.099
40.01000 7.017
40.02000 3.051
40.03000 6.126
40.04000 5.025
40.05000 6.057
40.06000 6.055
40.07000 7.019
40.08000 1.038
40.09000 5.041
40.10000 4.002
40.11000 4.059
40.12000 0.989
40.13000 5.005
40.14000 3.045
40.15000 4.037
40.16000 5.113
40.17000 3.032
40.18000 2.054
40.19000 2.059
40.20000 5.077
40.21000 4.010
40.22000 6.198
40.23000 5.106
40.24000 5.999
40.25000 5.978
40.26000 1.029
40.27000 3.089
40.28000 5.054
40.29000 4.975
40.30000 5.018
40.31000 6.061
40.32000 6.023
40.33000 5.102
40.34000 5.119
40.35000 8.126
40.36000 4.045
40.37000 4.035
40.38000 6.040
40.39000 2.001
40.40000 0.000
40.41000 5.060
40.42000 5.077
40.43000 2.019
40.44000 1.976
40.45000 8.198
40.46000 3.007
40.47000 2.073
40.48000 3.020
40.49000 3.985
40.50000 1.049
40.51000 4.066
40.52000 6.051
40.53000 1.981
40.54000 4.012
40.55000 4.104
40.56000 6.128
40.57000 3.064
40.58000 2.030
40.59000 3.023
40.60000 7.133
40.61000 8.006
40.62000 8.156
40.63000 6.970
40.64000 3.023
40.65000 5.057
40.66000 5.093
40.67000 1.005
40.68000 3.013
40.69000 1.981
40.70000 2.056
40.71000 5.088
40.72000 7.140
40.73000 9.034
40.74000 5.033
40.75000 7.051
40.76000 6.065
40.77000 6.044
40.78000 4.096
40.79000 2.986
40.80000 5.027
40.81000 6.027
40.82000 5.087
40.83000 3.991
40.84000 1.999
40.85000 4.028
40.86000 5.037
40.87000 2.058
40.88000 2.047
40.89000 4.018
40.90000 2.046
40.91000 2.959
40.92000 3.039
40.93000 5.178
40.94000 4.115
40.95000 4.029
40.96000 4.061
40.97000 4.009
40.98000 2.036
40.99000 5.053
41.00000 3.055
41.01000 5.019
41.02000 5.047
41.03000 3.948
41.04000 2.997
41.05000 7.089
41.06000 1.042
41.07000 4.040
41.08000 6.189
41.09000 3.051
41.10000 3.025
41.11000 1.058
41.12000 6.037
41.13000 5.121
41.14000 2.969
41.15000 2.022
41.16000 8.056
41.17000 4.093
41.18000 3.074
41.19000 8.044
41.20000 10.105
41.21000 7.086
41.22000 5.045
41.23000 5.021
41.24000 8.193
41.25000 7.079
41.26000 6.235
41.27000 4.043
41.28000 3.035
41.29000 5.164
41.30000 4.070
41.31000 2.997
41.32000 7.055
41.33000 5.096
41.34000 6.100
41.35000 4.021
41.36000 5.072
41.37000 7.990
41.38000 7.165
41.39000 1.003
41.40000 4.032
41.41000 6.070
41.42000 2.992
41.43000 5.085
41.44000 0.000
41.45000 1.974
41.46000 4.007
41.47000 0.000
41.48000 2.065
41.49000 3.023
41.50000 6.149
41.51000 8.176
41.52000 6.056
41.53000 3.051
41.54000 9.006
41.55000 5.047
41.56000 2.032
41.57000 6.050
41.58000 9.051
41.59000 4.034
41.60000 6.122
41.61000 4.048
41.62000 6.034
41.63000 6.089
41.64000 3.090
41.65000 3.109
41.66000 3.086
41.67000 4.110
41.68000 6.039
41.69000 8.004
41.70000 6.090
41.71000 4.087
41.72000 6.008
41.73000 5.061
41.74000 10.094
41.75000 4.052
41.76000 3.077
41.77000 3.070
41.78000 2.997
41.79000 7.176
41.80000 3.063
41.81000 2.032
41.82000 4.074
41.83000 3.016
41.84000 7.146
41.85000 6.031
41.86000 6.232
41.87000 6.040
41.88000 2.000
41.89000 0.000
41.90000 3.977
41.91000 5.066
41.92000 7.010
41.93000 0.983
41.94000 1.936
41.95000 7.003
41.96000 3.058
41.97000 8.144
41.98000 8.055
41.99000 7.085
42.00000 3.014
42.01000 7.025
42.02000 2.011
42.03000 13.331
42.04000 5.162
42.05000 5.096
42.06000 4.030
42.07000 6.118
42.08000 2.988
42.09000 3.030
42.10000 1.002
42.11000 4.072
42.12000 3.054
42.13000 0.000
42.14000 5.081
42.15000 6.108
42.16000 5.113
42.17000 4.044
42.18000 6.055
42.19000 3.091
42.20000 7.093
42.21000 1.028
42.22000 4.163
42.23000 1.003
42.24000 6.124
42.25000 8.082
42.26000 2.050
42.27000 6.057
42.28000 4.020
42.29000 6.114
42.30000 2.085
42.31000 7.084
42.32000 6.158
42.33000 4.056
42.34000 7.168
42.35000 1.010
42.36000 0.000
42.37000 3.036
42.38000 2.081
42.39000 3.077
42.40000 4.080
42.41000 4.015
42.42000 2.008
42.43000 4.010
42.44000 4.130
42.45000 5.202
42.46000 4.028
42.47000 3.061
42.48000 5.032
42.49000 3.949
42.50000 6.093
42.51000 3.027
42.52000 3.949
42.53000 0.995
42.54000 2.049
42.55000 4.112
42.56000 7.114
42.57000 1.008
42.58000 1.019
42.59000 4.051
42.60000 2.070
42.61000 3.998
42.62000 3.036
42.63000 2.003
42.64000 3.088
42.65000 4.049
42.66000 5.033
42.67000 2.044
42.68000 3.030
42.69000 2.002
42.70000 5.024
42.71000 4.109
42.72000 1.082
42.73000 3.037
42.74000 5.017
42.75000 1.976
42.76000 0.995
42.77000 9.158
42.78000 3.054
42.79000 2.054
42.80000 6.079
42.81000 5.078
42.82000 5.046
42.83000 6.010
42.84000 5.028
42.85000 1.005
42.86000 3.035
42.87000 3.032
42.88000 3.060
42.89000 4.023
42.90000 6.213
42.91000 1.988
42.92000 8.146
42.93000 3.065
42.94000 3.985
42.95000 3.007
42.96000 3.965
42.97000 3.974
42.98000 3.027
42.99000 5.097
43.00000 3.061
43.01000 4.109
43.02000 2.066
43.03000 5.043
43.04000 5.168
43.05000 2.980
43.06000 4.986
43.07000 0.983
43.08000 3.090
43.09000 2.098
43.10000 1.003
43.11000 4.020
43.12000 6.998
43.13000 5.028
43.14000 5.126
43.15000 5.090
43.16000 0.988
43.17000 5.085
43.18000 5.048
43.19000 3.005
43.20000 7.147
43.21000 2.995
43.22000 7.099
43.23000 6.181
43.24000 2.063
43.25000 7.128
43.26000 4.021
43.27000 5.121
43.28000 2.046
43.29000 3.077
43.30000 3.065
43.31000 4.105
43.32000 5.063
43.33000 3.032
43.34000 1.017
43.35000 5.971
43.36000 4.041
43.37000 2.042
43.38000 4.091
43.39000 6.062
43.40000 4.059
43.41000 3.955
43.42000 0.991
43.43000 2.045
43.44000 7.062
43.45000 4.083
43.46000 1.977
43.47000 1.014
43.48000 3.047
43.49000 5.039
43.50000 0.000
43.51000 6.031
43.52000 5.127
43.53000 1.018
43.54000 1.978
43.55000 2.041
43.56000 6.144
43.57000 7.120
43.58000 4.192
43.59000 3.023
43.60000 2.035
43.61000 4.048
43.62000 6.083
43.63000 3.060
43.64000 4.981
43.65000 3.020
43.66000 4.989
43.67000 4.065
43.68000 3.951
43.69000 3.961
43.70000 1.078
43.71000 4.073
43.72000 0.000
43.73000 4.142
43.74000 2.016
43.75000 3.097
43.76000 3.080
43.77000 3.068
43.78000 4.998
43.79000 8.067
43.80000 1.094
43.81000 4.057
43.82000 2.025
43.83000 3.040
43.84000 4.097
43.85000 4.113
43.86000 8.037
43.87000 0.000
43.88000 3.014
43.89000 3.062
43.90000 2.012
43.91000 2.982
43.92000 4.046
43.93000 3.025
43.94000 1.026
43.95000 5.123
43.96000 7.111
43.97000 3.021
43.98000 5.014
43.99000 2.999
44.00000 6.020
44.01000 3.994
44.02000 6.114
44.03000 3.052
44.04000 4.076
44.05000 6.113
44.06000 3.061
44.07000 4.059
44.08000 6.058
44.09000 3.014
44.10000 0.997
44.11000 6.066
44.12000 2.964
44.13000 3.982
44.14000 3.123
44.15000 5.194
44.16000 5.062
44.17000 0.994
44.18000 3.015
44.19000 9.135
44.20000 3.007
44.21000 2.055
44.22000 1.991
44.23000 2.007
44.24000 3.065
44.25000 3.004
44.26000 3.014
44.27000 0.000
44.28000 0.000
44.29000 6.130
44.30000 3.087
44.31000 3.047
44.32000 3.001
44.33000 3.082
44.34000 2.025
44.35000 3.978
44.36000 2.043
44.37000 5.991
44.38000 1.967
44.39000 3.008
44.40000 5.030
44.41000 2.036
44.42000 5.142
44.43000 5.049
44.44000 3.035
44.45000 5.991
44.46000 5.066
44.47000 2.052
44.48000 8.075
44.49000 4.052
44.50000 4.101
44.51000 3.080
44.52000 3.965
44.53000 1.963
44.54000 5.085
44.55000 3.008
44.56000 3.992
44.57000 4.034
44.58000 5.077
44.59000 0.977
44.60000 2.010
44.61000 0.000
44.62000 2.091
44.63000 3.013
44.64000 5.039
44.65000 1.040
44.66000 5.081
44.67000 3.145
44.68000 1.983
44.69000 3.005
44.70000 3.000
44.71000 1.003
44.72000 3.053
44.73000 4.994
44.74000 3.031
44.75000 3.037
44.76000 2.009
44.77000 3.067
44.78000 1.990
44.79000 2.037
44.80000 2.016
44.81000 0.987
44.82000 0.000
44.83000 7.030
44.84000 3.032
44.85000 2.010
44.86000 6.049
44.87000 4.073
44.88000 5.125
44.89000 2.036
44.90000 5.119
44.91000 6.007
44.92000 3.037
44.93000 2.062
44.94000 0.000
44.95000 3.072
44.96000 2.982
44.97000 1.037
44.98000 2.030
44.99000 2.035
45.00000 3.007
45.01000 3.058
45.02000 4.987
45.03000 2.042
45.04000 3.096
45.05000 3.014
45.06000 3.048
45.07000 5.045
45.08000 2.011
45.09000 2.070
45.10000 5.038
45.11000 4.014
45.12000 2.015
45.13000 3.061
45.14000 5.026
45.15000 3.046
45.16000 4.026
45.17000 6.099
45.18000 7.008
45.19000 2.030
45.20000 3.077
45.21000 1.020
45.22000 4.138
45.23000 2.065
45.24000 2.029
45.25000 1.007
45.26000 0.000
45.27000 0.000
45.28000 3.035
45.29000 3.117
45.30000 7.125
45.31000 6.046
45.32000 5.072
45.33000 3.006
45.34000 4.063
45.35000 2.070
45.36000 3.003
45.37000 7.126
45.38000 5.089
45.39000 2.062
45.40000 2.020
45.41000 4.096
45.42000 6.093
45.43000 4.041
45.44000 1.064
45.45000 3.082
45.46000 4.002
45.47000 4.993
45.48000 6.108
45.49000 5.014
45.50000 3.067
45.51000 2.025
45.52000 6.111
45.53000 5.145
45.54000 2.995
45.55000 1.989
45.56000 3.045
45.57000 0.000
45.58000 3.078
45.59000 3.022
45.60000 0.994
45.61000 5.069
45.62000 3.048
45.63000 2.041
45.64000 1.993
45.65000 2.057
45.66000 5.021
45.67000 3.049
45.68000 0.000
45.69000 3.037
45.70000 1.001
45.71000 1.996
45.72000 1.003
45.73000 4.001
45.74000 3.085
45.75000 0.993
45.76000 5.100
45.77000 2.042
45.78000 2.007
45.79000 5.003
45.80000 10.124
45.81000 0.000
45.82000 4.138
45.83000 8.218
45.84000 3.011
45.85000 4.011
45.86000 5.112
45.87000 1.979
45.88000 4.101
45.89000 1.959
45.90000 4.049
45.91000 3.010
45.92000 4.018
45.93000 2.054
45.94000 3.045
45.95000 3.149
45.96000 4.001
45.97000 5.144
45.98000 4.025
45.99000 6.218
46.00000 3.051
46.01000 0.000
46.02000 3.043
46.03000 3.033
46.04000 3.094
46.05000 0.991
46.06000 4.048
46.07000 4.074
46.08000 6.079
46.09000 0.986
46.10000 2.032
46.11000 1.988
46.12000 4.077
46.13000 3.006
46.14000 0.990
46.15000 3.050
46.16000 3.032
46.17000 2.042
46.18000 4.055
46.19000 1.976
46.20000 2.987
46.21000 2.023
46.22000 2.036
46.23000 4.066
46.24000 2.029
46.25000 2.035
46.26000 2.977
46.27000 2.037
46.28000 1.029
46.29000 3.037
46.30000 7.086
46.31000 2.988
46.32000 4.031
46.33000 4.103
46.34000 2.962
46.35000 1.023
46.36000 2.986
46.37000 4.023
46.38000 2.032
46.39000 4.059
46.40000 5.080
46.41000 6.092
46.42000 4.107
46.43000 2.036
46.44000 1.997
46.45000 3.059
46.46000 3.094
46.47000 8.025
46.48000 2.997
46.49000 3.054
46.50000 3.968
46.51000 2.033
46.52000 4.059
46.53000 1.993
46.54000 1.004
46.55000 3.027
46.56000 0.978
46.57000 4.080
46.58000 2.048
46.59000 3.070
46.60000 5.134
46.61000 2.059
46.62000 1.022
46.63000 3.050
46.64000 3.044
46.65000 4.063
46.66000 2.992
46.67000 4.046
46.68000 0.000
46.69000 1.010
46.70000 4.054
46.71000 1.969
46.72000 6.156
46.73000 5.072
46.74000 0.000
46.75000 3.056
46.76000 3.049
46.77000 4.104
46.78000 5.044
46.79000 6.048
46.80000 4.012
46.81000 0.000
46.82000 4.146
46.83000 0.000
46.84000 2.021
46.85000 5.087
46.86000 2.026
46.87000 3.045
46.88000 2.019
46.89000 2.020
46.90000 5.039
46.91000 2.084
46.92000 3.039
46.93000 2.024
46.94000 4.099
46.95000 2.007
46.96000 0.000
46.97000 6.144
46.98000 4.015
46.99000 5.070
47.00000 3.062
47.01000 3.039
47.02000 2.077
47.03000 4.037
47.04000 0.000
47.05000 2.028
47.06000 0.963
47.07000 2.981
47.08000 2.995
47.09000 0.000
47.10000 4.053
47.11000 4.060
47.12000 3.053
47.13000 2.047
47.14000 5.007
47.15000 0.000
47.16000 1.980
47.17000 4.098
47.18000 3.062
47.19000 1.994
47.20000 3.005
47.21000 0.960
47.22000 2.998
47.23000 6.080
47.24000 3.061
47.25000 5.040
47.26000 0.990
47.27000 1.024
47.28000 4.050
47.29000 3.980
47.30000 4.038
47.31000 3.140
47.32000 7.131
47.33000 5.064
47.34000 5.083
47.35000 3.080
47.36000 3.057
47.37000 0.998
47.38000 4.041
47.39000 1.984
47.40000 3.019
47.41000 1.019
47.42000 2.988
47.43000 5.079
47.44000 2.041
47.45000 4.163
47.46000 3.003
47.47000 1.967
47.48000 5.131
47.49000 5.035
47.50000 3.984
47.51000 6.096
47.52000 6.096
47.53000 1.989
47.54000 1.983
47.55000 4.007
47.56000 0.000
47.57000 1.029
47.58000 2.979
47.59000 3.037
47.60000 3.988
47.61000 2.000
47.62000 2.065
47.63000 1.996
47.64000 3.079
47.65000 1.975
47.66000 3.069
47.67000 4.043
47.68000 3.987
47.69000 4.028
47.70000 2.046
47.71000 2.058
47.72000 2.048
47.73000 6.030
47.74000 1.015
47.75000 0.000
47.76000 4.093
47.77000 1.015
47.78000 4.104
47.79000 5.110
47.80000 4.051
47.81000 4.093
47.82000 1.035
47.83000 3.021
47.84000 2.029
47.85000 7.084
47.86000 5.006
47.87000 2.025
47.88000 4.021
47.89000 0.978
47.90000 2.980
47.91000 0.000
47.92000 3.116
47.93000 4.024
47.94000 4.024
47.95000 7.020
47.96000 4.114
47.97000 4.992
47.98000 6.048
47.99000 1.007
48.00000 3.070
48.01000 3.960
48.02000 2.058
48.03000 6.040
48.04000 2.036
48.05000 3.010
48.06000 1.055
48.07000 1.095
48.08000 3.018
48.09000 2.023
48.10000 1.007
48.11000 3.061
48.12000 5.038
48.13000 2.044
48.14000 5.058
48.15000 1.034
48.16000 2.030
48.17000 5.061
48.18000 0.000
48.19000 3.017
48.20000 2.037
48.21000 1.980
48.22000 3.070
48.23000 3.055
48.24000 3.057
48.25000 3.032
48.26000 2.077
48.27000 2.001
48.28000 1.979
48.29000 4.122
48.30000 3.029
48.31000 2.019
48.32000 1.982
48.33000 0.000
48.34000 4.080
48.35000 1.996
48.36000 1.019
48.37000 2.064
48.38000 4.059
48.39000 6.010
48.40000 1.984
48.41000 0.000
48.42000 3.057
48.43000 2.035
48.44000 0.000
48.45000 3.058
48.46000 6.221
48.47000 4.067
48.48000 1.008
48.49000 3.050
48.50000 4.037
48.51000 5.978
48.52000 4.072
48.53000 2.068
48.54000 2.031
48.55000 3.035
48.56000 5.156
48.57000 3.032
48.58000 0.000
48.59000 3.065
48.60000 5.082
48.61000 3.034
48.62000 3.053
48.63000 1.011
48.64000 2.014
48.65000 1.984
48.66000 1.006
48.67000 2.017
48.68000 2.004
48.69000 4.085
48.70000 2.013
48.71000 5.120
48.72000 3.059
48.73000 0.969
48.74000 1.006
48.75000 2.075
48.76000 3.041
48.77000 6.057
48.78000 3.013
48.79000 7.018
48.80000 3.022
48.81000 7.136
48.82000 2.083
48.83000 3.985
48.84000 4.060
48.85000 5.154
48.86000 4.099
48.87000 2.032
48.88000 4.107
48.89000 4.055
48.90000 3.087
48.91000 4.080
48.92000 2.021
48.93000 2.036
48.94000 3.130
48.95000 1.002
48.96000 4.139
48.97000 0.999
48.98000 2.008
48.99000 2.986
49.00000 3.040
49.01000 2.021
49.02000 4.070
49.03000 5.105
49.04000 4.085
49.05000 5.147
49.06000 6.059
49.07000 3.030
49.08000 3.957
49.09000 5.066
49.10000 0.998
49.11000 3.047
49.12000 2.022
49.13000 2.102
49.14000 2.041
49.15000 0.000
49.16000 5.007
49.17000 1.054
49.18000 0.981
49.19000 1.005
49.20000 4.080
49.21000 3.026
49.22000 2.078
49.23000 1.002
49.24000 1.017
49.25000 0.000
49.26000 4.064
49.27000 1.956
49.28000 2.988
49.29000 1.052
49.30000 1.005
49.31000 1.995
49.32000 3.020
49.33000 4.029
49.34000 2.024
49.35000 2.013
49.36000 6.033
49.37000 5.076
49.38000 2.022
49.39000 1.010
49.40000 0.000
49.41000 5.021
49.42000 2.031
49.43000 2.002
49.44000 4.065
49.45000 1.053
49.46000 4.040
49.47000 2.013
49.48000 0.996
49.49000 0.000
49.50000 2.049
49.51000 5.082
49.52000 4.018
49.53000 2.042
49.54000 2.999
49.55000 2.012
49.56000 5.066
49.57000 6.975
49.58000 3.006
49.59000 5.008
49.60000 5.017
49.61000 2.038
49.62000 1.032
49.63000 2.008
49.64000 0.000
49.65000 2.025
49.66000 2.031
49.67000 0.000
49.68000 3.071
49.69000 4.007
49.70000 2.061
49.71000 3.990
49.72000 3.010
49.73000 2.079
49.74000 5.070
49.75000 2.061
49.76000 2.072
49.77000 2.971
49.78000 2.060
49.79000 0.998
49.80000 2.060
49.81000 0.000
49.82000 4.019
49.83000 4.088
49.84000 3.104
49.85000 3.082
49.86000 5.064
49.87000 0.997
49.88000 6.993
49.89000 3.038
49.90000 2.978
49.91000 3.088
49.92000 4.119
49.93000 6.089
49.94000 4.054
49.95000 3.947
49.96000 2.018
49.97000 1.008
49.98000 5.045
49.99000 1.014
50.00000 3.063
50.01000 1.030
50.02000 3.985
50.03000 2.058
50.04000 2.996
50.05000 2.990
50.06000 3.051
50.07000 1.021
50.08000 2.009
50.09000 4.049
50.10000 0.997
50.11000 4.101
50.12000 3.984
50.13000 0.000
50.14000 5.073
50.15000 0.000
50.16000 2.001
50.17000 5.042
50.18000 5.074
50.19000 4.060
50.20000 2.046
50.21000 5.057
50.22000 9.013
50.23000 3.009
50.24000 4.047
50.25000 1.976
50.26000 1.012
50.27000 1.000
50.28000 4.037
50.29000 1.013
50.30000 0.996
50.31000 2.048
50.32000 3.042
50.33000 5.114
50.34000 0.000
50.35000 2.060
50.36000 3.066
50.37000 0.988
50.38000 3.032
50.39000 4.949
50.40000 2.044
50.41000 2.072
50.42000 2.963
50.43000 6.059
50.44000 6.028
50.45000 3.040
50.46000 2.010
50.47000 3.992
50.48000 3.003
50.49000 3.101
50.50000 1.999
50.51000 0.994
50.52000 2.992
50.53000 0.995
50.54000 2.062
50.55000 3.029
50.56000 4.016
50.57000 3.052
50.58000 1.010
50.59000 3.054
50.60000 0.000
50.61000 3.032
50.62000 4.035
50.63000 0.000
50.64000 1.982
50.65000 1.991
50.66000 2.061
50.67000 2.029
50.68000 3.006
50.69000 5.028
50.70000 0.000
50.71000 5.108
50.72000 2.066
50.73000 2.046
50.74000 0.000
50.75000 0.976
50.76000 4.044
50.77000 2.039
50.78000 3.074
50.79000 3.018
50.80000 5.069
50.81000 4.088
50.82000 0.984
50.83000 2.981
50.84000 2.046
50.85000 1.008
50.86000 3.004
50.87000 2.980
50.88000 4.935
50.89000 0.000
50.90000 5.103
50.91000 3.036
50.92000 3.048
50.93000 3.017
50.94000 4.020
50.95000 7.071
50.96000 6.014
50.97000 4.031
50.98000 5.954
50.99000 5.132
51.00000 7.932
51.01000 4.977
51.02000 2.053
51.03000 5.083
51.04000 2.981
51.05000 2.997
51.06000 4.052
51.07000 0.000
51.08000 7.138
51.09000 1.005
51.10000 5.050
51.11000 2.007
51.12000 5.092
51.13000 2.012
51.14000 2.023
51.15000 1.989
51.16000 4.004
51.17000 3.094
51.18000 1.028
51.19000 2.057
51.20000 1.021
51.21000 2.057
51.22000 5.026
51.23000 1.021
51.24000 3.051
51.25000 6.094
51.26000 3.993
51.27000 2.994
51.28000 3.034
51.29000 4.096
51.30000 2.039
51.31000 3.972
51.32000 2.995
51.33000 1.036
51.34000 5.100
51.35000 2.036
51.36000 2.986
51.37000 1.000
51.38000 0.998
51.39000 2.015
51.40000 5.147
51.41000 3.051
51.42000 4.050
51.43000 1.032
51.44000 3.099
51.45000 4.061
51.46000 4.014
51.47000 1.950
51.48000 4.018
51.49000 2.010
51.50000 0.995
51.51000 1.991
51.52000 4.022
51.53000 2.095
51.54000 3.172
51.55000 3.035
51.56000 3.003
51.57000 4.035
51.58000 3.022
51.59000 1.063
51.60000 1.982
51.61000 0.988
51.62000 5.019
51.63000 4.035
51.64000 3.943
51.65000 0.000
51.66000 6.111
51.67000 3.013
51.68000 4.154
51.69000 2.018
51.70000 4.989
51.71000 1.969
51.72000 5.093
51.73000 3.002
51.74000 0.000
51.75000 3.102
51.76000 0.991
51.77000 2.046
51.78000 1.988
51.79000 2.093
51.80000 2.031
51.81000 3.009
51.82000 0.999
51.83000 2.000
51.84000 2.065
51.85000 2.006
51.86000 1.990
51.87000 2.020
51.88000 4.035
51.89000 4.013
51.90000 3.068
51.91000 1.976
51.92000 2.036
51.93000 0.975
51.94000 6.106
51.95000 1.000
51.96000 2.986
51.97000 2.950
51.98000 0.000
51.99000 3.116
52.00000 0.987
52.01000 2.036
52.02000 10.193
52.03000 2.012
52.04000 6.036
52.05000 0.000
52.06000 6.062
52.07000 1.039
52.08000 1.986
52.09000 3.047
52.10000 5.072
52.11000 3.090
52.12000 2.003
52.13000 0.992
52.14000 0.997
52.15000 1.975
52.16000 2.998
52.17000 6.018
52.18000 1.036
52.19000 1.110
52.20000 3.084
52.21000 1.053
52.22000 1.977
52.23000 1.012
52.24000 3.053
52.25000 1.066
52.26000 0.000
52.27000 0.000
52.28000 3.095
52.29000 1.016
52.30000 6.111
52.31000 3.065
52.32000 4.072
52.33000 4.051
52.34000 2.025
52.35000 1.049
52.36000 2.063
52.37000 3.036
52.38000 4.011
52.39000 4.015
52.40000 7.144
52.41000 6.005
52.42000 7.166
52.43000 1.030
52.44000 3.037
52.45000 3.020
52.46000 2.030
52.47000 1.998
52.48000 2.029
52.49000 0.000
52.50000 4.051
52.51000 3.015
52.52000 2.072
52.53000 2.028
52.54000 0.995
52.55000 1.005
52.56000 4.023
52.57000 1.978
52.58000 3.006
52.59000 2.999
52.60000 4.108
52.61000 2.962
52.62000 6.120
52.63000 1.004
52.64000 4.006
52.65000 0.997
52.66000 1.002
52.67000 3.055
52.68000 2.070
52.69000 4.040
52.70000 0.000
52.71000 6.090
52.72000 2.974
52.73000 2.018
52.74000 6.043
52.75000 2.073
52.76000 1.007
52.77000 2.004
52.78000 1.022
52.79000 2.048
52.80000 3.048
52.81000 0.996
52.82000 0.000
52.83000 2.048
52.84000 2.972
52.85000 4.040
52.86000 0.000
52.87000 1.947
52.88000 4.065
52.89000 2.041
52.90000 2.995
52.91000 6.176
52.92000 2.074
52.93000 4.092
52.94000 0.989
52.95000 3.096
52.96000 5.004
52.97000 2.968
52.98000 0.991
52.99000 1.045
53.00000 5.016
53.01000 4.111
53.02000 1.031
53.03000 3.041
53.04000 4.025
53.05000 2.052
53.06000 1.005
53.07000 7.108
53.08000 4.126
53.09000 1.977
53.10000 0.000
53.11000 2.035
53.12000 7.047
53.13000 0.000
53.14000 4.133
53.15000 0.000
53.16000 0.990
53.17000 3.034
53.18000 2.028
53.19000 4.010
53.20000 2.017
53.21000 1.960
53.22000 3.011
53.23000 4.052
53.24000 1.020
53.25000 4.989
53.26000 3.038
53.27000 4.083
53.28000 2.019
53.29000 2.027
53.30000 3.031
53.31000 1.966
53.32000 0.000
53.33000 2.070
53.34000 3.013
53.35000 4.006
53.36000 3.061
53.37000 2.007
53.38000 4.031
53.39000 2.012
53.40000 2.998
53.41000 2.007
53.42000 3.030
53.43000 2.082
53.44000 3.036
53.45000 2.062
53.46000 2.011
53.47000 2.040
53.48000 1.060
53.49000 2.982
53.50000 8.095
53.51000 2.958
53.52000 3.059
53.53000 5.117
53.54000 0.974
53.55000 2.033
53.56000 1.009
53.57000 1.031
53.58000 2.079
53.59000 6.089
53.60000 2.006
53.61000 0.000
53.62000 0.984
53.63000 1.000
53.64000 2.022
53.65000 0.999
53.66000 5.010
53.67000 6.087
53.68000 0.994
53.69000 0.000
53.70000 3.026
53.71000 2.105
53.72000 1.963
53.73000 2.014
53.74000 4.974
53.75000 6.064
53.76000 0.000
53.77000 1.036
53.78000 3.005
53.79000 3.008
53.80000 0.996
53.81000 1.013
53.82000 3.071
53.83000 6.045
53.84000 1.008
53.85000 0.977
53.86000 0.000
53.87000 1.025
53.88000 3.999
53.89000 0.000
53.90000 0.985
53.91000 2.025
53.92000 2.006
53.93000 1.035
53.94000 1.977
53.95000 4.071
53.96000 1.003
53.97000 4.060
53.98000 2.034
53.99000 2.112
54.00000 1.016
54.01000 4.062
54.02000 3.054
54.03000 1.992
54.04000 3.032
54.05000 3.039
54.06000 2.040
54.07000 1.989
54.08000 0.981
54.09000 0.000
54.10000 0.000
54.11000 4.028
54.12000 2.987
54.13000 4.028
54.14000 1.969
54.15000 4.049
54.16000 3.005
54.17000 3.048
54.18000 4.113
54.19000 2.058
54.20000 3.004
54.21000 1.982
54.22000 2.028
54.23000 3.054
54.24000 3.057
54.25000 3.105
54.26000 4.015
54.27000 2.993
54.28000 0.993
54.29000 5.038
54.30000 2.015
54.31000 0.000
54.32000 1.040
54.33000 3.014
54.34000 4.132
54.35000 5.961
54.36000 1.004
54.37000 1.022
54.38000 2.061
54.39000 4.001
54.40000 4.007
54.41000 0.996
54.42000 2.995
54.43000 2.030
54.44000 2.031
54.45000 2.043
54.46000 8.277
54.47000 4.034
54.48000 5.145
54.49000 1.016
54.50000 3.007
54.51000 3.996
54.52000 3.055
54.53000 0.000
54.54000 3.010
54.55000 3.016
54.56000 2.063
54.57000 3.995
54.58000 0.000
54.59000 3.050
54.60000 0.999
54.61000 2.963
54.62000 4.122
54.63000 2.049
54.64000 3.056
54.65000 0.985
54.66000 4.210
54.67000 2.976
54.68000 6.070
54.69000 1.995
54.70000 6.150
54.71000 4.096
54.72000 0.980
54.73000 2.003
54.74000 1.011
54.75000 1.988
54.76000 0.986
54.77000 3.003
54.78000 3.060
54.79000 2.051
54.80000 0.000
54.81000 8.110
54.82000 1.021
54.83000 4.084
54.84000 1.991
54.85000 1.008
54.86000 2.049
54.87000 4.071
54.88000 2.068
54.89000 2.042
54.90000 0.000
54.91000 0.988
54.92000 3.100
54.93000 5.122
54.94000 4.058
54.95000 3.163
54.96000 3.004
54.97000 5.053
54.98000 3.005
54.99000 3.051
55.00000 2.995
55.01000 0.994
55.02000 2.962
55.03000 4.023
55.04000 1.021
55.05000 3.005
55.06000 0.000
55.07000 3.052
55.08000 0.993
55.09000 0.000
55.10000 0.000
55.11000 0.983
55.12000 1.973
55.13000 1.019
55.14000 1.009
55.15000 2.065
55.16000 3.023
55.17000 5.064
55.18000 1.988
55.19000 0.973
55.20000 4.073
55.21000 4.048
55.22000 1.981
55.23000 1.986
55.24000 0.000
55.25000 2.979
55.26000 4.116
55.27000 4.012
55.28000 2.010
55.29000 2.066
55.30000 0.000
55.31000 0.000
55.32000 1.037
55.33000 2.014
55.34000 0.000
55.35000 3.033
55.36000 1.012
55.37000 5.003
55.38000 1.999
55.39000 1.001
55.40000 2.010
55.41000 5.141
55.42000 1.993
55.43000 0.983
55.44000 0.000
55.45000 2.031
55.46000 2.986
55.47000 4.032
55.48000 0.000
55.49000 3.001
55.50000 2.978
55.51000 0.982
55.52000 3.057
55.53000 1.004
55.54000 2.042
55.55000 3.036
55.56000 5.121
55.57000 1.997
55.58000 2.076
55.59000 3.064
55.60000 2.082
55.61000 5.997
55.62000 1.071
55.63000 1.043
55.64000 0.000
55.65000 2.067
55.66000 1.008
55.67000 1.034
55.68000 1.029
55.69000 2.999
55.70000 2.004
55.71000 1.011
55.72000 2.065
55.73000 3.028
55.74000 1.999
55.75000 3.088
55.76000 3.086
55.77000 11.154
55.78000 3.039
55.79000 1.961
55.80000 1.034
55.81000 0.977
55.82000 1.992
55.83000 1.047
55.84000 4.001
55.85000 6.065
55.86000 5.082
55.87000 3.042
55.88000 1.047
55.89000 0.954
55.90000 3.979
55.91000 0.000
55.92000 3.005
55.93000 1.025
55.94000 0.000
55.95000 3.048
55.96000 1.003
55.97000 2.029
55.98000 1.962
55.99000 4.052
56.00000 1.018
56.01000 0.000
56.02000 3.991
56.03000 4.010
56.04000 8.055
56.05000 2.007
56.06000 1.034
56.07000 4.101
56.08000 0.990
56.09000 3.052
56.10000 4.006
56.11000 0.000
56.12000 1.033
56.13000 1.009
56.14000 1.017
56.15000 1.003
56.16000 4.083
56.17000 0.988
56.18000 1.018
56.19000 2.004
56.20000 4.084
56.21000 0.991
56.22000 0.000
56.23000 2.023
56.24000 3.001
56.25000 0.987
56.26000 1.060
56.27000 6.102
56.28000 3.001
56.29000 0.000
56.30000 4.981
56.31000 8.091
56.32000 5.229
56.33000 0.000
56.34000 2.040
56.35000 4.019
56.36000 1.961
56.37000 4.086
56.38000 5.067
56.39000 0.969
56.40000 2.042
56.41000 4.132
56.42000 3.048
56.43000 5.079
56.44000 0.000
56.45000 3.064
56.46000 3.021
56.47000 3.017
56.48000 0.997
56.49000 6.171
56.50000 2.014
56.51000 4.062
56.52000 2.078
56.53000 4.976
56.54000 3.117
56.55000 4.042
56.56000 1.009
56.57000 3.100
56.58000 1.028
56.59000 4.097
56.60000 0.000
56.61000 3.039
56.62000 4.979
56.63000 4.019
56.64000 2.008
56.65000 2.081
56.66000 1.986
56.67000 2.050
56.68000 0.000
56.69000 1.011
56.70000 0.999
56.71000 2.069
56.72000 3.016
56.73000 2.053
56.74000 2.037
56.75000 0.991
56.76000 0.992
56.77000 4.082
56.78000 2.050
56.79000 0.000
56.80000 2.024
56.81000 0.000
56.82000 4.113
56.83000 3.036
56.84000 2.973
56.85000 1.000
56.86000 4.045
56.87000 3.026
56.88000 1.022
56.89000 2.061
56.90000 5.120
56.91000 3.013
56.92000 2.083
56.93000 0.000
56.94000 4.055
56.95000 2.960
56.96000 4.024
56.97000 2.991
56.98000 3.014
56.99000 1.987
57.00000 4.037
57.01000 0.000
57.02000 4.121
57.03000 2.074
57.04000 1.996
57.05000 2.019
57.06000 2.016
57.07000 0.995
57.08000 3.024
57.09000 3.039
57.10000 5.052
57.11000 3.014
57.12000 4.947
57.13000 2.052
57.14000 3.007
57.15000 3.040
57.16000 3.018
57.17000 1.042
57.18000 2.077
57.19000 0.000
57.20000 1.021
57.21000 3.064
57.22000 3.043
57.23000 3.041
57.24000 4.077
57.25000 4.977
57.26000 0.994
57.27000 1.034
57.28000 7.115
57.29000 0.994
57.30000 3.022
57.31000 2.998
57.32000 3.011
57.33000 2.001
57.34000 4.042
57.35000 1.002
57.36000 3.042
57.37000 1.016
57.38000 1.004
57.39000 1.975
57.40000 1.002
57.41000 1.010
57.42000 0.981
57.43000 4.060
57.44000 1.045
57.45000 1.968
57.46000 3.098
57.47000 3.009
57.48000 2.018
57.49000 3.958
57.50000 0.000
57.51000 4.060
57.52000 3.074
57.53000 1.995
57.54000 0.990
57.55000 0.000
57.56000 1.014
57.57000 2.037
57.58000 3.035
57.59000 3.011
57.60000 1.007
57.61000 1.015
57.62000 1.046
57.63000 1.016
57.64000 1.082
57.65000 2.002
57.66000 3.952
57.67000 0.000
57.68000 2.138
57.69000 7.117
57.70000 4.089
57.71000 2.049
57.72000 0.000
57.73000 1.055
57.74000 6.103
57.75000 3.012
57.76000 4.047
57.77000 2.054
57.78000 3.981
57.79000 2.026
57.80000 2.042
57.81000 3.097
57.82000 3.100
57.83000 4.141
57.84000 3.984
57.85000 1.008
57.86000 1.971
57.87000 3.002
57.88000 4.076
57.89000 0.994
57.90000 2.972
57.91000 3.960
57.92000 0.998
57.93000 2.001
57.94000 3.025
57.95000 0.996
57.96000 2.051
57.97000 1.995
57.98000 0.990
57.99000 7.112
58.00000 3.027
58.01000 1.019
58.02000 1.984
58.03000 5.068
58.04000 0.992
58.05000 2.057
58.06000 2.076
58.07000 0.000
58.08000 1.069
58.09000 2.991
58.10000 6.975
58.11000 4.035
58.12000 1.026
58.13000 2.982
58.14000 5.067
58.15000 2.005
58.16000 3.052
58.17000 3.064
58.18000 0.993
58.19000 0.000
58.20000 4.066
58.21000 0.000
58.22000 2.011
58.23000 0.993
58.24000 4.045
58.25000 0.998
58.26000 1.014
58.27000 3.013
58.28000 2.062
58.29000 2.006
58.30000 2.960
58.31000 4.081
58.32000 4.985
58.33000 1.016
58.34000 4.102
58.35000 6.065
58.36000 2.002
58.37000 0.000
58.38000 2.981
58.39000 0.977
58.40000 5.064
58.41000 7.062
58.42000 6.062
58.43000 4.052
58.44000 2.033
58.45000 3.984
58.46000 5.003
58.47000 4.037
58.48000 2.001
58.49000 0.000
58.50000 1.008
58.51000 3.966
58.52000 2.062
58.53000 1.049
58.54000 2.038
58.55000 2.974
58.56000 3.001
58.57000 6.079
58.58000 2.017
58.59000 2.078
58.60000 4.099
58.61000 3.014
58.62000 5.054
58.63000 4.046
58.64000 5.133
58.65000 3.006
58.66000 1.006
58.67000 4.017
58.68000 0.999
58.69000 0.000
58.70000 6.015
58.71000 0.000
58.72000 2.028
58.73000 0.982
58.74000 1.991
58.75000 1.034
58.76000 2.072
58.77000 3.072
58.78000 6.138
58.79000 2.062
58.80000 2.029
58.81000 3.066
58.82000 0.000
58.83000 1.991
58.84000 1.024
58.85000 5.047
58.86000 5.007
58.87000 5.128
58.88000 2.011
58.89000 4.033
58.90000 2.054
58.91000 3.979
58.92000 0.000
58.93000 3.013
58.94000 3.036
58.95000 4.156
58.96000 4.025
58.97000 3.040
58.98000 2.040
58.99000 2.014
59.00000 1.003
59.01000 5.063
59.02000 5.069
59.03000 4.042
59.04000 2.037
59.05000 0.000
59.06000 0.000
59.07000 1.962
59.08000 5.060
59.09000 7.057
59.10000 1.014
59.11000 2.042
59.12000 2.077
59.13000 1.018
59.14000 0.975
59.15000 1.989
59.16000 0.988
59.17000 5.149
59.18000 4.083
59.19000 1.021
59.20000 1.997
59.21000 0.981
59.22000 0.000
59.23000 6.107
59.24000 0.000
59.25000 0.000
59.26000 4.093
59.27000 2.051
59.28000 0.000
59.29000 6.012
59.30000 3.049
59.31000 0.977
59.32000 1.978
59.33000 1.012
59.34000 0.991
59.35000 0.000
59.36000 2.012
59.37000 2.015
59.38000 1.043
59.39000 2.143
59.40000 3.102
59.41000 4.039
59.42000 3.079
59.43000 2.043
59.44000 5.081
59.45000 1.998
59.46000 0.993
59.47000 1.009
59.48000 3.065
59.49000 3.977
59.50000 6.154
59.51000 0.000
59.52000 4.068
59.53000 1.059
59.54000 2.991
59.55000 1.013
59.56000 2.055
59.57000 2.001
59.58000 0.000
59.59000 2.053
59.60000 1.041
59.61000 4.049
59.62000 3.041
59.63000 0.000
59.64000 1.028
59.65000 2.970
59.66000 0.000
59.67000 1.053
59.68000 1.989
59.69000 2.032
59.70000 3.005
59.71000 1.036
59.72000 3.060
59.73000 3.094
59.74000 1.984
59.75000 2.991
59.76000 0.000
59.77000 1.991
59.78000 3.008
59.79000 1.985
59.80000 0.000
59.81000 4.031
59.82000 3.984
59.83000 1.958
59.84000 2.016
59.85000 6.114
59.86000 2.080
59.87000 0.989
59.88000 4.090
59.89000 1.022
59.90000 4.000
59.91000 1.012
59.92000 4.002
59.93000 3.029
59.94000 0.000
59.95000 4.071
59.96000 3.070
59.97000 2.029
59.98000 0.985
59.99000 3.085
60.00000 0.000
60.01000 3.028
60.02000 3.019
60.03000 6.091
60.04000 4.112
60.05000 0.000
60.06000 3.003
60.07000 3.082
60.08000 2.987
60.09000 3.044
60.10000 2.010
60.11000 0.000
60.12000 1.012
60.13000 0.000
60.14000 0.000
60.15000 2.035
60.16000 1.982
60.17000 1.016
60.18000 1.017
60.19000 0.000
60.20000 2.033
60.21000 3.068
60.22000 2.960
60.23000 4.021
60.24000 5.045
60.25000 1.990
60.26000 0.996
60.27000 3.055
60.28000 3.039
60.29000 0.991
60.30000 1.002
60.31000 0.993
60.32000 0.995
60.33000 0.000
60.34000 4.130
60.35000 1.993
60.36000 0.000
60.37000 6.061
60.38000 1.000
60.39000 0.000
60.40000 3.014
60.41000 3.007
60.42000 6.044
60.43000 3.007
60.44000 0.000
60.45000 0.000
60.46000 1.027
60.47000 0.987
60.48000 2.002
60.49000 0.976
60.50000 0.000
60.51000 0.000
60.52000 6.004
60.53000 4.080
60.54000 2.027
60.55000 1.997
60.56000 0.000
60.57000 2.098
60.58000 6.080
60.59000 3.053
60.60000 2.030
60.61000 1.011
60.62000 2.046
60.63000 1.003
60.64000 6.192
60.65000 4.027
60.66000 4.062
60.67000 1.000
60.68000 1.022
60.69000 1.008
60.70000 1.982
60.71000 0.000
60.72000 1.015
60.73000 2.071
60.74000 1.082
60.75000 0.989
60.76000 5.001
60.77000 4.080
60.78000 0.986
60.79000 2.012
60.80000 1.037
60.81000 2.025
60.82000 1.024
60.83000 2.000
60.84000 0.997
60.85000 4.110
60.86000 0.997
60.87000 3.008
60.88000 2.001
60.89000 5.032
60.90000 5.024
60.91000 3.001
60.92000 3.027
60.93000 0.970
60.94000 2.085
60.95000 0.000
60.96000 0.990
60.97000 3.093
60.98000 2.008
60.99000 2.017
61.00000 3.044
61.01000 0.997
61.02000 2.014
61.03000 0.983
61.04000 0.000
61.05000 1.988
61.06000 2.000
61.07000 0.977
61.08000 2.017
61.09000 4.023
61.10000 0.000
61.11000 2.998
61.12000 3.024
61.13000 3.023
61.14000 5.073
61.15000 2.064
61.16000 0.000
61.17000 0.000
61.18000 1.963
61.19000 0.000
61.20000 1.985
61.21000 2.022
61.22000 3.005
61.23000 1.044
61.24000 6.038
61.25000 0.976
61.26000 2.990
61.27000 2.061
61.28000 1.048
61.29000 2.007
61.30000 0.975
61.31000 3.063
61.32000 1.002
61.33000 0.000
61.34000 3.059
61.35000 5.135
61.36000 1.028
61.37000 3.084
61.38000 3.035
61.39000 0.000
61.40000 3.065
61.41000 1.996
61.42000 1.021
61.43000 2.035
61.44000 1.053
61.45000 2.032
61.46000 1.022
61.47000 3.032
61.48000 4.002
61.49000 2.052
61.50000 0.998
61.51000 3.026
61.52000 4.087
61.53000 2.992
61.54000 3.997
61.55000 0.000
61.56000 1.012
61.57000 1.019
61.58000 4.135
61.59000 5.059
61.60000 0.984
61.61000 3.968
61.62000 3.015
61.63000 4.079
61.64000 1.985
61.65000 4.063
61.66000 3.037
61.67000 1.989
61.68000 3.979
61.69000 0.980
61.70000 0.000
61.71000 3.079
61.72000 2.032
61.73000 3.055
61.74000 3.085
61.75000 4.039
61.76000 1.002
61.77000 2.987
61.78000 0.000
61.79000 5.104
61.80000 0.000
61.81000 0.969
61.82000 2.027
61.83000 0.000
61.84000 4.060
61.85000 1.018
61.86000 1.004
61.87000 5.043
61.88000 3.009
61.89000 2.000
61.90000 2.085
61.91000 1.010
61.92000 0.000
61.93000 3.965
61.94000 0.000
61.95000 2.071
61.96000 2.979
61.97000 1.980
61.98000 2.091
61.99000 0.992
62.00000 0.997
62.01000 1.065
62.02000 4.116
62.03000 2.061
62.04000 2.000
62.05000 2.033
62.06000 4.062
62.07000 0.000
62.08000 3.007
62.09000 2.989
62.10000 1.033
62.11000 1.016
62.12000 0.000
62.13000 1.036
62.14000 3.927
62.15000 1.019
62.16000 6.052
62.17000 1.016
62.18000 3.033
62.19000 3.148
62.20000 4.005
62.21000 1.012
62.22000 1.012
62.23000 0.000
62.24000 2.032
62.25000 2.072
62.26000 2.972
62.27000 0.000
62.28000 2.013
62.29000 2.073
62.30000 2.001
62.31000 2.006
62.32000 1.006
62.33000 1.003
62.34000 1.026
62.35000 2.967
62.36000 2.976
62.37000 1.978
62.38000 2.015
62.39000 0.984
62.40000 6.973
62.41000 1.021
62.42000 2.053
62.43000 4.035
62.44000 2.003
62.45000 3.058
62.46000 1.021
62.47000 1.014
62.48000 1.989
62.49000 2.066
62.50000 0.000
62.51000 2.017
62.52000 0.000
62.53000 4.041
62.54000 3.044
62.55000 3.027
62.56000 1.995
62.57000 0.995
62.58000 1.987
62.59000 5.122
62.60000 2.065
62.61000 0.000
62.62000 1.981
62.63000 1.016
62.64000 2.000
62.65000 4.073
62.66000 2.031
62.67000 1.008
62.68000 4.017
62.69000 2.042
62.70000 3.996
62.71000 3.020
62.72000 0.000
62.73000 1.060
62.74000 0.976
62.75000 0.991
62.76000 1.008
62.77000 4.005
62.78000 2.008
62.79000 3.012
62.80000 0.000
62.81000 2.997
62.82000 1.006
62.83000 6.109
62.84000 2.958
62.85000 2.059
62.86000 0.992
62.87000 4.024
62.88000 2.973
62.89000 1.004
62.90000 0.000
62.91000 0.000
62.92000 1.017
62.93000 6.049
62.94000 5.061
62.95000 3.003
62.96000 2.969
62.97000 0.000
62.98000 2.035
62.99000 5.112
63.00000 3.019
63.01000 1.044
63.02000 1.964
63.03000 1.000
63.04000 1.048
63.05000 4.002
63.06000 2.978
63.07000 2.028
63.08000 1.004
63.09000 2.985
63.10000 2.023
63.11000 1.029
63.12000 1.026
63.13000 1.992
63.14000 3.021
63.15000 2.023
63.16000 1.044
63.17000 1.008
63.18000 0.000
63.19000 0.986
63.20000 0.000
63.21000 2.004
63.22000 1.034
63.23000 3.053
63.24000 1.007
63.25000 2.060
63.26000 1.020
63.27000 3.017
63.28000 2.082
63.29000 3.064
63.30000 1.015
63.31000 1.997
63.32000 2.029
63.33000 0.996
63.34000 2.044
63.35000 1.971
63.36000 2.053
63.37000 4.103
63.38000 2.028
63.39000 2.045
63.40000 3.012
63.41000 2.030
63.42000 3.012
63.43000 3.033
63.44000 4.010
63.45000 2.058
63.46000 6.181
63.47000 7.076
63.48000 1.986
63.49000 3.026
63.50000 0.000
63.51000 5.043
63.52000 3.084
63.53000 4.025
63.54000 3.007
63.55000 1.971
63.56000 2.002
63.57000 3.019
63.58000 1.993
63.59000 5.017
63.60000 3.020
63.61000 0.000
63.62000 2.045
63.63000 2.007
63.64000 3.064
63.65000 4.035
63.66000 4.028
63.67000 2.070
63.68000 1.011
63.69000 2.063
63.70000 1.019
63.71000 3.998
63.72000 3.044
63.73000 2.994
63.74000 2.083
63.75000 2.132
63.76000 3.067
63.77000 2.030
63.78000 0.000
63.79000 1.985
63.80000 2.045
63.81000 1.048
63.82000 3.036
63.83000 1.005
63.84000 2.996
63.85000 3.060
63.86000 3.078
63.87000 1.033
63.88000 1.046
63.89000 6.040
63.90000 0.999
63.91000 1.045
63.92000 1.980
63.93000 3.008
63.94000 2.000
63.95000 0.000
63.96000 1.051
63.97000 0.000
63.98000 0.998
63.99000 2.035
64.00000 3.044
64.01000 6.070
64.02000 1.025
64.03000 4.053
64.04000 0.000
64.05000 3.131
64.06000 0.000
64.07000 2.049
64.08000 3.123
64.09000 2.028
64.10000 0.993
64.11000 3.044
64.12000 0.990
64.13000 2.002
64.14000 1.994
64.15000 0.992
64.16000 0.000
64.17000 2.008
64.18000 3.020
64.19000 2.995
64.20000 3.992
64.21000 1.027
64.22000 1.034
64.23000 1.998
64.24000 2.018
64.25000 1.027
64.26000 5.019
64.27000 1.982
64.28000 1.025
64.29000 4.031
64.30000 3.051
64.31000 2.012
64.32000 0.000
64.33000 1.027
64.34000 2.024
64.35000 2.052
64.36000 2.043
64.37000 0.000
64.38000 0.000
64.39000 7.073
64.40000 3.089
64.41000 5.109
64.42000 5.084
64.43000 2.061
64.44000 1.020
64.45000 2.007
64.46000 5.049
64.47000 4.087
64.48000 1.028
64.49000 4.060
64.50000 1.043
64.51000 0.000
64.52000 0.000
64.53000 0.000
64.54000 2.031
64.55000 1.961
64.56000 4.009
64.57000 0.999
64.58000 2.029
64.59000 1.980
64.60000 2.031
64.61000 0.000
64.62000 0.000
64.63000 1.963
64.64000 3.011
64.65000 2.022
64.66000 1.034
64.67000 5.127
64.68000 1.975
64.69000 2.116
64.70000 1.035
64.71000 4.064
64.72000 3.000
64.73000 3.006
64.74000 2.072
64.75000 1.020
64.76000 1.981
64.77000 0.000
64.78000 4.123
64.79000 0.985
64.80000 4.023
64.81000 0.000
64.82000 1.046
64.83000 4.014
64.84000 1.035
64.85000 2.057
64.86000 0.985
64.87000 3.055
64.88000 3.068
64.89000 2.017
64.90000 2.029
64.91000 1.975
64.92000 3.048
64.93000 0.000
64.94000 0.993
64.95000 0.000
64.96000 3.014
64.97000 1.025
64.98000 0.999
64.99000 0.969
65.00000 0.000
