20.00000 14.212
20.01000 17.243
20.02000 12.289
20.03000 10.149
20.04000 17.169
20.05000 16.074
20.06000 15.231
20.07000 9.025
20.08000 14.257
20.09000 21.246
20.10000 15.953
20.11000 11.076
20.12000 12.190
20.13000 17.143
20.14000 16.168
20.15000 13.190
20.16000 11.165
20.17000 12.416
20.18000 17.300
20.19000 14.171
20.20000 9.132
20.21000 8.235
20.22000 23.253
20.23000 9.035
20.24000 13.128
20.25000 16.152
20.26000 11.216
20.27000 11.254
20.28000 11.161
20.29000 18.260
20.30000 10.042
20.31000 17.242
20.32000 10.168
20.33000 18.141
20.34000 10.258
20.35000 11.163
20.36000 13.133
20.37000 12.261
20.38000 15.199
20.39000 23.257
20.40000 15.073
20.41000 10.251
20.42000 9.154
20.43000 13.191
20.44000 13.175
20.45000 13.110
20.46000 11.128
20.47000 12.209
20.48000 12.158
20.49000 18.241
20.50000 23.549
20.51000 15.250
20.52000 13.136
20.53000 15.083
20.54000 13.074
20.55000 18.240
20.56000 18.557
20.57000 18.341
20.58000 6.045
20.59000 17.158
20.60000 16.168
20.61000 15.231
20.62000 18.393
20.63000 20.233
20.64000 13.169
20.65000 7.064
20.66000 12.152
20.67000 12.341
20.68000 11.024
20.69000 16.261
20.70000 15.229
20.71000 12.115
20.72000 13.082
20.73000 16.172
20.74000 12.090
20.75000 5.115
20.76000 10.114
20.77000 17.106
20.78000 7.139
20.79000 24.191
20.80000 12.230
20.81000 16.329
20.82000 17.116
20.83000 6.134
20.84000 11.017
20.85000 9.161
20.86000 16.303
20.87000 19.201
20.88000 10.099
20.89000 11.213
20.90000 10.101
20.91000 16.281
20.92000 15.379
20.93000 11.263
20.94000 7.234
20.95000 15.081
20.96000 10.183
20.97000 11.158
20.98000 15.220
20.99000 11.144
21.00000 17.339
21.01000 5.067
21.02000 13.179
21.03000 11.111
21.04000 8.147
21.05000 19.233
21.06000 13.207
21.07000 20.295
21.08000 12.141
21.09000 20.467
21.10000 15.266
21.11000 15.177
21.12000 11.142
21.13000 19.294
21.14000 12.180
21.15000 11.200
21.16000 17.285
21.17000 11.164
21.18000 15.225
21.19000 13.211
21.20000 16.250
21.21000 12.157
21.22000 16.147
21.23000 13.145
21.24000 17.328
21.25000 17.066
21.26000 12.044
21.27000 12.178
21.28000 18.226
21.29000 13.183
21.30000 14.079
21.31000 12.281
21.32000 7.162
21.33000 16.226
21.34000 12.102
21.35000 12.201
21.36000 13.127
21.37000 12.162
21.38000 9.081
21.39000 12.250
21.40000 11.084
21.41000 16.271
21.42000 16.232
21.43000 11.224
21.44000 9.082
21.45000 13.199
21.46000 11.385
21.47000 10.181
21.48000 8.192
21.49000 16.391
21.50000 11.110
21.51000 14.072
21.52000 16.299
21.53000 11.210
21.54000 16.261
21.55000 16.151
21.56000 18.359
21.57000 9.131
21.58000 18.177
21.59000 13.226
21.60000 10.230
21.61000 16.260
21.62000 12.077
21.63000 13.337
21.64000 8.078
21.65000 12.204
21.66000 13.187
21.67000 8.037
21.68000 17.406
21.69000 16.095
21.70000 18.282
21.71000 12.188
21.72000 11.101
21.73000 5.001
21.74000 8.927
21.75000 14.256
21.76000 21.317
21.77000 17.124
21.78000 11.140
21.79000 16.369
21.80000 15.232
21.81000 3.961
21.82000 15.108
21.83000 12.186
21.84000 10.114
21.85000 13.160
21.86000 6.053
21.87000 7.093
21.88000 15.146
21.89000 7.038
21.90000 10.315
21.91000 17.264
21.92000 19.236
21.93000 7.110
21.94000 13.106
21.95000 17.297
21.96000 16.219
21.97000 12.214
21.98000 14.181
21.99000 15.087
22.00000 15.324
22.01000 12.216
22.02000 12.204
22.03000 7.021
22.04000 16.093
22.05000 15.203
22.06000 18.206
22.07000 18.577
22.08000 12.139
22.09000 20.221
22.10000 20.327
22.11000 16.120
22.12000 8.123
22.13000 14.350
22.14000 16.227
22.15000 14.310
22.16000 22.541
22.17000 9.095
22.18000 8.093
22.19000 10.104
22.20000 18.360
22.21000 12.102
22.22000 5.021
22.23000 9.122
22.24000 13.032
22.25000 15.069
22.26000 9.070
22.27000 10.202
22.28000 8.160
22.29000 13.000
22.30000 8.128
22.31000 12.175
22.32000 14.148
22.33000 14.161
22.34000 14.377
22.35000 11.232
22.36000 17.166
22.37000 13.203
22.38000 13.024
22.39000 13.127
22.40000 8.174
22.41000 11.127
22.42000 16.199
22.43000 7.126
22.44000 11.994
22.45000 11.107
22.46000 7.063
22.47000 11.063
22.48000 9.191
22.49000 13.225
22.50000 19.491
22.51000 12.174
22.52000 14.271
22.53000 14.158
22.54000 16.180
22.55000 20.382
22.56000 11.132
22.57000 17.138
22.58000 19.418
22.59000 11.974
22.60000 13.237
22.61000 11.287
22.62000 12.258
22.63000 10.124
22.64000 12.117
22.65000 11.150
22.66000 18.365
22.67000 12.155
22.68000 18.241
22.69000 7.110
22.70000 20.177
22.71000 15.255
22.72000 9.087
22.73000 12.291
22.74000 20.399
22.75000 9.113
22.76000 7.138
22.77000 10.011
22.78000 9.166
22.79000 16.210
22.80000 7.011
22.81000 12.163
22.82000 11.116
22.83000 13.229
22.84000 11.200
22.85000 17.322
22.86000 13.085
22.87000 9.176
22.88000 13.173
22.89000 17.310
22.90000 11.048
22.91000 11.249
22.92000 15.256
22.93000 14.273
22.94000 11.078
22.95000 11.176
22.96000 10.964
22.97000 10.023
22.98000 12.139
22.99000 10.065
23.00000 18.168
23.01000 12.137
23.02000 11.274
23.03000 12.041
23.04000 16.352
23.05000 12.172
23.06000 23.115
23.07000 14.193
23.08000 13.093
23.09000 12.104
23.10000 14.141
23.11000 11.184
23.12000 9.050
23.13000 17.343
23.14000 8.095
23.15000 10.135
23.16000 10.173
23.17000 13.111
23.18000 15.368
23.19000 15.269
23.20000 15.138
23.21000 9.161
23.22000 12.179
23.23000 15.143
23.24000 8.048
23.25000 8.144
23.26000 11.066
23.27000 18.290
23.28000 12.262
23.29000 15.303
23.30000 11.082
23.31000 8.102
23.32000 9.022
23.33000 8.133
23.34000 10.234
23.35000 11.153
23.36000 10.179
23.37000 13.324
23.38000 21.262
23.39000 19.175
23.40000 14.207
23.41000 25.390
23.42000 19.260
23.43000 14.178
23.44000 12.182
23.45000 12.173
23.46000 9.099
23.47000 14.056
23.48000 17.347
23.49000 11.186
23.50000 14.092
23.51000 12.233
23.52000 11.175
23.53000 10.127
23.54000 9.029
23.55000 13.283
23.56000 15.294
23.57000 16.375
23.58000 13.214
23.59000 12.266
23.60000 11.963
23.61000 7.079
23.62000 9.272
23.63000 15.130
23.64000 12.119
23.65000 10.129
23.66000 12.234
23.67000 10.069
23.68000 11.227
23.69000 9.085
23.70000 16.123
23.71000 8.201
23.72000 17.222
23.73000 7.086
23.74000 11.101
23.75000 14.283
23.76000 16.086
23.77000 10.145
23.78000 12.092
23.79000 9.011
23.80000 14.250
23.81000 11.261
23.82000 11.057
23.83000 17.196
23.84000 11.167
23.85000 15.112
23.86000 11.077
23.87000 9.156
23.88000 8.140
23.89000 15.253
23.90000 11.227
23.91000 10.185
23.92000 15.145
23.93000 12.188
23.94000 10.136
23.95000 10.295
23.96000 9.105
23.97000 15.295
23.98000 11.228
23.99000 16.091
24.00000 13.223
24.01000 16.219
24.02000 14.250
24.03000 13.245
24.04000 14.320
24.05000 7.144
24.06000 10.183
24.07000 6.923
24.08000 10.155
24.09000 6.112
24.10000 11.173
24.11000 15.227
24.12000 16.449
24.13000 12.394
24.14000 5.078
24.15000 11.194
24.16000 12.032
24.17000 13.218
24.18000 10.161
24.19000 14.201
24.20000 11.183
24.21000 7.086
24.22000 12.219
24.23000 14.181
24.24000 8.989
24.25000 7.053
24.26000 14.178
24.27000 9.119
24.28000 18.220
24.29000 9.035
24.30000 16.242
24.31000 12.135
24.32000 11.205
24.33000 15.330
24.34000 11.061
24.35000 14.520
24.36000 17.211
24.37000 19.207
24.38000 11.073
24.39000 14.229
24.40000 11.205
24.41000 12.245
24.42000 12.058
24.43000 13.113
24.44000 15.219
24.45000 14.158
24.46000 7.023
24.47000 5.117
24.48000 10.106
24.49000 10.031
24.50000 13.217
24.51000 13.188
24.52000 16.273
24.53000 7.107
24.54000 13.101
24.55000 12.156
24.56000 14.126
24.57000 9.221
24.58000 9.145
24.59000 7.008
24.60000 11.094
24.61000 15.208
24.62000 12.118
24.63000 11.127
24.64000 10.140
24.65000 13.117
24.66000 13.366
24.67000 13.256
24.68000 16.246
24.69000 20.257
24.70000 10.141
24.71000 17.225
24.72000 8.108
24.73000 9.110
24.74000 14.097
24.75000 16.151
24.76000 11.178
24.77000 14.082
24.78000 12.044
24.79000 11.154
24.80000 6.124
24.81000 11.108
24.82000 9.134
24.83000 9.978
24.84000 13.196
24.85000 4.088
24.86000 15.136
24.87000 13.163
24.88000 15.358
24.89000 11.375
24.90000 19.114
24.91000 14.286
24.92000 16.338
24.93000 13.217
24.94000 18.324
24.95000 9.205
24.96000 6.006
24.97000 12.216
24.98000 11.231
24.99000 12.277
25.00000 14.341
25.01000 16.254
25.02000 13.110
25.03000 10.144
25.04000 13.264
25.05000 14.231
25.06000 9.111
25.07000 22.438
25.08000 9.025
25.09000 13.178
25.10000 14.233
25.11000 10.070
25.12000 10.232
25.13000 12.148
25.14000 8.054
25.15000 7.239
25.16000 14.143
25.17000 12.198
25.18000 14.233
25.19000 10.187
25.20000 11.047
25.21000 11.097
25.22000 9.145
25.23000 10.088
25.24000 8.225
25.25000 11.148
25.26000 14.281
25.27000 12.035
25.28000 12.209
25.29000 9.996
25.30000 12.124
25.31000 4.991
25.32000 9.342
25.33000 14.366
25.34000 22.239
25.35000 18.328
25.36000 16.160
25.37000 11.076
25.38000 17.154
25.39000 7.100
25.40000 14.316
25.41000 14.160
25.42000 14.264
25.43000 10.201
25.44000 12.227
25.45000 9.342
25.46000 12.209
25.47000 10.067
25.48000 13.082
25.49000 8.174
25.50000 10.066
25.51000 16.327
25.52000 17.156
25.53000 12.171
25.54000 11.229
25.55000 21.155
25.56000 15.298
25.57000 15.285
25.58000 14.370
25.59000 11.239
25.60000 15.068
25.61000 8.059
25.62000 8.154
25.63000 13.174
25.64000 18.156
25.65000 10.285
25.66000 10.230
25.67000 7.123
25.68000 13.107
25.69000 19.059
25.70000 20.282
25.71000 11.342
25.72000 10.103
25.73000 8.098
25.74000 7.094
25.75000 17.251
25.76000 12.264
25.77000 7.041
25.78000 14.082
25.79000 14.114
25.80000 15.223
25.81000 14.161
25.82000 17.100
25.83000 12.177
25.84000 13.093
25.85000 9.123
25.86000 19.379
25.87000 12.118
25.88000 13.039
25.89000 8.204
25.90000 21.220
25.91000 13.325
25.92000 8.108
25.93000 15.286
25.94000 8.157
25.95000 8.138
25.96000 9.085
25.97000 14.167
25.98000 19.254
25.99000 14.230
26.00000 10.986
26.01000 11.165
26.02000 13.293
26.03000 12.197
26.04000 14.208
26.05000 11.259
26.06000 10.058
26.07000 13.211
26.08000 10.188
26.09000 11.315
26.10000 14.207
26.11000 20.290
26.12000 16.263
26.13000 14.022
26.14000 11.179
26.15000 18.292
26.16000 13.137
26.17000 16.334
26.18000 7.161
26.19000 15.314
26.20000 15.131
26.21000 16.198
26.22000 10.078
26.23000 13.266
26.24000 12.232
26.25000 12.069
26.26000 15.299
26.27000 8.204
26.28000 11.318
26.29000 10.314
26.30000 16.135
26.31000 17.377
26.32000 11.163
26.33000 16.344
26.34000 9.149
26.35000 19.285
26.36000 12.272
26.37000 10.067
26.38000 11.185
26.39000 11.147
26.40000 12.283
26.41000 8.194
26.42000 14.351
26.43000 13.370
26.44000 15.114
26.45000 10.161
26.46000 21.151
26.47000 14.305
26.48000 17.304
26.49000 17.252
26.50000 7.100
26.51000 12.214
26.52000 10.248
26.53000 15.131
26.54000 13.099
26.55000 16.102
26.56000 12.256
26.57000 14.319
26.58000 12.320
26.59000 10.150
26.60000 20.307
26.61000 19.231
26.62000 9.082
26.63000 14.190
26.64000 19.345
26.65000 11.284
26.66000 13.211
26.67000 9.035
26.68000 14.238
26.69000 20.229
26.70000 10.097
26.71000 21.437
26.72000 11.335
26.73000 12.316
26.74000 12.177
26.75000 17.344
26.76000 16.191
26.77000 11.204
26.78000 10.232
26.79000 11.150
26.80000 16.198
26.81000 10.102
26.82000 23.417
26.83000 19.229
26.84000 19.265
26.85000 13.220
26.86000 14.175
26.87000 16.268
26.88000 18.204
26.89000 13.051
26.90000 22.114
26.91000 15.161
26.92000 13.270
26.93000 12.108
26.94000 9.123
26.95000 12.090
26.96000 13.245
26.97000 10.064
26.98000 12.156
26.99000 12.385
27.00000 18.098
27.01000 17.222
27.02000 14.222
27.03000 16.272
27.04000 16.523
27.05000 14.159
27.06000 9.104
27.07000 7.104
27.08000 15.177
27.09000 16.060
27.10000 12.095
27.11000 15.128
27.12000 11.113
27.13000 14.279
27.14000 15.237
27.15000 13.291
27.16000 14.302
27.17000 9.047
27.18000 12.188
27.19000 16.234
27.20000 12.155
27.21000 10.217
27.22000 16.241
27.23000 17.237
27.24000 13.124
27.25000 14.289
27.26000 14.046
27.27000 23.330
27.28000 11.080
27.29000 20.291
27.30000 17.224
27.31000 12.155
27.32000 10.197
27.33000 18.295
27.34000 16.169
27.35000 13.180
27.36000 8.070
27.37000 13.043
27.38000 12.063
27.39000 15.240
27.40000 12.225
27.41000 16.183
27.42000 14.206
27.43000 12.180
27.44000 11.050
27.45000 15.268
27.46000 13.128
27.47000 9.047
27.48000 12.274
27.49000 10.141
27.50000 17.189
27.51000 11.094
27.52000 15.174
27.53000 14.095
27.54000 11.238
27.55000 16.118
27.56000 8.033
27.57000 11.136
27.58000 14.426
27.59000 19.384
27.60000 23.267
27.61000 18.210
27.62000 15.247
27.63000 9.062
27.64000 14.177
27.65000 8.059
27.66000 21.284
27.67000 9.096
27.68000 14.250
27.69000 15.332
27.70000 15.174
27.71000 13.193
27.72000 12.231
27.73000 16.359
27.74000 12.210
27.75000 14.131
27.76000 14.210
27.77000 13.210
27.78000 17.424
27.79000 8.032
27.80000 13.349
27.81000 11.224
27.82000 15.194
27.83000 9.155
27.84000 15.232
27.85000 15.052
27.86000 12.147
27.87000 13.151
27.88000 12.200
27.89000 9.184
27.90000 19.338
27.91000 15.214
27.92000 11.061
27.93000 9.209
27.94000 17.256
27.95000 20.268
27.96000 10.169
27.97000 10.152
27.98000 10.207
27.99000 10.199
28.00000 20.173
28.01000 14.180
28.02000 18.261
28.03000 13.340
28.04000 12.229
28.05000 13.148
28.06000 14.218
28.07000 4.079
28.08000 12.207
28.09000 16.231
28.10000 13.116
28.11000 15.167
28.12000 15.470
28.13000 14.214
28.14000 14.191
28.15000 7.092
28.16000 12.158
28.17000 13.130
28.18000 11.003
28.19000 17.183
28.20000 9.164
28.21000 9.061
28.22000 21.489
28.23000 18.147
28.24000 14.157
28.25000 13.279
28.26000 18.263
28.27000 17.373
28.28000 8.152
28.29000 17.429
28.30000 15.224
28.31000 7.084
28.32000 13.246
28.33000 11.160
28.34000 14.240
28.35000 15.215
28.36000 11.069
28.37000 15.247
28.38000 17.021
28.39000 14.260
28.40000 11.097
28.41000 12.147
28.42000 14.166
28.43000 13.349
28.44000 9.068
28.45000 17.457
28.46000 17.270
28.47000 16.219
28.48000 23.407
28.49000 17.199
28.50000 18.258
28.51000 14.295
28.52000 10.194
28.53000 16.155
28.54000 17.336
28.55000 19.355
28.56000 13.228
28.57000 14.027
28.58000 12.192
28.59000 14.331
28.60000 16.175
28.61000 12.422
28.62000 20.315
28.63000 19.120
28.64000 12.107
28.65000 8.062
28.66000 22.352
28.67000 9.183
28.68000 16.244
28.69000 16.218
28.70000 18.129
28.71000 7.094
28.72000 19.277
28.73000 16.286
28.74000 20.199
28.75000 9.188
28.76000 13.999
28.77000 12.204
28.78000 13.255
28.79000 11.173
28.80000 14.185
28.81000 15.252
28.82000 15.149
28.83000 13.334
28.84000 16.417
28.85000 15.130
28.86000 11.119
28.87000 10.185
28.88000 17.187
28.89000 13.060
28.90000 18.296
28.91000 9.056
28.92000 21.264
28.93000 13.338
28.94000 13.271
28.95000 14.148
28.96000 16.284
28.97000 19.226
28.98000 5.072
28.99000 5.994
29.00000 9.123
29.01000 13.155
29.02000 12.177
29.03000 17.325
29.04000 13.258
29.05000 9.241
29.06000 9.176
29.07000 14.401
29.08000 17.205
29.09000 12.238
29.10000 13.291
29.11000 8.027
29.12000 9.232
29.13000 12.199
29.14000 9.211
29.15000 8.082
29.16000 11.060
29.17000 12.237
29.18000 9.957
29.19000 9.203
29.20000 12.251
29.21000 12.183
29.22000 7.971
29.23000 13.205
29.24000 10.104
29.25000 15.330
29.26000 14.226
29.27000 13.201
29.28000 9.188
29.29000 12.159
29.30000 11.205
29.31000 8.061
29.32000 10.016
29.33000 6.047
29.34000 8.072
29.35000 8.118
29.36000 8.176
29.37000 13.179
29.38000 9.071
29.39000 17.285
29.40000 15.430
29.41000 20.359
29.42000 7.051
29.43000 14.107
29.44000 19.232
29.45000 15.261
29.46000 11.034
29.47000 20.182
29.48000 11.104
29.49000 13.307
29.50000 11.172
29.51000 11.327
29.52000 7.109
29.53000 9.100
29.54000 11.053
29.55000 15.198
29.56000 15.241
29.57000 16.247
29.58000 10.161
29.59000 12.197
29.60000 9.161
29.61000 8.076
29.62000 11.186
29.63000 14.234
29.64000 7.079
29.65000 12.076
29.66000 14.285
29.67000 12.306
29.68000 11.122
29.69000 6.045
29.70000 13.103
29.71000 7.958
29.72000 2.983
29.73000 12.157
29.74000 15.041
29.75000 10.154
29.76000 13.070
29.77000 17.315
29.78000 12.165
29.79000 10.062
29.80000 4.077
29.81000 9.198
29.82000 12.125
29.83000 17.148
29.84000 7.097
29.85000 11.136
29.86000 12.298
29.87000 13.182
29.88000 13.090
29.89000 13.229
29.90000 13.210
29.91000 11.185
29.92000 11.150
29.93000 9.177
29.94000 9.074
29.95000 12.248
29.96000 9.186
29.97000 15.308
29.98000 7.157
29.99000 16.405
30.00000 10.292
30.01000 11.346
30.02000 11.120
30.03000 10.108
30.04000 4.139
30.05000 11.206
30.06000 13.185
30.07000 8.960
30.08000 6.028
30.09000 14.052
30.10000 19.270
30.11000 14.329
30.12000 11.247
30.13000 9.995
30.14000 17.090
30.15000 13.134
30.16000 8.041
30.17000 12.235
30.18000 12.131
30.19000 11.182
30.20000 8.129
30.21000 6.943
30.22000 11.072
30.23000 9.083
30.24000 13.235
30.25000 10.144
30.26000 6.071
30.27000 10.178
30.28000 7.041
30.29000 18.457
30.30000 11.070
30.31000 7.026
30.32000 11.140
30.33000 7.047
30.34000 11.076
30.35000 10.945
30.36000 7.093
30.37000 8.986
30.38000 4.099
30.39000 10.192
30.40000 15.224
30.41000 13.158
30.42000 8.177
30.43000 7.094
30.44000 7.129
30.45000 14.137
30.46000 11.184
30.47000 8.183
30.48000 10.162
30.49000 9.052
30.50000 13.120
30.51000 6.131
30.52000 10.136
30.53000 7.049
30.54000 10.059
30.55000 8.974
30.56000 7.082
30.57000 10.077
30.58000 6.176
30.59000 11.232
30.60000 12.192
30.61000 11.065
30.62000 4.088
30.63000 5.145
30.64000 14.127
30.65000 13.192
30.66000 8.164
30.67000 9.089
30.68000 9.192
30.69000 7.099
30.70000 7.136
30.71000 11.252
30.72000 6.150
30.73000 11.107
30.74000 7.999
30.75000 10.091
30.76000 11.293
30.77000 11.129
30.78000 6.126
30.79000 13.248
30.80000 4.031
30.81000 7.038
30.82000 7.085
30.83000 11.141
30.84000 15.245
30.85000 13.322
30.86000 14.205
30.87000 11.186
30.88000 8.064
30.89000 11.054
30.90000 9.093
30.91000 13.227
30.92000 6.998
30.93000 11.095
30.94000 8.209
30.95000 6.064
30.96000 14.194
30.97000 6.006
30.98000 9.161
30.99000 12.122
31.00000 9.155
31.01000 9.164
31.02000 10.176
31.03000 9.166
31.04000 6.029
31.05000 10.202
31.06000 11.213
31.07000 7.063
31.08000 10.124
31.09000 7.005
31.10000 12.260
31.11000 2.030
31.12000 13.185
31.13000 14.217
31.14000 3.075
31.15000 8.253
31.16000 8.099
31.17000 5.092
31.18000 7.073
31.19000 12.301
31.20000 8.249
31.21000 9.102
31.22000 12.234
31.23000 8.108
31.24000 10.119
31.25000 7.155
31.26000 12.214
31.27000 10.974
31.28000 13.208
31.29000 12.093
31.30000 9.057
31.31000 12.219
31.32000 8.140
31.33000 9.127
31.34000 10.171
31.35000 8.096
31.36000 16.212
31.37000 4.084
31.38000 7.041
31.39000 10.100
31.40000 13.244
31.41000 16.297
31.42000 4.087
31.43000 10.181
31.44000 8.980
31.45000 4.020
31.46000 8.187
31.47000 13.307
31.48000 14.146
31.49000 7.201
31.50000 7.096
31.51000 8.060
31.52000 9.143
31.53000 7.085
31.54000 12.105
31.55000 8.231
31.56000 4.096
31.57000 13.216
31.58000 8.132
31.59000 7.103
31.60000 7.006
31.61000 8.064
31.62000 6.957
31.63000 5.049
31.64000 4.015
31.65000 13.259
31.66000 6.160
31.67000 6.031
31.68000 8.082
31.69000 12.295
31.70000 5.991
31.71000 8.026
31.72000 7.088
31.73000 7.160
31.74000 6.977
31.75000 5.035
31.76000 7.069
31.77000 5.025
31.78000 6.991
31.79000 7.102
31.80000 9.252
31.81000 15.212
31.82000 6.110
31.83000 4.079
31.84000 4.065
31.85000 7.079
31.86000 16.291
31.87000 10.091
31.88000 9.140
31.89000 5.026
31.90000 11.267
31.91000 4.015
31.92000 10.049
31.93000 5.038
31.94000 11.013
31.95000 10.136
31.96000 16.072
31.97000 10.077
31.98000 12.240
31.99000 4.057
32.00000 8.077
32.01000 6.077
32.02000 2.055
32.03000 6.116
32.04000 3.066
32.05000 11.313
32.06000 6.060
32.07000 6.065
32.08000 9.258
32.09000 3.015
32.10000 6.072
32.11000 2.999
32.12000 4.084
32.13000 7.032
32.14000 7.076
32.15000 11.131
32.16000 9.210
32.17000 8.976
32.18000 15.268
32.19000 9.046
32.20000 4.126
32.21000 4.008
32.22000 7.043
32.23000 8.009
32.24000 7.230
32.25000 4.126
32.26000 4.033
32.27000 13.091
32.28000 10.100
32.29000 12.238
32.30000 11.174
32.31000 5.089
32.32000 8.070
32.33000 8.152
32.34000 10.080
32.35000 8.224
32.36000 7.084
32.37000 6.099
32.38000 8.126
32.39000 9.091
32.40000 7.152
32.41000 8.160
32.42000 4.021
32.43000 11.281
32.44000 5.100
32.45000 5.042
32.46000 5.150
32.47000 7.029
32.48000 8.156
32.49000 7.241
32.50000 8.029
32.51000 9.231
32.52000 4.056
32.53000 1.004
32.54000 13.080
32.55000 1.003
32.56000 10.151
32.57000 6.015
32.58000 15.327
32.59000 5.955
32.60000 8.182
32.61000 5.996
32.62000 5.023
32.63000 8.073
32.64000 9.213
32.65000 4.005
32.66000 5.095
32.67000 4.060
32.68000 11.170
32.69000 11.095
32.70000 6.107
32.71000 6.062
32.72000 4.053
32.73000 11.118
32.74000 7.096
32.75000 8.139
32.76000 2.078
32.77000 11.170
32.78000 6.079
32.79000 9.159
32.80000 8.155
32.81000 7.076
32.82000 10.262
32.83000 10.124
32.84000 5.115
32.85000 6.032
32.86000 8.986
32.87000 5.070
32.88000 4.121
32.89000 9.058
32.90000 9.278
32.91000 9.058
32.92000 5.073
32.93000 5.017
32.94000 7.045
32.95000 4.052
32.96000 4.980
32.97000 9.221
32.98000 6.034
32.99000 13.191
33.00000 7.069
33.01000 10.102
33.02000 8.121
33.03000 6.090
33.04000 5.063
33.05000 5.133
33.06000 7.144
33.07000 3.019
33.08000 4.998
33.09000 5.058
33.10000 10.124
33.11000 7.067
33.12000 6.108
33.13000 6.062
33.14000 3.041
33.15000 6.095
33.16000 9.137
33.17000 10.215
33.18000 13.220
33.19000 9.118
33.20000 11.126
33.21000 5.073
33.22000 5.087
33.23000 6.205
33.24000 8.102
33.25000 5.045
33.26000 9.130
33.27000 4.995
33.28000 7.064
33.29000 5.069
33.30000 6.075
33.31000 5.032
33.32000 6.122
33.33000 4.018
33.34000 7.061
33.35000 5.037
33.36000 5.021
33.37000 6.097
33.38000 4.988
33.39000 11.135
33.40000 8.062
33.41000 5.135
33.42000 7.032
33.43000 7.197
33.44000 5.059
33.45000 3.976
33.46000 7.074
33.47000 9.182
33.48000 7.159
33.49000 4.941
33.50000 3.046
33.51000 2.044
33.52000 7.111
33.53000 3.069
33.54000 6.040
33.55000 0.988
33.56000 8.096
33.57000 11.056
33.58000 10.158
33.59000 5.028
33.60000 4.001
33.61000 8.019
33.62000 8.131
33.63000 7.062
33.64000 5.112
33.65000 7.032
33.66000 6.055
33.67000 7.233
33.68000 5.035
33.69000 9.052
33.70000 8.071
33.71000 5.969
33.72000 3.034
33.73000 6.006
33.74000 4.966
33.75000 8.203
33.76000 8.084
33.77000 6.077
33.78000 4.060
33.79000 8.161
33.80000 9.079
33.81000 6.087
33.82000 3.051
33.83000 6.201
33.84000 8.013
33.85000 2.047
33.86000 8.129
33.87000 2.998
33.88000 5.042
33.89000 13.182
33.90000 10.324
33.91000 6.112
33.92000 9.048
33.93000 4.143
33.94000 5.030
33.95000 6.063
33.96000 5.046
33.97000 0.000
33.98000 4.066
33.99000 9.103
34.00000 9.086
34.01000 7.148
34.02000 10.100
34.03000 8.224
34.04000 4.141
34.05000 9.129
34.06000 8.097
34.07000 7.104
34.08000 8.105
34.09000 8.172
34.10000 7.104
34.11000 9.141
34.12000 3.979
34.13000 9.176
34.14000 4.996
34.15000 10.000
34.16000 3.975
34.17000 6.090
34.18000 3.001
34.19000 7.095
34.20000 6.078
34.21000 8.107
34.22000 5.097
34.23000 6.006
34.24000 12.294
34.25000 7.146
34.26000 10.109
34.27000 7.079
34.28000 11.139
34.29000 8.111
34.30000 8.090
34.31000 4.095
34.32000 6.119
34.33000 4.076
34.34000 4.072
34.35000 3.050
34.36000 6.059
34.37000 5.016
34.38000 6.002
34.39000 3.020
34.40000 5.997
34.41000 11.086
34.42000 4.017
34.43000 5.061
34.44000 3.104
34.45000 5.101
34.46000 6.119
34.47000 7.073
34.48000 4.026
34.49000 4.028
34.50000 13.206
34.51000 2.963
34.52000 5.990
34.53000 5.006
34.54000 3.025
34.55000 5.135
34.56000 4.057
34.57000 6.149
34.58000 10.283
34.59000 6.146
34.60000 4.013
34.61000 8.100
34.62000 4.098
34.63000 4.084
34.64000 5.111
34.65000 6.063
34.66000 5.031
34.67000 4.036
34.68000 7.218
34.69000 8.101
34.70000 8.106
34.71000 3.103
34.72000 7.078
34.73000 3.050
34.74000 3.066
34.75000 5.080
34.76000 6.150
34.77000 6.131
34.78000 3.026
34.79000 6.056
34.80000 5.160
34.81000 3.088
34.82000 5.063
34.83000 2.032
34.84000 7.076
34.85000 5.062
34.86000 4.037
34.87000 7.021
34.88000 4.052
34.89000 5.154
34.90000 3.011
34.91000 4.055
34.92000 4.022
34.93000 6.110
34.94000 5.115
34.95000 3.969
34.96000 6.077
34.97000 3.109
34.98000 11.242
34.99000 6.135
35.00000 3.024
35.01000 11.240
35.02000 3.035
35.03000 3.040
35.04000 4.070
35.05000 6.091
35.06000 12.242
35.07000 7.139
35.08000 4.079
35.09000 5.094
35.10000 3.016
35.11000 5.070
35.12000 6.056
35.13000 5.109
35.14000 6.146
35.15000 8.136
35.16000 3.035
35.17000 8.064
35.18000 7.154
35.19000 2.036
35.20000 9.167
35.21000 7.155
35.22000 6.046
35.23000 5.040
35.24000 5.020
35.25000 7.135
35.26000 11.168
35.27000 6.051
35.28000 3.033
35.29000 7.075
35.30000 5.053
35.31000 6.144
35.32000 3.099
35.33000 4.050
35.34000 7.277
35.35000 4.071
35.36000 7.178
35.37000 6.142
35.38000 7.160
35.39000 8.094
35.40000 12.222
35.41000 8.070
35.42000 7.160
35.43000 2.110
35.44000 5.003
35.45000 8.975
35.46000 7.053
35.47000 9.117
35.48000 3.072
35.49000 4.092
35.50000 7.169
35.51000 4.054
35.52000 4.046
35.53000 10.120
35.54000 3.995
35.55000 5.058
35.56000 5.026
35.57000 2.976
35.58000 6.011
35.59000 9.211
35.60000 5.005
35.61000 7.103
35.62000 8.162
35.63000 7.046
35.64000 9.073
35.65000 7.019
35.66000 8.111
35.67000 6.078
35.68000 3.039
35.69000 5.030
35.70000 5.070
35.71000 6.055
35.72000 2.031
35.73000 6.085
35.74000 8.183
35.75000 3.089
35.76000 4.019
35.77000 3.036
35.78000 2.080
35.79000 6.162
35.80000 5.012
35.81000 8.132
35.82000 6.135
35.83000 7.187
35.84000 10.114
35.85000 5.007
35.86000 4.992
35.87000 4.162
35.88000 3.038
35.89000 3.061
35.90000 4.983
35.91000 4.971
35.92000 7.052
35.93000 7.019
35.94000 6.104
35.95000 5.140
35.96000 4.022
35.97000 3.987
35.98000 3.092
35.99000 6.194
36.00000 3.987
36.01000 6.070
36.02000 9.185
36.03000 9.224
36.04000 5.031
36.05000 6.163
36.06000 0.980
36.07000 8.108
36.08000 6.035
36.09000 7.009
36.10000 6.002
36.11000 7.127
36.12000 6.139
36.13000 3.077
36.14000 7.087
36.15000 7.118
36.16000 9.094
36.17000 7.103
36.18000 7.113
36.19000 6.046
36.20000 7.105
36.21000 6.036
36.22000 5.112
36.23000 5.075
36.24000 5.109
36.25000 5.019
36.26000 6.185
36.27000 2.027
36.28000 2.053
36.29000 3.092
36.30000 8.138
36.31000 11.163
36.32000 5.161
36.33000 2.057
36.34000 2.035
36.35000 3.021
36.36000 4.027
36.37000 4.969
36.38000 9.248
36.39000 5.166
36.40000 10.034
36.41000 6.042
36.42000 4.084
36.43000 8.189
36.44000 7.125
36.45000 7.120
36.46000 3.944
36.47000 4.020
36.48000 4.079
36.49000 4.069
36.50000 5.051
36.51000 7.077
36.52000 9.225
36.53000 8.140
36.54000 3.110
36.55000 11.344
36.56000 5.165
36.57000 5.127
36.58000 6.072
36.59000 0.000
36.60000 5.061
36.61000 4.973
36.62000 5.057
36.63000 9.128
36.64000 13.315
36.65000 7.926
36.66000 4.073
36.67000 8.019
36.68000 4.069
36.69000 3.047
36.70000 4.021
36.71000 6.110
36.72000 2.010
36.73000 6.130
36.74000 5.016
36.75000 5.081
36.76000 7.114
36.77000 3.000
36.78000 6.057
36.79000 4.073
36.80000 5.011
36.81000 2.994
36.82000 4.100
36.83000 2.048
36.84000 5.041
36.85000 8.092
36.86000 5.014
36.87000 3.078
36.88000 6.035
36.89000 3.011
36.90000 7.046
36.91000 3.027
36.92000 3.081
36.93000 5.983
36.94000 9.172
36.95000 8.148
36.96000 3.133
36.97000 4.027
36.98000 4.126
36.99000 4.015
37.00000 2.973
37.01000 3.031
37.02000 6.020
37.03000 2.029
37.04000 4.079
37.05000 5.190
37.06000 7.053
37.07000 5.062
37.08000 3.077
37.09000 10.105
37.10000 1.977
37.11000 3.058
37.12000 6.126
37.13000 7.100
37.14000 8.091
37.15000 1.116
37.16000 4.038
37.17000 4.996
37.18000 3.988
37.19000 5.099
37.20000 6.112
37.21000 7.083
37.22000 5.060
37.23000 6.037
37.24000 4.065
37.25000 5.155
37.26000 8.118
37.27000 3.060
37.28000 4.982
37.29000 4.162
37.30000 3.102
37.31000 4.057
37.32000 2.085
37.33000 8.099
37.34000 6.008
37.35000 5.014
37.36000 5.087
37.37000 7.051
37.38000 3.103
37.39000 10.203
37.40000 4.055
37.41000 8.107
37.42000 6.109
37.43000 4.102
37.44000 4.004
37.45000 6.090
37.46000 4.064
37.47000 7.210
37.48000 6.147
37.49000 2.006
37.50000 2.004
37.51000 9.085
37.52000 5.005
37.53000 6.073
37.54000 5.997
37.55000 5.142
37.56000 4.976
37.57000 6.060
37.58000 6.066
37.59000 4.082
37.60000 7.192
37.61000 6.976
37.62000 6.072
37.63000 1.011
37.64000 0.997
37.65000 5.029
37.66000 0.000
37.67000 2.039
37.68000 6.093
37.69000 2.036
37.70000 5.094
37.71000 7.159
37.72000 7.995
37.73000 1.953
37.74000 4.990
37.75000 4.054
37.76000 8.978
37.77000 6.104
37.78000 7.135
37.79000 5.086
37.80000 11.050
37.81000 2.092
37.82000 8.033
37.83000 8.108
37.84000 10.253
37.85000 7.075
37.86000 5.101
37.87000 2.977
37.88000 6.200
37.89000 2.026
37.90000 5.000
37.91000 9.163
37.92000 4.050
37.93000 7.116
37.94000 1.995
37.95000 2.035
37.96000 8.109
37.97000 7.999
37.98000 9.127
37.99000 4.036
38.00000 4.053
38.01000 4.031
38.02000 3.108
38.03000 7.103
38.04000 8.020
38.05000 3.093
38.06000 3.020
38.07000 8.042
38.08000 7.066
38.09000 7.200
38.10000 3.040
38.11000 7.103
38.12000 9.180
38.13000 5.018
38.14000 8.172
38.15000 4.058
38.16000 4.052
38.17000 4.984
38.18000 5.024
38.19000 4.013
38.20000 7.287
38.21000 7.099
38.22000 4.071
38.23000 5.047
38.24000 3.038
38.25000 6.177
38.26000 2.058
38.27000 5.054
38.28000 5.053
38.29000 2.005
38.30000 7.233
38.31000 5.033
38.32000 3.058
38.33000 0.000
38.34000 5.112
38.35000 6.116
38.36000 8.249
38.37000 4.220
38.38000 6.115
38.39000 4.060
38.40000 5.071
38.41000 8.055
38.42000 2.014
38.43000 6.087
38.44000 4.071
38.45000 4.068
38.46000 8.109
38.47000 3.034
38.48000 3.035
38.49000 6.092
38.50000 3.091
38.51000 3.124
38.52000 3.040
38.53000 5.138
38.54000 5.089
38.55000 7.158
38.56000 5.075
38.57000 3.154
38.58000 6.209
38.59000 5.083
38.60000 9.103
38.61000 4.074
38.62000 3.040
38.63000 6.112
38.64000 7.047
38.65000 5.134
38.66000 4.027
38.67000 7.200
38.68000 3.234
38.69000 4.111
38.70000 5.107
38.71000 7.094
38.72000 5.000
38.73000 5.055
38.74000 7.036
38.75000 6.029
38.76000 6.964
38.77000 1.999
38.78000 5.081
38.79000 6.135
38.80000 2.043
38.81000 6.093
38.82000 6.205
38.83000 6.097
38.84000 13.007
38.85000 6.173
38.86000 7.085
38.87000 5.055
38.88000 5.038
38.89000 5.087
38.90000 7.162
38.91000 7.151
38.92000 4.022
38.93000 9.142
38.94000 4.041
38.95000 5.120
38.96000 11.168
38.97000 1.024
38.98000 8.169
38.99000 1.983
39.00000 8.028
39.01000 2.021
39.02000 7.083
39.03000 7.216
39.04000 2.047
39.05000 4.100
39.06000 3.167
39.07000 2.103
39.08000 2.040
39.09000 10.211
39.10000 2.073
39.11000 8.118
39.12000 1.006
39.13000 2.995
39.14000 2.981
39.15000 5.114
39.16000 5.102
39.17000 3.063
39.18000 2.991
39.19000 4.992
39.20000 2.998
39.21000 6.124
39.22000 6.026
39.23000 5.025
39.24000 7.063
39.25000 5.069
39.26000 6.114
39.27000 3.017
39.28000 3.066
39.29000 3.003
39.30000 5.069
39.31000 9.060
39.32000 5.023
39.33000 2.996
39.34000 1.997
39.35000 5.095
39.36000 4.037
39.37000 2.032
39.38000 7.130
39.39000 5.110
39.40000 6.014
39.41000 5.063
39.42000 8.134
39.43000 4.120
39.44000 2.001
39.45000 1.001
39.46000 4.073
39.47000 12.260
39.48000 5.087
39.49000 7.199
39.50000 5.057
39.51000 4.007
39.52000 10.121
39.53000 6.076
39.54000 8.151
39.55000 5.036
39.56000 12.081
39.57000 5.096
39.58000 8.150
39.59000 6.121
39.60000 1.034
39.61000 4.084
39.62000 1.990
39.63000 11.225
39.64000 5.111
39.65000 8.058
39.66000 6.063
39.67000 4.105
39.68000 8.145
39.69000 4.092
39.70000 3.049
39.71000 5.031
39.72000 6.050
39.73000 5.102
39.74000 7.147
39.75000 10.162
39.76000 2.981
39.77000 9.061
39.78000 8.306
39.79000 5.120
39.80000 6.075
39.81000 6.078
39.82000 8.089
39.83000 4.142
39.84000 4.953
39.85000 4.022
39.86000 6.066
39.87000 7.060
39.88000 6.083
39.89000 7.030
39.90000 9.144
39.91000 6.098
39.92000 5.989
39.93000 1.965
39.94000 6.135
39.95000 6.088
39.96000 3.065
39.97000 6.077
39.98000 2.999
39.99000 5.091
40.00000 7.173
40.01000 5.028
40.02000 9.058
40.03000 5.115
40.04000 4.076
40.05000 6.068
40.06000 4.047
40.07000 4.939
40.08000 4.079
40.09000 9.123
40.10000 6.128
40.11000 9.256
40.12000 8.139
40.13000 4.190
40.14000 4.043
40.15000 3.007
40.16000 3.086
40.17000 6.999
40.18000 3.063
40.19000 8.113
40.20000 3.043
40.21000 6.010
40.22000 7.076
40.23000 3.021
40.24000 6.018
40.25000 7.143
40.26000 7.123
40.27000 5.042
40.28000 7.947
40.29000 5.112
40.30000 3.969
40.31000 9.136
40.32000 3.036
40.33000 6.199
40.34000 2.024
40.35000 6.101
40.36000 7.021
40.37000 7.054
40.38000 4.083
40.39000 5.028
40.40000 3.045
40.41000 5.041
40.42000 7.237
40.43000 4.062
40.44000 3.013
40.45000 7.149
40.46000 4.995
40.47000 8.087
40.48000 3.022
40.49000 7.070
40.50000 6.182
40.51000 5.990
40.52000 4.137
40.53000 7.042
40.54000 1.002
40.55000 3.988
40.56000 6.113
40.57000 4.039
40.58000 4.006
40.59000 6.103
40.60000 6.119
40.61000 4.046
40.62000 0.000
40.63000 3.009
40.64000 7.021
40.65000 5.053
40.66000 3.015
40.67000 10.121
40.68000 5.066
40.69000 6.097
40.70000 11.237
40.71000 6.060
40.72000 13.265
40.73000 6.988
40.74000 10.136
40.75000 5.148
40.76000 7.101
40.77000 4.067
40.78000 7.019
40.79000 6.077
40.80000 5.085
40.81000 2.051
40.82000 5.076
40.83000 4.028
40.84000 4.003
40.85000 6.008
40.86000 5.067
40.87000 8.051
40.88000 1.004
40.89000 16.009
40.90000 5.071
40.91000 3.034
40.92000 6.020
40.93000 3.082
40.94000 2.056
40.95000 5.003
40.96000 6.068
40.97000 1.980
40.98000 7.090
40.99000 5.996
41.00000 10.054
41.01000 7.158
41.02000 6.077
41.03000 3.045
41.04000 5.102
41.05000 5.062
41.06000 5.014
41.07000 4.049
41.08000 0.991
41.09000 7.136
41.10000 0.992
41.11000 5.083
41.12000 2.992
41.13000 8.096
41.14000 6.040
41.15000 8.167
41.16000 3.064
41.17000 3.017
41.18000 5.126
41.19000 4.047
41.20000 5.083
41.21000 2.009
41.22000 5.109
41.23000 2.101
41.24000 3.022
41.25000 4.001
41.26000 4.984
41.27000 3.108
41.28000 6.064
41.29000 3.060
41.30000 5.134
41.31000 4.029
41.32000 5.961
41.33000 7.229
41.34000 5.086
41.35000 8.034
41.36000 10.124
41.37000 3.070
41.38000 3.962
41.39000 4.067
41.40000 7.994
41.41000 6.102
41.42000 2.986
41.43000 5.072
41.44000 5.044
41.45000 6.053
41.46000 5.043
41.47000 8.114
41.48000 5.022
41.49000 8.080
41.50000 5.057
41.51000 8.138
41.52000 6.158
41.53000 3.015
41.54000 7.093
41.55000 5.051
41.56000 0.992
41.57000 6.093
41.58000 4.032
41.59000 7.079
41.60000 3.998
41.61000 7.110
41.62000 5.065
41.63000 0.979
41.64000 4.050
41.65000 6.108
41.66000 5.067
41.67000 6.035
41.68000 5.175
41.69000 5.011
41.70000 7.961
41.71000 4.028
41.72000 2.045
41.73000 2.069
41.74000 4.035
41.75000 6.057
41.76000 4.038
41.77000 7.112
41.78000 4.036
41.79000 9.083
41.80000 4.080
41.81000 4.136
41.82000 2.079
41.83000 2.988
41.84000 4.127
41.85000 8.130
41.86000 4.976
41.87000 3.972
41.88000 7.235
41.89000 4.996
41.90000 8.026
41.91000 3.023
41.92000 8.131
41.93000 5.069
41.94000 5.056
41.95000 8.081
41.96000 4.981
41.97000 7.166
41.98000 6.072
41.99000 7.999
42.00000 4.044
42.01000 5.177
42.02000 4.048
42.03000 6.116
42.04000 7.992
42.05000 4.083
42.06000 7.100
42.07000 3.072
42.08000 3.012
42.09000 6.136
42.10000 4.040
42.11000 6.033
42.12000 3.980
42.13000 5.999
42.14000 9.256
42.15000 4.032
42.16000 7.093
42.17000 1.993
42.18000 4.035
42.19000 4.040
42.20000 4.000
42.21000 6.239
42.22000 4.015
42.23000 5.154
42.24000 11.165
42.25000 7.091
42.26000 5.154
42.27000 7.185
42.28000 4.066
42.29000 8.258
42.30000 3.985
42.31000 5.056
42.32000 4.030
42.33000 6.070
42.34000 5.017
42.35000 5.007
42.36000 6.080
42.37000 5.010
42.38000 11.167
42.39000 3.049
42.40000 3.973
42.41000 9.187
42.42000 5.027
42.43000 6.189
42.44000 9.154
42.45000 3.062
42.46000 6.062
42.47000 6.102
42.48000 7.115
42.49000 5.099
42.50000 4.090
42.51000 6.088
42.52000 6.073
42.53000 9.033
42.54000 6.014
42.55000 5.033
42.56000 10.208
42.57000 6.155
42.58000 6.099
42.59000 3.061
42.60000 9.201
42.61000 2.066
42.62000 7.061
42.63000 8.023
42.64000 6.040
42.65000 6.034
42.66000 3.013
42.67000 5.103
42.68000 5.050
42.69000 3.036
42.70000 7.163
42.71000 2.075
42.72000 6.019
42.73000 8.142
42.74000 4.108
42.75000 4.033
42.76000 6.067
42.77000 3.045
42.78000 5.031
42.79000 4.978
42.80000 7.182
42.81000 1.986
42.82000 5.035
42.83000 5.066
42.84000 2.051
42.85000 5.047
42.86000 3.966
42.87000 4.086
42.88000 3.061
42.89000 7.084
42.90000 3.070
42.91000 3.991
42.92000 5.060
42.93000 6.063
42.94000 7.116
42.95000 12.127
42.96000 3.024
42.97000 5.084
42.98000 4.077
42.99000 4.017
43.00000 7.062
43.01000 6.052
43.02000 4.013
43.03000 6.066
43.04000 5.094
43.05000 6.190
43.06000 3.066
43.07000 5.113
43.08000 3.047
43.09000 8.130
43.10000 3.061
43.11000 3.050
43.12000 12.180
43.13000 4.034
43.14000 0.000
43.15000 8.229
43.16000 6.951
43.17000 9.236
43.18000 5.105
43.19000 0.000
43.20000 2.044
43.21000 7.265
43.22000 6.112
43.23000 5.105
43.24000 8.247
43.25000 5.004
43.26000 4.962
43.27000 3.144
43.28000 7.037
43.29000 3.021
43.30000 7.997
43.31000 4.014
43.32000 3.076
43.33000 3.045
43.34000 5.124
43.35000 4.034
43.36000 4.054
43.37000 4.112
43.38000 4.075
43.39000 4.043
43.40000 2.048
43.41000 2.061
43.42000 6.055
43.43000 3.006
43.44000 5.060
43.45000 5.079
43.46000 5.007
43.47000 3.069
43.48000 4.073
43.49000 8.083
43.50000 3.055
43.51000 8.192
43.52000 2.040
43.53000 0.000
43.54000 7.090
43.55000 4.063
43.56000 5.066
43.57000 4.169
43.58000 4.053
43.59000 8.098
43.60000 6.086
43.61000 5.098
43.62000 1.984
43.63000 2.011
43.64000 4.036
43.65000 5.161
43.66000 7.099
43.67000 4.129
43.68000 4.125
43.69000 6.051
43.70000 3.001
43.71000 5.940
43.72000 4.076
43.73000 5.082
43.74000 13.229
43.75000 5.036
43.76000 5.013
43.77000 4.016
43.78000 5.121
43.79000 6.965
43.80000 5.039
43.81000 2.049
43.82000 3.034
43.83000 6.137
43.84000 4.041
43.85000 3.034
43.86000 5.002
43.87000 3.078
43.88000 4.143
43.89000 3.043
43.90000 4.092
43.91000 6.000
43.92000 0.000
43.93000 3.977
43.94000 5.036
43.95000 5.081
43.96000 6.072
43.97000 3.073
43.98000 5.054
43.99000 7.130
44.00000 7.031
44.01000 2.036
44.02000 5.078
44.03000 6.147
44.04000 8.134
44.05000 6.074
44.06000 5.049
44.07000 4.034
44.08000 6.035
44.09000 0.991
44.10000 6.055
44.11000 5.065
44.12000 7.173
44.13000 9.101
44.14000 5.112
44.15000 8.076
44.16000 9.124
44.17000 5.090
44.18000 3.056
44.19000 5.110
44.20000 7.105
44.21000 5.095
44.22000 2.033
44.23000 4.000
44.24000 4.026
44.25000 4.059
44.26000 6.075
44.27000 6.073
44.28000 3.998
44.29000 5.091
44.30000 8.112
44.31000 8.065
44.32000 2.991
44.33000 0.000
44.34000 4.092
44.35000 5.042
44.36000 3.119
44.37000 8.001
44.38000 4.041
44.39000 6.082
44.40000 10.256
44.41000 6.059
44.42000 6.067
44.43000 9.037
44.44000 11.203
44.45000 4.021
44.46000 11.008
44.47000 5.074
44.48000 5.189
44.49000 5.015
44.50000 4.107
44.51000 6.143
44.52000 5.061
44.53000 4.024
44.54000 3.027
44.55000 7.182
44.56000 6.099
44.57000 6.112
44.58000 2.978
44.59000 15.089
44.60000 5.063
44.61000 6.146
44.62000 9.085
44.63000 0.999
44.64000 3.075
44.65000 2.030
44.66000 4.051
44.67000 6.151
44.68000 5.970
44.69000 5.013
44.70000 5.065
44.71000 5.169
44.72000 6.197
44.73000 3.987
44.74000 4.096
44.75000 10.233
44.76000 1.980
44.77000 3.080
44.78000 5.092
44.79000 5.055
44.80000 7.951
44.81000 0.994
44.82000 3.033
44.83000 3.024
44.84000 2.079
44.85000 7.087
44.86000 7.121
44.87000 4.039
44.88000 5.134
44.89000 3.017
44.90000 6.154
44.91000 2.985
44.92000 6.030
44.93000 5.095
44.94000 2.034
44.95000 2.066
44.96000 8.144
44.97000 0.996
44.98000 6.064
44.99000 5.020
45.00000 4.983
45.01000 6.000
45.02000 4.995
45.03000 7.102
45.04000 5.149
45.05000 5.037
45.06000 4.027
45.07000 3.125
45.08000 4.068
45.09000 2.965
45.10000 7.045
45.11000 3.080
45.12000 4.089
45.13000 2.010
45.14000 5.140
45.15000 3.061
45.16000 4.008
45.17000 5.095
45.18000 1.990
45.19000 4.021
45.20000 3.042
45.21000 2.991
45.22000 5.055
45.23000 3.049
45.24000 6.021
45.25000 2.017
45.26000 6.081
45.27000 7.134
45.28000 2.059
45.29000 3.052
45.30000 5.110
45.31000 5.093
45.32000 7.195
45.33000 3.079
45.34000 8.102
45.35000 3.046
45.36000 11.096
45.37000 6.122
45.38000 8.117
45.39000 3.052
45.40000 3.021
45.41000 7.046
45.42000 8.056
45.43000 4.074
45.44000 4.146
45.45000 8.144
45.46000 7.997
45.47000 9.003
45.48000 7.154
45.49000 7.043
45.50000 1.034
45.51000 7.106
45.52000 1.965
45.53000 5.997
45.54000 1.030
45.55000 6.065
45.56000 7.168
45.57000 3.012
45.58000 4.089
45.59000 8.080
45.60000 1.986
45.61000 4.092
45.62000 8.078
45.63000 3.014
45.64000 4.089
45.65000 11.224
45.66000 4.046
45.67000 5.962
45.68000 3.001
45.69000 2.051
45.70000 6.128
45.71000 2.016
45.72000 2.075
45.73000 2.983
45.74000 5.130
45.75000 3.062
45.76000 7.018
45.77000 3.005
45.78000 6.076
45.79000 2.054
45.80000 6.054
45.81000 11.199
45.82000 6.070
45.83000 4.131
45.84000 3.029
45.85000 7.121
45.86000 2.974
45.87000 7.188
45.88000 9.275
45.89000 3.075
45.90000 7.095
45.91000 3.086
45.92000 5.137
45.93000 4.112
45.94000 5.077
45.95000 3.063
45.96000 0.974
45.97000 2.053
45.98000 6.007
45.99000 4.045
46.00000 6.213
46.01000 3.028
46.02000 3.073
46.03000 5.033
46.04000 5.189
46.05000 1.045
46.06000 0.000
46.07000 2.046
46.08000 6.152
46.09000 6.080
46.10000 5.965
46.11000 3.094
46.12000 5.961
46.13000 2.064
46.14000 1.010
46.15000 3.036
46.16000 0.997
46.17000 4.991
46.18000 5.145
46.19000 4.043
46.20000 5.008
46.21000 4.063
46.22000 1.023
46.23000 5.186
46.24000 5.060
46.25000 6.062
46.26000 4.010
46.27000 4.067
46.28000 4.085
46.29000 5.124
46.30000 6.059
46.31000 2.061
46.32000 4.014
46.33000 5.050
46.34000 0.981
46.35000 5.137
46.36000 3.043
46.37000 3.020
46.38000 6.060
46.39000 3.038
46.40000 5.094
46.41000 7.124
46.42000 3.039
46.43000 2.009
46.44000 5.042
46.45000 4.138
46.46000 3.082
46.47000 5.104
46.48000 3.019
46.49000 1.038
46.50000 5.112
46.51000 6.012
46.52000 10.141
46.53000 9.077
46.54000 6.138
46.55000 4.043
46.56000 5.051
46.57000 2.043
46.58000 1.996
46.59000 2.991
46.60000 3.037
46.61000 5.032
46.62000 5.079
46.63000 5.996
46.64000 8.224
46.65000 4.031
46.66000 4.980
46.67000 6.040
46.68000 2.991
46.69000 8.123
46.70000 6.030
46.71000 9.136
46.72000 5.042
46.73000 6.068
46.74000 2.001
46.75000 2.069
46.76000 6.054
46.77000 3.107
46.78000 7.156
46.79000 6.038
46.80000 7.051
46.81000 2.008
46.82000 5.019
46.83000 7.149
46.84000 12.111
46.85000 6.028
46.86000 5.089
46.87000 3.111
46.88000 4.030
46.89000 6.007
46.90000 6.090
46.91000 6.109
46.92000 3.067
46.93000 7.141
46.94000 2.040
46.95000 4.117
46.96000 3.053
46.97000 3.030
46.98000 8.055
46.99000 3.049
47.00000 6.004
47.01000 5.027
47.02000 1.995
47.03000 2.055
47.04000 11.154
47.05000 9.066
47.06000 9.088
47.07000 4.087
47.08000 4.028
47.09000 4.062
47.10000 5.026
47.11000 3.067
47.12000 2.001
47.13000 1.006
47.14000 5.055
47.15000 3.059
47.16000 5.033
47.17000 2.033
47.18000 7.019
47.19000 1.050
47.20000 8.208
47.21000 5.122
47.22000 2.002
47.23000 8.019
47.24000 5.047
47.25000 4.046
47.26000 4.026
47.27000 4.051
47.28000 3.128
47.29000 5.021
47.30000 7.075
47.31000 3.045
47.32000 7.186
47.33000 6.002
47.34000 3.066
47.35000 10.042
47.36000 4.025
47.37000 4.043
47.38000 0.993
47.39000 4.012
47.40000 11.146
47.41000 8.057
47.42000 10.122
47.43000 3.124
47.44000 3.067
47.45000 0.999
47.46000 5.066
47.47000 2.058
47.48000 4.123
47.49000 2.064
47.50000 7.151
47.51000 3.104
47.52000 6.180
47.53000 1.989
47.54000 7.126
47.55000 4.041
47.56000 5.030
47.57000 6.147
47.58000 7.171
47.59000 3.022
47.60000 6.142
47.61000 3.043
47.62000 4.048
47.63000 6.065
47.64000 2.983
47.65000 7.064
47.66000 6.052
47.67000 7.164
47.68000 4.100
47.69000 3.041
47.70000 2.014
47.71000 2.019
47.72000 3.023
47.73000 6.026
47.74000 3.005
47.75000 6.023
47.76000 8.239
47.77000 1.970
47.78000 4.037
47.79000 4.051
47.80000 0.999
47.81000 5.043
47.82000 4.062
47.83000 8.099
47.84000 6.046
47.85000 9.232
47.86000 12.275
47.87000 2.052
47.88000 3.099
47.89000 4.035
47.90000 5.131
47.91000 3.069
47.92000 4.048
47.93000 4.078
47.94000 0.964
47.95000 4.027
47.96000 5.085
47.97000 9.261
47.98000 6.072
47.99000 5.065
48.00000 3.040
48.01000 2.002
48.02000 2.027
48.03000 2.017
48.04000 5.987
48.05000 9.980
48.06000 4.096
48.07000 14.187
48.08000 5.046
48.09000 3.058
48.10000 4.109
48.11000 8.221
48.12000 6.054
48.13000 2.049
48.14000 3.016
48.15000 6.053
48.16000 7.084
48.17000 3.035
48.18000 3.044
48.19000 5.019
48.20000 4.025
48.21000 3.071
48.22000 5.074
48.23000 3.043
48.24000 2.973
48.25000 3.075
48.26000 2.031
48.27000 12.127
48.28000 5.043
48.29000 10.085
48.30000 2.965
48.31000 2.020
48.32000 5.043
48.33000 4.023
48.34000 3.020
48.35000 4.055
48.36000 1.058
48.37000 4.122
48.38000 4.093
48.39000 4.118
48.40000 7.023
48.41000 3.062
48.42000 6.033
48.43000 7.209
48.44000 6.145
48.45000 2.074
48.46000 4.078
48.47000 6.175
48.48000 6.983
48.49000 2.048
48.50000 6.133
48.51000 7.086
48.52000 5.007
48.53000 4.091
48.54000 2.038
48.55000 4.016
48.56000 3.053
48.57000 0.987
48.58000 3.004
48.59000 9.112
48.60000 4.040
48.61000 4.024
48.62000 3.032
48.63000 6.101
48.64000 3.017
48.65000 7.107
48.66000 1.995
48.67000 3.932
48.68000 4.033
48.69000 3.052
48.70000 2.071
48.71000 3.067
48.72000 5.993
48.73000 4.052
48.74000 6.076
48.75000 5.009
48.76000 6.047
48.77000 1.027
48.78000 4.034
48.79000 3.028
48.80000 5.099
48.81000 4.063
48.82000 2.078
48.83000 4.078
48.84000 6.086
48.85000 4.054
48.86000 2.012
48.87000 6.036
48.88000 1.991
48.89000 2.981
48.90000 7.041
48.91000 2.112
48.92000 4.106
48.93000 3.040
48.94000 3.016
48.95000 10.278
48.96000 7.070
48.97000 2.105
48.98000 5.107
48.99000 5.004
49.00000 4.023
49.01000 3.021
49.02000 6.101
49.03000 3.008
49.04000 8.187
49.05000 4.022
49.06000 3.087
49.07000 3.116
49.08000 5.087
49.09000 6.059
49.10000 4.058
49.11000 0.993
49.12000 4.963
49.13000 4.085
49.14000 3.140
49.15000 6.105
49.16000 5.075
49.17000 3.014
49.18000 3.005
49.19000 3.049
49.20000 5.035
49.21000 2.979
49.22000 1.056
49.23000 5.075
49.24000 5.096
49.25000 6.013
49.26000 8.093
49.27000 2.012
49.28000 2.987
49.29000 5.178
49.30000 3.008
49.31000 0.997
49.32000 7.124
49.33000 8.025
49.34000 4.012
49.35000 3.130
49.36000 2.044
49.37000 2.028
49.38000 4.014
49.39000 3.956
49.40000 5.149
49.41000 5.039
49.42000 5.072
49.43000 6.205
49.44000 8.156
49.45000 4.091
49.46000 3.009
49.47000 9.131
49.48000 3.001
49.49000 3.044
49.50000 3.054
49.51000 8.071
49.52000 6.034
49.53000 8.066
49.54000 6.046
49.55000 1.010
49.56000 12.179
49.57000 2.027
49.58000 5.117
49.59000 6.975
49.60000 6.060
49.61000 7.121
49.62000 3.101
49.63000 6.022
49.64000 3.097
49.65000 4.969
49.66000 2.069
49.67000 3.073
49.68000 3.096
49.69000 4.965
49.70000 2.053
49.71000 5.091
49.72000 3.052
49.73000 5.081
49.74000 4.033
49.75000 4.116
49.76000 1.048
49.77000 5.055
49.78000 6.141
49.79000 3.029
49.80000 5.143
49.81000 0.990
49.82000 4.009
49.83000 5.110
49.84000 4.028
49.85000 5.005
49.86000 4.124
49.87000 3.089
49.88000 1.973
49.89000 4.094
49.90000 3.053
49.91000 5.017
49.92000 5.011
49.93000 3.005
49.94000 2.075
49.95000 2.026
49.96000 6.011
49.97000 5.055
49.98000 4.050
49.99000 7.006
50.00000 6.073
50.01000 3.050
50.02000 5.033
50.03000 9.067
50.04000 3.002
50.05000 5.112
50.06000 6.205
50.07000 5.080
50.08000 4.080
50.09000 11.241
50.10000 4.152
50.11000 3.018
50.12000 1.008
50.13000 4.049
50.14000 5.055
50.15000 4.089
50.16000 4.117
50.17000 5.931
50.18000 5.072
50.19000 8.114
50.20000 3.006
50.21000 6.060
50.22000 4.098
50.23000 2.055
50.24000 7.153
50.25000 7.220
50.26000 3.084
50.27000 5.168
50.28000 6.121
50.29000 1.001
50.30000 3.069
50.31000 6.055
50.32000 8.168
50.33000 9.096
50.34000 4.141
50.35000 3.105
50.36000 7.094
50.37000 5.139
50.38000 5.034
50.39000 3.034
50.40000 6.090
50.41000 1.067
50.42000 4.962
50.43000 6.050
50.44000 0.991
50.45000 6.209
50.46000 1.027
50.47000 4.049
50.48000 5.010
50.49000 6.134
50.50000 6.102
50.51000 4.049
50.52000 2.087
50.53000 4.044
50.54000 4.068
50.55000 5.972
50.56000 6.145
50.57000 4.129
50.58000 3.113
50.59000 7.031
50.60000 7.088
50.61000 2.064
50.62000 5.101
50.63000 5.052
50.64000 0.988
50.65000 6.163
50.66000 4.083
50.67000 0.000
50.68000 8.068
50.69000 2.070
50.70000 2.042
50.71000 0.982
50.72000 5.040
50.73000 1.999
50.74000 6.069
50.75000 2.043
50.76000 4.007
50.77000 5.004
50.78000 3.073
50.79000 2.009
50.80000 5.055
50.81000 3.048
50.82000 2.006
50.83000 3.055
50.84000 5.079
50.85000 4.020
50.86000 5.170
50.87000 3.063
50.88000 7.133
50.89000 9.019
50.90000 8.184
50.91000 8.083
50.92000 5.157
50.93000 2.999
50.94000 3.053
50.95000 2.937
50.96000 4.046
50.97000 5.150
50.98000 7.088
50.99000 7.057
51.00000 4.162
51.01000 3.049
51.02000 5.059
51.03000 2.999
51.04000 2.051
51.05000 7.070
51.06000 2.000
51.07000 4.028
51.08000 5.106
51.09000 6.097
51.10000 3.065
51.11000 5.120
51.12000 6.043
51.13000 1.010
51.14000 4.975
51.15000 5.108
51.16000 5.209
51.17000 2.011
51.18000 4.020
51.19000 6.091
51.20000 2.110
51.21000 4.120
51.22000 5.027
51.23000 5.114
51.24000 2.004
51.25000 3.096
51.26000 0.000
51.27000 6.170
51.28000 7.044
51.29000 5.104
51.30000 5.187
51.31000 5.051
51.32000 5.124
51.33000 5.071
51.34000 2.021
51.35000 7.134
51.36000 0.992
51.37000 2.981
51.38000 10.098
51.39000 3.004
51.40000 3.057
51.41000 3.046
51.42000 8.137
51.43000 5.024
51.44000 5.106
51.45000 5.103
51.46000 4.084
51.47000 5.110
51.48000 7.007
51.49000 3.125
51.50000 2.951
51.51000 1.015
51.52000 2.996
51.53000 4.076
51.54000 8.051
51.55000 5.154
51.56000 5.049
51.57000 2.020
51.58000 5.030
51.59000 3.046
51.60000 8.138
51.61000 6.222
51.62000 7.070
51.63000 5.154
51.64000 8.030
51.65000 6.987
51.66000 5.056
51.67000 3.047
51.68000 3.054
51.69000 7.141
51.70000 5.099
51.71000 5.998
51.72000 3.090
51.73000 3.034
51.74000 5.064
51.75000 6.217
51.76000 5.096
51.77000 2.049
51.78000 3.005
51.79000 1.979
51.80000 6.123
51.81000 7.095
51.82000 2.055
51.83000 5.048
51.84000 4.098
51.85000 3.062
51.86000 3.046
51.87000 3.057
51.88000 5.050
51.89000 5.156
51.90000 3.062
51.91000 6.158
51.92000 10.128
51.93000 2.022
51.94000 3.973
51.95000 2.077
51.96000 6.059
51.97000 6.068
51.98000 1.978
51.99000 9.013
52.00000 3.037
52.01000 4.025
52.02000 7.087
52.03000 2.038
52.04000 8.092
52.05000 4.034
52.06000 1.002
52.07000 5.048
52.08000 7.065
52.09000 4.134
52.10000 5.096
52.11000 6.035
52.12000 6.174
52.13000 3.048
52.14000 4.062
52.15000 4.089
52.16000 6.176
52.17000 0.000
52.18000 5.113
52.19000 4.098
52.20000 6.107
52.21000 7.028
52.22000 2.028
52.23000 5.087
52.24000 5.045
52.25000 1.984
52.26000 3.091
52.27000 9.190
52.28000 6.146
52.29000 4.101
52.30000 7.104
52.31000 3.058
52.32000 6.104
52.33000 3.076
52.34000 4.007
52.35000 5.041
52.36000 6.103
52.37000 2.001
52.38000 2.058
52.39000 0.000
52.40000 0.985
52.41000 6.104
52.42000 4.983
52.43000 3.982
52.44000 5.024
52.45000 3.983
52.46000 6.158
52.47000 4.087
52.48000 5.061
52.49000 6.301
52.50000 5.082
52.51000 2.081
52.52000 4.086
52.53000 7.126
52.54000 1.021
52.55000 5.066
52.56000 6.050
52.57000 1.002
52.58000 7.063
52.59000 0.973
52.60000 2.079
52.61000 2.075
52.62000 2.015
52.63000 1.007
52.64000 8.060
52.65000 2.056
52.66000 10.126
52.67000 5.078
52.68000 8.108
52.69000 4.111
52.70000 4.996
52.71000 1.996
52.72000 5.048
52.73000 9.133
52.74000 5.115
52.75000 3.072
52.76000 4.044
52.77000 4.125
52.78000 5.100
52.79000 3.026
52.80000 5.032
52.81000 3.007
52.82000 6.105
52.83000 3.007
52.84000 4.035
52.85000 5.010
52.86000 4.079
52.87000 9.246
52.88000 3.061
52.89000 3.077
52.90000 2.955
52.91000 5.090
52.92000 6.053
52.93000 3.038
52.94000 5.043
52.95000 2.011
52.96000 5.095
52.97000 9.166
52.98000 3.046
52.99000 4.090
53.00000 4.137
53.01000 4.170
53.02000 8.222
53.03000 3.011
53.04000 4.113
53.05000 5.032
53.06000 6.086
53.07000 6.071
53.08000 3.097
53.09000 6.109
53.10000 8.070
53.11000 7.101
53.12000 3.078
53.13000 10.057
53.14000 9.064
53.15000 6.157
53.16000 5.058
53.17000 5.022
53.18000 6.040
53.19000 5.052
53.20000 9.164
53.21000 5.126
53.22000 3.025
53.23000 4.029
53.24000 3.092
53.25000 3.022
53.26000 1.979
53.27000 4.058
53.28000 2.072
53.29000 3.021
53.30000 2.028
53.31000 3.034
53.32000 7.110
53.33000 3.990
53.34000 5.027
53.35000 4.057
53.36000 3.114
53.37000 2.059
53.38000 1.018
53.39000 2.051
53.40000 4.998
53.41000 1.992
53.42000 3.037
53.43000 4.076
53.44000 4.111
53.45000 5.046
53.46000 5.026
53.47000 2.007
53.48000 4.044
53.49000 5.091
53.50000 7.112
53.51000 3.006
53.52000 2.055
53.53000 4.075
53.54000 4.115
53.55000 0.999
53.56000 2.049
53.57000 7.064
53.58000 3.006
53.59000 4.008
53.60000 0.993
53.61000 2.012
53.62000 3.991
53.63000 0.999
53.64000 10.138
53.65000 6.129
53.66000 2.072
53.67000 3.986
53.68000 6.125
53.69000 5.019
53.70000 6.023
53.71000 2.980
53.72000 6.066
53.73000 5.106
53.74000 4.026
53.75000 5.147
53.76000 4.981
53.77000 8.094
53.78000 5.091
53.79000 6.103
53.80000 4.074
53.81000 4.079
53.82000 0.974
53.83000 3.075
53.84000 2.999
53.85000 6.063
53.86000 1.044
53.87000 6.071
53.88000 3.049
53.89000 6.122
53.90000 2.996
53.91000 5.037
53.92000 5.138
53.93000 5.160
53.94000 6.052
53.95000 7.142
53.96000 2.011
53.97000 4.080
53.98000 3.100
53.99000 2.090
54.00000 3.039
54.01000 2.046
54.02000 3.063
54.03000 7.122
54.04000 5.192
54.05000 3.053
54.06000 2.052
54.07000 7.171
54.08000 6.108
54.09000 3.079
54.10000 3.106
54.11000 7.067
54.12000 5.107
54.13000 2.020
54.14000 2.026
54.15000 5.090
54.16000 4.050
54.17000 2.989
54.18000 4.067
54.19000 7.070
54.20000 2.069
54.21000 3.009
54.22000 3.098
54.23000 3.185
54.24000 9.061
54.25000 3.056
54.26000 2.990
54.27000 2.022
54.28000 3.007
54.29000 3.030
54.30000 3.027
54.31000 2.032
54.32000 5.013
54.33000 3.064
54.34000 3.092
54.35000 7.988
54.36000 4.121
54.37000 4.086
54.38000 3.041
54.39000 1.993
54.40000 5.073
54.41000 6.038
54.42000 4.014
54.43000 2.013
54.44000 4.028
54.45000 4.069
54.46000 7.114
54.47000 1.026
54.48000 4.025
54.49000 2.090
54.50000 3.062
54.51000 10.089
54.52000 3.005
54.53000 3.050
54.54000 3.006
54.55000 4.132
54.56000 3.000
54.57000 4.039
54.58000 2.051
54.59000 2.007
54.60000 6.022
54.61000 3.056
54.62000 3.018
54.63000 5.163
54.64000 6.027
54.65000 4.122
54.66000 2.105
54.67000 3.027
54.68000 2.061
54.69000 4.029
54.70000 5.070
54.71000 2.017
54.72000 2.030
54.73000 2.982
54.74000 1.047
54.75000 6.059
54.76000 4.018
54.77000 0.992
54.78000 2.041
54.79000 5.164
54.80000 8.177
54.81000 2.012
54.82000 4.077
54.83000 3.066
54.84000 0.000
54.85000 5.078
54.86000 3.043
54.87000 7.032
54.88000 4.092
54.89000 4.070
54.90000 0.000
54.91000 2.046
54.92000 6.043
54.93000 3.084
54.94000 4.191
54.95000 3.146
54.96000 7.021
54.97000 2.100
54.98000 1.016
54.99000 4.133
55.00000 0.000
55.01000 6.089
55.02000 1.045
55.03000 4.059
55.04000 4.014
55.05000 4.015
55.06000 4.090
55.07000 2.041
55.08000 1.984
55.09000 2.033
55.10000 2.044
55.11000 4.080
55.12000 8.122
55.13000 7.065
55.14000 7.063
55.15000 0.979
55.16000 4.076
55.17000 3.062
55.18000 2.028
55.19000 6.089
55.20000 6.166
55.21000 8.070
55.22000 3.998
55.23000 2.061
55.24000 6.046
55.25000 4.043
55.26000 8.100
55.27000 4.092
55.28000 2.067
55.29000 5.034
55.30000 1.992
55.31000 4.078
55.32000 7.055
55.33000 4.012
55.34000 8.191
55.35000 0.000
55.36000 7.082
55.37000 3.031
55.38000 2.999
55.39000 5.044
55.40000 0.979
55.41000 2.017
55.42000 4.989
55.43000 5.007
55.44000 3.099
55.45000 2.096
55.46000 3.054
55.47000 6.063
55.48000 8.027
55.49000 2.002
55.50000 4.959
55.51000 6.126
55.52000 4.096
55.53000 3.033
55.54000 2.093
55.55000 3.998
55.56000 7.023
55.57000 5.068
55.58000 6.003
55.59000 5.079
55.60000 4.931
55.61000 0.000
55.62000 3.013
55.63000 5.054
55.64000 3.992
55.65000 2.013
55.66000 5.229
55.67000 3.097
55.68000 0.988
55.69000 3.104
55.70000 3.000
55.71000 3.040
55.72000 2.033
55.73000 2.027
55.74000 3.065
55.75000 3.017
55.76000 6.050
55.77000 3.026
55.78000 3.000
55.79000 5.095
55.80000 3.000
55.81000 4.040
55.82000 1.989
55.83000 1.987
55.84000 3.010
55.85000 2.997
55.86000 1.035
55.87000 7.135
55.88000 2.005
55.89000 3.115
55.90000 6.115
55.91000 2.984
55.92000 1.034
55.93000 3.030
55.94000 2.047
55.95000 3.102
55.96000 5.021
55.97000 4.183
55.98000 4.021
55.99000 6.108
56.00000 3.019
56.01000 8.175
56.02000 9.241
56.03000 7.087
56.04000 3.031
56.05000 3.026
56.06000 3.032
56.07000 1.034
56.08000 6.084
56.09000 3.070
56.10000 3.056
56.11000 2.012
56.12000 3.095
56.13000 1.999
56.14000 4.030
56.15000 7.276
56.16000 3.126
56.17000 2.099
56.18000 1.000
56.19000 5.044
56.20000 4.189
56.21000 4.063
56.22000 6.168
56.23000 10.094
56.24000 5.037
56.25000 5.146
56.26000 5.092
56.27000 9.063
56.28000 4.081
56.29000 6.033
56.30000 0.000
56.31000 2.054
56.32000 8.136
56.33000 3.036
56.34000 5.110
56.35000 6.134
56.36000 3.035
56.37000 5.111
56.38000 9.170
56.39000 1.012
56.40000 0.994
56.41000 4.086
56.42000 1.008
56.43000 6.098
56.44000 3.093
56.45000 2.965
56.46000 6.009
56.47000 3.017
56.48000 1.984
56.49000 9.070
56.50000 6.053
56.51000 5.118
56.52000 3.040
56.53000 4.103
56.54000 0.989
56.55000 3.056
56.56000 4.054
56.57000 3.034
56.58000 4.020
56.59000 3.013
56.60000 4.002
56.61000 5.079
56.62000 0.000
56.63000 1.019
56.64000 6.054
56.65000 1.999
56.66000 1.030
56.67000 4.089
56.68000 4.047
56.69000 6.039
56.70000 5.010
56.71000 4.054
56.72000 5.045
56.73000 3.086
56.74000 2.014
56.75000 3.052
56.76000 2.983
56.77000 4.142
56.78000 4.037
56.79000 3.024
56.80000 3.074
56.81000 6.075
56.82000 1.006
56.83000 6.160
56.84000 1.017
56.85000 3.035
56.86000 3.046
56.87000 3.104
56.88000 0.999
56.89000 1.058
56.90000 6.031
56.91000 2.998
56.92000 3.047
56.93000 5.066
56.94000 1.975
56.95000 3.044
56.96000 5.082
56.97000 4.117
56.98000 5.017
56.99000 1.074
57.00000 3.083
57.01000 1.989
57.02000 1.003
57.03000 0.000
57.04000 4.063
57.05000 5.010
57.06000 0.977
57.07000 2.040
57.08000 3.081
57.09000 3.013
57.10000 6.101
57.11000 4.016
57.12000 1.001
57.13000 4.037
57.14000 7.251
57.15000 2.011
57.16000 2.073
57.17000 0.996
57.18000 2.056
57.19000 4.089
57.20000 0.000
57.21000 8.114
57.22000 3.101
57.23000 4.097
57.24000 3.077
57.25000 7.076
57.26000 4.029
57.27000 0.000
57.28000 4.087
57.29000 4.081
57.30000 0.000
57.31000 2.994
57.32000 1.044
57.33000 2.972
57.34000 1.035
57.35000 4.038
57.36000 3.028
57.37000 2.105
57.38000 2.970
57.39000 3.024
57.40000 0.000
57.41000 6.053
57.42000 3.988
57.43000 3.084
57.44000 7.977
57.45000 2.108
57.46000 1.015
57.47000 1.975
57.48000 1.006
57.49000 3.017
57.50000 1.002
57.51000 5.097
57.52000 5.030
57.53000 7.983
57.54000 2.983
57.55000 3.083
57.56000 3.067
57.57000 4.029
57.58000 3.143
57.59000 2.998
57.60000 1.017
57.61000 5.139
57.62000 3.010
57.63000 4.091
57.64000 3.085
57.65000 7.097
57.66000 3.974
57.67000 3.073
57.68000 6.063
57.69000 4.059
57.70000 6.157
57.71000 2.963
57.72000 4.021
57.73000 5.089
57.74000 1.998
57.75000 3.005
57.76000 0.981
57.77000 4.018
57.78000 2.077
57.79000 4.094
57.80000 5.076
57.81000 3.012
57.82000 3.052
57.83000 2.053
57.84000 3.039
57.85000 3.036
57.86000 6.046
57.87000 1.001
57.88000 3.013
57.89000 2.036
57.90000 3.010
57.91000 6.101
57.92000 4.090
57.93000 6.093
57.94000 3.063
57.95000 3.028
57.96000 2.018
57.97000 5.054
57.98000 3.009
57.99000 3.084
58.00000 5.003
58.01000 1.023
58.02000 2.976
58.03000 1.964
58.04000 5.129
58.05000 3.986
58.06000 1.981
58.07000 3.085
58.08000 1.994
58.09000 7.158
58.10000 1.989
58.11000 3.031
58.12000 0.983
58.13000 7.064
58.14000 3.049
58.15000 3.004
58.16000 1.014
58.17000 3.011
58.18000 4.143
58.19000 2.022
58.20000 2.099
58.21000 6.072
58.22000 2.983
58.23000 4.044
58.24000 3.069
58.25000 5.025
58.26000 2.010
58.27000 0.000
58.28000 1.013
58.29000 3.041
58.30000 1.983
58.31000 5.045
58.32000 5.053
58.33000 4.118
58.34000 1.065
58.35000 2.013
58.36000 7.122
58.37000 4.010
58.38000 2.022
58.39000 1.986
58.40000 5.142
58.41000 4.082
58.42000 3.030
58.43000 5.040
58.44000 2.034
58.45000 3.054
58.46000 2.019
58.47000 2.074
58.48000 3.039
58.49000 3.993
58.50000 4.056
58.51000 5.033
58.52000 2.022
58.53000 0.993
58.54000 3.016
58.55000 2.059
58.56000 6.003
58.57000 1.025
58.58000 3.038
58.59000 5.005
58.60000 5.094
58.61000 2.989
58.62000 2.037
58.63000 3.034
58.64000 6.163
58.65000 1.985
58.66000 5.113
58.67000 3.016
58.68000 5.066
58.69000 6.041
58.70000 2.984
58.71000 2.020
58.72000 1.011
58.73000 3.026
58.74000 1.993
58.75000 2.994
58.76000 3.063
58.77000 4.028
58.78000 3.064
58.79000 0.000
58.80000 5.198
58.81000 5.040
58.82000 4.014
58.83000 4.096
58.84000 2.052
58.85000 3.955
58.86000 2.019
58.87000 4.030
58.88000 0.993
58.89000 4.099
58.90000 4.050
58.91000 0.000
58.92000 0.998
58.93000 2.032
58.94000 0.000
58.95000 5.124
58.96000 0.000
58.97000 3.989
58.98000 3.019
58.99000 1.997
59.00000 3.030
59.01000 4.049
59.02000 4.085
59.03000 0.000
59.04000 3.063
59.05000 1.006
59.06000 1.054
59.07000 0.967
59.08000 1.998
59.09000 5.091
59.10000 3.062
59.11000 6.073
59.12000 1.048
59.13000 2.977
59.14000 4.961
59.15000 6.048
59.16000 0.993
59.17000 3.076
59.18000 4.003
59.19000 2.115
59.20000 2.012
59.21000 1.978
59.22000 2.142
59.23000 2.053
59.24000 3.061
59.25000 1.997
59.26000 3.088
59.27000 1.000
59.28000 2.997
59.29000 3.039
59.30000 2.085
59.31000 0.000
59.32000 2.049
59.33000 2.997
59.34000 2.054
59.35000 1.952
59.36000 3.054
59.37000 6.115
59.38000 2.002
59.39000 5.164
59.40000 4.073
59.41000 2.079
59.42000 5.001
59.43000 7.076
59.44000 0.000
59.45000 2.038
59.46000 3.046
59.47000 0.000
59.48000 0.996
59.49000 4.062
59.50000 1.041
59.51000 2.013
59.52000 0.000
59.53000 2.988
59.54000 5.097
59.55000 0.000
59.56000 3.065
59.57000 2.064
59.58000 2.004
59.59000 2.101
59.60000 1.008
59.61000 3.030
59.62000 4.035
59.63000 2.016
59.64000 0.973
59.65000 3.056
59.66000 4.992
59.67000 1.039
59.68000 2.987
59.69000 1.013
59.70000 2.022
59.71000 2.056
59.72000 3.041
59.73000 2.049
59.74000 2.055
59.75000 6.100
59.76000 0.000
59.77000 0.994
59.78000 2.057
59.79000 5.028
59.80000 3.054
59.81000 3.021
59.82000 0.000
59.83000 1.977
59.84000 3.007
59.85000 4.018
59.86000 5.207
59.87000 2.017
59.88000 4.154
59.89000 1.966
59.90000 2.032
59.91000 4.022
59.92000 2.085
59.93000 1.024
59.94000 1.959
59.95000 4.128
59.96000 3.003
59.97000 3.041
59.98000 4.033
59.99000 1.056
60.00000 4.020
60.01000 1.002
60.02000 1.000
60.03000 2.975
60.04000 4.106
60.05000 1.992
60.06000 4.021
60.07000 2.059
60.08000 4.019
60.09000 1.045
60.10000 2.046
60.11000 2.025
60.12000 4.076
60.13000 2.051
60.14000 3.064
60.15000 1.020
60.16000 5.007
60.17000 2.064
60.18000 0.000
60.19000 1.979
60.20000 2.027
60.21000 2.012
60.22000 4.083
60.23000 4.040
60.24000 1.034
60.25000 2.042
60.26000 1.961
60.27000 4.105
60.28000 1.014
60.29000 2.006
60.30000 3.060
60.31000 3.078
60.32000 2.081
60.33000 1.070
60.34000 3.112
60.35000 6.112
60.36000 1.010
60.37000 2.058
60.38000 3.005
60.39000 6.095
60.40000 0.980
60.41000 0.000
60.42000 4.050
60.43000 2.111
60.44000 1.984
60.45000 3.056
60.46000 2.029
60.47000 3.006
60.48000 0.989
60.49000 3.066
60.50000 9.171
60.51000 2.087
60.52000 6.051
60.53000 1.990
60.54000 3.001
60.55000 3.078
60.56000 6.101
60.57000 1.993
60.58000 5.023
60.59000 2.033
60.60000 1.054
60.61000 5.024
60.62000 3.023
60.63000 1.027
60.64000 0.984
60.65000 1.027
60.66000 2.080
60.67000 0.994
60.68000 4.088
60.69000 1.029
60.70000 0.000
60.71000 6.125
60.72000 6.152
60.73000 5.029
60.74000 1.059
60.75000 2.033
60.76000 1.007
60.77000 1.027
60.78000 4.060
60.79000 0.980
60.80000 0.995
60.81000 4.077
60.82000 0.000
60.83000 2.994
60.84000 0.990
60.85000 4.066
60.86000 3.028
60.87000 3.054
60.88000 3.023
60.89000 3.043
60.90000 5.050
60.91000 1.001
60.92000 1.983
60.93000 5.153
60.94000 3.046
60.95000 1.016
60.96000 3.084
60.97000 2.006
60.98000 1.034
60.99000 2.004
61.00000 3.027
61.01000 3.121
61.02000 4.074
61.03000 5.137
61.04000 0.000
61.05000 3.986
61.06000 3.034
61.07000 6.114
61.08000 3.119
61.09000 1.034
61.10000 6.066
61.11000 2.062
61.12000 2.012
61.13000 3.035
61.14000 2.055
61.15000 4.020
61.16000 0.000
61.17000 5.122
61.18000 4.992
61.19000 1.009
61.20000 3.079
61.21000 2.032
61.22000 3.002
61.23000 2.041
61.24000 1.003
61.25000 4.082
61.26000 3.055
61.27000 3.039
61.28000 5.097
61.29000 1.003
61.30000 1.995
61.31000 3.071
61.32000 2.004
61.33000 3.081
61.34000 2.990
61.35000 6.015
61.36000 7.190
61.37000 2.113
61.38000 2.062
61.39000 7.111
61.40000 1.988
61.41000 5.223
61.42000 0.987
61.43000 1.036
61.44000 2.988
61.45000 2.008
61.46000 4.029
61.47000 0.000
61.48000 1.037
61.49000 5.135
61.50000 4.023
61.51000 1.015
61.52000 2.014
61.53000 5.041
61.54000 1.045
61.55000 0.000
61.56000 5.013
61.57000 1.026
61.58000 0.987
61.59000 5.155
61.60000 1.980
61.61000 2.067
61.62000 1.977
61.63000 3.039
61.64000 2.038
61.65000 5.134
61.66000 2.969
61.67000 6.078
61.68000 1.978
61.69000 4.038
61.70000 1.046
61.71000 4.102
61.72000 1.005
61.73000 4.117
61.74000 10.131
61.75000 3.063
61.76000 2.048
61.77000 4.026
61.78000 1.964
61.79000 3.099
61.80000 2.038
61.81000 4.065
61.82000 1.991
61.83000 5.019
61.84000 1.035
61.85000 4.060
61.86000 3.002
61.87000 3.012
61.88000 3.987
61.89000 0.000
61.90000 1.056
61.91000 4.029
61.92000 6.087
61.93000 3.075
61.94000 1.023
61.95000 5.152
61.96000 2.078
61.97000 2.120
61.98000 2.006
61.99000 7.082
62.00000 7.102
62.01000 1.030
62.02000 3.073
62.03000 1.058
62.04000 2.008
62.05000 5.060
62.06000 1.989
62.07000 1.969
62.08000 5.173
62.09000 5.984
62.10000 5.050
62.11000 3.045
62.12000 3.004
62.13000 1.962
62.14000 1.024
62.15000 3.034
62.16000 6.099
62.17000 1.010
62.18000 4.100
62.19000 0.989
62.20000 4.031
62.21000 1.020
62.22000 2.047
62.23000 0.998
62.24000 4.096
62.25000 1.992
62.26000 3.069
62.27000 3.003
62.28000 1.007
62.29000 0.989
62.30000 3.067
62.31000 3.028
62.32000 4.055
62.33000 7.107
62.34000 0.000
62.35000 1.999
62.36000 2.018
62.37000 4.159
62.38000 2.045
62.39000 4.067
62.40000 4.012
62.41000 3.009
62.42000 7.093
62.43000 1.038
62.44000 3.024
62.45000 0.000
62.46000 2.018
62.47000 4.969
62.48000 2.045
62.49000 1.014
62.50000 1.960
62.51000 0.993
62.52000 0.985
62.53000 2.006
62.54000 3.045
62.55000 1.013
62.56000 6.094
62.57000 2.063
62.58000 1.018
62.59000 3.099
62.60000 3.001
62.61000 0.000
62.62000 1.045
62.63000 2.997
62.64000 8.058
62.65000 3.087
62.66000 1.027
62.67000 4.059
62.68000 1.032
62.69000 0.988
62.70000 2.010
62.71000 2.036
62.72000 1.042
62.73000 1.007
62.74000 5.074
62.75000 3.086
62.76000 4.038
62.77000 3.082
62.78000 0.000
62.79000 2.033
62.80000 1.082
62.81000 1.971
62.82000 3.998
62.83000 3.048
62.84000 1.999
62.85000 3.954
62.86000 5.095
62.87000 1.031
62.88000 6.034
62.89000 1.037
62.90000 3.048
62.91000 2.987
62.92000 3.987
62.93000 3.016
62.94000 0.000
62.95000 3.979
62.96000 2.024
62.97000 4.014
62.98000 6.993
62.99000 2.068
63.00000 3.040
63.01000 3.007
63.02000 2.034
63.03000 8.180
63.04000 6.143
63.05000 0.994
63.06000 2.021
63.07000 0.000
63.08000 8.061
63.09000 3.126
63.10000 3.037
63.11000 2.991
63.12000 0.000
63.13000 1.977
63.14000 1.986
63.15000 2.035
63.16000 1.007
63.17000 1.991
63.18000 2.958
63.19000 2.016
63.20000 3.061
63.21000 5.086
63.22000 3.097
63.23000 1.017
63.24000 2.031
63.25000 0.993
63.26000 3.073
63.27000 1.057
63.28000 2.002
63.29000 4.993
63.30000 3.007
63.31000 4.049
63.32000 0.974
63.33000 2.059
63.34000 1.022
63.35000 6.055
63.36000 1.966
63.37000 4.066
63.38000 0.975
63.39000 5.052
63.40000 5.279
63.41000 1.023
63.42000 5.059
63.43000 2.027
63.44000 4.061
63.45000 1.045
63.46000 0.991
63.47000 3.009
63.48000 3.001
63.49000 0.988
63.50000 2.982
63.51000 3.019
63.52000 1.037
63.53000 1.041
63.54000 0.000
63.55000 1.017
63.56000 3.979
63.57000 4.006
63.58000 3.030
63.59000 2.990
63.60000 2.050
63.61000 1.007
63.62000 1.011
63.63000 5.045
63.64000 4.082
63.65000 3.075
63.66000 5.132
63.67000 2.016
63.68000 1.994
63.69000 5.066
63.70000 1.017
63.71000 4.030
63.72000 4.047
63.73000 3.077
63.74000 4.030
63.75000 4.108
63.76000 3.001
63.77000 5.006
63.78000 4.965
63.79000 2.073
63.80000 1.999
63.81000 1.990
63.82000 5.081
63.83000 3.069
63.84000 1.040
63.85000 0.979
63.86000 0.000
63.87000 4.077
63.88000 3.021
63.89000 2.056
63.90000 6.148
63.91000 0.000
63.92000 2.978
63.93000 0.000
63.94000 4.053
63.95000 0.000
63.96000 2.046
63.97000 2.985
63.98000 1.032
63.99000 3.083
64.00000 3.017
64.01000 0.000
64.02000 2.017
64.03000 1.036
64.04000 4.042
64.05000 4.015
64.06000 2.038
64.07000 3.027
64.08000 0.000
64.09000 0.998
64.10000 6.126
64.11000 1.021
64.12000 2.043
64.13000 4.062
64.14000 3.048
64.15000 3.023
64.16000 2.044
64.17000 0.000
64.18000 4.003
64.19000 2.043
64.20000 0.981
64.21000 0.983
64.22000 2.980
64.23000 2.013
64.24000 0.000
64.25000 3.050
64.26000 2.013
64.27000 1.016
64.28000 0.000
64.29000 2.062
64.30000 3.028
64.31000 2.056
64.32000 1.949
64.33000 5.062
64.34000 4.090
64.35000 1.023
64.36000 1.969
64.37000 2.007
64.38000 4.050
64.39000 4.074
64.40000 3.038
64.41000 2.036
64.42000 2.079
64.43000 2.007
64.44000 1.962
64.45000 3.092
64.46000 1.010
64.47000 3.061
64.48000 4.103
64.49000 0.000
64.50000 0.000
64.51000 4.098
64.52000 0.000
64.53000 2.969
64.54000 1.006
64.55000 1.972
64.56000 1.025
64.57000 1.024
64.58000 2.011
64.59000 3.018
64.60000 1.995
64.61000 0.996
64.62000 1.014
64.63000 1.040
64.64000 2.047
64.65000 1.978
64.66000 2.983
64.67000 5.166
64.68000 4.044
64.69000 3.042
64.70000 2.074
64.71000 2.036
64.72000 4.065
64.73000 2.035
64.74000 5.965
64.75000 3.974
64.76000 4.099
64.77000 3.024
64.78000 0.992
64.79000 1.022
64.80000 1.998
64.81000 2.044
64.82000 1.985
64.83000 2.083
64.84000 2.055
64.85000 4.986
64.86000 1.995
64.87000 0.000
64.88000 5.085
64.89000 3.025
64.90000 3.053
64.91000 7.059
64.92000 6.113
64.93000 2.024
64.94000 2.064
64.95000 0.993
64.96000 4.056
64.97000 2.025
64.98000 3.075
64.99000 2.032
65.00000 3.047
