20.00000 13.212
20.01000 13.086
20.02000 15.371
20.03000 19.310
20.04000 20.338
20.05000 22.061
20.06000 21.328
20.07000 15.165
20.08000 15.103
20.09000 16.122
20.10000 16.138
20.11000 17.150
20.12000 14.224
20.13000 19.191
20.14000 18.206
20.15000 18.268
20.16000 15.328
20.17000 26.352
20.18000 17.258
20.19000 12.191
20.20000 15.200
20.21000 15.120
20.22000 14.285
20.23000 16.313
20.24000 21.309
20.25000 13.238
20.26000 15.206
20.27000 17.101
20.28000 15.280
20.29000 21.106
20.30000 15.247
20.31000 12.131
20.32000 19.227
20.33000 13.260
20.34000 17.256
20.35000 12.120
20.36000 22.277
20.37000 14.052
20.38000 15.139
20.39000 18.336
20.40000 13.230
20.41000 11.005
20.42000 20.513
20.43000 11.159
20.44000 21.347
20.45000 22.394
20.46000 17.160
20.47000 16.244
20.48000 17.372
20.49000 13.150
20.50000 17.106
20.51000 19.204
20.52000 18.243
20.53000 24.477
20.54000 19.270
20.55000 17.143
20.56000 16.226
20.57000 21.230
20.58000 18.400
20.59000 21.048
20.60000 18.308
20.61000 17.142
20.62000 17.264
20.63000 16.325
20.64000 10.187
20.65000 20.327
20.66000 21.230
20.67000 13.084
20.68000 17.322
20.69000 23.151
20.70000 14.130
20.71000 22.328
20.72000 17.038
20.73000 23.673
20.74000 15.222
20.75000 19.309
20.76000 23.472
20.77000 19.162
20.78000 17.360
20.79000 20.162
20.80000 18.275
20.81000 16.093
20.82000 18.277
20.83000 12.166
20.84000 13.118
20.85000 17.243
20.86000 16.197
20.87000 23.245
20.88000 17.282
20.89000 19.152
20.90000 20.301
20.91000 19.335
20.92000 29.264
20.93000 23.176
20.94000 24.158
20.95000 23.460
20.96000 27.275
20.97000 16.066
20.98000 11.216
20.99000 22.521
21.00000 16.161
21.01000 18.274
21.02000 18.140
21.03000 13.184
21.04000 15.175
21.05000 18.179
21.06000 13.232
21.07000 16.264
21.08000 19.224
21.09000 14.146
21.10000 14.114
21.11000 14.156
21.12000 17.165
21.13000 21.358
21.14000 12.071
21.15000 16.156
21.16000 24.529
21.17000 17.087
21.18000 16.137
21.19000 17.333
21.20000 20.209
21.21000 16.362
21.22000 18.019
21.23000 17.119
21.24000 15.121
21.25000 11.137
21.26000 29.404
21.27000 20.360
21.28000 20.081
21.29000 21.434
21.30000 17.235
21.31000 12.259
21.32000 17.206
21.33000 19.296
21.34000 17.149
21.35000 20.463
21.36000 10.117
21.37000 16.453
21.38000 16.293
21.39000 18.098
21.40000 19.195
21.41000 22.283
21.42000 17.277
21.43000 18.338
21.44000 20.235
21.45000 19.191
21.46000 21.360
21.47000 22.355
21.48000 19.356
21.49000 15.201
21.50000 16.211
21.51000 25.219
21.52000 15.200
21.53000 24.417
21.54000 24.346
21.55000 18.241
21.56000 19.255
21.57000 13.104
21.58000 21.212
21.59000 25.362
21.60000 15.223
21.61000 21.107
21.62000 14.141
21.63000 25.533
21.64000 17.136
21.65000 24.314
21.66000 12.102
21.67000 22.081
21.68000 17.178
21.69000 16.245
21.70000 22.351
21.71000 22.335
21.72000 21.185
21.73000 17.207
21.74000 19.429
21.75000 18.162
21.76000 17.332
21.77000 16.172
21.78000 17.204
21.79000 15.143
21.80000 22.159
21.81000 16.206
21.82000 15.217
21.83000 14.095
21.84000 17.212
21.85000 15.215
21.86000 11.206
21.87000 17.222
21.88000 18.376
21.89000 17.408
21.90000 19.369
21.91000 13.169
21.92000 17.231
21.93000 13.962
21.94000 20.255
21.95000 12.148
21.96000 18.302
21.97000 21.128
21.98000 21.384
21.99000 16.141
22.00000 14.127
22.01000 16.203
22.02000 20.313
22.03000 23.412
22.04000 21.291
22.05000 21.169
22.06000 12.055
22.07000 12.211
22.08000 21.971
22.09000 13.211
22.10000 23.153
22.11000 25.202
22.12000 19.237
22.13000 18.236
22.14000 10.220
22.15000 20.365
22.16000 20.042
22.17000 25.433
22.18000 17.062
22.19000 14.202
22.20000 20.299
22.21000 12.094
22.22000 17.349
22.23000 21.287
22.24000 21.313
22.25000 14.212
22.26000 19.130
22.27000 15.358
22.28000 18.267
22.29000 19.059
22.30000 13.223
22.31000 11.273
22.32000 18.080
22.33000 24.628
22.34000 21.323
22.35000 16.147
22.36000 15.244
22.37000 19.362
22.38000 24.534
22.39000 16.940
22.40000 13.194
22.41000 17.368
22.42000 14.277
22.43000 16.988
22.44000 19.194
22.45000 13.959
22.46000 17.173
22.47000 18.074
22.48000 28.587
22.49000 17.108
22.50000 14.242
22.51000 18.254
22.52000 18.226
22.53000 13.214
22.54000 19.328
22.55000 20.356
22.56000 24.207
22.57000 26.516
22.58000 23.061
22.59000 24.323
22.60000 17.265
22.61000 22.363
22.62000 20.148
22.63000 12.188
22.64000 23.082
22.65000 17.228
22.66000 21.171
22.67000 28.399
22.68000 19.160
22.69000 16.142
22.70000 13.081
22.71000 18.248
22.72000 16.097
22.73000 19.345
22.74000 21.118
22.75000 20.302
22.76000 18.360
22.77000 22.147
22.78000 17.304
22.79000 24.222
22.80000 20.152
22.81000 18.203
22.82000 21.424
22.83000 27.386
22.84000 24.270
22.85000 23.510
22.86000 16.131
22.87000 22.627
22.88000 20.219
22.89000 20.321
22.90000 23.151
22.91000 16.188
22.92000 22.172
22.93000 9.068
22.94000 25.546
22.95000 14.146
22.96000 14.240
22.97000 16.221
22.98000 23.398
22.99000 20.349
23.00000 25.329
23.01000 20.227
23.02000 17.240
23.03000 15.179
23.04000 22.465
23.05000 13.055
23.06000 27.241
23.07000 24.246
23.08000 20.040
23.09000 19.292
23.10000 13.991
23.11000 16.235
23.12000 30.179
23.13000 18.155
23.14000 13.281
23.15000 19.280
23.16000 21.070
23.17000 22.418
23.18000 24.303
23.19000 20.278
23.20000 15.132
23.21000 28.442
23.22000 21.513
23.23000 27.452
23.24000 21.154
23.25000 19.322
23.26000 30.331
23.27000 19.303
23.28000 26.364
23.29000 21.332
23.30000 16.099
23.31000 18.136
23.32000 28.384
23.33000 22.144
23.34000 20.296
23.35000 25.177
23.36000 16.066
23.37000 25.153
23.38000 22.483
23.39000 25.285
23.40000 18.135
23.41000 16.140
23.42000 13.149
23.43000 14.191
23.44000 16.267
23.45000 23.389
23.46000 23.340
23.47000 25.294
23.48000 21.425
23.49000 23.382
23.50000 26.130
23.51000 19.262
23.52000 16.281
23.53000 17.238
23.54000 16.192
23.55000 16.219
23.56000 23.524
23.57000 21.374
23.58000 19.199
23.59000 20.180
23.60000 16.211
23.61000 26.521
23.62000 32.548
23.63000 23.116
23.64000 24.591
23.65000 24.247
23.66000 23.211
23.67000 18.141
23.68000 22.142
23.69000 21.227
23.70000 15.144
23.71000 24.477
23.72000 26.256
23.73000 22.261
23.74000 19.346
23.75000 25.271
23.76000 23.358
23.77000 30.228
23.78000 19.299
23.79000 16.237
23.80000 22.122
23.81000 30.241
23.82000 21.373
23.83000 23.386
23.84000 21.279
23.85000 31.337
23.86000 20.370
23.87000 20.073
23.88000 24.298
23.89000 22.328
23.90000 18.611
23.91000 24.455
23.92000 24.405
23.93000 22.405
23.94000 34.469
23.95000 20.194
23.96000 14.993
23.97000 15.315
23.98000 17.166
23.99000 19.340
24.00000 24.260
24.01000 25.619
24.02000 19.104
24.03000 18.327
24.04000 20.383
24.05000 18.170
24.06000 25.362
24.07000 18.367
24.08000 18.422
24.09000 27.171
24.10000 15.407
24.11000 16.261
24.12000 25.224
24.13000 22.178
24.14000 13.188
24.15000 18.160
24.16000 24.335
24.17000 26.413
24.18000 11.967
24.19000 29.332
24.20000 21.332
24.21000 24.340
24.22000 22.435
24.23000 23.110
24.24000 27.440
24.25000 26.258
24.26000 20.141
24.27000 36.270
24.28000 25.406
24.29000 22.261
24.30000 23.366
24.31000 23.272
24.32000 26.321
24.33000 20.236
24.34000 25.256
24.35000 23.505
24.36000 20.186
24.37000 27.292
24.38000 20.298
24.39000 31.446
24.40000 21.252
24.41000 26.166
24.42000 31.291
24.43000 18.224
24.44000 26.262
24.45000 19.280
24.46000 21.217
24.47000 26.234
24.48000 24.000
24.49000 21.376
24.50000 19.178
24.51000 32.464
24.52000 17.080
24.53000 23.277
24.54000 28.282
24.55000 23.232
24.56000 24.353
24.57000 27.312
24.58000 25.202
24.59000 27.277
24.60000 22.029
24.61000 36.520
24.62000 30.367
24.63000 21.375
24.64000 21.475
24.65000 22.383
24.66000 23.348
24.67000 23.199
24.68000 26.317
24.69000 19.227
24.70000 29.188
24.71000 21.144
24.72000 24.155
24.73000 25.191
24.74000 24.342
24.75000 28.213
24.76000 23.108
24.77000 16.292
24.78000 27.237
24.79000 31.406
24.80000 21.220
24.81000 26.669
24.82000 19.268
24.83000 24.279
24.84000 32.643
24.85000 28.081
24.86000 25.256
24.87000 33.499
24.88000 23.338
24.89000 29.513
24.90000 28.528
24.91000 29.387
24.92000 28.640
24.93000 33.330
24.94000 24.230
24.95000 17.279
24.96000 22.358
24.97000 30.563
24.98000 23.477
24.99000 31.476
25.00000 28.365
25.01000 33.464
25.02000 28.569
25.03000 23.331
25.04000 33.327
25.05000 31.427
25.06000 24.145
25.07000 32.391
25.08000 21.390
25.09000 32.469
25.10000 29.569
25.11000 25.576
25.12000 34.360
25.13000 33.405
25.14000 31.491
25.15000 28.544
25.16000 23.111
25.17000 23.473
25.18000 31.684
25.19000 26.470
25.20000 23.243
25.21000 34.675
25.22000 24.326
25.23000 33.257
25.24000 31.681
25.25000 26.140
25.26000 24.137
25.27000 25.147
25.28000 29.186
25.29000 19.308
25.30000 34.516
25.31000 32.175
25.32000 31.475
25.33000 24.122
25.34000 32.373
25.35000 26.155
25.36000 42.417
25.37000 26.516
25.38000 22.339
25.39000 26.396
25.40000 32.366
25.41000 23.450
25.42000 36.178
25.43000 28.323
25.44000 30.300
25.45000 28.354
25.46000 23.046
25.47000 28.256
25.48000 30.165
25.49000 32.442
25.50000 29.675
25.51000 29.349
25.52000 41.731
25.53000 31.487
25.54000 23.314
25.55000 29.378
25.56000 29.547
25.57000 27.168
25.58000 28.475
25.59000 23.295
25.60000 31.325
25.61000 38.295
25.62000 35.490
25.63000 21.179
25.64000 36.482
25.65000 30.246
25.66000 31.342
25.67000 27.221
25.68000 30.381
25.69000 26.332
25.70000 34.455
25.71000 32.391
25.72000 32.391
25.73000 31.351
25.74000 27.427
25.75000 22.231
25.76000 32.377
25.77000 25.362
25.78000 37.618
25.79000 27.057
25.80000 30.341
25.81000 31.393
25.82000 39.392
25.83000 35.391
25.84000 28.309
25.85000 32.514
25.86000 38.532
25.87000 38.556
25.88000 35.542
25.89000 29.512
25.90000 29.355
25.91000 23.293
25.92000 32.189
25.93000 34.337
25.94000 35.387
25.95000 26.191
25.96000 24.352
25.97000 32.173
25.98000 28.246
25.99000 30.244
26.00000 32.274
26.01000 32.408
26.02000 42.748
26.03000 27.359
26.04000 36.360
26.05000 34.562
26.06000 23.246
26.07000 38.490
26.08000 25.491
26.09000 34.462
26.10000 36.477
26.11000 27.561
26.12000 35.514
26.13000 17.182
26.14000 37.432
26.15000 37.548
26.16000 24.476
26.17000 41.554
26.18000 34.450
26.19000 35.434
26.20000 33.576
26.21000 34.512
26.22000 29.388
26.23000 36.333
26.24000 37.510
26.25000 19.181
26.26000 38.674
26.27000 33.432
26.28000 28.292
26.29000 37.340
26.30000 40.645
26.31000 28.353
26.32000 33.154
26.33000 42.469
26.34000 25.262
26.35000 28.246
26.36000 35.335
26.37000 37.656
26.38000 32.482
26.39000 41.479
26.40000 47.510
26.41000 36.357
26.42000 38.363
26.43000 39.787
26.44000 34.368
26.45000 31.432
26.46000 25.440
26.47000 38.550
26.48000 41.544
26.49000 37.568
26.50000 34.545
26.51000 35.591
26.52000 44.377
26.53000 28.410
26.54000 33.532
26.55000 27.227
26.56000 39.436
26.57000 39.545
26.58000 34.253
26.59000 33.557
26.60000 30.598
26.61000 27.517
26.62000 31.392
26.63000 31.248
26.64000 29.352
26.65000 38.619
26.66000 37.482
26.67000 41.518
26.68000 39.342
26.69000 31.293
26.70000 47.736
26.71000 43.731
26.72000 37.368
26.73000 36.737
26.74000 41.703
26.75000 32.226
26.76000 30.324
26.77000 33.423
26.78000 45.667
26.79000 32.365
26.80000 37.301
26.81000 30.350
26.82000 38.428
26.83000 35.497
26.84000 54.826
26.85000 44.642
26.86000 41.235
26.87000 42.599
26.88000 24.238
26.89000 39.344
26.90000 33.352
26.91000 31.359
26.92000 37.454
26.93000 50.497
26.94000 41.431
26.95000 40.543
26.96000 45.546
26.97000 37.538
26.98000 35.264
26.99000 38.330
27.00000 42.529
27.01000 31.382
27.02000 29.301
27.03000 36.677
27.04000 40.652
27.05000 28.398
27.06000 35.414
27.07000 40.522
27.08000 36.805
27.09000 29.467
27.10000 33.490
27.11000 40.732
27.12000 35.558
27.13000 45.832
27.14000 34.410
27.15000 39.666
27.16000 32.729
27.17000 47.645
27.18000 43.594
27.19000 44.776
27.20000 30.231
27.21000 40.478
27.22000 44.659
27.23000 37.577
27.24000 37.573
27.25000 41.496
27.26000 42.490
27.27000 55.545
27.28000 45.598
27.29000 28.155
27.30000 26.437
27.31000 27.305
27.32000 39.280
27.33000 39.734
27.34000 32.301
27.35000 34.477
27.36000 43.426
27.37000 38.525
27.38000 50.709
27.39000 43.253
27.40000 29.447
27.41000 51.768
27.42000 32.352
27.43000 53.418
27.44000 35.534
27.45000 38.480
27.46000 39.455
27.47000 40.464
27.48000 32.315
27.49000 37.455
27.50000 33.397
27.51000 30.309
27.52000 35.294
27.53000 36.657
27.54000 37.571
27.55000 38.452
27.56000 41.606
27.57000 31.409
27.58000 35.439
27.59000 41.551
27.60000 29.336
27.61000 38.459
27.62000 50.645
27.63000 34.303
27.64000 25.253
27.65000 41.570
27.66000 42.474
27.67000 41.364
27.68000 39.421
27.69000 44.668
27.70000 29.251
27.71000 38.427
27.72000 47.464
27.73000 37.633
27.74000 57.834
27.75000 43.424
27.76000 34.486
27.77000 40.345
27.78000 39.473
27.79000 49.727
27.80000 38.376
27.81000 39.640
27.82000 31.234
27.83000 21.173
27.84000 37.421
27.85000 36.486
27.86000 33.415
27.87000 30.631
27.88000 39.532
27.89000 39.347
27.90000 37.714
27.91000 35.407
27.92000 44.636
27.93000 37.464
27.94000 43.374
27.95000 51.083
27.96000 50.786
27.97000 44.365
27.98000 33.354
27.99000 36.217
28.00000 35.491
28.01000 34.674
28.02000 33.218
28.03000 30.400
28.04000 30.585
28.05000 29.447
28.06000 29.735
28.07000 39.579
28.08000 31.515
28.09000 34.446
28.10000 32.773
28.11000 36.460
28.12000 28.419
28.13000 33.577
28.14000 37.013
28.15000 44.541
28.16000 25.360
28.17000 38.718
28.18000 42.387
28.19000 42.698
28.20000 39.501
28.21000 40.767
28.22000 37.675
28.23000 37.539
28.24000 32.732
28.25000 41.483
28.26000 39.355
28.27000 28.288
28.28000 33.354
28.29000 28.211
28.30000 37.497
28.31000 30.560
28.32000 37.542
28.33000 41.520
28.34000 43.550
28.35000 37.571
28.36000 40.500
28.37000 42.948
28.38000 31.543
28.39000 49.860
28.40000 34.520
28.41000 37.376
28.42000 35.578
28.43000 44.694
28.44000 42.615
28.45000 35.361
28.46000 35.446
28.47000 45.664
28.48000 43.650
28.49000 34.363
28.50000 41.722
28.51000 42.364
28.52000 34.537
28.53000 46.681
28.54000 29.461
28.55000 36.073
28.56000 46.414
28.57000 45.399
28.58000 36.427
28.59000 38.687
28.60000 31.478
28.61000 39.485
28.62000 29.380
28.63000 44.367
28.64000 23.343
28.65000 33.431
28.66000 37.397
28.67000 40.339
28.68000 35.632
28.69000 31.306
28.70000 34.554
28.71000 41.504
28.72000 28.173
28.73000 38.573
28.74000 35.486
28.75000 35.361
28.76000 37.452
28.77000 37.400
28.78000 33.291
28.79000 45.681
28.80000 36.540
28.81000 41.392
28.82000 28.322
28.83000 43.602
28.84000 33.421
28.85000 23.216
28.86000 36.437
28.87000 22.357
28.88000 35.233
28.89000 42.582
28.90000 20.174
28.91000 34.345
28.92000 34.420
28.93000 27.239
28.94000 32.455
28.95000 40.665
28.96000 34.576
28.97000 35.653
28.98000 26.526
28.99000 38.428
29.00000 48.601
29.01000 37.646
29.02000 31.399
29.03000 37.403
29.04000 31.283
29.05000 42.670
29.06000 25.229
29.07000 28.546
29.08000 37.393
29.09000 34.722
29.10000 25.447
29.11000 28.276
29.12000 31.351
29.13000 28.264
29.14000 41.507
29.15000 37.301
29.16000 35.470
29.17000 30.206
29.18000 31.324
29.19000 44.645
29.20000 33.419
29.21000 37.128
29.22000 32.497
29.23000 39.277
29.24000 35.605
29.25000 22.268
29.26000 31.275
29.27000 32.441
29.28000 40.246
29.29000 24.252
29.30000 33.711
29.31000 39.535
29.32000 36.339
29.33000 24.154
29.34000 29.378
29.35000 31.424
29.36000 33.463
29.37000 29.598
29.38000 29.239
29.39000 32.393
29.40000 20.295
29.41000 38.368
29.42000 26.338
29.43000 34.490
29.44000 25.418
29.45000 31.458
29.46000 29.398
29.47000 27.272
29.48000 41.488
29.49000 26.519
29.50000 32.583
29.51000 33.376
29.52000 34.408
29.53000 48.460
29.54000 23.298
29.55000 42.577
29.56000 23.297
29.57000 27.336
29.58000 29.498
29.59000 30.350
29.60000 27.409
29.61000 43.511
29.62000 33.543
29.63000 43.587
29.64000 35.484
29.65000 29.404
29.66000 26.403
29.67000 34.353
29.68000 33.292
29.69000 24.291
29.70000 33.517
29.71000 27.511
29.72000 28.155
29.73000 45.331
29.74000 30.374
29.75000 35.535
29.76000 40.666
29.77000 30.399
29.78000 29.375
29.79000 34.516
29.80000 27.281
29.81000 39.462
29.82000 24.310
29.83000 21.413
29.84000 31.676
29.85000 33.563
29.86000 32.454
29.87000 22.279
29.88000 33.579
29.89000 29.571
29.90000 21.264
29.91000 34.377
29.92000 19.151
29.93000 34.388
29.94000 38.386
29.95000 32.431
29.96000 26.365
29.97000 25.477
29.98000 27.553
29.99000 27.173
30.00000 30.168
30.01000 24.462
30.02000 23.351
30.03000 20.229
30.04000 31.470
30.05000 26.289
30.06000 18.104
30.07000 33.366
30.08000 31.394
30.09000 35.223
30.10000 37.609
30.11000 25.168
30.12000 27.491
30.13000 26.656
30.14000 20.163
30.15000 37.463
30.16000 39.459
30.17000 28.479
30.18000 21.209
30.19000 30.714
30.20000 23.219
30.21000 23.114
30.22000 24.444
30.23000 34.544
30.24000 28.357
30.25000 29.368
30.26000 34.258
30.27000 23.370
30.28000 30.563
30.29000 29.368
30.30000 33.492
30.31000 30.369
30.32000 21.197
30.33000 27.120
30.34000 23.187
30.35000 23.315
30.36000 31.456
30.37000 23.460
30.38000 20.237
30.39000 12.269
30.40000 24.270
30.41000 24.412
30.42000 20.071
30.43000 24.366
30.44000 28.260
30.45000 20.326
30.46000 25.209
30.47000 22.157
30.48000 31.309
30.49000 13.340
30.50000 25.370
30.51000 27.443
30.52000 28.340
30.53000 26.334
30.54000 27.286
30.55000 29.308
30.56000 19.188
30.57000 24.048
30.58000 22.344
30.59000 22.331
30.60000 18.206
30.61000 20.390
30.62000 30.213
30.63000 28.340
30.64000 29.284
30.65000 35.365
30.66000 22.323
30.67000 32.037
30.68000 14.018
30.69000 26.562
30.70000 27.110
30.71000 16.160
30.72000 30.481
30.73000 23.342
30.74000 22.204
30.75000 16.138
30.76000 22.395
30.77000 27.300
30.78000 30.298
30.79000 19.187
30.80000 24.207
30.81000 25.182
30.82000 26.572
30.83000 22.142
30.84000 20.373
30.85000 25.099
30.86000 23.195
30.87000 22.214
30.88000 22.209
30.89000 24.346
30.90000 32.411
30.91000 22.256
30.92000 23.362
30.93000 20.232
30.94000 27.454
30.95000 23.218
30.96000 21.303
30.97000 21.200
30.98000 18.180
30.99000 31.209
31.00000 20.247
31.01000 23.311
31.02000 21.046
31.03000 22.330
31.04000 34.237
31.05000 28.264
31.06000 17.358
31.07000 28.336
31.08000 27.227
31.09000 25.390
31.10000 19.394
31.11000 14.226
31.12000 28.439
31.13000 25.294
31.14000 8.129
31.15000 24.328
31.16000 17.160
31.17000 21.404
31.18000 19.173
31.19000 26.420
31.20000 20.310
31.21000 24.404
31.22000 25.442
31.23000 16.144
31.24000 26.460
31.25000 13.232
31.26000 19.299
31.27000 19.211
31.28000 30.542
31.29000 20.468
31.30000 19.191
31.31000 17.139
31.32000 14.114
31.33000 23.037
31.34000 18.068
31.35000 20.261
31.36000 23.170
31.37000 22.149
31.38000 25.366
31.39000 14.131
31.40000 20.448
31.41000 31.577
31.42000 21.314
31.43000 26.138
31.44000 21.260
31.45000 23.327
31.46000 22.136
31.47000 19.342
31.48000 18.151
31.49000 17.155
31.50000 21.459
31.51000 33.451
31.52000 18.323
31.53000 17.282
31.54000 14.130
31.55000 19.250
31.56000 22.336
31.57000 19.212
31.58000 25.552
31.59000 21.340
31.60000 23.184
31.61000 24.434
31.62000 19.147
31.63000 20.324
31.64000 14.154
31.65000 25.183
31.66000 17.317
31.67000 20.230
31.68000 22.084
31.69000 14.038
31.70000 14.294
31.71000 19.386
31.72000 16.072
31.73000 13.237
31.74000 13.385
31.75000 25.414
31.76000 13.179
31.77000 18.303
31.78000 16.140
31.79000 25.224
31.80000 18.178
31.81000 17.225
31.82000 21.202
31.83000 14.178
31.84000 14.069
31.85000 16.183
31.86000 20.289
31.87000 18.223
31.88000 23.489
31.89000 22.273
31.90000 21.354
31.91000 17.228
31.92000 22.373
31.93000 21.482
31.94000 21.112
31.95000 19.237
31.96000 21.138
31.97000 28.247
31.98000 22.324
31.99000 26.068
32.00000 17.287
32.01000 20.154
32.02000 22.147
32.03000 17.181
32.04000 19.465
32.05000 24.424
32.06000 24.208
32.07000 26.439
32.08000 13.113
32.09000 11.156
32.10000 21.285
32.11000 15.057
32.12000 16.215
32.13000 23.488
32.14000 19.218
32.15000 21.367
32.16000 20.195
32.17000 23.097
32.18000 16.095
32.19000 13.151
32.20000 22.501
32.21000 21.181
32.22000 27.265
32.23000 17.174
32.24000 21.393
32.25000 19.224
32.26000 21.325
32.27000 17.064
32.28000 21.346
32.29000 23.205
32.30000 28.273
32.31000 16.222
32.32000 17.263
32.33000 26.459
32.34000 14.330
32.35000 22.195
32.36000 21.244
32.37000 11.137
32.38000 23.227
32.39000 24.238
32.40000 16.172
32.41000 20.260
32.42000 20.306
32.43000 18.323
32.44000 18.198
32.45000 14.192
32.46000 19.491
32.47000 18.455
32.48000 19.153
32.49000 11.076
32.50000 20.328
32.51000 11.056
32.52000 17.077
32.53000 19.200
32.54000 18.142
32.55000 16.252
32.56000 21.111
32.57000 20.138
32.58000 23.292
32.59000 18.163
32.60000 14.104
32.61000 25.331
32.62000 18.173
32.63000 15.298
32.64000 16.164
32.65000 16.253
32.66000 26.409
32.67000 22.331
32.68000 17.122
32.69000 17.278
32.70000 18.202
32.71000 15.189
32.72000 20.242
32.73000 18.313
32.74000 16.072
32.75000 19.175
32.76000 18.176
32.77000 21.188
32.78000 19.239
32.79000 18.127
32.80000 17.325
32.81000 16.074
32.82000 23.378
32.83000 18.161
32.84000 16.145
32.85000 19.281
32.86000 14.163
32.87000 10.070
32.88000 16.265
32.89000 14.234
32.90000 13.046
32.91000 15.320
32.92000 15.207
32.93000 15.113
32.94000 20.243
32.95000 13.065
32.96000 3.992
32.97000 19.177
32.98000 10.087
32.99000 11.282
33.00000 9.102
33.01000 14.338
33.02000 18.176
33.03000 14.095
33.04000 21.310
33.05000 13.126
33.06000 21.274
33.07000 24.178
33.08000 16.147
33.09000 14.128
33.10000 12.097
33.11000 13.200
33.12000 16.212
33.13000 10.176
33.14000 9.237
33.15000 13.236
33.16000 18.987
33.17000 15.238
33.18000 13.152
33.19000 12.124
33.20000 11.181
33.21000 17.337
33.22000 14.297
33.23000 15.171
33.24000 12.083
33.25000 16.108
33.26000 17.172
33.27000 13.205
33.28000 12.057
33.29000 9.162
33.30000 12.077
33.31000 19.276
33.32000 11.220
33.33000 14.261
33.34000 12.076
33.35000 13.035
33.36000 4.040
33.37000 10.112
33.38000 20.149
33.39000 16.250
33.40000 12.047
33.41000 19.253
33.42000 14.183
33.43000 17.273
33.44000 16.337
33.45000 17.226
33.46000 23.222
33.47000 18.336
33.48000 12.068
33.49000 11.180
33.50000 16.166
33.51000 12.133
33.52000 17.113
33.53000 13.169
33.54000 13.131
33.55000 14.138
33.56000 11.143
33.57000 13.251
33.58000 18.284
33.59000 20.113
33.60000 13.158
33.61000 14.262
33.62000 13.130
33.63000 10.098
33.64000 10.087
33.65000 10.186
33.66000 12.188
33.67000 9.034
33.68000 18.336
33.69000 11.159
33.70000 15.235
33.71000 7.995
33.72000 13.222
33.73000 16.223
33.74000 14.405
33.75000 15.225
33.76000 14.195
33.77000 20.455
33.78000 9.263
33.79000 14.209
33.80000 9.982
33.81000 27.305
33.82000 11.129
33.83000 15.005
33.84000 14.095
33.85000 14.240
33.86000 12.159
33.87000 13.305
33.88000 19.371
33.89000 14.145
33.90000 20.222
33.91000 13.078
33.92000 12.222
33.93000 9.280
33.94000 14.392
33.95000 15.278
33.96000 13.246
33.97000 9.023
33.98000 16.285
33.99000 12.121
34.00000 14.348
34.01000 14.310
34.02000 10.215
34.03000 15.195
34.04000 14.132
34.05000 14.270
34.06000 7.012
34.07000 9.179
34.08000 11.138
34.09000 15.183
34.10000 12.005
34.11000 14.204
34.12000 14.190
34.13000 15.313
34.14000 12.167
34.15000 5.957
34.16000 10.148
34.17000 12.158
34.18000 15.181
34.19000 10.191
34.20000 6.087
34.21000 13.272
34.22000 12.247
34.23000 10.118
34.24000 13.113
34.25000 12.068
34.26000 10.202
34.27000 14.165
34.28000 9.152
34.29000 11.095
34.30000 14.249
34.31000 18.362
34.32000 18.346
34.33000 17.192
34.34000 10.216
34.35000 15.130
34.36000 17.181
34.37000 21.358
34.38000 16.207
34.39000 11.112
34.40000 12.264
34.41000 17.116
34.42000 13.180
34.43000 15.280
34.44000 10.034
34.45000 15.249
34.46000 16.113
34.47000 15.158
34.48000 7.130
34.49000 15.074
34.50000 21.299
34.51000 18.164
34.52000 9.254
34.53000 22.191
34.54000 8.078
34.55000 14.191
34.56000 12.057
34.57000 13.115
34.58000 18.395
34.59000 7.135
34.60000 12.154
34.61000 5.079
34.62000 12.092
34.63000 16.043
34.64000 10.152
34.65000 17.205
34.66000 9.220
34.67000 17.129
34.68000 11.031
34.69000 11.126
34.70000 8.182
34.71000 10.322
34.72000 13.064
34.73000 14.121
34.74000 9.143
34.75000 10.052
34.76000 8.060
34.77000 17.399
34.78000 7.013
34.79000 5.097
34.80000 13.107
34.81000 10.170
34.82000 13.148
34.83000 13.122
34.84000 13.095
34.85000 8.191
34.86000 15.946
34.87000 10.110
34.88000 10.205
34.89000 12.155
34.90000 12.172
34.91000 11.048
34.92000 13.106
34.93000 18.152
34.94000 12.286
34.95000 15.009
34.96000 12.086
34.97000 15.155
34.98000 9.137
34.99000 13.169
35.00000 11.141
35.01000 12.027
35.02000 14.200
35.03000 16.237
35.04000 11.089
35.05000 22.206
35.06000 8.997
35.07000 19.251
35.08000 6.992
35.09000 6.107
35.10000 9.175
35.11000 12.171
35.12000 16.362
35.13000 8.261
35.14000 5.085
35.15000 7.080
35.16000 15.351
35.17000 12.147
35.18000 15.030
35.19000 16.227
35.20000 12.186
35.21000 13.311
35.22000 9.096
35.23000 13.069
35.24000 10.999
35.25000 11.205
35.26000 13.132
35.27000 9.215
35.28000 15.169
35.29000 9.022
35.30000 9.928
35.31000 11.033
35.32000 12.066
35.33000 12.087
35.34000 8.992
35.35000 9.129
35.36000 8.149
35.37000 12.191
35.38000 11.082
35.39000 7.005
35.40000 10.145
35.41000 9.137
35.42000 10.085
35.43000 10.224
35.44000 16.094
35.45000 8.966
35.46000 10.159
35.47000 13.152
35.48000 13.045
35.49000 8.176
35.50000 16.150
35.51000 15.000
35.52000 9.183
35.53000 15.132
35.54000 10.184
35.55000 13.252
35.56000 13.185
35.57000 8.066
35.58000 14.100
35.59000 13.217
35.60000 8.099
35.61000 7.133
35.62000 14.094
35.63000 7.094
35.64000 17.304
35.65000 15.049
35.66000 11.049
35.67000 14.145
35.68000 18.302
35.69000 9.137
35.70000 13.191
35.71000 18.218
35.72000 13.178
35.73000 15.255
35.74000 11.993
35.75000 8.007
35.76000 10.122
35.77000 12.151
35.78000 11.111
35.79000 10.144
35.80000 8.183
35.81000 12.159
35.82000 12.347
35.83000 4.044
35.84000 12.153
35.85000 17.136
35.86000 20.241
35.87000 13.131
35.88000 12.207
35.89000 10.103
35.90000 10.154
35.91000 10.116
35.92000 10.113
35.93000 16.253
35.94000 11.110
35.95000 15.147
35.96000 11.089
35.97000 12.097
35.98000 12.068
35.99000 10.100
36.00000 10.229
36.01000 10.035
36.02000 8.074
36.03000 9.123
36.04000 13.205
36.05000 12.215
36.06000 11.120
36.07000 11.197
36.08000 15.276
36.09000 8.104
36.10000 11.273
36.11000 14.190
36.12000 16.281
36.13000 4.067
36.14000 11.164
36.15000 9.156
36.16000 13.161
36.17000 10.108
36.18000 12.088
36.19000 14.161
36.20000 13.213
36.21000 12.038
36.22000 15.196
36.23000 17.348
36.24000 17.202
36.25000 7.113
36.26000 11.099
36.27000 7.105
36.28000 14.030
36.29000 10.234
36.30000 10.137
36.31000 19.241
36.32000 17.230
36.33000 7.999
36.34000 14.177
36.35000 11.106
36.36000 10.142
36.37000 17.333
36.38000 18.361
36.39000 6.096
36.40000 8.097
36.41000 12.128
36.42000 7.935
36.43000 20.194
36.44000 12.151
36.45000 8.158
36.46000 6.014
36.47000 6.082
36.48000 18.105
36.49000 9.146
36.50000 15.072
36.51000 15.113
36.52000 11.111
36.53000 9.189
36.54000 21.257
36.55000 17.239
36.56000 9.164
36.57000 9.116
36.58000 4.070
36.59000 16.060
36.60000 24.288
36.61000 13.291
36.62000 11.086
36.63000 12.224
36.64000 8.120
36.65000 14.199
36.66000 9.034
36.67000 15.331
36.68000 10.036
36.69000 7.080
36.70000 19.285
36.71000 16.095
36.72000 12.191
36.73000 14.049
36.74000 13.265
36.75000 15.117
36.76000 21.274
36.77000 11.231
36.78000 14.218
36.79000 9.288
36.80000 9.055
36.81000 8.168
36.82000 7.176
36.83000 11.029
36.84000 14.207
36.85000 9.120
36.86000 12.332
36.87000 10.155
36.88000 13.138
36.89000 9.252
36.90000 10.127
36.91000 12.284
36.92000 8.221
36.93000 9.150
36.94000 7.106
36.95000 12.206
36.96000 14.115
36.97000 15.185
36.98000 9.107
36.99000 4.018
37.00000 15.390
37.01000 17.144
37.02000 13.127
37.03000 11.066
37.04000 18.222
37.05000 14.157
37.06000 16.354
37.07000 18.255
37.08000 19.234
37.09000 17.220
37.10000 9.169
37.11000 10.142
37.12000 14.322
37.13000 14.367
37.14000 7.988
37.15000 12.124
37.16000 14.159
37.17000 13.077
37.18000 10.129
37.19000 10.986
37.20000 15.114
37.21000 14.186
37.22000 14.435
37.23000 8.007
37.24000 13.191
37.25000 15.238
37.26000 16.178
37.27000 13.061
37.28000 14.308
37.29000 11.149
37.30000 12.158
37.31000 13.283
37.32000 8.978
37.33000 14.187
37.34000 7.987
37.35000 19.213
37.36000 11.152
37.37000 12.151
37.38000 10.077
37.39000 12.149
37.40000 13.098
37.41000 14.115
37.42000 9.231
37.43000 13.179
37.44000 7.166
37.45000 18.279
37.46000 15.343
37.47000 18.239
37.48000 14.148
37.49000 12.024
37.50000 6.066
37.51000 19.271
37.52000 11.173
37.53000 14.174
37.54000 16.261
37.55000 11.019
37.56000 9.170
37.57000 15.188
37.58000 14.261
37.59000 16.430
37.60000 16.364
37.61000 11.023
37.62000 8.140
37.63000 12.120
37.64000 18.482
37.65000 21.212
37.66000 23.444
37.67000 20.242
37.68000 14.076
37.69000 8.156
37.70000 10.077
37.71000 13.056
37.72000 13.176
37.73000 16.198
37.74000 11.144
37.75000 10.044
37.76000 8.107
37.77000 15.134
37.78000 13.163
37.79000 16.241
37.80000 15.176
37.81000 20.167
37.82000 11.046
37.83000 12.045
37.84000 14.275
37.85000 10.993
37.86000 12.245
37.87000 12.185
37.88000 5.036
37.89000 19.190
37.90000 10.223
37.91000 12.237
37.92000 13.154
37.93000 17.279
37.94000 14.251
37.95000 11.186
37.96000 15.179
37.97000 11.214
37.98000 16.159
37.99000 17.330
38.00000 11.043
38.01000 14.149
38.02000 16.314
38.03000 13.264
38.04000 10.159
38.05000 19.409
38.06000 7.046
38.07000 10.221
38.08000 8.098
38.09000 11.181
38.10000 9.015
38.11000 14.217
38.12000 18.258
38.13000 17.136
38.14000 18.322
38.15000 13.133
38.16000 12.256
38.17000 14.203
38.18000 13.090
38.19000 15.163
38.20000 12.170
38.21000 8.147
38.22000 6.986
38.23000 7.016
38.24000 13.108
38.25000 20.228
38.26000 13.122
38.27000 13.161
38.28000 8.038
38.29000 9.135
38.30000 11.075
38.31000 18.301
38.32000 14.053
38.33000 8.076
38.34000 18.242
38.35000 14.185
38.36000 22.362
38.37000 11.040
38.38000 12.205
38.39000 14.440
38.40000 17.315
38.41000 16.206
38.42000 13.010
38.43000 17.246
38.44000 20.303
38.45000 7.110
38.46000 13.129
38.47000 15.098
38.48000 12.177
38.49000 11.153
38.50000 12.229
38.51000 10.091
38.52000 14.223
38.53000 13.313
38.54000 11.102
38.55000 8.015
38.56000 17.403
38.57000 13.212
38.58000 12.183
38.59000 14.112
38.60000 14.253
38.61000 13.177
38.62000 10.136
38.63000 16.299
38.64000 14.041
38.65000 10.106
38.66000 10.105
38.67000 12.057
38.68000 11.186
38.69000 17.383
38.70000 12.145
38.71000 16.203
38.72000 18.383
38.73000 11.204
38.74000 19.199
38.75000 15.288
38.76000 14.201
38.77000 15.226
38.78000 18.212
38.79000 10.990
38.80000 15.009
38.81000 9.094
38.82000 19.214
38.83000 14.098
38.84000 12.117
38.85000 13.298
38.86000 14.360
38.87000 14.261
38.88000 10.164
38.89000 14.198
38.90000 10.984
38.91000 8.124
38.92000 12.166
38.93000 17.261
38.94000 9.212
38.95000 7.047
38.96000 13.139
38.97000 13.188
38.98000 20.141
38.99000 15.247
39.00000 16.175
39.01000 19.452
39.02000 11.059
39.03000 15.177
39.04000 12.095
39.05000 11.056
39.06000 14.170
39.07000 8.024
39.08000 11.048
39.09000 18.302
39.10000 9.148
39.11000 15.164
39.12000 19.235
39.13000 15.306
39.14000 14.200
39.15000 18.187
39.16000 9.277
39.17000 8.082
39.18000 10.268
39.19000 16.119
39.20000 13.211
39.21000 17.114
39.22000 14.150
39.23000 16.115
39.24000 18.268
39.25000 14.968
39.26000 14.293
39.27000 20.376
39.28000 17.154
39.29000 15.327
39.30000 15.229
39.31000 13.247
39.32000 7.213
39.33000 10.167
39.34000 11.184
39.35000 15.215
39.36000 8.138
39.37000 15.058
39.38000 9.128
39.39000 14.289
39.40000 12.056
39.41000 22.259
39.42000 8.115
39.43000 15.143
39.44000 9.143
39.45000 14.325
39.46000 13.113
39.47000 10.010
39.48000 13.155
39.49000 11.155
39.50000 19.242
39.51000 17.333
39.52000 12.319
39.53000 14.120
39.54000 12.089
39.55000 9.077
39.56000 17.138
39.57000 12.134
39.58000 10.999
39.59000 12.190
39.60000 14.139
39.61000 16.116
39.62000 16.036
39.63000 13.161
39.64000 18.176
39.65000 16.122
39.66000 13.226
39.67000 13.112
39.68000 12.118
39.69000 14.034
39.70000 17.317
39.71000 14.223
39.72000 17.265
39.73000 22.344
39.74000 15.136
39.75000 18.082
39.76000 13.214
39.77000 11.196
39.78000 15.415
39.79000 11.117
39.80000 16.137
39.81000 11.078
39.82000 14.057
39.83000 24.330
39.84000 18.244
39.85000 10.170
39.86000 15.258
39.87000 21.269
39.88000 13.388
39.89000 13.195
39.90000 9.183
39.91000 13.167
39.92000 18.079
39.93000 13.309
39.94000 14.156
39.95000 16.227
39.96000 16.247
39.97000 17.223
39.98000 25.342
39.99000 14.207
40.00000 9.975
40.01000 15.130
40.02000 5.992
40.03000 14.259
40.04000 17.183
40.05000 10.056
40.06000 11.181
40.07000 16.266
40.08000 12.137
40.09000 20.158
40.10000 13.162
40.11000 14.280
40.12000 12.103
40.13000 12.297
40.14000 10.179
40.15000 19.286
40.16000 8.948
40.17000 22.135
40.18000 5.056
40.19000 13.086
40.20000 13.179
40.21000 9.157
40.22000 7.958
40.23000 23.524
40.24000 20.351
40.25000 13.183
40.26000 15.166
40.27000 11.962
40.28000 18.144
40.29000 14.166
40.30000 15.236
40.31000 11.035
40.32000 11.195
40.33000 11.193
40.34000 13.031
40.35000 14.148
40.36000 11.075
40.37000 17.214
40.38000 11.106
40.39000 9.077
40.40000 16.123
40.41000 11.234
40.42000 13.083
40.43000 11.183
40.44000 15.109
40.45000 20.232
40.46000 11.133
40.47000 9.136
40.48000 13.998
40.49000 10.166
40.50000 12.112
40.51000 14.122
40.52000 16.272
40.53000 7.105
40.54000 14.163
40.55000 10.164
40.56000 5.099
40.57000 13.109
40.58000 14.049
40.59000 17.290
40.60000 21.183
40.61000 18.302
40.62000 13.122
40.63000 14.103
40.64000 13.944
40.65000 10.224
40.66000 4.109
40.67000 9.994
40.68000 11.181
40.69000 14.252
40.70000 11.035
40.71000 10.131
40.72000 19.285
40.73000 12.107
40.74000 10.126
40.75000 13.244
40.76000 12.139
40.77000 22.414
40.78000 15.251
40.79000 15.329
40.80000 7.095
40.81000 7.135
40.82000 17.300
40.83000 15.336
40.84000 14.232
40.85000 15.214
40.86000 9.139
40.87000 13.241
40.88000 9.343
40.89000 15.305
40.90000 15.278
40.91000 12.124
40.92000 9.012
40.93000 16.335
40.94000 12.078
40.95000 12.187
40.96000 15.421
40.97000 22.246
40.98000 18.388
40.99000 18.179
41.00000 6.113
41.01000 13.247
41.02000 20.304
41.03000 10.082
41.04000 19.189
41.05000 12.223
41.06000 13.310
41.07000 16.035
41.08000 16.184
41.09000 19.112
41.10000 7.160
41.11000 14.359
41.12000 16.082
41.13000 8.109
41.14000 20.331
41.15000 17.146
41.16000 11.234
41.17000 7.089
41.18000 10.071
41.19000 6.114
41.20000 17.086
41.21000 16.221
41.22000 10.041
41.23000 7.081
41.24000 17.228
41.25000 12.120
41.26000 12.217
41.27000 11.245
41.28000 7.127
41.29000 16.158
41.30000 18.094
41.31000 11.012
41.32000 15.127
41.33000 8.143
41.34000 14.206
41.35000 13.199
41.36000 19.268
41.37000 18.229
41.38000 11.242
41.39000 15.054
41.40000 12.210
41.41000 10.025
41.42000 14.139
41.43000 10.163
41.44000 10.014
41.45000 19.131
41.46000 10.159
41.47000 14.322
41.48000 13.138
41.49000 19.138
41.50000 14.332
41.51000 12.990
41.52000 12.199
41.53000 10.153
41.54000 13.347
41.55000 11.244
41.56000 6.080
41.57000 10.012
41.58000 11.194
41.59000 11.139
41.60000 12.120
41.61000 14.096
41.62000 8.159
41.63000 8.093
41.64000 13.133
41.65000 11.114
41.66000 10.144
41.67000 14.185
41.68000 10.192
41.69000 13.152
41.70000 14.124
41.71000 15.113
41.72000 9.059
41.73000 20.310
41.74000 11.004
41.75000 15.215
41.76000 17.131
41.77000 12.064
41.78000 17.169
41.79000 15.366
41.80000 16.145
41.81000 14.221
41.82000 17.347
41.83000 13.282
41.84000 11.100
41.85000 16.222
41.86000 13.183
41.87000 13.169
41.88000 8.105
41.89000 17.248
41.90000 16.994
41.91000 16.265
41.92000 15.190
41.93000 16.203
41.94000 16.202
41.95000 12.133
41.96000 11.192
41.97000 13.396
41.98000 19.031
41.99000 11.102
42.00000 23.210
42.01000 6.081
42.02000 15.118
42.03000 10.114
42.04000 6.070
42.05000 16.376
42.06000 14.195
42.07000 12.195
42.08000 16.230
42.09000 8.102
42.10000 16.210
42.11000 14.190
42.12000 7.061
42.13000 10.067
42.14000 14.313
42.15000 20.107
42.16000 8.186
42.17000 16.238
42.18000 8.981
42.19000 13.020
42.20000 12.191
42.21000 15.187
42.22000 11.210
42.23000 16.244
42.24000 12.078
42.25000 12.259
42.26000 11.207
42.27000 9.043
42.28000 10.083
42.29000 16.199
42.30000 16.286
42.31000 7.174
42.32000 17.208
42.33000 14.116
42.34000 19.252
42.35000 7.067
42.36000 14.220
42.37000 15.169
42.38000 12.203
42.39000 14.064
42.40000 14.223
42.41000 6.085
42.42000 11.189
42.43000 13.210
42.44000 12.119
42.45000 14.047
42.46000 13.197
42.47000 13.234
42.48000 11.996
42.49000 11.182
42.50000 11.268
42.51000 14.185
42.52000 12.101
42.53000 13.262
42.54000 11.185
42.55000 15.121
42.56000 14.007
42.57000 12.312
42.58000 11.037
42.59000 16.179
42.60000 11.192
42.61000 8.124
42.62000 11.203
42.63000 10.132
42.64000 14.218
42.65000 12.213
42.66000 17.317
42.67000 11.238
42.68000 14.140
42.69000 15.255
42.70000 17.227
42.71000 16.275
42.72000 13.171
42.73000 10.126
42.74000 17.372
42.75000 14.215
42.76000 10.027
42.77000 13.064
42.78000 19.056
42.79000 18.227
42.80000 11.048
42.81000 17.035
42.82000 14.151
42.83000 20.177
42.84000 14.282
42.85000 13.142
42.86000 13.240
42.87000 13.003
42.88000 24.216
42.89000 9.142
42.90000 19.242
42.91000 9.104
42.92000 13.244
42.93000 13.160
42.94000 19.011
42.95000 12.184
42.96000 15.248
42.97000 19.305
42.98000 13.180
42.99000 15.170
43.00000 16.157
43.01000 11.165
43.02000 13.251
43.03000 15.200
43.04000 12.052
43.05000 13.274
43.06000 8.124
43.07000 9.974
43.08000 16.075
43.09000 12.179
43.10000 19.011
43.11000 16.258
43.12000 11.976
43.13000 11.005
43.14000 12.141
43.15000 9.940
43.16000 13.201
43.17000 11.078
43.18000 9.100
43.19000 18.339
43.20000 20.405
43.21000 16.295
43.22000 14.260
43.23000 7.113
43.24000 14.247
43.25000 10.940
43.26000 11.160
43.27000 22.292
43.28000 13.248
43.29000 19.430
43.30000 15.041
43.31000 16.101
43.32000 24.360
43.33000 14.104
43.34000 14.213
43.35000 15.132
43.36000 9.107
43.37000 11.055
43.38000 12.132
43.39000 10.174
43.40000 15.298
43.41000 13.271
43.42000 21.328
43.43000 10.937
43.44000 11.224
43.45000 12.047
43.46000 21.344
43.47000 12.343
43.48000 9.166
43.49000 14.207
43.50000 14.359
43.51000 17.182
43.52000 10.067
43.53000 8.120
43.54000 12.196
43.55000 15.163
43.56000 8.121
43.57000 15.281
43.58000 15.105
43.59000 21.235
43.60000 14.123
43.61000 15.042
43.62000 10.156
43.63000 12.104
43.64000 12.193
43.65000 9.064
43.66000 16.188
43.67000 10.267
43.68000 13.166
43.69000 7.071
43.70000 15.152
43.71000 15.321
43.72000 7.132
43.73000 16.307
43.74000 11.216
43.75000 15.264
43.76000 15.339
43.77000 15.207
43.78000 10.065
43.79000 23.327
43.80000 9.020
43.81000 4.964
43.82000 15.183
43.83000 12.162
43.84000 16.291
43.85000 16.244
43.86000 13.155
43.87000 7.116
43.88000 11.063
43.89000 11.196
43.90000 14.126
43.91000 17.264
43.92000 16.189
43.93000 11.120
43.94000 9.185
43.95000 11.223
43.96000 12.150
43.97000 5.134
43.98000 11.077
43.99000 9.993
44.00000 12.190
44.01000 14.118
44.02000 8.085
44.03000 14.126
44.04000 17.261
44.05000 9.967
44.06000 6.171
44.07000 17.246
44.08000 20.308
44.09000 21.180
44.10000 7.946
44.11000 15.113
44.12000 9.154
44.13000 11.220
44.14000 12.067
44.15000 13.261
44.16000 10.225
44.17000 12.254
44.18000 11.257
44.19000 13.194
44.20000 23.219
44.21000 17.256
44.22000 16.137
44.23000 17.207
44.24000 17.345
44.25000 11.177
44.26000 16.245
44.27000 16.126
44.28000 17.251
44.29000 16.159
44.30000 14.969
44.31000 13.096
44.32000 10.154
44.33000 17.115
44.34000 19.295
44.35000 11.081
44.36000 7.102
44.37000 14.061
44.38000 14.116
44.39000 7.076
44.40000 14.253
44.41000 14.110
44.42000 12.286
44.43000 12.155
44.44000 18.058
44.45000 13.100
44.46000 8.118
44.47000 12.211
44.48000 13.184
44.49000 13.125
44.50000 12.119
44.51000 11.267
44.52000 10.088
44.53000 22.241
44.54000 19.231
44.55000 22.231
44.56000 12.014
44.57000 15.232
44.58000 12.083
44.59000 7.125
44.60000 11.057
44.61000 10.130
44.62000 11.263
44.63000 12.078
44.64000 10.992
44.65000 14.052
44.66000 22.367
44.67000 15.450
44.68000 13.062
44.69000 16.188
44.70000 6.038
44.71000 14.165
44.72000 11.195
44.73000 15.168
44.74000 22.257
44.75000 16.103
44.76000 15.075
44.77000 5.074
44.78000 11.215
44.79000 5.996
44.80000 12.016
44.81000 20.210
44.82000 13.095
44.83000 14.220
44.84000 11.164
44.85000 10.166
44.86000 15.157
44.87000 12.097
44.88000 16.274
44.89000 8.110
44.90000 13.221
44.91000 18.080
44.92000 14.165
44.93000 13.245
44.94000 14.194
44.95000 8.079
44.96000 10.184
44.97000 13.123
44.98000 7.033
44.99000 18.254
45.00000 14.150
45.01000 11.096
45.02000 15.127
45.03000 19.293
45.04000 21.280
45.05000 11.029
45.06000 12.224
45.07000 16.392
45.08000 16.066
45.09000 10.209
45.10000 13.184
45.11000 18.160
45.12000 15.263
45.13000 7.991
45.14000 12.212
45.15000 16.130
45.16000 7.051
45.17000 14.146
45.18000 15.156
45.19000 16.140
45.20000 17.380
45.21000 16.199
45.22000 17.248
45.23000 19.114
45.24000 17.191
45.25000 12.051
45.26000 14.208
45.27000 12.289
45.28000 5.991
45.29000 12.086
45.30000 9.167
45.31000 15.242
45.32000 18.382
45.33000 13.204
45.34000 18.111
45.35000 14.319
45.36000 15.310
45.37000 16.271
45.38000 15.135
45.39000 12.238
45.40000 13.133
45.41000 15.269
45.42000 14.170
45.43000 15.221
45.44000 15.187
45.45000 18.312
45.46000 10.029
45.47000 13.101
45.48000 12.307
45.49000 12.241
45.50000 11.235
45.51000 15.240
45.52000 9.097
45.53000 14.115
45.54000 17.213
45.55000 15.105
45.56000 12.035
45.57000 13.059
45.58000 21.275
45.59000 17.309
45.60000 11.035
45.61000 14.102
45.62000 13.288
45.63000 16.036
45.64000 21.462
45.65000 9.137
45.66000 11.248
45.67000 20.380
45.68000 11.187
45.69000 19.268
45.70000 12.027
45.71000 11.113
45.72000 17.410
45.73000 17.294
45.74000 14.157
45.75000 13.057
45.76000 5.995
45.77000 14.336
45.78000 15.254
45.79000 11.214
45.80000 15.075
45.81000 9.179
45.82000 15.165
45.83000 10.185
45.84000 9.192
45.85000 14.059
45.86000 12.203
45.87000 16.121
45.88000 13.201
45.89000 12.112
45.90000 10.303
45.91000 10.260
45.92000 20.621
45.93000 8.015
45.94000 21.526
45.95000 16.280
45.96000 19.165
45.97000 17.302
45.98000 10.228
45.99000 21.170
46.00000 21.361
46.01000 15.169
46.02000 11.158
46.03000 9.073
46.04000 13.314
46.05000 12.141
46.06000 12.140
46.07000 14.193
46.08000 23.166
46.09000 21.077
46.10000 10.028
46.11000 14.145
46.12000 15.261
46.13000 12.061
46.14000 7.110
46.15000 15.259
46.16000 12.116
46.17000 14.266
46.18000 14.249
46.19000 6.076
46.20000 12.253
46.21000 17.243
46.22000 17.336
46.23000 16.397
46.24000 12.251
46.25000 16.224
46.26000 16.965
46.27000 11.092
46.28000 10.148
46.29000 11.177
46.30000 19.118
46.31000 20.225
46.32000 11.127
46.33000 18.058
46.34000 17.254
46.35000 11.276
46.36000 15.346
46.37000 17.297
46.38000 15.113
46.39000 15.301
46.40000 16.259
46.41000 10.142
46.42000 16.440
46.43000 11.023
46.44000 13.183
46.45000 9.108
46.46000 14.146
46.47000 15.244
46.48000 9.077
46.49000 19.181
46.50000 19.116
46.51000 13.209
46.52000 19.091
46.53000 18.267
46.54000 18.302
46.55000 13.167
46.56000 15.351
46.57000 14.071
46.58000 14.193
46.59000 9.200
46.60000 16.458
46.61000 14.099
46.62000 19.397
46.63000 9.057
46.64000 20.187
46.65000 12.109
46.66000 12.318
46.67000 15.246
46.68000 18.059
46.69000 18.365
46.70000 9.154
46.71000 9.047
46.72000 8.042
46.73000 10.028
46.74000 9.182
46.75000 12.306
46.76000 13.160
46.77000 15.312
46.78000 12.189
46.79000 14.154
46.80000 8.136
46.81000 9.284
46.82000 15.215
46.83000 17.326
46.84000 9.110
46.85000 13.096
46.86000 21.297
46.87000 18.102
46.88000 14.064
46.89000 12.150
46.90000 15.139
46.91000 17.145
46.92000 11.087
46.93000 15.221
46.94000 16.115
46.95000 16.128
46.96000 21.225
46.97000 11.294
46.98000 12.225
46.99000 12.144
47.00000 14.148
47.01000 7.054
47.02000 15.288
47.03000 16.187
47.04000 14.205
47.05000 11.996
47.06000 9.037
47.07000 10.151
47.08000 14.258
47.09000 9.961
47.10000 11.340
47.11000 7.133
47.12000 19.243
47.13000 12.028
47.14000 12.036
47.15000 14.347
47.16000 9.047
47.17000 13.053
47.18000 12.128
47.19000 13.201
47.20000 16.207
47.21000 13.221
47.22000 15.190
47.23000 13.190
47.24000 9.025
47.25000 14.220
47.26000 12.104
47.27000 13.284
47.28000 8.051
47.29000 23.398
47.30000 7.110
47.31000 12.229
47.32000 12.145
47.33000 16.176
47.34000 14.206
47.35000 11.231
47.36000 8.029
47.37000 16.153
47.38000 15.265
47.39000 10.122
47.40000 16.279
47.41000 10.169
47.42000 11.232
47.43000 13.122
47.44000 16.179
47.45000 10.014
47.46000 7.032
47.47000 16.008
47.48000 19.359
47.49000 9.058
47.50000 11.150
47.51000 7.010
47.52000 15.119
47.53000 13.231
47.54000 15.037
47.55000 16.302
47.56000 15.157
47.57000 10.142
47.58000 14.137
47.59000 12.086
47.60000 11.180
47.61000 10.213
47.62000 11.200
47.63000 14.410
47.64000 17.203
47.65000 7.120
47.66000 7.065
47.67000 16.153
47.68000 15.157
47.69000 17.175
47.70000 13.087
47.71000 13.193
47.72000 14.161
47.73000 16.229
47.74000 13.236
47.75000 7.176
47.76000 13.150
47.77000 21.347
47.78000 9.236
47.79000 14.182
47.80000 17.035
47.81000 8.078
47.82000 17.233
47.83000 10.128
47.84000 9.005
47.85000 20.353
47.86000 14.278
47.87000 12.059
47.88000 14.922
47.89000 8.055
47.90000 9.063
47.91000 20.262
47.92000 14.269
47.93000 12.069
47.94000 11.052
47.95000 8.099
47.96000 5.087
47.97000 16.168
47.98000 16.168
47.99000 9.099
48.00000 14.245
48.01000 15.155
48.02000 21.129
48.03000 16.121
48.04000 10.231
48.05000 13.170
48.06000 11.260
48.07000 10.143
48.08000 11.209
48.09000 10.191
48.10000 8.027
48.11000 12.133
48.12000 10.171
48.13000 17.187
48.14000 9.978
48.15000 12.104
48.16000 12.218
48.17000 16.112
48.18000 10.215
48.19000 7.084
48.20000 15.135
48.21000 19.357
48.22000 12.235
48.23000 13.087
48.24000 11.202
48.25000 16.283
48.26000 5.088
48.27000 10.244
48.28000 11.214
48.29000 10.082
48.30000 12.237
48.31000 10.984
48.32000 19.349
48.33000 4.028
48.34000 13.158
48.35000 15.075
48.36000 20.238
48.37000 10.129
48.38000 6.016
48.39000 10.124
48.40000 19.223
48.41000 9.118
48.42000 21.048
48.43000 13.154
48.44000 24.393
48.45000 16.393
48.46000 11.197
48.47000 10.276
48.48000 10.149
48.49000 16.127
48.50000 13.137
48.51000 20.291
48.52000 14.342
48.53000 15.228
48.54000 12.095
48.55000 10.004
48.56000 15.181
48.57000 17.123
48.58000 10.138
48.59000 8.051
48.60000 10.148
48.61000 15.272
48.62000 5.059
48.63000 13.269
48.64000 10.165
48.65000 12.093
48.66000 11.269
48.67000 18.170
48.68000 9.152
48.69000 18.264
48.70000 9.210
48.71000 12.189
48.72000 12.169
48.73000 19.292
48.74000 10.155
48.75000 8.174
48.76000 12.186
48.77000 12.047
48.78000 16.225
48.79000 18.253
48.80000 9.275
48.81000 17.140
48.82000 14.201
48.83000 10.082
48.84000 9.100
48.85000 16.051
48.86000 7.111
48.87000 19.154
48.88000 16.329
48.89000 12.255
48.90000 14.202
48.91000 10.259
48.92000 14.309
48.93000 15.196
48.94000 8.258
48.95000 14.187
48.96000 20.139
48.97000 11.190
48.98000 10.138
48.99000 15.053
49.00000 26.407
49.01000 18.267
49.02000 13.118
49.03000 14.199
49.04000 6.108
49.05000 13.197
49.06000 8.168
49.07000 11.092
49.08000 16.326
49.09000 14.102
49.10000 13.226
49.11000 16.207
49.12000 11.068
49.13000 13.218
49.14000 10.079
49.15000 10.160
49.16000 10.012
49.17000 10.931
49.18000 8.993
49.19000 8.048
49.20000 12.205
49.21000 19.258
49.22000 6.063
49.23000 14.336
49.24000 8.068
49.25000 16.163
49.26000 17.125
49.27000 18.135
49.28000 3.990
49.29000 12.012
49.30000 14.236
49.31000 8.104
49.32000 9.097
49.33000 12.273
49.34000 9.083
49.35000 13.143
49.36000 13.063
49.37000 12.221
49.38000 8.046
49.39000 13.053
49.40000 18.188
49.41000 14.352
49.42000 18.329
49.43000 10.003
49.44000 10.272
49.45000 7.159
49.46000 16.158
49.47000 11.185
49.48000 15.297
49.49000 8.086
49.50000 11.116
49.51000 11.070
49.52000 9.020
49.53000 17.384
49.54000 8.055
49.55000 11.240
49.56000 17.122
49.57000 6.057
49.58000 14.066
49.59000 13.203
49.60000 11.047
49.61000 11.233
49.62000 8.072
49.63000 16.226
49.64000 16.140
49.65000 10.137
49.66000 12.145
49.67000 6.121
49.68000 13.216
49.69000 11.125
49.70000 18.203
49.71000 11.093
49.72000 6.146
49.73000 8.046
49.74000 16.133
49.75000 9.046
49.76000 9.089
49.77000 10.034
49.78000 10.097
49.79000 15.211
49.80000 10.047
49.81000 10.236
49.82000 13.151
49.83000 12.327
49.84000 15.254
49.85000 15.186
49.86000 12.067
49.87000 12.120
49.88000 8.990
49.89000 9.211
49.90000 12.295
49.91000 14.122
49.92000 15.280
49.93000 11.075
49.94000 11.271
49.95000 10.188
49.96000 12.191
49.97000 16.147
49.98000 11.043
49.99000 12.299
50.00000 14.344
50.01000 17.112
50.02000 7.212
50.03000 10.060
50.04000 14.310
50.05000 11.143
50.06000 7.088
50.07000 15.337
50.08000 11.150
50.09000 17.364
50.10000 7.044
50.11000 5.006
50.12000 17.212
50.13000 8.076
50.14000 12.239
50.15000 14.254
50.16000 7.175
50.17000 10.961
50.18000 8.166
50.19000 13.170
50.20000 15.255
50.21000 6.206
50.22000 11.101
50.23000 9.095
50.24000 5.064
50.25000 8.039
50.26000 16.284
50.27000 10.149
50.28000 11.139
50.29000 14.235
50.30000 14.203
50.31000 18.152
50.32000 12.098
50.33000 11.159
50.34000 14.023
50.35000 13.164
50.36000 14.225
50.37000 13.079
50.38000 14.108
50.39000 7.119
50.40000 14.236
50.41000 10.144
50.42000 15.179
50.43000 12.254
50.44000 8.118
50.45000 16.367
50.46000 13.266
50.47000 6.097
50.48000 6.106
50.49000 9.003
50.50000 10.031
50.51000 15.194
50.52000 10.164
50.53000 10.050
50.54000 14.212
50.55000 7.156
50.56000 12.124
50.57000 12.127
50.58000 19.214
50.59000 8.210
50.60000 9.191
50.61000 14.214
50.62000 13.305
50.63000 9.079
50.64000 11.055
50.65000 12.268
50.66000 17.250
50.67000 13.244
50.68000 11.089
50.69000 19.285
50.70000 10.046
50.71000 16.443
50.72000 12.189
50.73000 12.018
50.74000 17.184
50.75000 13.157
50.76000 12.197
50.77000 10.160
50.78000 10.141
50.79000 17.058
50.80000 11.137
50.81000 6.158
50.82000 10.039
50.83000 10.122
50.84000 12.235
50.85000 14.165
50.86000 10.112
50.87000 13.251
50.88000 15.174
50.89000 9.148
50.90000 10.105
50.91000 7.051
50.92000 10.144
50.93000 19.133
50.94000 12.202
50.95000 16.125
50.96000 12.191
50.97000 12.116
50.98000 15.235
50.99000 10.172
51.00000 14.211
51.01000 11.127
51.02000 12.081
51.03000 9.203
51.04000 9.106
51.05000 11.016
51.06000 8.045
51.07000 10.075
51.08000 8.033
51.09000 21.191
51.10000 10.279
51.11000 9.149
51.12000 12.187
51.13000 12.170
51.14000 8.184
51.15000 10.180
51.16000 10.047
51.17000 21.381
51.18000 5.131
51.19000 6.054
51.20000 13.247
51.21000 13.186
51.22000 11.273
51.23000 10.169
51.24000 13.080
51.25000 11.260
51.26000 16.352
51.27000 14.179
51.28000 16.129
51.29000 12.169
51.30000 6.094
51.31000 18.202
51.32000 11.289
51.33000 8.065
51.34000 10.137
51.35000 9.068
51.36000 12.186
51.37000 11.220
51.38000 10.086
51.39000 7.025
51.40000 11.302
51.41000 7.013
51.42000 13.125
51.43000 15.168
51.44000 17.292
51.45000 14.114
51.46000 11.036
51.47000 15.044
51.48000 7.093
51.49000 16.102
51.50000 21.326
51.51000 10.120
51.52000 14.212
51.53000 9.081
51.54000 15.213
51.55000 5.021
51.56000 7.947
51.57000 10.043
51.58000 9.177
51.59000 19.182
51.60000 13.210
51.61000 9.098
51.62000 6.037
51.63000 9.144
51.64000 14.205
51.65000 15.049
51.66000 12.167
51.67000 10.115
51.68000 6.156
51.69000 12.239
51.70000 12.287
51.71000 12.308
51.72000 11.208
51.73000 12.003
51.74000 11.138
51.75000 15.233
51.76000 10.172
51.77000 12.166
51.78000 9.140
51.79000 8.087
51.80000 10.122
51.81000 8.077
51.82000 10.262
51.83000 11.120
51.84000 6.120
51.85000 9.055
51.86000 18.113
51.87000 11.176
51.88000 10.047
51.89000 15.216
51.90000 10.150
51.91000 15.261
51.92000 13.053
51.93000 12.307
51.94000 8.120
51.95000 12.095
51.96000 16.136
51.97000 10.160
51.98000 16.110
51.99000 16.282
52.00000 6.138
52.01000 18.267
52.02000 6.067
52.03000 6.023
52.04000 11.148
52.05000 10.201
52.06000 6.976
52.07000 14.293
52.08000 12.170
52.09000 10.121
52.10000 5.093
52.11000 10.174
52.12000 10.200
52.13000 10.250
52.14000 15.262
52.15000 11.083
52.16000 11.043
52.17000 10.184
52.18000 10.206
52.19000 10.082
52.20000 8.120
52.21000 11.298
52.22000 13.245
52.23000 12.287
52.24000 11.997
52.25000 17.263
52.26000 10.180
52.27000 9.188
52.28000 11.164
52.29000 13.094
52.30000 7.082
52.31000 12.223
52.32000 20.380
52.33000 17.028
52.34000 11.130
52.35000 8.092
52.36000 17.306
52.37000 13.104
52.38000 12.169
52.39000 8.105
52.40000 15.216
52.41000 4.058
52.42000 13.243
52.43000 11.111
52.44000 15.169
52.45000 17.238
52.46000 8.088
52.47000 11.155
52.48000 20.374
52.49000 12.106
52.50000 11.093
52.51000 12.261
52.52000 10.151
52.53000 10.190
52.54000 13.213
52.55000 10.155
52.56000 9.104
52.57000 5.156
52.58000 15.128
52.59000 8.148
52.60000 10.140
52.61000 13.179
52.62000 7.237
52.63000 11.105
52.64000 10.180
52.65000 6.076
52.66000 14.227
52.67000 11.152
52.68000 10.242
52.69000 7.215
52.70000 7.055
52.71000 14.212
52.72000 7.056
52.73000 11.127
52.74000 8.012
52.75000 17.168
52.76000 17.229
52.77000 16.259
52.78000 9.048
52.79000 11.127
52.80000 13.162
52.81000 12.256
52.82000 9.147
52.83000 9.171
52.84000 19.382
52.85000 13.115
52.86000 11.172
52.87000 9.004
52.88000 4.065
52.89000 14.311
52.90000 14.199
52.91000 11.194
52.92000 7.059
52.93000 11.220
52.94000 17.175
52.95000 11.145
52.96000 13.129
52.97000 9.039
52.98000 10.099
52.99000 9.995
53.00000 16.209
53.01000 13.219
53.02000 17.115
53.03000 13.035
53.04000 7.072
53.05000 7.169
53.06000 10.063
53.07000 14.240
53.08000 11.177
53.09000 13.117
53.10000 14.354
53.11000 15.245
53.12000 10.157
53.13000 4.119
53.14000 11.105
53.15000 8.116
53.16000 10.095
53.17000 12.174
53.18000 9.106
53.19000 14.336
53.20000 18.252
53.21000 10.083
53.22000 10.037
53.23000 9.153
53.24000 13.253
53.25000 8.957
53.26000 10.048
53.27000 14.195
53.28000 11.106
53.29000 14.137
53.30000 12.060
53.31000 11.176
53.32000 13.168
53.33000 8.077
53.34000 9.160
53.35000 6.065
53.36000 8.055
53.37000 16.270
53.38000 14.120
53.39000 10.980
53.40000 16.346
53.41000 11.092
53.42000 7.111
53.43000 10.278
53.44000 5.109
53.45000 9.118
53.46000 11.176
53.47000 18.271
53.48000 11.980
53.49000 13.061
53.50000 6.097
53.51000 12.208
53.52000 11.194
53.53000 11.292
53.54000 7.113
53.55000 9.039
53.56000 16.187
53.57000 6.038
53.58000 10.010
53.59000 13.350
53.60000 5.116
53.61000 11.267
53.62000 13.215
53.63000 11.149
53.64000 11.274
53.65000 9.049
53.66000 8.105
53.67000 7.164
53.68000 7.028
53.69000 10.086
53.70000 11.141
53.71000 9.263
53.72000 11.146
53.73000 6.082
53.74000 5.112
53.75000 7.018
53.76000 13.288
53.77000 12.157
53.78000 17.298
53.79000 11.042
53.80000 8.158
53.81000 10.121
53.82000 10.222
53.83000 12.264
53.84000 12.122
53.85000 11.067
53.86000 7.282
53.87000 15.119
53.88000 12.199
53.89000 10.056
53.90000 9.103
53.91000 4.020
53.92000 8.075
53.93000 15.357
53.94000 10.235
53.95000 15.224
53.96000 11.073
53.97000 11.009
53.98000 10.148
53.99000 7.008
54.00000 5.069
54.01000 11.230
54.02000 12.181
54.03000 10.026
54.04000 11.140
54.05000 9.964
54.06000 10.040
54.07000 18.354
54.08000 4.014
54.09000 5.123
54.10000 7.054
54.11000 10.099
54.12000 8.153
54.13000 7.179
54.14000 14.218
54.15000 13.322
54.16000 13.385
54.17000 10.149
54.18000 6.968
54.19000 6.965
54.20000 14.219
54.21000 12.112
54.22000 7.232
54.23000 7.047
54.24000 12.109
54.25000 14.101
54.26000 7.087
54.27000 11.156
54.28000 4.984
54.29000 12.102
54.30000 17.337
54.31000 12.155
54.32000 8.231
54.33000 9.096
54.34000 12.092
54.35000 12.232
54.36000 13.244
54.37000 17.494
54.38000 12.009
54.39000 12.262
54.40000 8.104
54.41000 8.110
54.42000 6.137
54.43000 10.257
54.44000 10.153
54.45000 11.197
54.46000 12.109
54.47000 11.105
54.48000 9.031
54.49000 8.210
54.50000 7.087
54.51000 8.130
54.52000 5.094
54.53000 8.081
54.54000 11.154
54.55000 7.034
54.56000 12.081
54.57000 13.238
54.58000 8.234
54.59000 10.198
54.60000 5.077
54.61000 3.038
54.62000 14.019
54.63000 12.253
54.64000 7.212
54.65000 13.135
54.66000 6.069
54.67000 13.197
54.68000 11.066
54.69000 4.049
54.70000 10.035
54.71000 4.075
54.72000 8.092
54.73000 12.125
54.74000 10.048
54.75000 7.136
54.76000 13.246
54.77000 11.119
54.78000 10.236
54.79000 9.273
54.80000 9.182
54.81000 12.137
54.82000 7.107
54.83000 4.024
54.84000 9.996
54.85000 9.099
54.86000 10.188
54.87000 5.998
54.88000 10.098
54.89000 9.120
54.90000 6.020
54.91000 8.005
54.92000 5.117
54.93000 10.263
54.94000 6.148
54.95000 7.091
54.96000 13.218
54.97000 14.289
54.98000 9.233
54.99000 13.115
55.00000 6.151
55.01000 8.050
55.02000 13.269
55.03000 6.968
55.04000 4.093
55.05000 13.384
55.06000 5.097
55.07000 6.070
55.08000 6.143
55.09000 13.276
55.10000 11.167
55.11000 6.002
55.12000 12.112
55.13000 14.222
55.14000 13.147
55.15000 12.276
55.16000 14.283
55.17000 9.123
55.18000 15.245
55.19000 6.957
55.20000 8.025
55.21000 14.142
55.22000 5.063
55.23000 11.103
55.24000 7.147
55.25000 12.152
55.26000 7.146
55.27000 13.225
55.28000 12.140
55.29000 9.140
55.30000 13.207
55.31000 8.126
55.32000 9.201
55.33000 13.978
55.34000 8.993
55.35000 7.256
55.36000 12.990
55.37000 8.081
55.38000 11.197
55.39000 8.108
55.40000 15.204
55.41000 7.023
55.42000 10.005
55.43000 6.152
55.44000 12.989
55.45000 13.153
55.46000 7.108
55.47000 11.253
55.48000 9.123
55.49000 8.086
55.50000 13.232
55.51000 13.320
55.52000 11.060
55.53000 7.187
55.54000 12.087
55.55000 12.278
55.56000 8.055
55.57000 7.017
55.58000 9.082
55.59000 12.111
55.60000 9.189
55.61000 12.139
55.62000 10.086
55.63000 12.188
55.64000 8.076
55.65000 11.112
55.66000 8.255
55.67000 12.194
55.68000 12.238
55.69000 11.187
55.70000 8.027
55.71000 11.280
55.72000 12.075
55.73000 9.207
55.74000 10.166
55.75000 12.010
55.76000 7.091
55.77000 11.228
55.78000 8.040
55.79000 10.133
55.80000 7.142
55.81000 15.118
55.82000 16.196
55.83000 8.186
55.84000 9.175
55.85000 4.050
55.86000 13.135
55.87000 9.986
55.88000 9.068
55.89000 6.994
55.90000 7.038
55.91000 13.247
55.92000 6.008
55.93000 9.057
55.94000 5.987
55.95000 6.139
55.96000 9.224
55.97000 11.177
55.98000 15.217
55.99000 7.157
56.00000 14.064
56.01000 12.099
56.02000 11.254
56.03000 5.037
56.04000 5.039
56.05000 8.155
56.06000 8.122
56.07000 11.059
56.08000 9.005
56.09000 7.085
56.10000 10.135
56.11000 6.143
56.12000 11.103
56.13000 7.101
56.14000 16.157
56.15000 8.092
56.16000 12.203
56.17000 10.078
56.18000 12.204
56.19000 10.055
56.20000 7.144
56.21000 5.015
56.22000 14.194
56.23000 13.210
56.24000 9.118
56.25000 8.064
56.26000 6.128
56.27000 13.231
56.28000 13.156
56.29000 10.114
56.30000 9.129
56.31000 6.138
56.32000 6.060
56.33000 14.163
56.34000 9.079
56.35000 8.999
56.36000 6.151
56.37000 7.121
56.38000 11.117
56.39000 10.153
56.40000 7.070
56.41000 5.018
56.42000 12.229
56.43000 12.374
56.44000 13.072
56.45000 12.139
56.46000 11.228
56.47000 7.198
56.48000 5.124
56.49000 13.108
56.50000 10.133
56.51000 11.035
56.52000 9.209
56.53000 7.064
56.54000 8.072
56.55000 8.099
56.56000 7.071
56.57000 9.068
56.58000 5.131
56.59000 6.049
56.60000 13.051
56.61000 9.194
56.62000 8.081
56.63000 8.137
56.64000 7.044
56.65000 14.358
56.66000 8.029
56.67000 18.152
56.68000 5.031
56.69000 9.084
56.70000 5.062
56.71000 10.127
56.72000 13.082
56.73000 6.065
56.74000 7.145
56.75000 11.212
56.76000 5.998
56.77000 8.114
56.78000 8.075
56.79000 8.181
56.80000 7.068
56.81000 13.081
56.82000 9.145
56.83000 8.081
56.84000 6.110
56.85000 6.069
56.86000 7.072
56.87000 11.124
56.88000 9.174
56.89000 7.100
56.90000 13.065
56.91000 7.020
56.92000 11.204
56.93000 4.999
56.94000 9.087
56.95000 13.098
56.96000 14.302
56.97000 11.149
56.98000 8.064
56.99000 5.070
57.00000 13.305
57.01000 12.161
57.02000 13.223
57.03000 6.134
57.04000 11.176
57.05000 8.056
57.06000 7.108
57.07000 8.127
57.08000 10.102
57.09000 8.179
57.10000 14.186
57.11000 9.119
57.12000 9.106
57.13000 9.013
57.14000 11.206
57.15000 4.099
57.16000 8.057
57.17000 6.084
57.18000 10.027
57.19000 8.188
57.20000 16.187
57.21000 3.964
57.22000 10.185
57.23000 11.186
57.24000 7.051
57.25000 10.134
57.26000 5.023
57.27000 11.202
57.28000 13.245
57.29000 13.238
57.30000 12.086
57.31000 7.153
57.32000 12.258
57.33000 9.043
57.34000 9.308
57.35000 7.153
57.36000 12.159
57.37000 6.072
57.38000 9.108
57.39000 9.099
57.40000 3.070
57.41000 5.036
57.42000 8.093
57.43000 10.319
57.44000 12.349
57.45000 10.062
57.46000 9.224
57.47000 9.232
57.48000 11.249
57.49000 12.154
57.50000 14.331
57.51000 8.013
57.52000 11.155
57.53000 11.047
57.54000 1.947
57.55000 15.477
57.56000 6.060
57.57000 8.093
57.58000 6.073
57.59000 8.015
57.60000 9.088
57.61000 11.221
57.62000 4.995
57.63000 10.103
57.64000 11.189
57.65000 11.055
57.66000 10.087
57.67000 14.225
57.68000 9.266
57.69000 10.083
57.70000 7.079
57.71000 5.996
57.72000 12.204
57.73000 10.051
57.74000 10.197
57.75000 9.125
57.76000 8.249
57.77000 8.129
57.78000 14.202
57.79000 13.179
57.80000 6.055
57.81000 11.313
57.82000 5.104
57.83000 10.063
57.84000 15.231
57.85000 8.303
57.86000 8.077
57.87000 14.118
57.88000 3.977
57.89000 14.271
57.90000 8.153
57.91000 6.089
57.92000 11.089
57.93000 8.248
57.94000 7.087
57.95000 8.233
57.96000 8.066
57.97000 12.245
57.98000 7.179
57.99000 11.120
58.00000 11.136
58.01000 9.179
58.02000 7.216
58.03000 6.075
58.04000 14.156
58.05000 11.236
58.06000 4.072
58.07000 8.183
58.08000 5.996
58.09000 3.001
58.10000 13.147
58.11000 6.090
58.12000 5.009
58.13000 13.204
58.14000 15.263
58.15000 7.103
58.16000 5.092
58.17000 10.130
58.18000 5.115
58.19000 6.072
58.20000 11.019
58.21000 11.190
58.22000 5.966
58.23000 5.062
58.24000 8.249
58.25000 10.252
58.26000 11.089
58.27000 6.060
58.28000 9.201
58.29000 9.187
58.30000 8.046
58.31000 8.116
58.32000 15.199
58.33000 12.128
58.34000 3.130
58.35000 12.128
58.36000 8.152
58.37000 5.108
58.38000 8.044
58.39000 11.085
58.40000 4.110
58.41000 2.057
58.42000 9.011
58.43000 7.152
58.44000 3.969
58.45000 4.110
58.46000 6.094
58.47000 9.048
58.48000 8.159
58.49000 5.046
58.50000 11.240
58.51000 12.104
58.52000 8.082
58.53000 6.070
58.54000 11.091
58.55000 6.093
58.56000 9.160
58.57000 8.047
58.58000 1.991
58.59000 1.974
58.60000 9.169
58.61000 6.057
58.62000 11.101
58.63000 6.067
58.64000 9.049
58.65000 9.228
58.66000 10.960
58.67000 13.161
58.68000 9.961
58.69000 5.047
58.70000 11.067
58.71000 10.090
58.72000 13.274
58.73000 7.169
58.74000 10.059
58.75000 6.100
58.76000 6.095
58.77000 10.013
58.78000 9.185
58.79000 11.077
58.80000 6.125
58.81000 13.183
58.82000 8.061
58.83000 14.065
58.84000 8.161
58.85000 8.134
58.86000 8.059
58.87000 5.079
58.88000 9.056
58.89000 8.146
58.90000 14.150
58.91000 10.009
58.92000 9.094
58.93000 8.205
58.94000 13.169
58.95000 9.108
58.96000 13.076
58.97000 4.103
58.98000 7.080
58.99000 7.035
59.00000 11.146
59.01000 11.232
59.02000 5.057
59.03000 9.068
59.04000 6.058
59.05000 13.257
59.06000 13.043
59.07000 6.039
59.08000 4.042
59.09000 4.068
59.10000 4.973
59.11000 5.071
59.12000 9.279
59.13000 14.315
59.14000 5.098
59.15000 4.068
59.16000 6.025
59.17000 7.056
59.18000 6.077
59.19000 6.046
59.20000 16.144
59.21000 11.146
59.22000 8.208
59.23000 10.158
59.24000 8.186
59.25000 5.031
59.26000 8.074
59.27000 4.986
59.28000 2.020
59.29000 5.147
59.30000 4.156
59.31000 10.061
59.32000 3.115
59.33000 6.032
59.34000 7.075
59.35000 9.042
59.36000 13.169
59.37000 5.085
59.38000 3.959
59.39000 6.008
59.40000 4.100
59.41000 11.145
59.42000 4.066
59.43000 5.072
59.44000 12.265
59.45000 7.988
59.46000 7.079
59.47000 6.079
59.48000 11.079
59.49000 6.972
59.50000 11.221
59.51000 11.000
59.52000 6.085
59.53000 8.147
59.54000 7.075
59.55000 5.031
59.56000 9.119
59.57000 9.158
59.58000 7.084
59.59000 8.229
59.60000 6.051
59.61000 6.061
59.62000 3.023
59.63000 7.136
59.64000 6.053
59.65000 8.073
59.66000 13.164
59.67000 9.125
59.68000 9.971
59.69000 9.137
59.70000 5.107
59.71000 9.006
59.72000 12.097
59.73000 12.230
59.74000 10.170
59.75000 5.991
59.76000 10.231
59.77000 12.059
59.78000 8.122
59.79000 10.155
59.80000 10.077
59.81000 10.095
59.82000 11.099
59.83000 11.003
59.84000 10.279
59.85000 6.058
59.86000 10.101
59.87000 7.098
59.88000 5.094
59.89000 6.142
59.90000 5.993
59.91000 6.048
59.92000 7.045
59.93000 6.052
59.94000 11.201
59.95000 8.062
59.96000 9.129
59.97000 9.246
59.98000 7.061
59.99000 11.343
60.00000 9.123
60.01000 5.053
60.02000 7.086
60.03000 5.080
60.04000 9.155
60.05000 7.078
60.06000 3.124
60.07000 4.063
60.08000 8.212
60.09000 12.258
60.10000 9.237
60.11000 6.120
60.12000 8.069
60.13000 4.055
60.14000 8.034
60.15000 6.040
60.16000 9.337
60.17000 6.182
60.18000 4.038
60.19000 8.074
60.20000 8.068
60.21000 8.025
60.22000 3.992
60.23000 5.026
60.24000 2.066
60.25000 8.095
60.26000 11.106
60.27000 12.093
60.28000 10.151
60.29000 7.097
60.30000 6.049
60.31000 5.223
60.32000 3.051
60.33000 7.999
60.34000 8.182
60.35000 8.133
60.36000 6.082
60.37000 11.177
60.38000 6.029
60.39000 8.190
60.40000 11.299
60.41000 7.043
60.42000 11.011
60.43000 7.252
60.44000 10.215
60.45000 5.033
60.46000 5.019
60.47000 13.133
60.48000 10.186
60.49000 10.167
60.50000 8.152
60.51000 10.983
60.52000 7.138
60.53000 11.212
60.54000 6.068
60.55000 11.168
60.56000 2.012
60.57000 4.011
60.58000 10.294
60.59000 8.005
60.60000 5.125
60.61000 10.085
60.62000 10.077
60.63000 5.058
60.64000 8.179
60.65000 5.128
60.66000 7.941
60.67000 3.038
60.68000 13.065
60.69000 8.000
60.70000 5.033
60.71000 6.199
60.72000 12.326
60.73000 10.152
60.74000 5.075
60.75000 5.068
60.76000 5.012
60.77000 12.218
60.78000 8.039
60.79000 5.039
60.80000 10.168
60.81000 10.168
60.82000 12.229
60.83000 4.016
60.84000 11.126
60.85000 10.162
60.86000 6.003
60.87000 8.070
60.88000 10.047
60.89000 8.254
60.90000 5.024
60.91000 6.105
60.92000 3.026
60.93000 4.991
60.94000 4.032
60.95000 5.003
60.96000 5.197
60.97000 8.143
60.98000 7.215
60.99000 3.003
61.00000 7.006
61.01000 7.060
61.02000 7.131
61.03000 8.136
61.04000 3.082
61.05000 9.188
61.06000 10.086
61.07000 6.097
61.08000 8.265
61.09000 4.926
61.10000 2.963
61.11000 8.104
61.12000 6.161
61.13000 7.131
61.14000 9.132
61.15000 2.962
61.16000 5.036
61.17000 6.095
61.18000 10.023
61.19000 5.095
61.20000 3.991
61.21000 3.075
61.22000 4.079
61.23000 8.136
61.24000 4.072
61.25000 11.222
61.26000 5.205
61.27000 10.983
61.28000 14.284
61.29000 6.164
61.30000 13.209
61.31000 10.187
61.32000 5.243
61.33000 8.104
61.34000 12.122
61.35000 9.054
61.36000 3.984
61.37000 5.006
61.38000 7.997
61.39000 7.043
61.40000 7.137
61.41000 3.062
61.42000 7.194
61.43000 3.012
61.44000 10.192
61.45000 4.071
61.46000 9.192
61.47000 7.049
61.48000 6.081
61.49000 7.985
61.50000 7.956
61.51000 6.985
61.52000 3.054
61.53000 7.093
61.54000 5.144
61.55000 4.116
61.56000 4.057
61.57000 7.036
61.58000 4.979
61.59000 7.222
61.60000 8.155
61.61000 12.130
61.62000 10.223
61.63000 9.085
61.64000 9.124
61.65000 10.088
61.66000 3.979
61.67000 9.156
61.68000 5.032
61.69000 6.158
61.70000 4.030
61.71000 9.135
61.72000 5.013
61.73000 6.098
61.74000 6.076
61.75000 12.246
61.76000 10.005
61.77000 13.234
61.78000 7.109
61.79000 5.022
61.80000 3.075
61.81000 11.151
61.82000 11.239
61.83000 5.974
61.84000 4.107
61.85000 4.138
61.86000 3.030
61.87000 5.988
61.88000 7.135
61.89000 4.995
61.90000 8.167
61.91000 5.108
61.92000 7.131
61.93000 5.102
61.94000 9.143
61.95000 5.076
61.96000 7.111
61.97000 4.093
61.98000 13.096
61.99000 7.059
62.00000 9.062
62.01000 7.084
62.02000 8.178
62.03000 10.098
62.04000 5.113
62.05000 8.094
62.06000 6.155
62.07000 4.052
62.08000 3.042
62.09000 6.033
62.10000 7.150
62.11000 7.113
62.12000 6.038
62.13000 9.149
62.14000 7.103
62.15000 6.018
62.16000 2.953
62.17000 11.334
62.18000 10.999
62.19000 9.121
62.20000 7.097
62.21000 7.123
62.22000 4.979
62.23000 9.219
62.24000 10.143
62.25000 4.134
62.26000 10.229
62.27000 9.069
62.28000 7.165
62.29000 6.035
62.30000 5.092
62.31000 9.240
62.32000 12.001
62.33000 7.174
62.34000 3.990
62.35000 6.989
62.36000 5.011
62.37000 4.962
62.38000 5.967
62.39000 4.006
62.40000 7.114
62.41000 7.015
62.42000 7.050
62.43000 6.079
62.44000 6.132
62.45000 4.066
62.46000 3.079
62.47000 7.112
62.48000 5.104
62.49000 3.036
62.50000 4.118
62.51000 8.373
62.52000 7.145
62.53000 10.185
62.54000 8.062
62.55000 8.098
62.56000 6.115
62.57000 7.090
62.58000 12.220
62.59000 4.989
62.60000 4.104
62.61000 12.972
62.62000 7.067
62.63000 9.082
62.64000 7.077
62.65000 6.022
62.66000 8.153
62.67000 10.139
62.68000 7.077
62.69000 5.028
62.70000 8.063
62.71000 13.165
62.72000 7.032
62.73000 5.208
62.74000 5.049
62.75000 3.975
62.76000 8.152
62.77000 4.087
62.78000 9.028
62.79000 6.156
62.80000 11.229
62.81000 7.086
62.82000 5.048
62.83000 6.087
62.84000 6.021
62.85000 5.076
62.86000 6.108
62.87000 6.129
62.88000 5.082
62.89000 8.228
62.90000 11.090
62.91000 4.074
62.92000 5.103
62.93000 9.133
62.94000 6.098
62.95000 3.075
62.96000 6.116
62.97000 4.032
62.98000 3.069
62.99000 8.960
63.00000 9.062
63.01000 7.030
63.02000 2.031
63.03000 6.146
63.04000 4.114
63.05000 6.120
63.06000 5.080
63.07000 6.139
63.08000 10.017
63.09000 3.091
63.10000 4.993
63.11000 8.084
63.12000 5.097
63.13000 6.109
63.14000 4.997
63.15000 11.172
63.16000 4.120
63.17000 6.129
63.18000 6.022
63.19000 5.014
63.20000 4.082
63.21000 15.159
63.22000 6.095
63.23000 3.127
63.24000 11.135
63.25000 9.014
63.26000 10.108
63.27000 7.048
63.28000 8.164
63.29000 5.073
63.30000 7.102
63.31000 9.131
63.32000 7.088
63.33000 9.193
63.34000 12.194
63.35000 3.001
63.36000 8.152
63.37000 8.057
63.38000 4.062
63.39000 10.176
63.40000 7.092
63.41000 7.998
63.42000 6.080
63.43000 5.118
63.44000 5.070
63.45000 13.033
63.46000 4.067
63.47000 7.046
63.48000 10.320
63.49000 3.981
63.50000 10.166
63.51000 6.041
63.52000 15.108
63.53000 9.205
63.54000 3.046
63.55000 12.300
63.56000 10.094
63.57000 7.019
63.58000 8.146
63.59000 5.067
63.60000 5.965
63.61000 5.953
63.62000 7.976
63.63000 6.206
63.64000 3.146
63.65000 4.172
63.66000 8.024
63.67000 8.025
63.68000 4.101
63.69000 8.125
63.70000 8.013
63.71000 8.105
63.72000 9.126
63.73000 6.999
63.74000 5.137
63.75000 8.148
63.76000 7.043
63.77000 4.070
63.78000 8.086
63.79000 4.024
63.80000 14.230
63.81000 4.122
63.82000 9.057
63.83000 5.073
63.84000 9.012
63.85000 5.072
63.86000 9.130
63.87000 9.155
63.88000 8.131
63.89000 9.325
63.90000 4.046
63.91000 9.986
63.92000 8.028
63.93000 10.082
63.94000 8.081
63.95000 6.067
63.96000 4.002
63.97000 6.004
63.98000 10.121
63.99000 8.183
64.00000 7.167
64.01000 9.130
64.02000 8.203
64.03000 4.146
64.04000 7.986
64.05000 6.961
64.06000 6.127
64.07000 10.075
64.08000 5.999
64.09000 9.179
64.10000 6.057
64.11000 3.010
64.12000 3.116
64.13000 4.912
64.14000 4.078
64.15000 3.001
64.16000 2.067
64.17000 3.055
64.18000 9.100
64.19000 8.135
64.20000 5.042
64.21000 4.066
64.22000 6.993
64.23000 5.121
64.24000 12.171
64.25000 4.111
64.26000 10.128
64.27000 8.151
64.28000 5.027
64.29000 4.038
64.30000 9.237
64.31000 8.091
64.32000 8.091
64.33000 9.114
64.34000 9.004
64.35000 4.154
64.36000 6.018
64.37000 6.091
64.38000 5.006
64.39000 6.040
64.40000 7.008
64.41000 6.066
64.42000 13.279
64.43000 6.059
64.44000 2.014
64.45000 8.071
64.46000 4.980
64.47000 8.102
64.48000 5.047
64.49000 6.108
64.50000 7.092
64.51000 8.163
64.52000 5.008
64.53000 8.170
64.54000 5.082
64.55000 8.136
64.56000 10.013
64.57000 9.048
64.58000 3.093
64.59000 7.101
64.60000 8.102
64.61000 3.045
64.62000 7.016
64.63000 13.206
64.64000 3.046
64.65000 3.981
64.66000 11.117
64.67000 4.986
64.68000 5.154
64.69000 8.059
64.70000 7.044
64.71000 8.109
64.72000 11.205
64.73000 6.091
64.74000 5.967
64.75000 3.017
64.76000 5.993
64.77000 13.106
64.78000 8.070
64.79000 4.035
64.80000 9.178
64.81000 8.127
64.82000 5.087
64.83000 7.059
64.84000 3.990
64.85000 6.111
64.86000 4.100
64.87000 6.072
64.88000 7.035
64.89000 5.088
64.90000 7.042
64.91000 1.049
64.92000 1.008
64.93000 7.038
64.94000 5.045
64.95000 5.073
64.96000 6.186
64.97000 8.085
64.98000 6.081
64.99000 7.124
65.00000 9.135
