20.00000 16.254
20.01000 13.175
20.02000 11.127
20.03000 21.321
20.04000 19.332
20.05000 17.227
20.06000 20.170
20.07000 20.219
20.08000 12.124
20.09000 16.165
20.10000 16.111
20.11000 18.201
20.12000 11.071
20.13000 13.434
20.14000 22.283
20.15000 17.190
20.16000 21.284
20.17000 13.026
20.18000 23.359
20.19000 10.231
20.20000 21.230
20.21000 12.124
20.22000 11.066
20.23000 20.289
20.24000 17.184
20.25000 15.204
20.26000 8.983
20.27000 16.254
20.28000 16.239
20.29000 17.088
20.30000 23.289
20.31000 20.330
20.32000 19.213
20.33000 15.234
20.34000 10.192
20.35000 23.591
20.36000 19.252
20.37000 17.063
20.38000 24.503
20.39000 15.325
20.40000 9.144
20.41000 13.142
20.42000 13.150
20.43000 24.183
20.44000 19.370
20.45000 21.251
20.46000 13.098
20.47000 15.179
20.48000 18.088
20.49000 20.329
20.50000 22.378
20.51000 25.071
20.52000 19.166
20.53000 14.132
20.54000 15.090
20.55000 16.172
20.56000 11.106
20.57000 17.208
20.58000 13.269
20.59000 15.252
20.60000 14.221
20.61000 15.172
20.62000 20.223
20.63000 14.160
20.64000 13.141
20.65000 18.022
20.66000 16.210
20.67000 20.281
20.68000 23.341
20.69000 16.174
20.70000 17.185
20.71000 18.139
20.72000 17.279
20.73000 12.183
20.74000 20.437
20.75000 23.235
20.76000 16.182
20.77000 19.143
20.78000 16.076
20.79000 28.268
20.80000 21.331
20.81000 12.073
20.82000 20.349
20.83000 24.329
20.84000 8.121
20.85000 17.203
20.86000 22.391
20.87000 25.318
20.88000 25.171
20.89000 18.216
20.90000 17.211
20.91000 16.020
20.92000 12.033
20.93000 19.445
20.94000 16.203
20.95000 16.238
20.96000 19.203
20.97000 13.220
20.98000 14.059
20.99000 11.155
21.00000 23.206
21.01000 15.372
21.02000 17.206
21.03000 20.294
21.04000 18.216
21.05000 14.288
21.06000 23.248
21.07000 26.393
21.08000 17.127
21.09000 14.143
21.10000 13.146
21.11000 18.262
21.12000 12.148
21.13000 16.170
21.14000 18.011
21.15000 12.060
21.16000 20.376
21.17000 15.306
21.18000 21.347
21.19000 19.315
21.20000 19.307
21.21000 18.216
21.22000 17.127
21.23000 25.259
21.24000 16.291
21.25000 22.383
21.26000 13.282
21.27000 10.950
21.28000 19.163
21.29000 20.389
21.30000 17.117
21.31000 23.405
21.32000 22.288
21.33000 25.337
21.34000 21.146
21.35000 18.484
21.36000 24.334
21.37000 16.321
21.38000 21.385
21.39000 21.334
21.40000 16.246
21.41000 19.039
21.42000 16.272
21.43000 14.212
21.44000 13.151
21.45000 22.507
21.46000 13.022
21.47000 8.166
21.48000 17.152
21.49000 17.176
21.50000 23.325
21.51000 19.421
21.52000 14.132
21.53000 20.572
21.54000 15.174
21.55000 16.272
21.56000 7.096
21.57000 15.179
21.58000 12.259
21.59000 17.130
21.60000 16.138
21.61000 25.229
21.62000 19.248
21.63000 16.099
21.64000 17.165
21.65000 16.184
21.66000 6.088
21.67000 20.281
21.68000 14.166
21.69000 21.458
21.70000 15.347
21.71000 18.304
21.72000 17.212
21.73000 22.406
21.74000 21.354
21.75000 20.147
21.76000 20.278
21.77000 16.156
21.78000 18.226
21.79000 19.011
21.80000 19.093
21.81000 14.097
21.82000 18.242
21.83000 13.147
21.84000 21.308
21.85000 8.166
21.86000 21.119
21.87000 12.197
21.88000 21.214
21.89000 24.132
21.90000 14.277
21.91000 22.219
21.92000 22.294
21.93000 16.160
21.94000 20.456
21.95000 24.425
21.96000 19.304
21.97000 21.327
21.98000 20.277
21.99000 18.258
22.00000 16.311
22.01000 19.237
22.02000 18.362
22.03000 19.250
22.04000 17.184
22.05000 21.279
22.06000 19.165
22.07000 20.259
22.08000 11.201
22.09000 19.253
22.10000 18.245
22.11000 8.106
22.12000 17.185
22.13000 22.410
22.14000 22.206
22.15000 21.328
22.16000 22.159
22.17000 26.403
22.18000 19.281
22.19000 22.283
22.20000 25.302
22.21000 16.329
22.22000 24.326
22.23000 18.295
22.24000 12.151
22.25000 16.157
22.26000 19.327
22.27000 29.284
22.28000 21.170
22.29000 21.342
22.30000 20.346
22.31000 23.087
22.32000 17.104
22.33000 23.284
22.34000 15.137
22.35000 16.166
22.36000 15.255
22.37000 24.341
22.38000 21.196
22.39000 15.082
22.40000 16.234
22.41000 24.160
22.42000 21.077
22.43000 25.411
22.44000 22.340
22.45000 18.252
22.46000 23.395
22.47000 15.075
22.48000 14.182
22.49000 23.328
22.50000 15.199
22.51000 25.351
22.52000 25.182
22.53000 21.212
22.54000 29.389
22.55000 24.105
22.56000 11.159
22.57000 26.528
22.58000 19.127
22.59000 18.041
22.60000 27.278
22.61000 23.259
22.62000 19.352
22.63000 18.196
22.64000 21.193
22.65000 15.118
22.66000 25.139
22.67000 12.131
22.68000 15.129
22.69000 27.386
22.70000 22.377
22.71000 20.243
22.72000 16.230
22.73000 20.238
22.74000 17.356
22.75000 18.292
22.76000 19.411
22.77000 20.206
22.78000 21.326
22.79000 16.208
22.80000 20.518
22.81000 18.168
22.82000 22.189
22.83000 23.223
22.84000 16.392
22.85000 19.081
22.86000 19.200
22.87000 18.406
22.88000 21.540
22.89000 17.184
22.90000 32.585
22.91000 18.160
22.92000 17.508
22.93000 23.375
22.94000 29.356
22.95000 22.195
22.96000 26.567
22.97000 20.276
22.98000 17.147
22.99000 18.122
23.00000 17.298
23.01000 20.158
23.02000 25.164
23.03000 19.274
23.04000 24.541
23.05000 25.365
23.06000 22.386
23.07000 20.408
23.08000 20.252
23.09000 14.144
23.10000 24.384
23.11000 29.429
23.12000 19.429
23.13000 22.533
23.14000 17.424
23.15000 17.313
23.16000 20.078
23.17000 19.151
23.18000 24.363
23.19000 19.970
23.20000 25.307
23.21000 26.149
23.22000 19.371
23.23000 22.183
23.24000 25.491
23.25000 27.404
23.26000 17.225
23.27000 24.330
23.28000 31.310
23.29000 16.184
23.30000 25.100
23.31000 22.111
23.32000 32.472
23.33000 21.317
23.34000 23.456
23.35000 18.248
23.36000 24.337
23.37000 25.408
23.38000 27.113
23.39000 18.132
23.40000 21.300
23.41000 24.220
23.42000 17.130
23.43000 28.490
23.44000 16.168
23.45000 25.391
23.46000 15.175
23.47000 20.132
23.48000 18.074
23.49000 12.207
23.50000 20.296
23.51000 21.246
23.52000 16.228
23.53000 16.177
23.54000 21.278
23.55000 21.258
23.56000 27.296
23.57000 22.393
23.58000 25.229
23.59000 23.287
23.60000 16.252
23.61000 16.182
23.62000 16.156
23.63000 24.237
23.64000 16.328
23.65000 21.132
23.66000 17.262
23.67000 25.458
23.68000 19.200
23.69000 23.320
23.70000 26.209
23.71000 23.294
23.72000 20.258
23.73000 22.411
23.74000 21.361
23.75000 20.536
23.76000 25.179
23.77000 18.543
23.78000 16.214
23.79000 22.088
23.80000 25.374
23.81000 16.095
23.82000 18.318
23.83000 32.344
23.84000 23.335
23.85000 20.136
23.86000 12.299
23.87000 22.445
23.88000 19.273
23.89000 25.163
23.90000 30.344
23.91000 20.201
23.92000 18.173
23.93000 17.119
23.94000 23.099
23.95000 28.279
23.96000 19.184
23.97000 32.438
23.98000 15.190
23.99000 22.420
24.00000 22.454
24.01000 19.504
24.02000 24.470
24.03000 22.331
24.04000 29.523
24.05000 19.168
24.06000 30.306
24.07000 20.204
24.08000 18.118
24.09000 15.311
24.10000 23.196
24.11000 12.122
24.12000 25.270
24.13000 28.418
24.14000 24.380
24.15000 26.108
24.16000 18.224
24.17000 25.452
24.18000 27.289
24.19000 31.309
24.20000 21.137
24.21000 27.218
24.22000 15.079
24.23000 20.184
24.24000 22.268
24.25000 29.466
24.26000 22.225
24.27000 16.117
24.28000 31.324
24.29000 25.551
24.30000 19.288
24.31000 23.287
24.32000 30.195
24.33000 20.153
24.34000 22.184
24.35000 28.237
24.36000 30.273
24.37000 27.411
24.38000 27.441
24.39000 24.278
24.40000 29.418
24.41000 27.238
24.42000 26.323
24.43000 27.371
24.44000 29.248
24.45000 18.259
24.46000 32.398
24.47000 26.267
24.48000 20.133
24.49000 30.433
24.50000 30.592
24.51000 24.527
24.52000 27.310
24.53000 25.326
24.54000 22.278
24.55000 26.434
24.56000 21.330
24.57000 29.391
24.58000 24.394
24.59000 23.237
24.60000 21.181
24.61000 22.203
24.62000 25.295
24.63000 27.405
24.64000 19.249
24.65000 35.349
24.66000 33.756
24.67000 20.300
24.68000 26.222
24.69000 21.284
24.70000 26.279
24.71000 29.709
24.72000 18.358
24.73000 21.299
24.74000 20.323
24.75000 26.442
24.76000 20.131
24.77000 25.289
24.78000 28.503
24.79000 27.318
24.80000 27.413
24.81000 19.126
24.82000 28.188
24.83000 27.334
24.84000 27.579
24.85000 22.159
24.86000 27.406
24.87000 28.404
24.88000 34.419
24.89000 23.202
24.90000 28.354
24.91000 18.355
24.92000 34.508
24.93000 34.332
24.94000 25.268
24.95000 31.623
24.96000 27.467
24.97000 20.141
24.98000 27.361
24.99000 25.353
25.00000 27.047
25.01000 25.382
25.02000 27.312
25.03000 29.433
25.04000 20.447
25.05000 32.522
25.06000 28.417
25.07000 27.616
25.08000 17.321
25.09000 36.344
25.10000 25.227
25.11000 25.315
25.12000 29.308
25.13000 31.564
25.14000 25.543
25.15000 33.267
25.16000 26.559
25.17000 24.310
25.18000 33.194
25.19000 29.387
25.20000 19.250
25.21000 31.483
25.22000 25.417
25.23000 29.382
25.24000 25.328
25.25000 30.377
25.26000 36.353
25.27000 32.169
25.28000 34.502
25.29000 30.194
25.30000 28.633
25.31000 30.395
25.32000 28.498
25.33000 28.247
25.34000 25.234
25.35000 38.538
25.36000 32.471
25.37000 27.312
25.38000 19.124
25.39000 25.497
25.40000 31.559
25.41000 26.400
25.42000 32.344
25.43000 31.248
25.44000 19.362
25.45000 26.359
25.46000 34.500
25.47000 32.242
25.48000 22.295
25.49000 32.401
25.50000 27.149
25.51000 32.341
25.52000 29.281
25.53000 28.301
25.54000 30.613
25.55000 36.699
25.56000 30.366
25.57000 27.147
25.58000 32.403
25.59000 29.391
25.60000 41.314
25.61000 27.474
25.62000 22.102
25.63000 41.449
25.64000 31.689
25.65000 26.584
25.66000 29.519
25.67000 30.594
25.68000 25.328
25.69000 26.228
25.70000 34.105
25.71000 27.174
25.72000 29.218
25.73000 24.264
25.74000 42.558
25.75000 32.302
25.76000 35.586
25.77000 34.506
25.78000 38.366
25.79000 40.813
25.80000 32.470
25.81000 28.372
25.82000 27.460
25.83000 26.350
25.84000 31.422
25.85000 25.253
25.86000 32.428
25.87000 41.373
25.88000 16.233
25.89000 36.432
25.90000 28.490
25.91000 30.261
25.92000 36.390
25.93000 31.414
25.94000 33.380
25.95000 35.840
25.96000 34.241
25.97000 27.222
25.98000 40.856
25.99000 37.552
26.00000 36.597
26.01000 38.720
26.02000 29.221
26.03000 40.383
26.04000 42.584
26.05000 41.691
26.06000 27.240
26.07000 32.452
26.08000 35.584
26.09000 32.461
26.10000 34.449
26.11000 31.278
26.12000 40.706
26.13000 25.225
26.14000 32.568
26.15000 35.538
26.16000 35.338
26.17000 34.421
26.18000 44.638
26.19000 44.594
26.20000 30.341
26.21000 33.499
26.22000 24.313
26.23000 27.477
26.24000 45.675
26.25000 33.305
26.26000 37.368
26.27000 34.548
26.28000 31.101
26.29000 36.802
26.30000 39.376
26.31000 38.604
26.32000 27.430
26.33000 26.323
26.34000 43.614
26.35000 38.570
26.36000 33.176
26.37000 34.361
26.38000 31.584
26.39000 30.358
26.40000 37.565
26.41000 38.700
26.42000 45.623
26.43000 27.274
26.44000 38.472
26.45000 31.394
26.46000 30.378
26.47000 32.191
26.48000 31.365
26.49000 36.401
26.50000 32.159
26.51000 39.580
26.52000 42.563
26.53000 31.436
26.54000 37.401
26.55000 37.802
26.56000 39.329
26.57000 25.430
26.58000 36.188
26.59000 39.782
26.60000 30.403
26.61000 39.346
26.62000 37.533
26.63000 32.949
26.64000 36.525
26.65000 25.398
26.66000 45.692
26.67000 44.488
26.68000 45.506
26.69000 34.507
26.70000 37.246
26.71000 31.415
26.72000 42.502
26.73000 35.575
26.74000 23.264
26.75000 40.369
26.76000 28.247
26.77000 38.522
26.78000 34.725
26.79000 32.455
26.80000 32.594
26.81000 33.237
26.82000 48.649
26.83000 42.538
26.84000 38.602
26.85000 33.467
26.86000 31.563
26.87000 41.623
26.88000 25.294
26.89000 38.519
26.90000 32.368
26.91000 38.126
26.92000 35.507
26.93000 31.305
26.94000 40.600
26.95000 20.157
26.96000 31.471
26.97000 31.206
26.98000 40.519
26.99000 36.509
27.00000 38.554
27.01000 43.419
27.02000 36.409
27.03000 30.492
27.04000 34.493
27.05000 49.468
27.06000 38.181
27.07000 45.515
27.08000 43.299
27.09000 37.519
27.10000 42.614
27.11000 42.506
27.12000 35.712
27.13000 29.426
27.14000 51.611
27.15000 38.316
27.16000 35.520
27.17000 39.512
27.18000 44.656
27.19000 36.456
27.20000 31.649
27.21000 42.775
27.22000 37.639
27.23000 39.487
27.24000 34.437
27.25000 43.433
27.26000 47.551
27.27000 37.727
27.28000 41.418
27.29000 39.638
27.30000 45.783
27.31000 26.269
27.32000 37.681
27.33000 45.589
27.34000 31.421
27.35000 33.389
27.36000 23.458
27.37000 42.664
27.38000 47.557
27.39000 34.293
27.40000 46.499
27.41000 26.140
27.42000 33.535
27.43000 24.245
27.44000 36.495
27.45000 48.567
27.46000 39.679
27.47000 38.309
27.48000 34.366
27.49000 27.390
27.50000 49.647
27.51000 44.426
27.52000 46.579
27.53000 44.379
27.54000 37.448
27.55000 44.467
27.56000 40.435
27.57000 31.459
27.58000 38.581
27.59000 43.501
27.60000 29.477
27.61000 29.188
27.62000 37.598
27.63000 50.693
27.64000 32.367
27.65000 38.516
27.66000 39.737
27.67000 39.470
27.68000 44.659
27.69000 38.639
27.70000 42.649
27.71000 35.532
27.72000 39.566
27.73000 36.490
27.74000 45.570
27.75000 40.477
27.76000 45.747
27.77000 40.512
27.78000 46.496
27.79000 38.345
27.80000 36.347
27.81000 38.705
27.82000 36.499
27.83000 45.519
27.84000 35.214
27.85000 39.672
27.86000 41.394
27.87000 42.454
27.88000 50.829
27.89000 39.424
27.90000 43.485
27.91000 45.313
27.92000 41.493
27.93000 40.548
27.94000 31.489
27.95000 43.473
27.96000 38.273
27.97000 32.509
27.98000 40.761
27.99000 37.230
28.00000 29.393
28.01000 30.427
28.02000 46.694
28.03000 29.442
28.04000 30.280
28.05000 44.666
28.06000 49.489
28.07000 26.584
28.08000 24.519
28.09000 34.386
28.10000 37.264
28.11000 36.585
28.12000 35.428
28.13000 44.388
28.14000 43.510
28.15000 40.539
28.16000 38.389
28.17000 35.544
28.18000 34.441
28.19000 41.428
28.20000 38.554
28.21000 39.343
28.22000 22.295
28.23000 32.346
28.24000 46.670
28.25000 41.411
28.26000 48.492
28.27000 44.540
28.28000 42.599
28.29000 23.335
28.30000 33.194
28.31000 47.664
28.32000 41.525
28.33000 22.372
28.34000 34.568
28.35000 42.647
28.36000 34.400
28.37000 42.418
28.38000 42.714
28.39000 39.639
28.40000 40.530
28.41000 43.497
28.42000 42.702
28.43000 24.322
28.44000 41.804
28.45000 23.400
28.46000 40.448
28.47000 33.478
28.48000 38.322
28.49000 41.274
28.50000 39.524
28.51000 43.464
28.52000 38.288
28.53000 43.570
28.54000 41.503
28.55000 36.664
28.56000 28.085
28.57000 42.749
28.58000 35.627
28.59000 41.650
28.60000 46.292
28.61000 27.345
28.62000 35.290
28.63000 28.468
28.64000 47.661
28.65000 43.591
28.66000 33.293
28.67000 30.169
28.68000 42.764
28.69000 34.438
28.70000 21.389
28.71000 28.385
28.72000 26.998
28.73000 35.498
28.74000 30.332
28.75000 30.283
28.76000 43.727
28.77000 33.556
28.78000 32.547
28.79000 28.242
28.80000 42.370
28.81000 31.353
28.82000 32.301
28.83000 38.564
28.84000 33.557
28.85000 39.689
28.86000 34.301
28.87000 34.486
28.88000 36.385
28.89000 35.495
28.90000 35.280
28.91000 27.308
28.92000 41.338
28.93000 41.737
28.94000 35.231
28.95000 37.419
28.96000 32.524
28.97000 39.368
28.98000 27.362
28.99000 33.728
29.00000 34.508
29.01000 22.172
29.02000 25.489
29.03000 26.303
29.04000 27.139
29.05000 41.299
29.06000 28.248
29.07000 31.734
29.08000 42.661
29.09000 39.415
29.10000 30.312
29.11000 28.358
29.12000 36.343
29.13000 25.286
29.14000 31.334
29.15000 28.158
29.16000 42.562
29.17000 22.387
29.18000 33.583
29.19000 34.453
29.20000 37.280
29.21000 33.487
29.22000 29.348
29.23000 36.565
29.24000 34.518
29.25000 48.610
29.26000 36.139
29.27000 36.214
29.28000 32.276
29.29000 31.513
29.30000 30.237
29.31000 28.192
29.32000 35.511
29.33000 29.495
29.34000 33.204
29.35000 27.302
29.36000 24.101
29.37000 26.141
29.38000 29.438
29.39000 33.590
29.40000 32.575
29.41000 24.315
29.42000 28.296
29.43000 35.302
29.44000 35.391
29.45000 25.368
29.46000 30.586
29.47000 33.551
29.48000 29.320
29.49000 32.536
29.50000 31.429
29.51000 37.839
29.52000 31.592
29.53000 26.033
29.54000 31.476
29.55000 34.271
29.56000 28.264
29.57000 36.714
29.58000 35.441
29.59000 34.428
29.60000 30.308
29.61000 32.227
29.62000 35.508
29.63000 29.336
29.64000 25.269
29.65000 28.586
29.66000 31.295
29.67000 30.226
29.68000 23.284
29.69000 37.522
29.70000 38.680
29.71000 30.449
29.72000 26.360
29.73000 29.534
29.74000 27.227
29.75000 34.545
29.76000 36.049
29.77000 16.233
29.78000 29.505
29.79000 31.318
29.80000 24.304
29.81000 35.358
29.82000 23.146
29.83000 38.402
29.84000 33.355
29.85000 30.512
29.86000 34.498
29.87000 27.184
29.88000 32.287
29.89000 30.427
29.90000 26.206
29.91000 35.578
29.92000 38.710
29.93000 27.335
29.94000 32.414
29.95000 33.350
29.96000 20.146
29.97000 36.511
29.98000 20.241
29.99000 32.272
30.00000 25.269
30.01000 28.416
30.02000 22.347
30.03000 24.478
30.04000 35.456
30.05000 25.187
30.06000 32.286
30.07000 28.530
30.08000 34.525
30.09000 35.606
30.10000 30.299
30.11000 23.352
30.12000 39.473
30.13000 22.302
30.14000 27.338
30.15000 18.537
30.16000 35.366
30.17000 37.380
30.18000 23.167
30.19000 24.446
30.20000 32.390
30.21000 29.334
30.22000 25.348
30.23000 34.425
30.24000 21.334
30.25000 29.293
30.26000 20.375
30.27000 23.076
30.28000 31.346
30.29000 23.315
30.30000 17.325
30.31000 34.393
30.32000 25.400
30.33000 23.181
30.34000 30.426
30.35000 25.262
30.36000 24.268
30.37000 20.073
30.38000 31.317
30.39000 21.212
30.40000 18.317
30.41000 19.362
30.42000 34.613
30.43000 22.409
30.44000 25.320
30.45000 25.150
30.46000 19.216
30.47000 24.003
30.48000 25.393
30.49000 29.282
30.50000 19.140
30.51000 17.210
30.52000 19.474
30.53000 23.246
30.54000 25.459
30.55000 26.167
30.56000 29.294
30.57000 22.456
30.58000 28.238
30.59000 24.236
30.60000 20.079
30.61000 31.344
30.62000 20.175
30.63000 28.504
30.64000 26.230
30.65000 26.216
30.66000 27.084
30.67000 19.328
30.68000 17.177
30.69000 28.384
30.70000 23.442
30.71000 29.371
30.72000 17.122
30.73000 25.165
30.74000 26.310
30.75000 24.144
30.76000 24.414
30.77000 30.065
30.78000 20.362
30.79000 33.354
30.80000 33.365
30.81000 30.250
30.82000 30.379
30.83000 29.302
30.84000 27.640
30.85000 26.388
30.86000 23.030
30.87000 25.416
30.88000 29.258
30.89000 23.272
30.90000 23.255
30.91000 19.334
30.92000 25.219
30.93000 37.514
30.94000 22.269
30.95000 28.167
30.96000 17.284
30.97000 26.471
30.98000 25.405
30.99000 23.336
31.00000 20.225
31.01000 20.172
31.02000 23.346
31.03000 18.347
31.04000 19.288
31.05000 22.332
31.06000 27.413
31.07000 22.193
31.08000 22.491
31.09000 28.069
31.10000 15.187
31.11000 18.241
31.12000 34.156
31.13000 27.244
31.14000 23.323
31.15000 24.271
31.16000 20.385
31.17000 20.427
31.18000 24.088
31.19000 22.359
31.20000 18.127
31.21000 24.241
31.22000 22.207
31.23000 16.249
31.24000 22.179
31.25000 21.938
31.26000 13.072
31.27000 25.340
31.28000 24.349
31.29000 23.216
31.30000 24.188
31.31000 27.427
31.32000 21.596
31.33000 26.294
31.34000 10.217
31.35000 26.477
31.36000 23.235
31.37000 24.684
31.38000 29.360
31.39000 18.190
31.40000 16.203
31.41000 16.147
31.42000 23.197
31.43000 25.158
31.44000 18.237
31.45000 20.331
31.46000 16.211
31.47000 30.623
31.48000 20.335
31.49000 22.360
31.50000 19.393
31.51000 21.326
31.52000 21.269
31.53000 21.275
31.54000 26.478
31.55000 18.196
31.56000 22.176
31.57000 19.131
31.58000 15.190
31.59000 16.096
31.60000 15.222
31.61000 18.143
31.62000 16.438
31.63000 28.231
31.64000 20.370
31.65000 23.098
31.66000 13.163
31.67000 18.242
31.68000 14.186
31.69000 16.456
31.70000 14.210
31.71000 20.217
31.72000 12.030
31.73000 23.521
31.74000 27.567
31.75000 17.180
31.76000 18.260
31.77000 24.461
31.78000 23.341
31.79000 26.536
31.80000 17.330
31.81000 14.239
31.82000 24.203
31.83000 25.224
31.84000 28.428
31.85000 16.219
31.86000 17.094
31.87000 18.184
31.88000 18.080
31.89000 16.282
31.90000 17.344
31.91000 15.277
31.92000 24.301
31.93000 19.359
31.94000 16.175
31.95000 22.293
31.96000 16.226
31.97000 26.401
31.98000 23.397
31.99000 23.329
32.00000 20.426
32.01000 12.110
32.02000 21.253
32.03000 26.382
32.04000 14.179
32.05000 27.371
32.06000 21.266
32.07000 8.049
32.08000 23.223
32.09000 18.474
32.10000 23.272
32.11000 14.146
32.12000 22.161
32.13000 13.237
32.14000 19.283
32.15000 23.446
32.16000 25.139
32.17000 17.199
32.18000 25.138
32.19000 22.213
32.20000 26.416
32.21000 18.156
32.22000 23.354
32.23000 30.274
32.24000 15.230
32.25000 24.607
32.26000 16.163
32.27000 19.127
32.28000 26.455
32.29000 21.229
32.30000 17.243
32.31000 25.189
32.32000 36.497
32.33000 21.323
32.34000 21.373
32.35000 16.208
32.36000 25.444
32.37000 23.366
32.38000 19.340
32.39000 18.185
32.40000 25.266
32.41000 21.235
32.42000 20.105
32.43000 23.182
32.44000 16.199
32.45000 16.233
32.46000 24.372
32.47000 16.188
32.48000 21.222
32.49000 23.529
32.50000 16.177
32.51000 29.392
32.52000 22.240
32.53000 22.375
32.54000 14.093
32.55000 26.111
32.56000 22.390
32.57000 22.361
32.58000 15.173
32.59000 20.431
32.60000 19.051
32.61000 23.153
32.62000 17.202
32.63000 17.084
32.64000 24.454
32.65000 17.339
32.66000 24.318
32.67000 27.319
32.68000 17.224
32.69000 26.161
32.70000 17.280
32.71000 17.542
32.72000 20.204
32.73000 19.153
32.74000 16.060
32.75000 25.258
32.76000 24.386
32.77000 16.414
32.78000 20.316
32.79000 16.491
32.80000 20.084
32.81000 20.141
32.82000 15.175
32.83000 23.342
32.84000 15.221
32.85000 17.312
32.86000 16.271
32.87000 24.269
32.88000 10.233
32.89000 10.244
32.90000 21.471
32.91000 20.026
32.92000 16.208
32.93000 18.197
32.94000 15.204
32.95000 17.301
32.96000 13.160
32.97000 13.922
32.98000 15.364
32.99000 14.353
33.00000 19.102
33.01000 18.188
33.02000 14.234
33.03000 16.347
33.04000 23.421
33.05000 14.991
33.06000 15.262
33.07000 16.095
33.08000 6.960
33.09000 18.240
33.10000 15.163
33.11000 8.103
33.12000 21.422
33.13000 9.157
33.14000 17.185
33.15000 17.468
33.16000 16.419
33.17000 12.132
33.18000 15.389
33.19000 18.193
33.20000 13.143
33.21000 15.306
33.22000 17.208
33.23000 20.212
33.24000 13.112
33.25000 17.170
33.26000 16.128
33.27000 8.002
33.28000 12.031
33.29000 16.240
33.30000 11.061
33.31000 17.198
33.32000 14.128
33.33000 15.340
33.34000 15.107
33.35000 12.282
33.36000 10.026
33.37000 11.186
33.38000 20.358
33.39000 15.264
33.40000 18.285
33.41000 16.073
33.42000 15.117
33.43000 16.161
33.44000 11.029
33.45000 14.259
33.46000 12.204
33.47000 16.188
33.48000 17.225
33.49000 13.254
33.50000 14.158
33.51000 12.019
33.52000 19.298
33.53000 11.076
33.54000 12.213
33.55000 19.227
33.56000 11.316
33.57000 21.452
33.58000 15.217
33.59000 16.316
33.60000 13.187
33.61000 14.179
33.62000 13.163
33.63000 14.184
33.64000 22.548
33.65000 11.173
33.66000 17.090
33.67000 12.142
33.68000 16.148
33.69000 19.350
33.70000 15.197
33.71000 17.214
33.72000 13.364
33.73000 12.238
33.74000 15.199
33.75000 16.296
33.76000 8.183
33.77000 9.174
33.78000 15.040
33.79000 8.060
33.80000 14.354
33.81000 13.247
33.82000 16.156
33.83000 15.120
33.84000 13.153
33.85000 11.234
33.86000 17.202
33.87000 13.271
33.88000 10.178
33.89000 12.211
33.90000 13.215
33.91000 18.257
33.92000 23.422
33.93000 18.239
33.94000 12.041
33.95000 14.186
33.96000 16.280
33.97000 14.066
33.98000 18.206
33.99000 18.169
34.00000 12.016
34.01000 14.202
34.02000 7.169
34.03000 11.315
34.04000 10.115
34.05000 11.094
34.06000 15.224
34.07000 12.154
34.08000 12.203
34.09000 10.163
34.10000 14.079
34.11000 13.197
34.12000 7.143
34.13000 10.154
34.14000 4.037
34.15000 20.071
34.16000 17.251
34.17000 11.242
34.18000 18.243
34.19000 4.015
34.20000 17.250
34.21000 12.105
34.22000 15.142
34.23000 11.220
34.24000 15.293
34.25000 14.342
34.26000 14.240
34.27000 14.062
34.28000 19.242
34.29000 12.071
34.30000 19.242
34.31000 11.033
34.32000 20.314
34.33000 23.209
34.34000 12.122
34.35000 5.081
34.36000 14.133
34.37000 7.105
34.38000 16.281
34.39000 13.285
34.40000 15.448
34.41000 14.244
34.42000 12.233
34.43000 18.282
34.44000 10.172
34.45000 13.244
34.46000 15.090
34.47000 5.129
34.48000 9.003
34.49000 13.133
34.50000 10.075
34.51000 21.329
34.52000 16.200
34.53000 14.100
34.54000 17.189
34.55000 10.988
34.56000 11.136
34.57000 16.254
34.58000 16.113
34.59000 15.334
34.60000 18.161
34.61000 9.158
34.62000 17.167
34.63000 14.078
34.64000 21.288
34.65000 13.328
34.66000 22.340
34.67000 18.253
34.68000 10.071
34.69000 9.165
34.70000 13.173
34.71000 15.096
34.72000 16.321
34.73000 14.182
34.74000 9.239
34.75000 19.310
34.76000 17.208
34.77000 11.277
34.78000 12.115
34.79000 13.155
34.80000 11.247
34.81000 8.140
34.82000 10.117
34.83000 12.216
34.84000 10.303
34.85000 12.110
34.86000 9.083
34.87000 11.010
34.88000 8.097
34.89000 17.233
34.90000 18.990
34.91000 12.214
34.92000 6.004
34.93000 17.307
34.94000 12.134
34.95000 10.128
34.96000 19.386
34.97000 14.153
34.98000 16.245
34.99000 19.088
35.00000 19.357
35.01000 6.036
35.02000 19.311
35.03000 10.155
35.04000 14.101
35.05000 19.129
35.06000 12.114
35.07000 13.250
35.08000 12.039
35.09000 19.253
35.10000 16.306
35.11000 12.023
35.12000 17.089
35.13000 12.001
35.14000 12.330
35.15000 12.186
35.16000 8.149
35.17000 12.107
35.18000 12.100
35.19000 5.026
35.20000 10.278
35.21000 17.239
35.22000 11.134
35.23000 15.224
35.24000 10.070
35.25000 9.135
35.26000 14.052
35.27000 9.142
35.28000 8.087
35.29000 10.145
35.30000 16.129
35.31000 12.094
35.32000 11.204
35.33000 7.998
35.34000 11.132
35.35000 16.219
35.36000 12.131
35.37000 8.091
35.38000 14.181
35.39000 16.169
35.40000 11.131
35.41000 17.069
35.42000 18.344
35.43000 14.230
35.44000 7.070
35.45000 11.128
35.46000 10.271
35.47000 14.338
35.48000 14.237
35.49000 7.042
35.50000 11.075
35.51000 9.972
35.52000 6.982
35.53000 18.211
35.54000 6.126
35.55000 17.299
35.56000 17.305
35.57000 16.118
35.58000 15.156
35.59000 13.207
35.60000 8.086
35.61000 9.055
35.62000 1.983
35.63000 21.260
35.64000 11.297
35.65000 9.104
35.66000 19.250
35.67000 16.028
35.68000 14.193
35.69000 9.219
35.70000 11.161
35.71000 8.084
35.72000 14.174
35.73000 15.225
35.74000 16.178
35.75000 7.013
35.76000 12.198
35.77000 18.220
35.78000 7.103
35.79000 20.162
35.80000 10.073
35.81000 14.163
35.82000 9.079
35.83000 11.111
35.84000 12.217
35.85000 17.182
35.86000 12.155
35.87000 10.218
35.88000 11.176
35.89000 12.142
35.90000 17.211
35.91000 13.288
35.92000 17.231
35.93000 12.013
35.94000 20.185
35.95000 17.210
35.96000 16.258
35.97000 17.250
35.98000 12.246
35.99000 10.219
36.00000 17.134
36.01000 16.166
36.02000 8.021
36.03000 11.133
36.04000 10.121
36.05000 19.196
36.06000 19.263
36.07000 19.341
36.08000 6.177
36.09000 15.160
36.10000 10.105
36.11000 16.326
36.12000 15.173
36.13000 10.154
36.14000 10.218
36.15000 15.260
36.16000 9.192
36.17000 17.158
36.18000 10.078
36.19000 13.208
36.20000 13.139
36.21000 19.265
36.22000 14.015
36.23000 14.317
36.24000 12.017
36.25000 9.138
36.26000 15.185
36.27000 6.102
36.28000 7.208
36.29000 10.057
36.30000 8.990
36.31000 9.910
36.32000 16.162
36.33000 19.196
36.34000 16.219
36.35000 12.131
36.36000 16.328
36.37000 13.136
36.38000 7.052
36.39000 12.025
36.40000 12.060
36.41000 17.257
36.42000 15.318
36.43000 7.239
36.44000 10.168
36.45000 12.177
36.46000 13.240
36.47000 12.113
36.48000 21.201
36.49000 9.091
36.50000 11.062
36.51000 12.109
36.52000 7.299
36.53000 13.964
36.54000 13.162
36.55000 9.148
36.56000 10.186
36.57000 15.055
36.58000 15.132
36.59000 5.988
36.60000 13.097
36.61000 9.147
36.62000 13.971
36.63000 10.182
36.64000 10.197
36.65000 23.200
36.66000 8.098
36.67000 16.086
36.68000 16.114
36.69000 13.132
36.70000 13.145
36.71000 13.103
36.72000 9.026
36.73000 16.143
36.74000 11.212
36.75000 8.158
36.76000 6.052
36.77000 16.423
36.78000 13.110
36.79000 8.093
36.80000 10.262
36.81000 12.033
36.82000 13.204
36.83000 11.165
36.84000 11.128
36.85000 20.308
36.86000 15.207
36.87000 19.169
36.88000 23.272
36.89000 10.220
36.90000 9.129
36.91000 21.287
36.92000 13.176
36.93000 7.012
36.94000 18.059
36.95000 13.291
36.96000 13.108
36.97000 10.128
36.98000 13.042
36.99000 16.204
37.00000 15.309
37.01000 13.152
37.02000 6.059
37.03000 16.312
37.04000 13.142
37.05000 15.285
37.06000 18.466
37.07000 10.028
37.08000 9.163
37.09000 10.091
37.10000 10.269
37.11000 11.122
37.12000 3.960
37.13000 19.300
37.14000 20.410
37.15000 17.234
37.16000 17.062
37.17000 5.052
37.18000 13.220
37.19000 13.097
37.20000 6.167
37.21000 11.300
37.22000 12.998
37.23000 19.167
37.24000 17.279
37.25000 21.243
37.26000 17.220
37.27000 11.134
37.28000 16.121
37.29000 15.234
37.30000 12.150
37.31000 17.333
37.32000 9.128
37.33000 14.170
37.34000 15.236
37.35000 18.162
37.36000 9.272
37.37000 19.350
37.38000 10.121
37.39000 8.195
37.40000 18.417
37.41000 17.380
37.42000 18.338
37.43000 5.105
37.44000 21.503
37.45000 17.122
37.46000 15.263
37.47000 22.171
37.48000 8.004
37.49000 6.101
37.50000 11.123
37.51000 18.163
37.52000 10.080
37.53000 10.212
37.54000 21.235
37.55000 30.537
37.56000 9.122
37.57000 9.148
37.58000 12.306
37.59000 13.191
37.60000 13.139
37.61000 10.212
37.62000 14.158
37.63000 8.104
37.64000 18.289
37.65000 8.101
37.66000 10.023
37.67000 9.242
37.68000 10.113
37.69000 14.269
37.70000 16.160
37.71000 14.165
37.72000 19.259
37.73000 17.189
37.74000 8.056
37.75000 12.139
37.76000 12.160
37.77000 17.169
37.78000 14.170
37.79000 17.174
37.80000 13.110
37.81000 16.164
37.82000 16.240
37.83000 16.283
37.84000 10.105
37.85000 12.160
37.86000 20.411
37.87000 15.364
37.88000 19.217
37.89000 13.165
37.90000 16.140
37.91000 9.179
37.92000 12.103
37.93000 12.244
37.94000 17.185
37.95000 12.249
37.96000 11.158
37.97000 13.235
37.98000 17.097
37.99000 18.381
38.00000 13.234
38.01000 12.112
38.02000 22.361
38.03000 21.281
38.04000 8.086
38.05000 13.027
38.06000 12.167
38.07000 10.208
38.08000 15.155
38.09000 15.156
38.10000 6.024
38.11000 20.336
38.12000 11.037
38.13000 18.224
38.14000 14.227
38.15000 19.243
38.16000 13.209
38.17000 12.149
38.18000 12.390
38.19000 11.981
38.20000 16.159
38.21000 16.308
38.22000 15.178
38.23000 20.109
38.24000 12.098
38.25000 16.200
38.26000 15.037
38.27000 11.102
38.28000 15.242
38.29000 6.115
38.30000 16.223
38.31000 12.207
38.32000 12.137
38.33000 11.345
38.34000 15.063
38.35000 12.033
38.36000 15.371
38.37000 10.118
38.38000 13.208
38.39000 10.056
38.40000 9.088
38.41000 13.068
38.42000 10.212
38.43000 16.335
38.44000 14.235
38.45000 18.364
38.46000 14.151
38.47000 14.133
38.48000 14.316
38.49000 12.129
38.50000 13.079
38.51000 17.096
38.52000 12.140
38.53000 20.162
38.54000 16.243
38.55000 8.059
38.56000 10.222
38.57000 10.208
38.58000 16.101
38.59000 13.202
38.60000 19.266
38.61000 17.211
38.62000 18.260
38.63000 13.209
38.64000 15.101
38.65000 14.055
38.66000 15.110
38.67000 16.223
38.68000 17.299
38.69000 11.223
38.70000 9.130
38.71000 8.196
38.72000 10.033
38.73000 16.051
38.74000 17.168
38.75000 7.012
38.76000 18.401
38.77000 12.193
38.78000 19.304
38.79000 11.174
38.80000 12.088
38.81000 12.028
38.82000 15.061
38.83000 6.047
38.84000 19.258
38.85000 14.184
38.86000 12.151
38.87000 7.006
38.88000 16.177
38.89000 11.068
38.90000 13.174
38.91000 18.063
38.92000 19.320
38.93000 17.156
38.94000 18.283
38.95000 12.244
38.96000 16.242
38.97000 10.030
38.98000 11.127
38.99000 19.204
39.00000 15.450
39.01000 16.196
39.02000 19.171
39.03000 10.098
39.04000 17.349
39.05000 16.358
39.06000 13.131
39.07000 9.211
39.08000 11.125
39.09000 15.186
39.10000 20.308
39.11000 17.208
39.12000 16.402
39.13000 14.152
39.14000 13.141
39.15000 14.142
39.16000 17.214
39.17000 10.123
39.18000 21.262
39.19000 23.350
39.20000 12.148
39.21000 13.159
39.22000 19.247
39.23000 10.212
39.24000 19.100
39.25000 14.105
39.26000 19.237
39.27000 10.393
39.28000 15.071
39.29000 13.191
39.30000 11.024
39.31000 11.183
39.32000 13.291
39.33000 19.137
39.34000 15.235
39.35000 20.287
39.36000 20.378
39.37000 15.222
39.38000 10.128
39.39000 14.338
39.40000 11.130
39.41000 12.045
39.42000 20.307
39.43000 17.155
39.44000 19.305
39.45000 10.149
39.46000 16.260
39.47000 11.103
39.48000 15.140
39.49000 13.148
39.50000 11.127
39.51000 10.036
39.52000 15.368
39.53000 9.157
39.54000 14.987
39.55000 16.254
39.56000 9.110
39.57000 9.085
39.58000 12.015
39.59000 7.988
39.60000 15.200
39.61000 11.186
39.62000 9.040
39.63000 15.412
39.64000 14.025
39.65000 11.176
39.66000 14.233
39.67000 12.135
39.68000 18.176
39.69000 10.100
39.70000 17.184
39.71000 20.342
39.72000 14.273
39.73000 17.149
39.74000 19.248
39.75000 18.342
39.76000 22.327
39.77000 9.123
39.78000 15.155
39.79000 8.165
39.80000 13.220
39.81000 21.169
39.82000 13.295
39.83000 22.392
39.84000 23.513
39.85000 14.174
39.86000 14.118
39.87000 17.129
39.88000 10.129
39.89000 21.239
39.90000 11.147
39.91000 16.151
39.92000 13.086
39.93000 16.173
39.94000 17.221
39.95000 18.149
39.96000 19.245
39.97000 18.215
39.98000 18.191
39.99000 16.355
40.00000 15.056
40.01000 15.240
40.02000 11.046
40.03000 19.268
40.04000 19.148
40.05000 17.121
40.06000 15.216
40.07000 13.145
40.08000 16.372
40.09000 18.086
40.10000 19.066
40.11000 15.128
40.12000 13.240
40.13000 17.291
40.14000 14.243
40.15000 15.269
40.16000 17.258
40.17000 18.283
40.18000 17.252
40.19000 12.960
40.20000 12.088
40.21000 14.147
40.22000 24.356
40.23000 12.117
40.24000 16.204
40.25000 18.197
40.26000 18.261
40.27000 14.176
40.28000 16.360
40.29000 14.119
40.30000 14.172
40.31000 13.186
40.32000 12.046
40.33000 22.167
40.34000 13.114
40.35000 15.174
40.36000 11.133
40.37000 18.282
40.38000 13.224
40.39000 21.387
40.40000 9.010
40.41000 18.244
40.42000 10.089
40.43000 19.312
40.44000 15.085
40.45000 11.102
40.46000 8.149
40.47000 16.252
40.48000 14.116
40.49000 22.355
40.50000 12.247
40.51000 17.235
40.52000 15.123
40.53000 8.144
40.54000 14.163
40.55000 23.417
40.56000 18.239
40.57000 12.306
40.58000 11.986
40.59000 13.096
40.60000 21.175
40.61000 11.057
40.62000 18.250
40.63000 18.221
40.64000 5.134
40.65000 16.197
40.66000 19.092
40.67000 18.327
40.68000 11.254
40.69000 11.130
40.70000 12.091
40.71000 17.171
40.72000 14.225
40.73000 22.373
40.74000 13.175
40.75000 14.098
40.76000 10.084
40.77000 18.191
40.78000 8.154
40.79000 12.161
40.80000 15.245
40.81000 11.090
40.82000 12.093
40.83000 16.237
40.84000 12.123
40.85000 19.270
40.86000 10.086
40.87000 9.186
40.88000 14.160
40.89000 11.024
40.90000 17.216
40.91000 11.223
40.92000 21.122
40.93000 14.049
40.94000 16.106
40.95000 14.042
40.96000 12.222
40.97000 12.032
40.98000 12.316
40.99000 14.183
41.00000 15.075
41.01000 20.207
41.02000 10.106
41.03000 9.155
41.04000 10.130
41.05000 13.073
41.06000 14.288
41.07000 17.112
41.08000 13.079
41.09000 14.169
41.10000 18.176
41.11000 17.287
41.12000 9.075
41.13000 14.310
41.14000 21.233
41.15000 14.131
41.16000 13.057
41.17000 11.113
41.18000 18.017
41.19000 29.309
41.20000 17.397
41.21000 13.191
41.22000 12.275
41.23000 13.022
41.24000 8.038
41.25000 20.072
41.26000 11.140
41.27000 12.301
41.28000 12.193
41.29000 22.157
41.30000 16.220
41.31000 18.303
41.32000 14.136
41.33000 12.367
41.34000 10.058
41.35000 12.086
41.36000 14.271
41.37000 16.171
41.38000 8.028
41.39000 12.237
41.40000 19.210
41.41000 14.248
41.42000 8.182
41.43000 19.305
41.44000 16.079
41.45000 12.213
41.46000 11.968
41.47000 12.191
41.48000 11.245
41.49000 18.351
41.50000 13.118
41.51000 13.104
41.52000 16.278
41.53000 16.372
41.54000 16.345
41.55000 18.308
41.56000 14.210
41.57000 17.097
41.58000 13.199
41.59000 9.096
41.60000 18.196
41.61000 14.239
41.62000 14.232
41.63000 11.324
41.64000 17.079
41.65000 16.131
41.66000 20.475
41.67000 14.219
41.68000 9.096
41.69000 13.046
41.70000 22.213
41.71000 18.356
41.72000 8.980
41.73000 12.118
41.74000 10.205
41.75000 14.078
41.76000 9.098
41.77000 17.016
41.78000 15.178
41.79000 18.169
41.80000 18.274
41.81000 8.109
41.82000 14.085
41.83000 14.163
41.84000 10.161
41.85000 12.096
41.86000 14.083
41.87000 17.149
41.88000 13.337
41.89000 14.285
41.90000 17.182
41.91000 17.996
41.92000 10.020
41.93000 14.226
41.94000 15.245
41.95000 12.264
41.96000 12.114
41.97000 7.091
41.98000 21.260
41.99000 14.145
42.00000 14.231
42.01000 19.332
42.02000 14.282
42.03000 12.084
42.04000 18.099
42.05000 18.506
42.06000 12.059
42.07000 9.074
42.08000 14.160
42.09000 18.263
42.10000 13.228
42.11000 14.114
42.12000 18.223
42.13000 12.147
42.14000 15.277
42.15000 12.214
42.16000 18.303
42.17000 7.985
42.18000 8.160
42.19000 14.144
42.20000 17.375
42.21000 11.044
42.22000 12.232
42.23000 17.275
42.24000 13.238
42.25000 19.144
42.26000 15.012
42.27000 15.043
42.28000 11.118
42.29000 14.115
42.30000 22.297
42.31000 15.235
42.32000 9.005
42.33000 11.163
42.34000 14.223
42.35000 19.145
42.36000 16.273
42.37000 14.324
42.38000 11.137
42.39000 22.368
42.40000 17.144
42.41000 19.453
42.42000 14.213
42.43000 19.077
42.44000 16.291
42.45000 6.056
42.46000 19.084
42.47000 15.273
42.48000 11.110
42.49000 6.065
42.50000 16.212
42.51000 15.178
42.52000 14.319
42.53000 18.262
42.54000 13.181
42.55000 13.328
42.56000 17.426
42.57000 18.247
42.58000 9.082
42.59000 12.146
42.60000 15.219
42.61000 11.097
42.62000 13.221
42.63000 18.268
42.64000 8.036
42.65000 12.027
42.66000 13.103
42.67000 18.152
42.68000 15.104
42.69000 10.157
42.70000 8.023
42.71000 13.103
42.72000 16.261
42.73000 11.044
42.74000 11.116
42.75000 15.211
42.76000 9.209
42.77000 14.198
42.78000 16.375
42.79000 15.200
42.80000 13.136
42.81000 20.149
42.82000 12.196
42.83000 19.337
42.84000 17.173
42.85000 17.210
42.86000 13.194
42.87000 12.136
42.88000 12.254
42.89000 18.201
42.90000 13.247
42.91000 16.281
42.92000 15.283
42.93000 16.100
42.94000 12.353
42.95000 14.069
42.96000 19.297
42.97000 11.144
42.98000 20.281
42.99000 9.225
43.00000 12.248
43.01000 10.146
43.02000 12.185
43.03000 20.298
43.04000 15.203
43.05000 18.331
43.06000 10.300
43.07000 16.288
43.08000 14.302
43.09000 15.141
43.10000 18.314
43.11000 12.131
43.12000 17.085
43.13000 15.446
43.14000 14.279
43.15000 18.266
43.16000 6.986
43.17000 13.099
43.18000 18.295
43.19000 11.165
43.20000 11.274
43.21000 13.211
43.22000 10.017
43.23000 17.377
43.24000 16.118
43.25000 20.037
43.26000 25.472
43.27000 17.356
43.28000 20.282
43.29000 10.192
43.30000 18.189
43.31000 17.373
43.32000 14.223
43.33000 12.132
43.34000 29.604
43.35000 15.260
43.36000 14.258
43.37000 15.189
43.38000 19.250
43.39000 13.138
43.40000 14.212
43.41000 9.058
43.42000 18.165
43.43000 8.076
43.44000 14.211
43.45000 15.226
43.46000 15.225
43.47000 15.222
43.48000 17.258
43.49000 11.081
43.50000 18.187
43.51000 16.249
43.52000 12.091
43.53000 17.157
43.54000 11.154
43.55000 15.033
43.56000 18.280
43.57000 16.134
43.58000 16.426
43.59000 15.169
43.60000 13.383
43.61000 12.021
43.62000 12.138
43.63000 15.095
43.64000 19.213
43.65000 14.149
43.66000 12.096
43.67000 14.210
43.68000 13.121
43.69000 19.184
43.70000 19.303
43.71000 11.057
43.72000 9.084
43.73000 5.033
43.74000 16.356
43.75000 15.183
43.76000 8.129
43.77000 8.042
43.78000 11.251
43.79000 15.264
43.80000 9.129
43.81000 11.104
43.82000 15.364
43.83000 14.260
43.84000 14.140
43.85000 17.235
43.86000 11.110
43.87000 13.211
43.88000 12.162
43.89000 9.098
43.90000 16.264
43.91000 14.079
43.92000 8.036
43.93000 15.114
43.94000 19.138
43.95000 13.173
43.96000 14.168
43.97000 13.012
43.98000 12.243
43.99000 13.120
44.00000 18.009
44.01000 14.103
44.02000 17.387
44.03000 15.012
44.04000 24.264
44.05000 17.338
44.06000 5.059
44.07000 15.298
44.08000 16.114
44.09000 9.973
44.10000 14.375
44.11000 15.339
44.12000 15.305
44.13000 14.291
44.14000 11.219
44.15000 14.247
44.16000 18.321
44.17000 14.180
44.18000 16.271
44.19000 18.330
44.20000 13.220
44.21000 15.330
44.22000 17.213
44.23000 14.037
44.24000 16.094
44.25000 16.119
44.26000 8.123
44.27000 15.119
44.28000 12.097
44.29000 13.097
44.30000 11.036
44.31000 18.163
44.32000 10.195
44.33000 9.223
44.34000 15.232
44.35000 7.186
44.36000 15.138
44.37000 15.318
44.38000 13.072
44.39000 17.194
44.40000 15.178
44.41000 10.098
44.42000 15.134
44.43000 10.031
44.44000 13.121
44.45000 13.079
44.46000 14.219
44.47000 15.183
44.48000 22.444
44.49000 11.138
44.50000 14.318
44.51000 13.279
44.52000 10.039
44.53000 8.093
44.54000 14.288
44.55000 20.067
44.56000 14.182
44.57000 13.172
44.58000 10.067
44.59000 17.276
44.60000 9.171
44.61000 20.421
44.62000 13.192
44.63000 9.041
44.64000 11.247
44.65000 13.047
44.66000 19.567
44.67000 17.208
44.68000 13.218
44.69000 11.114
44.70000 16.213
44.71000 15.001
44.72000 14.128
44.73000 17.083
44.74000 8.198
44.75000 14.234
44.76000 13.233
44.77000 10.142
44.78000 10.169
44.79000 18.262
44.80000 15.340
44.81000 17.161
44.82000 10.198
44.83000 13.148
44.84000 9.209
44.85000 11.095
44.86000 10.112
44.87000 17.222
44.88000 18.294
44.89000 15.111
44.90000 12.126
44.91000 13.030
44.92000 13.194
44.93000 18.116
44.94000 16.193
44.95000 10.135
44.96000 15.221
44.97000 13.108
44.98000 18.188
44.99000 13.084
45.00000 14.186
45.01000 19.180
45.02000 11.182
45.03000 12.153
45.04000 16.087
45.05000 12.148
45.06000 14.151
45.07000 14.321
45.08000 14.235
45.09000 17.447
45.10000 16.184
45.11000 8.084
45.12000 20.283
45.13000 21.343
45.14000 12.185
45.15000 9.151
45.16000 12.230
45.17000 16.018
45.18000 18.230
45.19000 12.196
45.20000 16.062
45.21000 15.190
45.22000 8.111
45.23000 15.261
45.24000 17.159
45.25000 17.252
45.26000 7.102
45.27000 16.205
45.28000 21.278
45.29000 19.135
45.30000 17.371
45.31000 10.199
45.32000 10.025
45.33000 12.111
45.34000 11.188
45.35000 18.213
45.36000 6.054
45.37000 19.270
45.38000 15.269
45.39000 15.216
45.40000 13.170
45.41000 9.090
45.42000 7.005
45.43000 15.229
45.44000 7.177
45.45000 9.000
45.46000 17.320
45.47000 12.163
45.48000 7.060
45.49000 13.250
45.50000 9.299
45.51000 14.244
45.52000 15.205
45.53000 16.118
45.54000 8.027
45.55000 7.104
45.56000 16.111
45.57000 8.074
45.58000 19.293
45.59000 20.343
45.60000 16.063
45.61000 11.195
45.62000 8.074
45.63000 17.386
45.64000 17.159
45.65000 19.052
45.66000 13.064
45.67000 18.432
45.68000 16.286
45.69000 14.080
45.70000 10.018
45.71000 7.098
45.72000 6.069
45.73000 12.108
45.74000 15.288
45.75000 10.050
45.76000 17.237
45.77000 9.078
45.78000 13.170
45.79000 18.265
45.80000 15.259
45.81000 12.183
45.82000 16.027
45.83000 18.374
45.84000 9.136
45.85000 10.260
45.86000 9.069
45.87000 17.188
45.88000 14.222
45.89000 15.164
45.90000 11.087
45.91000 12.152
45.92000 13.093
45.93000 12.154
45.94000 10.159
45.95000 11.123
45.96000 18.123
45.97000 12.081
45.98000 18.389
45.99000 11.141
46.00000 17.231
46.01000 8.048
46.02000 17.239
46.03000 14.202
46.04000 14.145
46.05000 15.181
46.06000 19.263
46.07000 20.274
46.08000 17.243
46.09000 15.175
46.10000 16.312
46.11000 14.186
46.12000 8.051
46.13000 7.186
46.14000 15.388
46.15000 11.082
46.16000 20.212
46.17000 13.223
46.18000 16.090
46.19000 19.177
46.20000 16.282
46.21000 11.190
46.22000 14.130
46.23000 19.308
46.24000 13.078
46.25000 9.124
46.26000 8.158
46.27000 11.147
46.28000 14.113
46.29000 13.027
46.30000 14.295
46.31000 7.031
46.32000 10.147
46.33000 8.070
46.34000 14.278
46.35000 20.172
46.36000 12.088
46.37000 20.398
46.38000 16.247
46.39000 11.182
46.40000 21.240
46.41000 24.442
46.42000 13.126
46.43000 22.362
46.44000 7.095
46.45000 11.043
46.46000 17.115
46.47000 17.293
46.48000 17.190
46.49000 18.216
46.50000 17.216
46.51000 16.102
46.52000 17.369
46.53000 16.144
46.54000 22.157
46.55000 15.273
46.56000 16.158
46.57000 18.186
46.58000 12.094
46.59000 15.264
46.60000 11.232
46.61000 5.110
46.62000 10.161
46.63000 19.450
46.64000 13.085
46.65000 15.129
46.66000 12.029
46.67000 18.242
46.68000 12.350
46.69000 16.196
46.70000 13.075
46.71000 14.366
46.72000 25.245
46.73000 15.197
46.74000 15.282
46.75000 12.172
46.76000 8.092
46.77000 11.096
46.78000 14.065
46.79000 18.052
46.80000 9.049
46.81000 19.205
46.82000 12.169
46.83000 14.276
46.84000 13.135
46.85000 9.066
46.86000 8.145
46.87000 6.164
46.88000 14.260
46.89000 11.074
46.90000 14.989
46.91000 20.155
46.92000 17.233
46.93000 9.069
46.94000 15.188
46.95000 15.188
46.96000 15.163
46.97000 22.387
46.98000 21.410
46.99000 13.209
47.00000 12.169
47.01000 15.123
47.02000 11.144
47.03000 12.123
47.04000 16.230
47.05000 12.178
47.06000 20.144
47.07000 12.046
47.08000 12.067
47.09000 18.346
47.10000 12.126
47.11000 12.246
47.12000 13.240
47.13000 13.165
47.14000 8.163
47.15000 11.139
47.16000 10.078
47.17000 9.131
47.18000 16.316
47.19000 15.134
47.20000 11.068
47.21000 12.191
47.22000 13.261
47.23000 14.173
47.24000 14.134
47.25000 18.239
47.26000 14.374
47.27000 16.368
47.28000 23.264
47.29000 17.412
47.30000 15.181
47.31000 24.365
47.32000 10.180
47.33000 14.198
47.34000 19.016
47.35000 9.118
47.36000 16.266
47.37000 13.365
47.38000 13.278
47.39000 18.100
47.40000 13.139
47.41000 10.176
47.42000 25.391
47.43000 10.138
47.44000 12.159
47.45000 22.067
47.46000 14.165
47.47000 15.210
47.48000 16.266
47.49000 11.093
47.50000 17.127
47.51000 14.173
47.52000 6.043
47.53000 9.205
47.54000 12.174
47.55000 9.043
47.56000 12.202
47.57000 21.201
47.58000 13.293
47.59000 12.204
47.60000 11.159
47.61000 9.146
47.62000 8.164
47.63000 17.197
47.64000 16.134
47.65000 12.098
47.66000 10.149
47.67000 10.204
47.68000 6.046
47.69000 10.990
47.70000 11.028
47.71000 10.137
47.72000 14.255
47.73000 13.156
47.74000 14.175
47.75000 10.061
47.76000 19.090
47.77000 11.015
47.78000 10.055
47.79000 16.149
47.80000 13.086
47.81000 12.113
47.82000 12.140
47.83000 11.222
47.84000 8.060
47.85000 15.087
47.86000 17.296
47.87000 12.093
47.88000 16.342
47.89000 11.229
47.90000 15.210
47.91000 10.954
47.92000 12.157
47.93000 20.189
47.94000 17.145
47.95000 9.303
47.96000 21.406
47.97000 15.182
47.98000 15.245
47.99000 9.057
48.00000 15.181
48.01000 19.085
48.02000 7.178
48.03000 15.176
48.04000 9.137
48.05000 17.169
48.06000 15.303
48.07000 7.138
48.08000 9.213
48.09000 14.374
48.10000 14.181
48.11000 13.112
48.12000 15.340
48.13000 18.067
48.14000 15.151
48.15000 17.263
48.16000 13.290
48.17000 12.177
48.18000 8.112
48.19000 22.361
48.20000 16.133
48.21000 10.057
48.22000 17.246
48.23000 15.304
48.24000 6.038
48.25000 10.050
48.26000 12.278
48.27000 14.032
48.28000 11.147
48.29000 9.098
48.30000 13.228
48.31000 14.381
48.32000 16.253
48.33000 11.231
48.34000 15.256
48.35000 6.123
48.36000 11.077
48.37000 9.197
48.38000 13.223
48.39000 10.196
48.40000 14.092
48.41000 11.116
48.42000 13.120
48.43000 10.266
48.44000 8.136
48.45000 14.135
48.46000 20.225
48.47000 11.197
48.48000 14.407
48.49000 12.312
48.50000 21.339
48.51000 8.131
48.52000 10.181
48.53000 18.126
48.54000 17.237
48.55000 19.464
48.56000 13.137
48.57000 11.349
48.58000 12.176
48.59000 17.322
48.60000 10.151
48.61000 13.084
48.62000 10.269
48.63000 18.170
48.64000 6.111
48.65000 14.148
48.66000 7.003
48.67000 14.095
48.68000 16.302
48.69000 13.187
48.70000 7.168
48.71000 15.377
48.72000 9.025
48.73000 15.292
48.74000 5.048
48.75000 7.178
48.76000 11.130
48.77000 11.023
48.78000 14.384
48.79000 10.088
48.80000 12.276
48.81000 13.030
48.82000 12.078
48.83000 8.086
48.84000 13.276
48.85000 7.073
48.86000 9.292
48.87000 10.121
48.88000 16.150
48.89000 17.177
48.90000 11.163
48.91000 16.211
48.92000 10.123
48.93000 12.063
48.94000 11.085
48.95000 15.146
48.96000 9.119
48.97000 9.143
48.98000 11.980
48.99000 9.019
49.00000 12.054
49.01000 6.011
49.02000 15.106
49.03000 13.209
49.04000 13.214
49.05000 18.303
49.06000 13.129
49.07000 10.008
49.08000 11.126
49.09000 13.110
49.10000 11.183
49.11000 14.302
49.12000 15.215
49.13000 15.280
49.14000 20.151
49.15000 13.066
49.16000 16.300
49.17000 21.355
49.18000 8.162
49.19000 14.181
49.20000 19.279
49.21000 15.263
49.22000 10.979
49.23000 16.309
49.24000 9.134
49.25000 10.291
49.26000 8.050
49.27000 9.000
49.28000 9.270
49.29000 13.994
49.30000 14.279
49.31000 14.182
49.32000 16.032
49.33000 8.153
49.34000 9.151
49.35000 5.056
49.36000 9.087
49.37000 15.102
49.38000 14.198
49.39000 6.988
49.40000 13.196
49.41000 20.192
49.42000 16.129
49.43000 11.139
49.44000 17.213
49.45000 8.110
49.46000 12.116
49.47000 17.067
49.48000 18.310
49.49000 16.251
49.50000 11.979
49.51000 13.194
49.52000 9.170
49.53000 11.208
49.54000 11.147
49.55000 13.164
49.56000 11.169
49.57000 10.119
49.58000 14.055
49.59000 15.122
49.60000 17.160
49.61000 20.388
49.62000 17.209
49.63000 9.212
49.64000 10.153
49.65000 8.086
49.66000 10.340
49.67000 13.131
49.68000 13.268
49.69000 6.082
49.70000 17.556
49.71000 15.073
49.72000 14.245
49.73000 13.111
49.74000 18.301
49.75000 12.161
49.76000 8.983
49.77000 7.036
49.78000 13.170
49.79000 11.181
49.80000 11.127
49.81000 23.177
49.82000 15.320
49.83000 19.300
49.84000 11.176
49.85000 13.129
49.86000 7.072
49.87000 9.125
49.88000 10.095
49.89000 11.199
49.90000 11.049
49.91000 10.091
49.92000 21.380
49.93000 16.095
49.94000 9.117
49.95000 14.057
49.96000 11.061
49.97000 14.179
49.98000 11.142
49.99000 19.313
50.00000 13.263
50.01000 15.386
50.02000 14.330
50.03000 12.223
50.04000 10.249
50.05000 6.053
50.06000 15.095
50.07000 9.226
50.08000 12.053
50.09000 10.965
50.10000 16.238
50.11000 5.092
50.12000 14.181
50.13000 16.118
50.14000 13.176
50.15000 10.085
50.16000 13.268
50.17000 13.157
50.18000 11.285
50.19000 12.113
50.20000 16.168
50.21000 17.254
50.22000 14.173
50.23000 12.319
50.24000 13.175
50.25000 15.175
50.26000 12.072
50.27000 11.066
50.28000 13.192
50.29000 10.132
50.30000 13.100
50.31000 11.209
50.32000 14.100
50.33000 15.310
50.34000 9.085
50.35000 13.120
50.36000 11.161
50.37000 9.039
50.38000 9.077
50.39000 14.104
50.40000 9.045
50.41000 10.028
50.42000 6.104
50.43000 12.171
50.44000 11.074
50.45000 18.236
50.46000 9.073
50.47000 17.325
50.48000 21.234
50.49000 14.000
50.50000 10.124
50.51000 9.149
50.52000 10.011
50.53000 11.156
50.54000 10.153
50.55000 16.193
50.56000 8.225
50.57000 8.043
50.58000 8.128
50.59000 15.242
50.60000 11.176
50.61000 20.229
50.62000 18.165
50.63000 7.941
50.64000 16.279
50.65000 21.496
50.66000 16.195
50.67000 18.318
50.68000 10.029
50.69000 20.303
50.70000 14.095
50.71000 12.084
50.72000 5.041
50.73000 10.059
50.74000 22.284
50.75000 14.214
50.76000 17.294
50.77000 18.271
50.78000 12.121
50.79000 11.087
50.80000 11.214
50.81000 18.320
50.82000 7.210
50.83000 11.183
50.84000 13.193
50.85000 11.116
50.86000 11.003
50.87000 16.157
50.88000 15.207
50.89000 8.077
50.90000 13.311
50.91000 15.065
50.92000 16.295
50.93000 8.078
50.94000 5.143
50.95000 6.060
50.96000 17.280
50.97000 17.070
50.98000 14.247
50.99000 10.077
51.00000 17.187
51.01000 15.306
51.02000 8.141
51.03000 7.127
51.04000 9.144
51.05000 21.429
51.06000 13.334
51.07000 10.092
51.08000 6.116
51.09000 7.204
51.10000 12.201
51.11000 6.012
51.12000 9.082
51.13000 8.103
51.14000 12.996
51.15000 15.223
51.16000 9.065
51.17000 10.145
51.18000 8.176
51.19000 8.135
51.20000 8.110
51.21000 11.181
51.22000 16.304
51.23000 13.088
51.24000 12.043
51.25000 11.146
51.26000 10.080
51.27000 12.280
51.28000 15.294
51.29000 14.244
51.30000 10.135
51.31000 14.174
51.32000 12.086
51.33000 7.164
51.34000 11.132
51.35000 8.104
51.36000 7.108
51.37000 11.197
51.38000 9.155
51.39000 7.141
51.40000 13.067
51.41000 15.997
51.42000 12.290
51.43000 16.288
51.44000 12.113
51.45000 12.122
51.46000 9.035
51.47000 19.266
51.48000 9.981
51.49000 12.140
51.50000 11.052
51.51000 19.307
51.52000 13.090
51.53000 16.242
51.54000 11.143
51.55000 14.119
51.56000 8.128
51.57000 10.145
51.58000 13.138
51.59000 17.104
51.60000 19.108
51.61000 13.195
51.62000 12.118
51.63000 10.263
51.64000 6.915
51.65000 12.172
51.66000 13.249
51.67000 11.075
51.68000 11.085
51.69000 12.261
51.70000 14.264
51.71000 15.382
51.72000 15.151
51.73000 7.083
51.74000 10.130
51.75000 11.190
51.76000 16.107
51.77000 14.197
51.78000 12.073
51.79000 9.124
51.80000 14.386
51.81000 12.117
51.82000 20.161
51.83000 18.254
51.84000 23.466
51.85000 12.982
51.86000 18.289
51.87000 11.379
51.88000 14.274
51.89000 9.047
51.90000 16.231
51.91000 9.984
51.92000 9.185
51.93000 12.155
51.94000 6.172
51.95000 10.120
51.96000 18.189
51.97000 12.087
51.98000 6.050
51.99000 15.166
52.00000 10.133
52.01000 10.127
52.02000 12.324
52.03000 9.167
52.04000 12.227
52.05000 18.155
52.06000 11.180
52.07000 11.124
52.08000 9.108
52.09000 11.152
52.10000 9.098
52.11000 12.066
52.12000 13.145
52.13000 17.081
52.14000 7.197
52.15000 21.204
52.16000 11.133
52.17000 12.408
52.18000 10.161
52.19000 6.147
52.20000 9.142
52.21000 7.159
52.22000 8.004
52.23000 11.089
52.24000 10.072
52.25000 12.279
52.26000 19.441
52.27000 10.085
52.28000 16.384
52.29000 12.120
52.30000 12.004
52.31000 13.169
52.32000 13.255
52.33000 11.999
52.34000 15.151
52.35000 11.028
52.36000 11.227
52.37000 11.070
52.38000 8.157
52.39000 6.071
52.40000 9.188
52.41000 9.136
52.42000 11.173
52.43000 10.132
52.44000 10.251
52.45000 10.040
52.46000 16.263
52.47000 9.072
52.48000 6.054
52.49000 15.130
52.50000 13.156
52.51000 9.099
52.52000 13.277
52.53000 18.228
52.54000 18.069
52.55000 11.115
52.56000 7.109
52.57000 10.246
52.58000 14.276
52.59000 17.497
52.60000 14.192
52.61000 13.309
52.62000 11.130
52.63000 12.949
52.64000 11.165
52.65000 8.039
52.66000 13.043
52.67000 12.173
52.68000 10.130
52.69000 16.291
52.70000 10.097
52.71000 11.208
52.72000 15.223
52.73000 7.029
52.74000 14.221
52.75000 12.137
52.76000 8.082
52.77000 12.083
52.78000 14.184
52.79000 10.195
52.80000 12.047
52.81000 20.027
52.82000 10.233
52.83000 10.080
52.84000 14.230
52.85000 9.929
52.86000 17.478
52.87000 9.160
52.88000 8.092
52.89000 8.198
52.90000 7.983
52.91000 19.314
52.92000 19.229
52.93000 10.202
52.94000 9.206
52.95000 15.036
52.96000 14.056
52.97000 14.248
52.98000 12.171
52.99000 10.202
53.00000 11.113
53.01000 18.171
53.02000 9.034
53.03000 8.068
53.04000 17.244
53.05000 11.268
53.06000 8.052
53.07000 9.149
53.08000 11.133
53.09000 11.026
53.10000 10.202
53.11000 7.118
53.12000 15.168
53.13000 9.056
53.14000 19.331
53.15000 12.005
53.16000 15.199
53.17000 6.114
53.18000 9.054
53.19000 12.213
53.20000 8.128
53.21000 12.227
53.22000 8.041
53.23000 12.170
53.24000 10.115
53.25000 9.093
53.26000 6.082
53.27000 16.058
53.28000 9.164
53.29000 6.089
53.30000 7.098
53.31000 13.143
53.32000 11.195
53.33000 19.266
53.34000 7.086
53.35000 10.196
53.36000 12.121
53.37000 16.227
53.38000 12.135
53.39000 14.073
53.40000 10.095
53.41000 17.144
53.42000 14.264
53.43000 14.064
53.44000 10.174
53.45000 12.283
53.46000 5.969
53.47000 10.084
53.48000 7.062
53.49000 6.066
53.50000 10.026
53.51000 16.165
53.52000 8.168
53.53000 14.247
53.54000 11.152
53.55000 9.213
53.56000 12.187
53.57000 7.091
53.58000 14.187
53.59000 13.175
53.60000 8.157
53.61000 4.986
53.62000 9.941
53.63000 10.110
53.64000 12.225
53.65000 1.987
53.66000 10.075
53.67000 8.148
53.68000 8.045
53.69000 11.191
53.70000 8.076
53.71000 13.159
53.72000 9.175
53.73000 5.951
53.74000 10.026
53.75000 10.222
53.76000 11.176
53.77000 11.046
53.78000 14.118
53.79000 11.030
53.80000 11.117
53.81000 9.010
53.82000 15.269
53.83000 10.132
53.84000 18.203
53.85000 9.067
53.86000 12.032
53.87000 15.330
53.88000 7.150
53.89000 14.202
53.90000 8.104
53.91000 15.268
53.92000 15.213
53.93000 15.132
53.94000 7.062
53.95000 11.164
53.96000 11.052
53.97000 17.274
53.98000 11.146
53.99000 15.269
54.00000 15.162
54.01000 9.029
54.02000 16.147
54.03000 10.129
54.04000 15.017
54.05000 14.153
54.06000 15.194
54.07000 12.149
54.08000 11.995
54.09000 11.225
54.10000 7.012
54.11000 14.071
54.12000 11.992
54.13000 10.208
54.14000 9.013
54.15000 8.084
54.16000 8.157
54.17000 8.060
54.18000 8.051
54.19000 14.120
54.20000 11.234
54.21000 11.975
54.22000 5.087
54.23000 8.098
54.24000 11.092
54.25000 13.304
54.26000 7.203
54.27000 14.243
54.28000 13.219
54.29000 11.157
54.30000 11.184
54.31000 12.045
54.32000 19.474
54.33000 16.076
54.34000 9.089
54.35000 8.974
54.36000 11.178
54.37000 13.138
54.38000 8.087
54.39000 15.122
54.40000 12.050
54.41000 11.104
54.42000 12.215
54.43000 8.983
54.44000 6.024
54.45000 18.214
54.46000 11.234
54.47000 8.120
54.48000 12.013
54.49000 4.046
54.50000 10.180
54.51000 11.243
54.52000 9.198
54.53000 13.305
54.54000 11.165
54.55000 9.166
54.56000 18.355
54.57000 11.326
54.58000 10.978
54.59000 5.113
54.60000 19.308
54.61000 9.128
54.62000 16.115
54.63000 10.127
54.64000 9.064
54.65000 9.133
54.66000 10.169
54.67000 7.108
54.68000 13.024
54.69000 9.069
54.70000 7.131
54.71000 8.062
54.72000 9.133
54.73000 12.986
54.74000 9.074
54.75000 14.177
54.76000 14.091
54.77000 7.110
54.78000 7.080
54.79000 4.072
54.80000 14.281
54.81000 9.118
54.82000 14.120
54.83000 11.160
54.84000 7.021
54.85000 9.016
54.86000 11.157
54.87000 7.186
54.88000 9.287
54.89000 8.168
54.90000 11.064
54.91000 9.145
54.92000 10.174
54.93000 8.972
54.94000 10.910
54.95000 10.143
54.96000 12.172
54.97000 15.003
54.98000 7.026
54.99000 14.124
55.00000 17.128
55.01000 15.356
55.02000 10.149
55.03000 14.150
55.04000 8.039
55.05000 9.043
55.06000 11.252
55.07000 10.122
55.08000 14.137
55.09000 15.131
55.10000 12.017
55.11000 9.249
55.12000 10.178
55.13000 11.047
55.14000 5.992
55.15000 11.104
55.16000 14.215
55.17000 12.238
55.18000 10.161
55.19000 11.187
55.20000 18.164
55.21000 11.049
55.22000 10.107
55.23000 15.356
55.24000 8.096
55.25000 8.178
55.26000 11.158
55.27000 12.178
55.28000 10.096
55.29000 12.090
55.30000 10.052
55.31000 7.033
55.32000 9.214
55.33000 2.043
55.34000 11.175
55.35000 9.188
55.36000 11.125
55.37000 15.175
55.38000 10.168
55.39000 8.089
55.40000 8.111
55.41000 13.176
55.42000 13.055
55.43000 12.146
55.44000 11.130
55.45000 11.122
55.46000 7.095
55.47000 6.006
55.48000 9.138
55.49000 8.956
55.50000 8.128
55.51000 8.048
55.52000 12.151
55.53000 9.255
55.54000 10.241
55.55000 13.117
55.56000 13.993
55.57000 13.094
55.58000 5.121
55.59000 14.196
55.60000 15.183
55.61000 7.112
55.62000 11.077
55.63000 13.170
55.64000 8.128
55.65000 8.080
55.66000 14.161
55.67000 10.147
55.68000 10.186
55.69000 7.095
55.70000 9.119
55.71000 10.131
55.72000 12.157
55.73000 8.154
55.74000 12.041
55.75000 7.091
55.76000 15.342
55.77000 10.247
55.78000 15.166
55.79000 11.125
55.80000 9.053
55.81000 10.181
55.82000 9.122
55.83000 10.076
55.84000 9.149
55.85000 13.162
55.86000 11.992
55.87000 15.290
55.88000 9.152
55.89000 13.101
55.90000 15.236
55.91000 10.202
55.92000 10.147
55.93000 8.126
55.94000 9.065
55.95000 7.990
55.96000 10.018
55.97000 10.234
55.98000 8.119
55.99000 14.122
56.00000 13.181
56.01000 10.180
56.02000 6.164
56.03000 10.176
56.04000 11.998
56.05000 11.068
56.06000 14.336
56.07000 9.132
56.08000 11.153
56.09000 10.992
56.10000 9.128
56.11000 9.003
56.12000 14.191
56.13000 9.952
56.14000 9.097
56.15000 10.119
56.16000 13.085
56.17000 11.155
56.18000 6.139
56.19000 5.983
56.20000 8.107
56.21000 6.114
56.22000 5.901
56.23000 8.035
56.24000 11.129
56.25000 7.061
56.26000 7.057
56.27000 10.142
56.28000 10.236
56.29000 8.117
56.30000 9.112
56.31000 8.077
56.32000 12.031
56.33000 7.121
56.34000 13.216
56.35000 14.343
56.36000 16.118
56.37000 14.216
56.38000 8.065
56.39000 9.054
56.40000 10.031
56.41000 9.133
56.42000 18.243
56.43000 14.338
56.44000 8.152
56.45000 6.102
56.46000 12.040
56.47000 5.045
56.48000 11.028
56.49000 10.108
56.50000 11.208
56.51000 4.043
56.52000 9.126
56.53000 8.168
56.54000 8.076
56.55000 6.072
56.56000 11.100
56.57000 11.998
56.58000 4.037
56.59000 10.094
56.60000 10.242
56.61000 10.070
56.62000 14.129
56.63000 15.104
56.64000 7.160
56.65000 12.164
56.66000 12.229
56.67000 10.198
56.68000 9.233
56.69000 11.179
56.70000 16.192
56.71000 9.039
56.72000 9.022
56.73000 5.173
56.74000 12.193
56.75000 11.309
56.76000 9.095
56.77000 8.025
56.78000 12.115
56.79000 5.135
56.80000 11.035
56.81000 6.024
56.82000 11.120
56.83000 8.003
56.84000 15.126
56.85000 12.172
56.86000 6.056
56.87000 6.031
56.88000 13.135
56.89000 13.234
56.90000 7.959
56.91000 10.085
56.92000 8.061
56.93000 18.188
56.94000 9.042
56.95000 6.105
56.96000 12.193
56.97000 9.231
56.98000 9.183
56.99000 11.178
57.00000 12.129
57.01000 7.184
57.02000 6.039
57.03000 11.094
57.04000 10.108
57.05000 5.036
57.06000 10.172
57.07000 15.204
57.08000 10.050
57.09000 11.169
57.10000 6.051
57.11000 9.324
57.12000 3.000
57.13000 7.092
57.14000 7.160
57.15000 13.238
57.16000 7.037
57.17000 10.088
57.18000 14.321
57.19000 14.225
57.20000 13.246
57.21000 10.211
57.22000 14.359
57.23000 10.146
57.24000 10.344
57.25000 8.100
57.26000 10.008
57.27000 6.162
57.28000 7.097
57.29000 5.030
57.30000 11.107
57.31000 12.180
57.32000 12.117
57.33000 5.104
57.34000 9.069
57.35000 11.217
57.36000 12.182
57.37000 11.067
57.38000 14.159
57.39000 7.069
57.40000 7.079
57.41000 13.180
57.42000 14.058
57.43000 9.215
57.44000 8.017
57.45000 10.150
57.46000 11.203
57.47000 7.162
57.48000 13.049
57.49000 13.017
57.50000 9.117
57.51000 9.167
57.52000 8.137
57.53000 6.078
57.54000 7.196
57.55000 8.109
57.56000 6.034
57.57000 9.183
57.58000 7.190
57.59000 8.153
57.60000 13.265
57.61000 6.061
57.62000 4.095
57.63000 10.080
57.64000 12.305
57.65000 12.199
57.66000 13.183
57.67000 11.095
57.68000 3.036
57.69000 13.226
57.70000 4.996
57.71000 8.077
57.72000 13.022
57.73000 6.064
57.74000 3.132
57.75000 11.099
57.76000 2.076
57.77000 14.380
57.78000 13.124
57.79000 8.100
57.80000 15.068
57.81000 10.199
57.82000 6.134
57.83000 11.146
57.84000 10.079
57.85000 14.250
57.86000 17.136
57.87000 12.963
57.88000 2.069
57.89000 6.073
57.90000 11.132
57.91000 9.172
57.92000 2.065
57.93000 7.065
57.94000 14.068
57.95000 13.149
57.96000 8.109
57.97000 13.195
57.98000 16.385
57.99000 11.308
58.00000 10.153
58.01000 13.220
58.02000 10.248
58.03000 9.071
58.04000 6.083
58.05000 13.252
58.06000 7.077
58.07000 14.253
58.08000 8.960
58.09000 12.184
58.10000 17.347
58.11000 10.067
58.12000 11.094
58.13000 8.100
58.14000 8.046
58.15000 8.184
58.16000 6.130
58.17000 7.023
58.18000 4.014
58.19000 8.178
58.20000 9.139
58.21000 4.049
58.22000 7.018
58.23000 16.292
58.24000 5.186
58.25000 10.052
58.26000 7.089
58.27000 8.000
58.28000 5.010
58.29000 4.021
58.30000 11.194
58.31000 9.009
58.32000 3.968
58.33000 13.254
58.34000 4.095
58.35000 5.054
58.36000 10.208
58.37000 12.101
58.38000 13.185
58.39000 7.067
58.40000 7.989
58.41000 11.176
58.42000 7.116
58.43000 9.155
58.44000 11.103
58.45000 11.116
58.46000 11.167
58.47000 13.150
58.48000 2.010
58.49000 5.016
58.50000 15.102
58.51000 11.121
58.52000 9.270
58.53000 7.032
58.54000 9.166
58.55000 12.086
58.56000 6.062
58.57000 7.136
58.58000 10.232
58.59000 5.126
58.60000 12.071
58.61000 10.100
58.62000 6.225
58.63000 11.234
58.64000 13.072
58.65000 12.123
58.66000 15.178
58.67000 10.121
58.68000 9.165
58.69000 9.098
58.70000 6.083
58.71000 6.058
58.72000 10.071
58.73000 11.098
58.74000 15.175
58.75000 10.215
58.76000 12.254
58.77000 11.059
58.78000 6.009
58.79000 8.106
58.80000 10.090
58.81000 3.047
58.82000 9.071
58.83000 8.065
58.84000 9.162
58.85000 11.109
58.86000 10.078
58.87000 14.159
58.88000 8.217
58.89000 3.004
58.90000 3.054
58.91000 6.116
58.92000 8.037
58.93000 8.110
58.94000 8.157
58.95000 11.120
58.96000 9.000
58.97000 10.110
58.98000 7.093
58.99000 5.110
59.00000 12.968
59.01000 6.148
59.02000 9.105
59.03000 7.049
59.04000 14.095
59.05000 6.085
59.06000 14.181
59.07000 8.235
59.08000 7.186
59.09000 5.946
59.10000 8.189
59.11000 10.184
59.12000 11.323
59.13000 8.094
59.14000 9.204
59.15000 19.330
59.16000 8.087
59.17000 7.136
59.18000 4.033
59.19000 7.136
59.20000 7.008
59.21000 13.180
59.22000 8.134
59.23000 7.073
59.24000 7.179
59.25000 5.102
59.26000 5.087
59.27000 10.162
59.28000 6.095
59.29000 9.180
59.30000 4.992
59.31000 7.178
59.32000 4.142
59.33000 7.121
59.34000 10.187
59.35000 11.145
59.36000 7.068
59.37000 5.040
59.38000 7.158
59.39000 5.116
59.40000 9.091
59.41000 9.998
59.42000 7.142
59.43000 7.082
59.44000 4.101
59.45000 9.102
59.46000 7.073
59.47000 9.136
59.48000 9.105
59.49000 7.091
59.50000 3.967
59.51000 8.192
59.52000 7.036
59.53000 7.073
59.54000 7.222
59.55000 11.174
59.56000 4.172
59.57000 11.307
59.58000 9.139
59.59000 8.101
59.60000 5.041
59.61000 4.986
59.62000 10.270
59.63000 13.200
59.64000 13.138
59.65000 5.080
59.66000 3.059
59.67000 9.115
59.68000 9.141
59.69000 11.072
59.70000 10.040
59.71000 6.004
59.72000 9.108
59.73000 11.251
59.74000 7.206
59.75000 11.203
59.76000 14.278
59.77000 6.090
59.78000 13.169
59.79000 6.031
59.80000 7.151
59.81000 4.039
59.82000 12.357
59.83000 9.233
59.84000 9.131
59.85000 9.080
59.86000 7.098
59.87000 6.034
59.88000 3.057
59.89000 5.057
59.90000 10.140
59.91000 9.101
59.92000 11.200
59.93000 10.161
59.94000 4.046
59.95000 14.158
59.96000 6.197
59.97000 11.107
59.98000 6.003
59.99000 5.032
60.00000 14.167
60.01000 4.137
60.02000 7.959
60.03000 8.171
60.04000 8.123
60.05000 11.078
60.06000 6.045
60.07000 11.337
60.08000 13.009
60.09000 12.172
60.10000 10.122
60.11000 6.138
60.12000 15.221
60.13000 8.172
60.14000 6.092
60.15000 5.028
60.16000 10.147
60.17000 8.104
60.18000 9.037
60.19000 4.059
60.20000 4.091
60.21000 9.033
60.22000 4.077
60.23000 13.149
60.24000 12.183
60.25000 2.994
60.26000 9.037
60.27000 9.130
60.28000 13.065
60.29000 11.220
60.30000 11.077
60.31000 6.041
60.32000 7.142
60.33000 7.136
60.34000 9.014
60.35000 8.101
60.36000 12.212
60.37000 4.079
60.38000 7.126
60.39000 8.135
60.40000 9.065
60.41000 7.293
60.42000 10.104
60.43000 9.127
60.44000 10.132
60.45000 10.086
60.46000 10.049
60.47000 6.051
60.48000 6.908
60.49000 6.083
60.50000 4.052
60.51000 5.959
60.52000 8.115
60.53000 5.065
60.54000 6.104
60.55000 5.016
60.56000 9.054
60.57000 7.141
60.58000 12.219
60.59000 5.120
60.60000 8.074
60.61000 6.028
60.62000 3.094
60.63000 9.021
60.64000 11.145
60.65000 5.974
60.66000 8.035
60.67000 9.134
60.68000 7.216
60.69000 10.116
60.70000 13.205
60.71000 6.140
60.72000 9.097
60.73000 7.041
60.74000 11.290
60.75000 7.121
60.76000 3.003
60.77000 5.031
60.78000 8.124
60.79000 8.072
60.80000 8.244
60.81000 6.043
60.82000 9.069
60.83000 7.089
60.84000 7.014
60.85000 3.031
60.86000 9.031
60.87000 11.218
60.88000 5.987
60.89000 8.035
60.90000 5.018
60.91000 11.163
60.92000 9.037
60.93000 5.104
60.94000 9.083
60.95000 9.007
60.96000 7.993
60.97000 4.085
60.98000 5.074
60.99000 8.103
61.00000 4.108
61.01000 6.122
61.02000 11.144
61.03000 4.068
61.04000 5.007
61.05000 12.213
61.06000 12.166
61.07000 6.061
61.08000 15.192
61.09000 10.093
61.10000 10.128
61.11000 7.084
61.12000 10.190
61.13000 5.043
61.14000 4.974
61.15000 6.084
61.16000 7.004
61.17000 6.035
61.18000 8.054
61.19000 3.117
61.20000 7.027
61.21000 4.103
61.22000 11.002
61.23000 7.041
61.24000 7.017
61.25000 7.241
61.26000 12.323
61.27000 8.212
61.28000 11.199
61.29000 6.111
61.30000 15.128
61.31000 14.199
61.32000 10.164
61.33000 6.960
61.34000 4.102
61.35000 12.225
61.36000 9.102
61.37000 6.941
61.38000 12.420
61.39000 6.064
61.40000 8.211
61.41000 5.053
61.42000 10.097
61.43000 6.223
61.44000 9.055
61.45000 7.127
61.46000 7.169
61.47000 3.057
61.48000 4.961
61.49000 8.161
61.50000 4.026
61.51000 4.991
61.52000 10.017
61.53000 9.025
61.54000 8.055
61.55000 9.142
61.56000 10.079
61.57000 9.176
61.58000 7.038
61.59000 6.113
61.60000 9.119
61.61000 2.958
61.62000 4.071
61.63000 10.212
61.64000 6.182
61.65000 6.055
61.66000 5.990
61.67000 8.051
61.68000 6.046
61.69000 8.066
61.70000 7.132
61.71000 7.095
61.72000 14.097
61.73000 4.076
61.74000 11.201
61.75000 8.063
61.76000 6.038
61.77000 9.115
61.78000 3.074
61.79000 8.044
61.80000 9.154
61.81000 13.084
61.82000 7.129
61.83000 6.047
61.84000 13.182
61.85000 3.022
61.86000 6.039
61.87000 10.116
61.88000 8.945
61.89000 8.178
61.90000 7.122
61.91000 4.059
61.92000 5.060
61.93000 8.112
61.94000 6.090
61.95000 11.132
61.96000 6.005
61.97000 6.143
61.98000 10.954
61.99000 7.110
62.00000 5.028
62.01000 5.110
62.02000 9.191
62.03000 5.051
62.04000 6.054
62.05000 7.083
62.06000 12.125
62.07000 7.120
62.08000 8.008
62.09000 10.061
62.10000 7.080
62.11000 6.027
62.12000 3.994
62.13000 4.049
62.14000 11.035
62.15000 9.114
62.16000 10.143
62.17000 5.173
62.18000 4.046
62.19000 3.027
62.20000 10.106
62.21000 6.079
62.22000 6.173
62.23000 1.028
62.24000 4.042
62.25000 12.076
62.26000 11.080
62.27000 7.113
62.28000 5.038
62.29000 3.964
62.30000 6.992
62.31000 5.061
62.32000 5.097
62.33000 5.070
62.34000 6.093
62.35000 5.103
62.36000 10.071
62.37000 13.204
62.38000 12.195
62.39000 7.076
62.40000 7.021
62.41000 7.152
62.42000 5.142
62.43000 6.097
62.44000 5.021
62.45000 7.204
62.46000 9.033
62.47000 7.147
62.48000 5.032
62.49000 6.045
62.50000 13.134
62.51000 3.022
62.52000 9.037
62.53000 8.111
62.54000 8.080
62.55000 0.980
62.56000 9.216
62.57000 7.004
62.58000 10.158
62.59000 8.042
62.60000 14.079
62.61000 8.046
62.62000 6.961
62.63000 9.255
62.64000 9.160
62.65000 9.070
62.66000 5.931
62.67000 9.136
62.68000 6.106
62.69000 5.128
62.70000 8.014
62.71000 5.124
62.72000 6.098
62.73000 11.190
62.74000 3.016
62.75000 2.983
62.76000 8.167
62.77000 7.049
62.78000 9.010
62.79000 7.125
62.80000 7.054
62.81000 6.146
62.82000 6.007
62.83000 4.086
62.84000 8.184
62.85000 11.120
62.86000 6.085
62.87000 8.157
62.88000 5.102
62.89000 6.179
62.90000 4.025
62.91000 9.228
62.92000 11.222
62.93000 11.266
62.94000 9.146
62.95000 5.140
62.96000 2.963
62.97000 7.091
62.98000 7.109
62.99000 8.109
63.00000 3.988
63.01000 7.100
63.02000 6.065
63.03000 9.093
63.04000 14.117
63.05000 10.196
63.06000 9.109
63.07000 8.213
63.08000 5.030
63.09000 7.988
63.10000 7.109
63.11000 8.174
63.12000 9.061
63.13000 8.065
63.14000 12.135
63.15000 6.123
63.16000 4.063
63.17000 6.138
63.18000 9.997
63.19000 7.061
63.20000 13.235
63.21000 10.009
63.22000 2.999
63.23000 3.066
63.24000 12.214
63.25000 5.064
63.26000 6.141
63.27000 7.078
63.28000 14.258
63.29000 7.025
63.30000 14.298
63.31000 6.046
63.32000 2.026
63.33000 10.095
63.34000 4.025
63.35000 8.167
63.36000 8.210
63.37000 7.157
63.38000 8.129
63.39000 9.093
63.40000 7.063
63.41000 5.032
63.42000 2.940
63.43000 4.085
63.44000 6.092
63.45000 7.090
63.46000 11.038
63.47000 10.082
63.48000 7.171
63.49000 7.150
63.50000 5.135
63.51000 5.083
63.52000 7.140
63.53000 3.008
63.54000 5.100
63.55000 6.041
63.56000 8.264
63.57000 6.032
63.58000 8.170
63.59000 10.077
63.60000 10.063
63.61000 7.098
63.62000 7.107
63.63000 4.054
63.64000 6.071
63.65000 2.962
63.66000 11.146
63.67000 5.101
63.68000 9.153
63.69000 7.196
63.70000 7.004
63.71000 8.107
63.72000 14.237
63.73000 10.159
63.74000 10.100
63.75000 10.222
63.76000 7.037
63.77000 9.136
63.78000 6.997
63.79000 13.292
63.80000 7.135
63.81000 8.178
63.82000 4.079
63.83000 5.085
63.84000 9.064
63.85000 10.125
63.86000 4.972
63.87000 9.002
63.88000 6.143
63.89000 9.059
63.90000 8.068
63.91000 9.111
63.92000 8.213
63.93000 8.069
63.94000 13.097
63.95000 8.132
63.96000 11.137
63.97000 9.092
63.98000 8.145
63.99000 8.031
64.00000 9.121
64.01000 5.016
64.02000 7.044
64.03000 8.155
64.04000 6.191
64.05000 9.238
64.06000 4.992
64.07000 6.124
64.08000 7.082
64.09000 6.070
64.10000 7.074
64.11000 7.997
64.12000 7.092
64.13000 7.021
64.14000 4.005
64.15000 8.022
64.16000 8.190
64.17000 5.042
64.18000 8.041
64.19000 13.325
64.20000 7.092
64.21000 4.055
64.22000 10.080
64.23000 13.180
64.24000 12.148
64.25000 9.081
64.26000 8.038
64.27000 9.198
64.28000 8.067
64.29000 7.194
64.30000 9.162
64.31000 9.088
64.32000 5.035
64.33000 5.080
64.34000 11.140
64.35000 8.063
64.36000 10.132
64.37000 10.125
64.38000 6.190
64.39000 5.177
64.40000 2.024
64.41000 5.093
64.42000 7.100
64.43000 7.117
64.44000 9.220
64.45000 5.073
64.46000 7.087
64.47000 5.029
64.48000 8.109
64.49000 5.087
64.50000 6.005
64.51000 12.111
64.52000 13.234
64.53000 8.062
64.54000 1.014
64.55000 5.045
64.56000 4.133
64.57000 9.042
64.58000 2.002
64.59000 10.157
64.60000 6.161
64.61000 7.090
64.62000 5.083
64.63000 8.092
64.64000 6.029
64.65000 4.059
64.66000 2.007
64.67000 5.062
64.68000 6.156
64.69000 8.206
64.70000 5.020
64.71000 7.115
64.72000 6.063
64.73000 10.179
64.74000 6.034
64.75000 5.087
64.76000 4.012
64.77000 5.010
64.78000 9.104
64.79000 8.041
64.80000 6.179
64.81000 5.018
64.82000 4.077
64.83000 9.100
64.84000 8.162
64.85000 5.040
64.86000 1.997
64.87000 7.196
64.88000 8.153
64.89000 3.037
64.90000 10.173
64.91000 8.089
64.92000 5.092
64.93000 14.210
64.94000 7.140
64.95000 4.075
64.96000 6.090
64.97000 10.132
64.98000 10.203
64.99000 10.175
65.00000 6.071
