20.00000 133.641
20.01000 108.895
20.02000 131.372
20.03000 140.243
20.04000 116.894
20.05000 134.485
20.06000 120.280
20.07000 113.848
20.08000 108.860
20.09000 127.586
20.10000 113.922
20.11000 123.795
20.12000 123.461
20.13000 130.139
20.14000 121.000
20.15000 141.305
20.16000 110.981
20.17000 115.173
20.18000 118.213
20.19000 127.122
20.20000 126.271
20.21000 142.596
20.22000 137.215
20.23000 122.006
20.24000 110.011
20.25000 97.770
20.26000 106.250
20.27000 102.120
20.28000 124.045
20.29000 127.164
20.30000 149.337
20.31000 100.528
20.32000 117.042
20.33000 133.620
20.34000 130.324
20.35000 124.481
20.36000 114.716
20.37000 117.273
20.38000 111.911
20.39000 129.933
20.40000 119.200
20.41000 133.347
20.42000 107.189
20.43000 138.469
20.44000 109.190
20.45000 128.183
20.46000 119.558
20.47000 116.826
20.48000 121.420
20.49000 105.103
20.50000 105.107
20.51000 105.903
20.52000 113.853
20.53000 100.187
20.54000 109.046
20.55000 110.263
20.56000 131.489
20.57000 89.056
20.58000 98.338
20.59000 96.829
20.60000 123.961
20.61000 116.090
20.62000 115.185
20.63000 85.309
20.64000 108.182
20.65000 124.621
20.66000 107.237
20.67000 118.259
20.68000 94.984
20.69000 111.056
20.70000 94.052
20.71000 90.902
20.72000 88.571
20.73000 111.179
20.74000 92.973
20.75000 100.432
20.76000 87.586
20.77000 124.492
20.78000 117.088
20.79000 113.222
20.80000 108.295
20.81000 95.832
20.82000 118.096
20.83000 96.146
20.84000 104.903
20.85000 103.196
20.86000 97.139
20.87000 80.895
20.88000 95.462
20.89000 107.178
20.90000 90.874
20.91000 93.088
20.92000 96.070
20.93000 99.107
20.94000 87.941
20.95000 97.804
20.96000 79.445
20.97000 84.881
20.98000 96.861
20.99000 105.211
21.00000 88.094
21.01000 110.084
21.02000 92.775
21.03000 87.151
21.04000 104.486
21.05000 89.016
21.06000 106.975
21.07000 96.949
21.08000 101.290
21.09000 75.451
21.10000 93.998
21.11000 99.153
21.12000 73.813
21.13000 94.063
21.14000 87.775
21.15000 84.819
21.16000 102.450
21.17000 105.199
21.18000 95.770
21.19000 83.599
21.20000 96.064
21.21000 85.659
21.22000 99.674
21.23000 67.905
21.24000 90.043
21.25000 73.010
21.26000 92.921
21.27000 88.846
21.28000 76.382
21.29000 90.736
21.30000 94.030
21.31000 104.152
21.32000 97.167
21.33000 76.447
21.34000 89.463
21.35000 101.252
21.36000 81.155
21.37000 91.731
21.38000 72.597
21.39000 85.861
21.40000 88.147
21.41000 87.192
21.42000 63.560
21.43000 79.926
21.44000 82.678
21.45000 85.146
21.46000 76.581
21.47000 74.982
21.48000 83.566
21.49000 60.461
21.50000 71.657
21.51000 80.801
21.52000 72.946
21.53000 54.603
21.54000 71.472
21.55000 85.841
21.56000 85.743
21.57000 87.901
21.58000 76.855
21.59000 75.885
21.60000 84.914
21.61000 69.470
21.62000 82.819
21.63000 81.892
21.64000 76.555
21.65000 77.918
21.66000 80.797
21.67000 79.782
21.68000 82.846
21.69000 63.550
21.70000 69.521
21.71000 50.579
21.72000 68.672
21.73000 83.765
21.74000 68.382
21.75000 66.496
21.76000 74.359
21.77000 60.651
21.78000 73.466
21.79000 66.565
21.80000 69.650
21.81000 63.765
21.82000 52.407
21.83000 65.996
21.84000 67.671
21.85000 63.601
21.86000 65.707
21.87000 85.985
21.88000 64.628
21.89000 64.617
21.90000 68.553
21.91000 69.930
21.92000 54.705
21.93000 69.856
21.94000 60.865
21.95000 73.553
21.96000 76.547
21.97000 58.399
21.98000 70.379
21.99000 58.794
22.00000 64.601
22.01000 56.669
22.02000 62.858
22.03000 57.486
22.04000 66.636
22.05000 52.510
22.06000 58.434
22.07000 65.424
22.08000 45.433
22.09000 62.338
22.10000 47.649
22.11000 55.897
22.12000 52.475
22.13000 57.742
22.14000 64.514
22.15000 63.636
22.16000 74.604
22.17000 69.635
22.18000 59.622
22.19000 50.740
22.20000 49.365
22.21000 52.752
22.22000 56.617
22.23000 65.715
22.24000 61.323
22.25000 62.425
22.26000 53.706
22.27000 65.534
22.28000 60.713
22.29000 51.296
22.30000 64.494
22.31000 56.733
22.32000 51.689
22.33000 60.725
22.34000 52.714
22.35000 46.590
22.36000 64.522
22.37000 54.757
22.38000 50.255
22.39000 54.417
22.40000 42.484
22.41000 62.586
22.42000 57.481
22.43000 45.556
22.44000 64.683
22.45000 64.728
22.46000 50.306
22.47000 44.364
22.48000 62.699
22.49000 45.648
22.50000 49.486
22.51000 60.541
22.52000 41.134
22.53000 58.403
22.54000 55.499
22.55000 42.472
22.56000 47.492
22.57000 42.471
22.58000 45.721
22.59000 59.565
22.60000 48.540
22.61000 58.292
22.62000 54.543
22.63000 52.561
22.64000 52.452
22.65000 41.396
22.66000 51.503
22.67000 44.486
22.68000 43.434
22.69000 51.711
22.70000 52.594
22.71000 48.465
22.72000 48.277
22.73000 47.545
22.74000 51.638
22.75000 45.382
22.76000 47.389
22.77000 53.692
22.78000 47.495
22.79000 48.463
22.80000 44.680
22.81000 52.453
22.82000 36.391
22.83000 46.497
22.84000 52.427
22.85000 32.289
22.86000 51.523
22.87000 44.708
22.88000 44.694
22.89000 45.220
22.90000 36.408
22.91000 49.515
22.92000 58.682
22.93000 42.671
22.94000 30.309
22.95000 32.318
22.96000 51.612
22.97000 31.163
22.98000 39.457
22.99000 31.427
23.00000 57.561
23.01000 26.249
23.02000 37.547
23.03000 39.648
23.04000 45.732
23.05000 24.419
23.06000 53.260
23.07000 26.277
23.08000 45.564
23.09000 46.205
23.10000 45.190
23.11000 31.430
23.12000 34.485
23.13000 48.607
23.14000 37.588
23.15000 37.288
23.16000 35.484
23.17000 29.307
23.18000 33.153
23.19000 31.428
23.20000 41.383
23.21000 39.446
23.22000 38.556
23.23000 37.540
23.24000 33.372
23.25000 39.398
23.26000 36.480
23.27000 43.296
23.28000 34.224
23.29000 39.428
23.30000 38.520
23.31000 32.433
23.32000 47.693
23.33000 29.572
23.34000 27.288
23.35000 26.185
23.36000 49.498
23.37000 37.440
23.38000 26.284
23.39000 29.327
23.40000 39.380
23.41000 29.262
23.42000 31.226
23.43000 34.132
23.44000 31.405
23.45000 36.450
23.46000 30.384
23.47000 33.335
23.48000 40.589
23.49000 41.503
23.50000 39.384
23.51000 37.538
23.52000 33.407
23.53000 27.396
23.54000 24.210
23.55000 32.554
23.56000 36.366
23.57000 40.518
23.58000 32.231
23.59000 37.475
23.60000 33.253
23.61000 26.129
23.62000 37.400
23.63000 32.214
23.64000 35.388
23.65000 35.290
23.66000 29.350
23.67000 27.375
23.68000 22.213
23.69000 28.288
23.70000 36.358
23.71000 35.127
23.72000 27.329
23.73000 27.278
23.74000 37.417
23.75000 29.327
23.76000 28.120
23.77000 28.157
23.78000 28.324
23.79000 39.380
23.80000 37.288
23.81000 23.245
23.82000 24.437
23.83000 33.309
23.84000 32.405
23.85000 26.344
23.86000 31.049
23.87000 32.445
23.88000 33.343
23.89000 34.370
23.90000 33.360
23.91000 27.447
23.92000 29.559
23.93000 35.548
23.94000 31.288
23.95000 24.289
23.96000 34.196
23.97000 35.429
23.98000 30.294
23.99000 18.288
24.00000 30.439
24.01000 31.123
24.02000 26.257
24.03000 24.267
24.04000 34.201
24.05000 28.373
24.06000 29.432
24.07000 30.324
24.08000 18.085
24.09000 25.253
24.10000 18.273
24.11000 22.135
24.12000 36.413
24.13000 31.345
24.14000 33.230
24.15000 21.234
24.16000 28.496
24.17000 26.137
24.18000 31.354
24.19000 23.189
24.20000 21.196
24.21000 17.144
24.22000 23.206
24.23000 29.317
24.24000 18.065
24.25000 31.580
24.26000 29.442
24.27000 21.285
24.28000 22.283
24.29000 26.444
24.30000 34.172
24.31000 17.196
24.32000 26.159
24.33000 18.125
24.34000 38.382
24.35000 24.331
24.36000 17.164
24.37000 32.160
24.38000 28.381
24.39000 31.751
24.40000 22.186
24.41000 23.073
24.42000 27.218
24.43000 19.133
24.44000 23.197
24.45000 21.443
24.46000 21.501
24.47000 24.251
24.48000 17.998
24.49000 30.311
24.50000 23.302
24.51000 20.307
24.52000 25.313
24.53000 29.386
24.54000 20.165
24.55000 19.254
24.56000 18.367
24.57000 28.411
24.58000 19.321
24.59000 17.086
24.60000 16.208
24.61000 20.205
24.62000 27.451
24.63000 23.266
24.64000 24.345
24.65000 17.232
24.66000 21.168
24.67000 21.215
24.68000 28.263
24.69000 17.050
24.70000 19.277
24.71000 15.120
24.72000 21.257
24.73000 19.170
24.74000 15.111
24.75000 22.180
24.76000 29.359
24.77000 25.187
24.78000 15.021
24.79000 17.142
24.80000 14.051
24.81000 18.284
24.82000 28.299
24.83000 18.220
24.84000 23.170
24.85000 18.090
24.86000 22.195
24.87000 18.240
24.88000 18.114
24.89000 18.419
24.90000 16.471
24.91000 28.530
24.92000 17.127
24.93000 21.168
24.94000 25.301
24.95000 24.228
24.96000 15.277
24.97000 19.506
24.98000 24.239
24.99000 26.207
25.00000 16.218
25.01000 20.283
25.02000 23.118
25.03000 24.235
25.04000 13.024
25.05000 27.242
25.06000 19.332
25.07000 14.149
25.08000 19.022
25.09000 23.281
25.10000 21.291
25.11000 16.201
25.12000 14.111
25.13000 15.146
25.14000 15.039
25.15000 18.248
25.16000 18.309
25.17000 22.376
25.18000 20.213
25.19000 15.177
25.20000 13.095
25.21000 14.397
25.22000 15.076
25.23000 24.364
25.24000 21.415
25.25000 12.038
25.26000 21.473
25.27000 12.190
25.28000 25.545
25.29000 24.204
25.30000 14.126
25.31000 11.132
25.32000 16.277
25.33000 17.294
25.34000 20.159
25.35000 19.229
25.36000 16.214
25.37000 14.247
25.38000 19.235
25.39000 14.268
25.40000 24.462
25.41000 17.295
25.42000 15.188
25.43000 25.461
25.44000 18.257
25.45000 25.288
25.46000 27.444
25.47000 22.348
25.48000 15.193
25.49000 18.361
25.50000 20.296
25.51000 18.364
25.52000 23.219
25.53000 11.017
25.54000 14.222
25.55000 22.245
25.56000 21.313
25.57000 23.215
25.58000 11.020
25.59000 21.245
25.60000 22.180
25.61000 15.287
25.62000 15.105
25.63000 23.405
25.64000 12.126
25.65000 15.200
25.66000 14.269
25.67000 14.195
25.68000 11.130
25.69000 9.110
25.70000 18.384
25.71000 15.043
25.72000 15.095
25.73000 15.357
25.74000 16.028
25.75000 14.155
25.76000 27.272
25.77000 21.201
25.78000 18.266
25.79000 17.357
25.80000 14.166
25.81000 17.010
25.82000 17.218
25.83000 16.154
25.84000 10.213
25.85000 18.265
25.86000 15.260
25.87000 15.143
25.88000 15.197
25.89000 20.342
25.90000 19.317
25.91000 17.276
25.92000 11.162
25.93000 10.159
25.94000 14.122
25.95000 17.304
25.96000 8.126
25.97000 23.483
25.98000 14.308
25.99000 13.172
26.00000 11.214
26.01000 11.097
26.02000 12.969
26.03000 16.322
26.04000 15.273
26.05000 17.202
26.06000 15.264
26.07000 17.303
26.08000 18.084
26.09000 16.222
26.10000 13.252
26.11000 10.130
26.12000 14.152
26.13000 14.171
26.14000 17.338
26.15000 12.047
26.16000 15.182
26.17000 16.147
26.18000 14.042
26.19000 7.134
26.20000 10.099
26.21000 8.211
26.22000 11.055
26.23000 16.074
26.24000 10.108
26.25000 8.172
26.26000 20.189
26.27000 15.314
26.28000 10.094
26.29000 20.375
26.30000 16.319
26.31000 13.143
26.32000 9.100
26.33000 14.233
26.34000 15.142
26.35000 16.119
26.36000 10.107
26.37000 19.319
26.38000 16.319
26.39000 15.419
26.40000 16.242
26.41000 7.052
26.42000 20.178
26.43000 12.194
26.44000 15.205
26.45000 11.068
26.46000 14.104
26.47000 15.159
26.48000 9.196
26.49000 16.247
26.50000 10.217
26.51000 10.129
26.52000 13.202
26.53000 23.288
26.54000 9.209
26.55000 12.119
26.56000 16.248
26.57000 10.296
26.58000 16.134
26.59000 11.153
26.60000 18.198
26.61000 13.124
26.62000 14.045
26.63000 9.006
26.64000 9.069
26.65000 14.386
26.66000 15.318
26.67000 12.163
26.68000 14.119
26.69000 17.340
26.70000 12.967
26.71000 12.121
26.72000 16.160
26.73000 15.163
26.74000 11.069
26.75000 17.210
26.76000 8.185
26.77000 16.415
26.78000 12.172
26.79000 12.302
26.80000 21.254
26.81000 12.186
26.82000 14.287
26.83000 14.135
26.84000 15.204
26.85000 16.240
26.86000 17.187
26.87000 13.164
26.88000 11.143
26.89000 16.112
26.90000 19.424
26.91000 7.183
26.92000 9.088
26.93000 23.334
26.94000 14.117
26.95000 12.180
26.96000 16.217
26.97000 13.213
26.98000 10.111
26.99000 18.390
27.00000 18.352
27.01000 14.263
27.02000 14.187
27.03000 10.189
27.04000 13.216
27.05000 8.058
27.06000 13.189
27.07000 14.201
27.08000 15.156
27.09000 7.174
27.10000 14.233
27.11000 13.104
27.12000 10.152
27.13000 6.083
27.14000 9.057
27.15000 12.104
27.16000 8.025
27.17000 13.154
27.18000 8.071
27.19000 11.093
27.20000 12.159
27.21000 16.169
27.22000 16.191
27.23000 14.136
27.24000 18.064
27.25000 15.254
27.26000 9.075
27.27000 12.163
27.28000 16.123
27.29000 13.173
27.30000 12.351
27.31000 15.067
27.32000 9.108
27.33000 12.975
27.34000 10.115
27.35000 17.284
27.36000 16.276
27.37000 10.174
27.38000 9.033
27.39000 10.247
27.40000 8.104
27.41000 10.165
27.42000 18.269
27.43000 18.340
27.44000 15.221
27.45000 13.083
27.46000 13.265
27.47000 12.259
27.48000 7.965
27.49000 17.210
27.50000 11.097
27.51000 15.331
27.52000 12.151
27.53000 9.178
27.54000 13.226
27.55000 11.179
27.56000 14.341
27.57000 11.391
27.58000 8.072
27.59000 10.248
27.60000 16.238
27.61000 10.104
27.62000 12.103
27.63000 8.268
27.64000 9.981
27.65000 11.082
27.66000 23.243
27.67000 7.094
27.68000 15.349
27.69000 17.184
27.70000 10.079
27.71000 7.033
27.72000 10.057
27.73000 8.286
27.74000 20.122
27.75000 9.129
27.76000 13.165
27.77000 9.125
27.78000 15.183
27.79000 9.114
27.80000 12.209
27.81000 11.197
27.82000 17.290
27.83000 10.256
27.84000 15.119
27.85000 17.204
27.86000 10.272
27.87000 10.045
27.88000 15.245
27.89000 6.072
27.90000 10.207
27.91000 15.208
27.92000 12.062
27.93000 10.259
27.94000 9.182
27.95000 9.108
27.96000 14.166
27.97000 9.183
27.98000 12.195
27.99000 13.165
28.00000 11.028
28.01000 13.040
28.02000 14.121
28.03000 13.158
28.04000 11.282
28.05000 15.161
28.06000 13.165
28.07000 16.099
28.08000 8.082
28.09000 10.069
28.10000 11.208
28.11000 17.429
28.12000 8.079
28.13000 15.130
28.14000 13.229
28.15000 13.221
28.16000 4.047
28.17000 16.200
28.18000 11.178
28.19000 13.168
28.20000 8.094
28.21000 10.241
28.22000 14.271
28.23000 9.139
28.24000 13.244
28.25000 11.251
28.26000 10.354
28.27000 10.075
28.28000 11.190
28.29000 12.208
28.30000 11.287
28.31000 11.187
28.32000 10.111
28.33000 20.165
28.34000 18.216
28.35000 7.063
28.36000 14.318
28.37000 12.157
28.38000 9.172
28.39000 15.073
28.40000 11.040
28.41000 19.209
28.42000 12.180
28.43000 13.214
28.44000 8.108
28.45000 9.206
28.46000 6.106
28.47000 5.979
28.48000 5.111
28.49000 10.101
28.50000 11.131
28.51000 14.238
28.52000 12.223
28.53000 7.154
28.54000 14.195
28.55000 15.245
28.56000 9.157
28.57000 6.098
28.58000 16.171
28.59000 12.167
28.60000 9.065
28.61000 13.120
28.62000 12.242
28.63000 5.106
28.64000 12.153
28.65000 11.036
28.66000 2.948
28.67000 8.992
28.68000 14.286
28.69000 16.240
28.70000 9.175
28.71000 17.275
28.72000 8.208
28.73000 7.070
28.74000 10.174
28.75000 10.170
28.76000 16.255
28.77000 11.230
28.78000 12.031
28.79000 19.195
28.80000 6.082
28.81000 10.278
28.82000 8.144
28.83000 10.028
28.84000 12.164
28.85000 6.078
28.86000 6.057
28.87000 8.188
28.88000 6.121
28.89000 12.113
28.90000 6.037
28.91000 8.031
28.92000 12.000
28.93000 11.052
28.94000 13.102
28.95000 12.215
28.96000 8.112
28.97000 14.084
28.98000 12.197
28.99000 13.165
29.00000 6.000
29.01000 5.073
29.02000 11.199
29.03000 13.070
29.04000 9.085
29.05000 13.098
29.06000 6.112
29.07000 9.074
29.08000 5.967
29.09000 10.191
29.10000 10.200
29.11000 8.019
29.12000 8.218
29.13000 10.255
29.14000 15.140
29.15000 6.058
29.16000 15.210
29.17000 11.059
29.18000 13.136
29.19000 8.985
29.20000 8.142
29.21000 9.031
29.22000 12.105
29.23000 7.107
29.24000 11.193
29.25000 7.133
29.26000 6.975
29.27000 3.037
29.28000 11.253
29.29000 17.287
29.30000 7.141
29.31000 11.122
29.32000 9.982
29.33000 10.236
29.34000 8.200
29.35000 9.134
29.36000 9.092
29.37000 13.168
29.38000 8.078
29.39000 8.173
29.40000 15.298
29.41000 4.979
29.42000 5.048
29.43000 13.180
29.44000 6.059
29.45000 7.055
29.46000 13.106
29.47000 7.131
29.48000 13.139
29.49000 13.238
29.50000 12.039
29.51000 11.229
29.52000 14.232
29.53000 14.284
29.54000 9.171
29.55000 8.192
29.56000 10.032
29.57000 10.153
29.58000 10.029
29.59000 7.132
29.60000 10.041
29.61000 10.196
29.62000 12.141
29.63000 8.212
29.64000 7.174
29.65000 9.123
29.66000 7.123
29.67000 10.999
29.68000 8.148
29.69000 11.134
29.70000 9.012
29.71000 12.137
29.72000 6.110
29.73000 9.120
29.74000 12.170
29.75000 11.248
29.76000 10.174
29.77000 13.073
29.78000 13.238
29.79000 11.957
29.80000 13.280
29.81000 10.201
29.82000 10.202
29.83000 10.122
29.84000 14.428
29.85000 11.046
29.86000 6.044
29.87000 12.187
29.88000 10.258
29.89000 11.175
29.90000 12.180
29.91000 5.115
29.92000 8.152
29.93000 10.179
29.94000 7.142
29.95000 6.076
29.96000 3.097
29.97000 7.136
29.98000 9.104
29.99000 9.206
30.00000 12.168
30.01000 8.056
30.02000 8.112
30.03000 9.084
30.04000 15.122
30.05000 14.225
30.06000 6.026
30.07000 10.070
30.08000 16.295
30.09000 8.108
30.10000 11.169
30.11000 11.028
30.12000 9.036
30.13000 14.235
30.14000 13.124
30.15000 9.094
30.16000 14.247
30.17000 4.119
30.18000 10.117
30.19000 8.124
30.20000 11.071
30.21000 13.113
30.22000 9.141
30.23000 10.184
30.24000 16.234
30.25000 12.045
30.26000 11.132
30.27000 10.105
30.28000 10.032
30.29000 18.215
30.30000 8.069
30.31000 8.023
30.32000 6.984
30.33000 9.160
30.34000 13.031
30.35000 3.059
30.36000 12.228
30.37000 6.118
30.38000 15.187
30.39000 8.146
30.40000 9.143
30.41000 8.063
30.42000 12.041
30.43000 12.054
30.44000 7.970
30.45000 14.239
30.46000 7.158
30.47000 13.145
30.48000 10.095
30.49000 13.338
30.50000 7.986
30.51000 11.109
30.52000 13.181
30.53000 7.087
30.54000 10.081
30.55000 10.051
30.56000 5.035
30.57000 10.075
30.58000 7.067
30.59000 11.150
30.60000 11.117
30.61000 6.013
30.62000 8.196
30.63000 7.101
30.64000 8.133
30.65000 11.159
30.66000 6.131
30.67000 7.028
30.68000 10.021
30.69000 11.123
30.70000 8.029
30.71000 8.206
30.72000 10.216
30.73000 9.137
30.74000 8.005
30.75000 10.042
30.76000 6.037
30.77000 9.155
30.78000 7.038
30.79000 8.113
30.80000 7.043
30.81000 7.105
30.82000 7.044
30.83000 16.179
30.84000 10.133
30.85000 10.072
30.86000 8.043
30.87000 11.188
30.88000 12.129
30.89000 9.097
30.90000 8.023
30.91000 9.116
30.92000 12.101
30.93000 5.078
30.94000 14.200
30.95000 5.075
30.96000 7.211
30.97000 9.069
30.98000 4.956
30.99000 8.137
31.00000 10.118
31.01000 9.213
31.02000 17.327
31.03000 14.171
31.04000 7.109
31.05000 10.235
31.06000 5.077
31.07000 8.061
31.08000 7.080
31.09000 11.224
31.10000 13.070
31.11000 9.214
31.12000 8.134
31.13000 13.188
31.14000 4.136
31.15000 13.108
31.16000 13.061
31.17000 10.170
31.18000 8.103
31.19000 7.033
31.20000 14.106
31.21000 4.080
31.22000 14.231
31.23000 8.090
31.24000 10.128
31.25000 4.029
31.26000 6.086
31.27000 9.980
31.28000 5.069
31.29000 15.264
31.30000 5.009
31.31000 13.182
31.32000 4.992
31.33000 11.195
31.34000 6.031
31.35000 4.010
31.36000 9.107
31.37000 7.041
31.38000 11.223
31.39000 6.040
31.40000 8.166
31.41000 5.054
31.42000 11.226
31.43000 6.077
31.44000 10.206
31.45000 8.155
31.46000 6.073
31.47000 10.190
31.48000 5.966
31.49000 3.991
31.50000 5.070
31.51000 7.211
31.52000 7.148
31.53000 7.011
31.54000 11.150
31.55000 6.116
31.56000 7.149
31.57000 6.078
31.58000 8.172
31.59000 6.074
31.60000 9.160
31.61000 4.051
31.62000 13.295
31.63000 8.263
31.64000 5.150
31.65000 2.990
31.66000 8.045
31.67000 10.053
31.68000 12.149
31.69000 5.153
31.70000 3.032
31.71000 10.062
31.72000 5.069
31.73000 2.999
31.74000 11.014
31.75000 4.042
31.76000 6.114
31.77000 8.277
31.78000 6.029
31.79000 15.372
31.80000 8.085
31.81000 7.108
31.82000 6.057
31.83000 11.123
31.84000 8.152
31.85000 8.114
31.86000 9.130
31.87000 5.110
31.88000 14.131
31.89000 6.058
31.90000 7.159
31.91000 7.162
31.92000 8.183
31.93000 6.962
31.94000 6.119
31.95000 8.184
31.96000 7.177
31.97000 5.996
31.98000 12.182
31.99000 13.177
32.00000 7.063
32.01000 8.005
32.02000 8.176
32.03000 7.140
32.04000 5.049
32.05000 11.201
32.06000 7.179
32.07000 6.132
32.08000 8.181
32.09000 9.106
32.10000 5.982
32.11000 6.027
32.12000 7.063
32.13000 16.333
32.14000 10.162
32.15000 9.122
32.16000 9.101
32.17000 8.189
32.18000 10.164
32.19000 10.158
32.20000 5.997
32.21000 8.154
32.22000 6.048
32.23000 8.148
32.24000 8.087
32.25000 3.087
32.26000 5.042
32.27000 4.021
32.28000 3.047
32.29000 12.189
32.30000 3.987
32.31000 10.127
32.32000 7.072
32.33000 7.084
32.34000 6.056
32.35000 7.126
32.36000 2.991
32.37000 3.004
32.38000 7.062
32.39000 4.110
32.40000 6.128
32.41000 2.013
32.42000 11.095
32.43000 9.224
32.44000 6.046
32.45000 11.181
32.46000 7.102
32.47000 7.102
32.48000 6.140
32.49000 10.248
32.50000 4.030
32.51000 9.117
32.52000 10.140
32.53000 12.149
32.54000 5.103
32.55000 8.028
32.56000 8.196
32.57000 7.089
32.58000 9.274
32.59000 6.012
32.60000 6.114
32.61000 7.075
32.62000 4.008
32.63000 1.982
32.64000 10.161
32.65000 9.153
32.66000 10.080
32.67000 5.035
32.68000 12.159
32.69000 9.965
32.70000 4.136
32.71000 9.158
32.72000 8.187
32.73000 6.064
32.74000 10.162
32.75000 10.114
32.76000 9.968
32.77000 9.287
32.78000 9.181
32.79000 5.082
32.80000 10.194
32.81000 7.000
32.82000 6.128
32.83000 8.015
32.84000 4.027
32.85000 9.160
32.86000 9.108
32.87000 10.113
32.88000 6.068
32.89000 7.258
32.90000 5.055
32.91000 12.239
32.92000 8.105
32.93000 8.047
32.94000 7.125
32.95000 7.025
32.96000 8.112
32.97000 11.155
32.98000 6.096
32.99000 19.086
33.00000 12.256
33.01000 5.946
33.02000 5.089
33.03000 8.116
33.04000 9.170
33.05000 13.132
33.06000 10.168
33.07000 12.170
33.08000 5.018
33.09000 4.989
33.10000 10.163
33.11000 8.155
33.12000 6.086
33.13000 8.028
33.14000 6.081
33.15000 11.152
33.16000 7.030
33.17000 10.151
33.18000 7.041
33.19000 7.114
33.20000 7.032
33.21000 3.003
33.22000 5.082
33.23000 8.126
33.24000 4.073
33.25000 10.037
33.26000 6.084
33.27000 4.026
33.28000 10.164
33.29000 12.067
33.30000 7.077
33.31000 12.035
33.32000 5.149
33.33000 11.129
33.34000 7.987
33.35000 5.098
33.36000 3.014
33.37000 5.145
33.38000 4.066
33.39000 7.110
33.40000 6.080
33.41000 9.108
33.42000 4.015
33.43000 7.211
33.44000 9.069
33.45000 3.041
33.46000 6.072
33.47000 9.124
33.48000 4.091
33.49000 9.077
33.50000 9.179
33.51000 12.164
33.52000 4.060
33.53000 7.111
33.54000 7.017
33.55000 7.179
33.56000 8.115
33.57000 4.092
33.58000 8.075
33.59000 3.994
33.60000 8.095
33.61000 7.010
33.62000 8.160
33.63000 6.135
33.64000 9.138
33.65000 6.964
33.66000 9.209
33.67000 7.072
33.68000 8.232
33.69000 9.069
33.70000 7.012
33.71000 4.147
33.72000 2.040
33.73000 8.043
33.74000 11.061
33.75000 8.050
33.76000 11.141
33.77000 9.088
33.78000 9.015
33.79000 5.101
33.80000 5.072
33.81000 10.119
33.82000 7.158
33.83000 13.065
33.84000 4.145
33.85000 8.165
33.86000 8.008
33.87000 2.004
33.88000 5.077
33.89000 3.075
33.90000 4.981
33.91000 12.275
33.92000 5.086
33.93000 11.123
33.94000 7.148
33.95000 10.159
33.96000 9.119
33.97000 3.062
33.98000 13.170
33.99000 6.059
34.00000 2.027
34.01000 5.020
34.02000 7.174
34.03000 4.088
34.04000 3.004
34.05000 11.175
34.06000 6.151
34.07000 6.144
34.08000 7.045
34.09000 8.166
34.10000 3.129
34.11000 8.147
34.12000 9.193
34.13000 3.088
34.14000 4.081
34.15000 6.144
34.16000 5.092
34.17000 7.173
34.18000 8.104
34.19000 6.086
34.20000 2.087
34.21000 1.000
34.22000 9.132
34.23000 7.122
34.24000 9.053
34.25000 7.135
34.26000 6.190
34.27000 4.104
34.28000 13.060
34.29000 5.011
34.30000 9.014
34.31000 7.114
34.32000 6.038
34.33000 12.112
34.34000 3.974
34.35000 7.057
34.36000 5.248
34.37000 5.106
34.38000 8.079
34.39000 6.024
34.40000 6.175
34.41000 5.054
34.42000 8.192
34.43000 9.156
34.44000 13.291
34.45000 4.096
34.46000 8.111
34.47000 5.127
34.48000 12.315
34.49000 8.128
34.50000 3.961
34.51000 10.160
34.52000 5.019
34.53000 7.163
34.54000 8.147
34.55000 2.059
34.56000 5.131
34.57000 4.021
34.58000 5.124
34.59000 4.984
34.60000 3.987
34.61000 7.106
34.62000 4.079
34.63000 7.145
34.64000 6.079
34.65000 5.076
34.66000 7.074
34.67000 7.253
34.68000 6.046
34.69000 9.192
34.70000 3.047
34.71000 8.133
34.72000 3.037
34.73000 9.145
34.74000 8.034
34.75000 3.081
34.76000 6.989
34.77000 6.186
34.78000 8.096
34.79000 8.128
34.80000 8.017
34.81000 1.007
34.82000 7.041
34.83000 7.152
34.84000 9.000
34.85000 10.033
34.86000 3.996
34.87000 11.019
34.88000 5.072
34.89000 6.007
34.90000 6.058
34.91000 8.063
34.92000 4.020
34.93000 5.040
34.94000 3.008
34.95000 8.062
34.96000 8.110
34.97000 4.094
34.98000 2.040
34.99000 4.022
35.00000 8.047
35.01000 9.213
35.02000 2.061
35.03000 9.045
35.04000 6.047
35.05000 4.080
35.06000 8.986
35.07000 8.987
35.08000 4.076
35.09000 3.005
35.10000 5.039
35.11000 4.982
35.12000 11.997
35.13000 4.062
35.14000 5.048
35.15000 5.031
35.16000 7.065
35.17000 5.141
35.18000 7.100
35.19000 2.053
35.20000 10.231
35.21000 6.148
35.22000 2.048
35.23000 6.037
35.24000 6.099
35.25000 0.000
35.26000 5.943
35.27000 4.050
35.28000 7.059
35.29000 4.090
35.30000 5.079
35.31000 7.063
35.32000 5.958
35.33000 4.068
35.34000 6.095
35.35000 5.019
35.36000 3.039
35.37000 10.096
35.38000 8.074
35.39000 1.014
35.40000 10.134
35.41000 2.963
35.42000 4.993
35.43000 8.092
35.44000 13.371
35.45000 5.148
35.46000 6.100
35.47000 3.026
35.48000 3.075
35.49000 6.098
35.50000 3.011
35.51000 8.035
35.52000 7.055
35.53000 10.098
35.54000 5.149
35.55000 6.030
35.56000 3.007
35.57000 6.075
35.58000 8.183
35.59000 5.154
35.60000 5.075
35.61000 8.212
35.62000 3.040
35.63000 9.175
35.64000 9.082
35.65000 3.981
35.66000 4.153
35.67000 5.137
35.68000 3.037
35.69000 4.083
35.70000 2.026
35.71000 5.049
35.72000 7.067
35.73000 4.144
35.74000 5.109
35.75000 10.020
35.76000 6.077
35.77000 5.999
35.78000 9.065
35.79000 6.031
35.80000 4.017
35.81000 7.094
35.82000 6.084
35.83000 3.055
35.84000 7.059
35.85000 8.145
35.86000 3.083
35.87000 1.997
35.88000 1.963
35.89000 7.070
35.90000 3.980
35.91000 5.989
35.92000 0.988
35.93000 8.065
35.94000 3.998
35.95000 7.084
35.96000 2.012
35.97000 8.190
35.98000 8.188
35.99000 2.014
36.00000 6.211
36.01000 3.976
36.02000 5.067
36.03000 7.134
36.04000 5.112
36.05000 0.000
36.06000 5.992
36.07000 3.062
36.08000 5.104
36.09000 4.024
36.10000 12.125
36.11000 5.050
36.12000 6.012
36.13000 5.064
36.14000 6.078
36.15000 8.989
36.16000 2.073
36.17000 3.052
36.18000 8.207
36.19000 5.067
36.20000 7.081
36.21000 6.138
36.22000 4.021
36.23000 7.056
36.24000 9.961
36.25000 3.974
36.26000 7.001
36.27000 9.081
36.28000 11.190
36.29000 10.019
36.30000 4.021
36.31000 5.070
36.32000 2.049
36.33000 8.045
36.34000 4.981
36.35000 4.980
36.36000 5.039
36.37000 12.060
36.38000 5.088
36.39000 6.066
36.40000 6.118
36.41000 7.167
36.42000 9.173
36.43000 6.090
36.44000 3.998
36.45000 5.103
36.46000 11.097
36.47000 3.072
36.48000 6.097
36.49000 7.107
36.50000 5.119
36.51000 2.046
36.52000 6.105
36.53000 8.182
36.54000 8.078
36.55000 5.040
36.56000 10.094
36.57000 1.004
36.58000 9.089
36.59000 9.169
36.60000 6.050
36.61000 3.054
36.62000 9.117
36.63000 5.080
36.64000 5.063
36.65000 4.095
36.66000 3.008
36.67000 3.987
36.68000 11.017
36.69000 8.975
36.70000 6.168
36.71000 9.217
36.72000 3.036
36.73000 8.943
36.74000 5.053
36.75000 6.109
36.76000 4.056
36.77000 6.016
36.78000 3.084
36.79000 7.117
36.80000 2.997
36.81000 5.132
36.82000 4.020
36.83000 5.963
36.84000 6.132
36.85000 8.202
36.86000 9.088
36.87000 7.974
36.88000 6.060
36.89000 7.171
36.90000 5.059
36.91000 6.051
36.92000 7.154
36.93000 9.250
36.94000 0.981
36.95000 9.060
36.96000 5.012
36.97000 7.081
36.98000 5.064
36.99000 3.034
37.00000 2.068
37.01000 3.048
37.02000 4.074
37.03000 8.250
37.04000 5.118
37.05000 9.221
37.06000 12.183
37.07000 3.042
37.08000 6.205
37.09000 7.056
37.10000 9.087
37.11000 4.098
37.12000 5.125
37.13000 9.186
37.14000 5.134
37.15000 9.111
37.16000 9.109
37.17000 0.000
37.18000 1.998
37.19000 6.065
37.20000 7.010
37.21000 8.141
37.22000 4.022
37.23000 3.006
37.24000 1.990
37.25000 3.011
37.26000 13.311
37.27000 3.059
37.28000 8.157
37.29000 3.018
37.30000 6.024
37.31000 4.068
37.32000 5.048
37.33000 4.082
37.34000 8.120
37.35000 2.019
37.36000 4.079
37.37000 6.076
37.38000 6.039
37.39000 7.071
37.40000 3.045
37.41000 8.189
37.42000 5.106
37.43000 7.060
37.44000 1.986
37.45000 2.011
37.46000 6.061
37.47000 6.088
37.48000 3.999
37.49000 2.035
37.50000 2.055
37.51000 6.128
37.52000 4.083
37.53000 4.029
37.54000 14.077
37.55000 6.069
37.56000 2.019
37.57000 6.075
37.58000 3.076
37.59000 14.334
37.60000 7.120
37.61000 5.079
37.62000 3.995
37.63000 5.050
37.64000 7.106
37.65000 8.124
37.66000 3.062
37.67000 3.054
37.68000 4.059
37.69000 4.008
37.70000 6.128
37.71000 9.993
37.72000 5.163
37.73000 4.081
37.74000 7.138
37.75000 7.013
37.76000 4.120
37.77000 1.001
37.78000 3.044
37.79000 5.121
37.80000 2.020
37.81000 5.098
37.82000 4.021
37.83000 4.001
37.84000 5.040
37.85000 6.151
37.86000 6.028
37.87000 7.110
37.88000 5.070
37.89000 9.151
37.90000 5.042
37.91000 4.038
37.92000 4.034
37.93000 2.068
37.94000 2.036
37.95000 1.989
37.96000 3.017
37.97000 0.982
37.98000 5.086
37.99000 6.041
38.00000 2.992
38.01000 8.069
38.02000 4.013
38.03000 6.175
38.04000 2.967
38.05000 5.032
38.06000 4.040
38.07000 9.056
38.08000 2.951
38.09000 2.000
38.10000 1.000
38.11000 6.093
38.12000 10.167
38.13000 2.989
38.14000 5.970
38.15000 2.994
38.16000 5.217
38.17000 4.050
38.18000 6.056
38.19000 6.062
38.20000 4.064
38.21000 8.133
38.22000 7.043
38.23000 2.022
38.24000 6.124
38.25000 4.045
38.26000 9.091
38.27000 5.155
38.28000 7.045
38.29000 6.121
38.30000 2.994
38.31000 2.027
38.32000 11.101
38.33000 7.132
38.34000 3.992
38.35000 2.066
38.36000 11.214
38.37000 6.231
38.38000 5.095
38.39000 2.992
38.40000 6.085
38.41000 9.115
38.42000 1.006
38.43000 6.056
38.44000 5.036
38.45000 10.069
38.46000 3.995
38.47000 7.107
38.48000 7.104
38.49000 7.117
38.50000 5.978
38.51000 5.098
38.52000 4.091
38.53000 5.047
38.54000 4.105
38.55000 5.050
38.56000 3.010
38.57000 4.016
38.58000 8.078
38.59000 2.972
38.60000 2.075
38.61000 5.084
38.62000 5.019
38.63000 6.071
38.64000 10.178
38.65000 3.019
38.66000 1.007
38.67000 1.023
38.68000 4.042
38.69000 2.019
38.70000 7.096
38.71000 5.128
38.72000 2.059
38.73000 5.039
38.74000 7.042
38.75000 5.159
38.76000 6.099
38.77000 10.125
38.78000 3.044
38.79000 6.095
38.80000 4.137
38.81000 5.129
38.82000 3.024
38.83000 7.911
38.84000 3.025
38.85000 5.025
38.86000 7.087
38.87000 4.018
38.88000 5.202
38.89000 7.216
38.90000 6.087
38.91000 7.104
38.92000 2.036
38.93000 2.029
38.94000 2.014
38.95000 0.990
38.96000 7.058
38.97000 0.981
38.98000 7.160
38.99000 8.129
39.00000 4.039
39.01000 3.960
39.02000 5.169
39.03000 5.060
39.04000 4.091
39.05000 7.071
39.06000 1.007
39.07000 6.087
39.08000 3.079
39.09000 4.999
39.10000 4.023
39.11000 3.036
39.12000 5.042
39.13000 10.275
39.14000 1.023
39.15000 4.076
39.16000 4.022
39.17000 4.033
39.18000 4.084
39.19000 4.051
39.20000 10.129
39.21000 4.990
39.22000 4.005
39.23000 3.092
39.24000 5.004
39.25000 6.014
39.26000 5.081
39.27000 3.047
39.28000 7.069
39.29000 6.240
39.30000 6.122
39.31000 4.041
39.32000 1.013
39.33000 2.011
39.34000 4.066
39.35000 5.047
39.36000 8.047
39.37000 3.986
39.38000 7.140
39.39000 1.024
39.40000 4.032
39.41000 3.051
39.42000 4.044
39.43000 6.170
39.44000 9.061
39.45000 7.105
39.46000 10.006
39.47000 2.978
39.48000 4.074
39.49000 4.987
39.50000 6.092
39.51000 4.092
39.52000 7.241
39.53000 2.046
39.54000 5.033
39.55000 5.018
39.56000 5.102
39.57000 7.086
39.58000 3.122
39.59000 7.085
39.60000 3.031
39.61000 7.964
39.62000 3.999
39.63000 3.050
39.64000 6.033
39.65000 4.051
39.66000 4.067
39.67000 4.047
39.68000 10.050
39.69000 1.009
39.70000 0.000
39.71000 6.145
39.72000 5.017
39.73000 4.178
39.74000 4.100
39.75000 6.982
39.76000 5.109
39.77000 6.069
39.78000 18.291
39.79000 4.045
39.80000 12.087
39.81000 2.018
39.82000 0.985
39.83000 4.033
39.84000 3.040
39.85000 6.062
39.86000 7.154
39.87000 4.063
39.88000 4.044
39.89000 8.113
39.90000 4.067
39.91000 7.062
39.92000 5.105
39.93000 8.261
39.94000 1.007
39.95000 3.062
39.96000 8.243
39.97000 4.017
39.98000 3.985
39.99000 4.040
40.00000 6.094
40.01000 10.152
40.02000 4.073
40.03000 1.987
40.04000 5.071
40.05000 1.995
40.06000 3.007
40.07000 7.071
40.08000 9.115
40.09000 3.036
40.10000 4.054
40.11000 4.037
40.12000 10.202
40.13000 5.168
40.14000 7.039
40.15000 5.002
40.16000 4.073
40.17000 4.015
40.18000 4.997
40.19000 4.077
40.20000 8.169
40.21000 4.124
40.22000 5.123
40.23000 8.095
40.24000 12.170
40.25000 7.116
40.26000 1.044
40.27000 3.061
40.28000 3.026
40.29000 8.037
40.30000 5.056
40.31000 6.955
40.32000 5.020
40.33000 0.000
40.34000 7.079
40.35000 5.046
40.36000 5.015
40.37000 4.076
40.38000 4.128
40.39000 8.039
40.40000 2.969
40.41000 5.065
40.42000 6.031
40.43000 4.975
40.44000 1.000
40.45000 4.047
40.46000 8.175
40.47000 3.043
40.48000 4.076
40.49000 4.063
40.50000 3.037
40.51000 1.024
40.52000 2.036
40.53000 4.048
40.54000 4.027
40.55000 3.150
40.56000 5.055
40.57000 4.013
40.58000 7.035
40.59000 3.113
40.60000 7.035
40.61000 5.070
40.62000 3.038
40.63000 4.019
40.64000 5.063
40.65000 3.977
40.66000 5.022
40.67000 5.940
40.68000 7.151
40.69000 1.999
40.70000 6.027
40.71000 3.043
40.72000 3.081
40.73000 9.038
40.74000 4.057
40.75000 6.018
40.76000 6.039
40.77000 5.078
40.78000 11.266
40.79000 5.106
40.80000 5.112
40.81000 6.988
40.82000 6.141
40.83000 8.128
40.84000 5.037
40.85000 3.015
40.86000 2.035
40.87000 2.024
40.88000 5.087
40.89000 4.133
40.90000 4.962
40.91000 5.003
40.92000 7.249
40.93000 5.103
40.94000 5.065
40.95000 6.065
40.96000 4.030
40.97000 5.033
40.98000 2.060
40.99000 6.085
41.00000 5.076
41.01000 6.155
41.02000 3.023
41.03000 3.021
41.04000 4.118
41.05000 2.013
41.06000 4.977
41.07000 8.054
41.08000 7.289
41.09000 4.108
41.10000 4.043
41.11000 1.999
41.12000 5.129
41.13000 4.054
41.14000 2.025
41.15000 2.031
41.16000 3.021
41.17000 5.929
41.18000 4.028
41.19000 5.088
41.20000 4.036
41.21000 0.989
41.22000 2.034
41.23000 8.094
41.24000 7.054
41.25000 6.024
41.26000 7.036
41.27000 1.001
41.28000 2.076
41.29000 8.193
41.30000 2.039
41.31000 4.100
41.32000 3.011
41.33000 4.030
41.34000 2.019
41.35000 4.078
41.36000 6.054
41.37000 5.038
41.38000 3.004
41.39000 8.094
41.40000 4.065
41.41000 4.032
41.42000 7.059
41.43000 1.996
41.44000 2.013
41.45000 5.044
41.46000 5.042
41.47000 4.068
41.48000 5.050
41.49000 6.028
41.50000 7.065
41.51000 1.016
41.52000 7.048
41.53000 1.044
41.54000 8.143
41.55000 9.097
41.56000 2.002
41.57000 1.977
41.58000 2.006
41.59000 6.074
41.60000 4.072
41.61000 4.094
41.62000 6.002
41.63000 0.969
41.64000 11.061
41.65000 5.118
41.66000 1.969
41.67000 9.063
41.68000 8.134
41.69000 5.069
41.70000 5.078
41.71000 7.080
41.72000 1.049
41.73000 4.020
41.74000 4.998
41.75000 4.987
41.76000 3.076
41.77000 2.004
41.78000 3.007
41.79000 5.148
41.80000 3.020
41.81000 4.092
41.82000 9.197
41.83000 4.006
41.84000 7.050
41.85000 6.052
41.86000 3.046
41.87000 1.074
41.88000 7.093
41.89000 2.078
41.90000 7.999
41.91000 6.066
41.92000 9.042
41.93000 6.016
41.94000 4.046
41.95000 2.992
41.96000 2.055
41.97000 6.106
41.98000 5.978
41.99000 6.057
42.00000 2.103
42.01000 4.074
42.02000 3.070
42.03000 2.000
42.04000 3.988
42.05000 1.012
42.06000 0.000
42.07000 5.127
42.08000 5.107
42.09000 5.027
42.10000 3.051
42.11000 3.046
42.12000 7.167
42.13000 2.016
42.14000 5.086
42.15000 5.057
42.16000 3.037
42.17000 7.070
42.18000 4.030
42.19000 4.023
42.20000 5.016
42.21000 1.011
42.22000 4.039
42.23000 4.105
42.24000 7.163
42.25000 2.966
42.26000 5.089
42.27000 4.093
42.28000 5.027
42.29000 0.000
42.30000 2.016
42.31000 4.103
42.32000 1.996
42.33000 5.180
42.34000 7.019
42.35000 5.107
42.36000 3.074
42.37000 4.039
42.38000 1.957
42.39000 3.054
42.40000 2.034
42.41000 1.047
42.42000 3.027
42.43000 4.011
42.44000 5.023
42.45000 0.000
42.46000 3.965
42.47000 3.011
42.48000 8.106
42.49000 4.947
42.50000 1.011
42.51000 3.049
42.52000 1.027
42.53000 5.015
42.54000 5.123
42.55000 4.054
42.56000 5.070
42.57000 2.008
42.58000 3.017
42.59000 4.019
42.60000 1.007
42.61000 1.973
42.62000 7.157
42.63000 7.095
42.64000 3.064
42.65000 9.026
42.66000 6.072
42.67000 6.044
42.68000 5.055
42.69000 4.065
42.70000 2.951
42.71000 6.092
42.72000 4.159
42.73000 3.037
42.74000 8.015
42.75000 2.025
42.76000 6.182
42.77000 1.041
42.78000 4.064
42.79000 10.180
42.80000 2.998
42.81000 2.016
42.82000 5.066
42.83000 4.968
42.84000 2.990
42.85000 2.043
42.86000 3.066
42.87000 3.009
42.88000 8.072
42.89000 5.132
42.90000 0.000
42.91000 2.059
42.92000 3.131
42.93000 4.155
42.94000 2.991
42.95000 6.001
42.96000 6.147
42.97000 0.000
42.98000 4.024
42.99000 8.000
43.00000 6.021
43.01000 2.065
43.02000 5.114
43.03000 2.019
43.04000 3.033
43.05000 2.002
43.06000 0.000
43.07000 7.124
43.08000 2.004
43.09000 0.975
43.10000 1.037
43.11000 2.052
43.12000 4.093
43.13000 5.073
43.14000 0.980
43.15000 1.021
43.16000 2.999
43.17000 2.025
43.18000 3.072
43.19000 5.054
43.20000 4.049
43.21000 4.037
43.22000 2.008
43.23000 3.116
43.24000 1.992
43.25000 5.099
43.26000 2.024
43.27000 2.069
43.28000 4.009
43.29000 4.042
43.30000 8.080
43.31000 4.009
43.32000 0.000
43.33000 2.981
43.34000 1.002
43.35000 1.990
43.36000 4.075
43.37000 2.966
43.38000 4.147
43.39000 3.051
43.40000 5.110
43.41000 4.999
43.42000 0.999
43.43000 7.972
43.44000 4.094
43.45000 9.132
43.46000 3.015
43.47000 1.023
43.48000 12.093
43.49000 5.113
43.50000 7.005
43.51000 7.052
43.52000 3.043
43.53000 2.978
43.54000 3.027
43.55000 4.115
43.56000 8.985
43.57000 3.024
43.58000 3.995
43.59000 7.129
43.60000 3.047
43.61000 4.071
43.62000 6.040
43.63000 2.049
43.64000 4.060
43.65000 5.100
43.66000 2.997
43.67000 1.028
43.68000 0.000
43.69000 4.056
43.70000 6.123
43.71000 6.065
43.72000 3.052
43.73000 3.001
43.74000 4.034
43.75000 3.091
43.76000 3.038
43.77000 5.078
43.78000 3.008
43.79000 4.062
43.80000 3.038
43.81000 2.043
43.82000 2.984
43.83000 2.055
43.84000 2.032
43.85000 8.231
43.86000 0.999
43.87000 4.057
43.88000 6.998
43.89000 2.987
43.90000 2.007
43.91000 4.139
43.92000 5.109
43.93000 5.135
43.94000 3.027
43.95000 3.083
43.96000 1.015
43.97000 4.102
43.98000 3.114
43.99000 1.986
44.00000 3.025
44.01000 4.013
44.02000 6.023
44.03000 1.990
44.04000 4.064
44.05000 2.033
44.06000 2.994
44.07000 6.123
44.08000 7.122
44.09000 4.096
44.10000 6.121
44.11000 4.056
44.12000 2.027
44.13000 7.973
44.14000 2.067
44.15000 7.132
44.16000 6.119
44.17000 2.988
44.18000 3.041
44.19000 3.076
44.20000 10.056
44.21000 1.000
44.22000 5.071
44.23000 3.080
44.24000 0.998
44.25000 4.096
44.26000 3.109
44.27000 5.184
44.28000 2.110
44.29000 5.049
44.30000 0.996
44.31000 2.008
44.32000 1.045
44.33000 3.043
44.34000 5.024
44.35000 5.102
44.36000 3.045
44.37000 4.049
44.38000 4.057
44.39000 4.051
44.40000 4.039
44.41000 6.138
44.42000 2.062
44.43000 2.016
44.44000 3.043
44.45000 2.100
44.46000 7.148
44.47000 3.006
44.48000 1.990
44.49000 0.975
44.50000 5.142
44.51000 2.026
44.52000 6.028
44.53000 1.034
44.54000 2.098
44.55000 1.014
44.56000 4.115
44.57000 4.020
44.58000 3.992
44.59000 3.068
44.60000 1.005
44.61000 1.989
44.62000 3.040
44.63000 5.019
44.64000 2.038
44.65000 5.029
44.66000 0.999
44.67000 4.133
44.68000 4.100
44.69000 3.147
44.70000 6.099
44.71000 3.117
44.72000 9.092
44.73000 3.957
44.74000 3.102
44.75000 2.990
44.76000 2.038
44.77000 3.000
44.78000 3.095
44.79000 5.067
44.80000 4.019
44.81000 3.021
44.82000 1.015
44.83000 1.029
44.84000 5.150
44.85000 2.001
44.86000 2.004
44.87000 3.008
44.88000 2.034
44.89000 1.047
44.90000 6.038
44.91000 2.978
44.92000 4.001
44.93000 4.032
44.94000 3.034
44.95000 0.991
44.96000 6.062
44.97000 5.121
44.98000 2.008
44.99000 1.989
45.00000 2.997
45.01000 8.034
45.02000 5.949
45.03000 0.000
45.04000 1.044
45.05000 0.000
45.06000 3.033
45.07000 2.033
45.08000 4.987
45.09000 5.093
45.10000 3.034
45.11000 10.147
45.12000 3.111
45.13000 4.113
45.14000 4.987
45.15000 4.047
45.16000 1.983
45.17000 3.039
45.18000 5.041
45.19000 1.012
45.20000 4.984
45.21000 2.029
45.22000 3.037
45.23000 4.062
45.24000 1.994
45.25000 3.067
45.26000 3.083
45.27000 5.167
45.28000 8.229
45.29000 7.164
45.30000 4.076
45.31000 3.035
45.32000 4.091
45.33000 2.018
45.34000 5.061
45.35000 2.976
45.36000 1.995
45.37000 4.076
45.38000 4.024
45.39000 4.114
45.40000 6.032
45.41000 3.098
45.42000 0.988
45.43000 6.095
45.44000 5.104
45.45000 3.001
45.46000 2.979
45.47000 1.063
45.48000 7.964
45.49000 4.043
45.50000 2.070
45.51000 0.000
45.52000 5.052
45.53000 2.080
45.54000 2.044
45.55000 2.035
45.56000 1.003
45.57000 5.032
45.58000 2.015
45.59000 2.014
45.60000 9.079
45.61000 3.032
45.62000 4.032
45.63000 1.981
45.64000 4.050
45.65000 3.012
45.66000 1.030
45.67000 2.983
45.68000 4.062
45.69000 3.073
45.70000 1.976
45.71000 3.065
45.72000 4.142
45.73000 3.070
45.74000 2.995
45.75000 3.076
45.76000 1.072
45.77000 3.081
45.78000 1.012
45.79000 3.075
45.80000 0.985
45.81000 4.031
45.82000 0.000
45.83000 1.987
45.84000 6.044
45.85000 1.010
45.86000 2.007
45.87000 3.004
45.88000 3.020
45.89000 3.068
45.90000 5.052
45.91000 6.070
45.92000 1.005
45.93000 3.084
45.94000 0.989
45.95000 4.056
45.96000 3.088
45.97000 2.069
45.98000 5.106
45.99000 1.030
46.00000 9.089
46.01000 3.993
46.02000 8.160
46.03000 3.036
46.04000 3.061
46.05000 1.971
46.06000 2.025
46.07000 5.012
46.08000 5.016
46.09000 4.117
46.10000 2.074
46.11000 4.050
46.12000 6.187
46.13000 5.094
46.14000 3.141
46.15000 4.009
46.16000 4.003
46.17000 2.042
46.18000 2.059
46.19000 1.016
46.20000 2.952
46.21000 0.983
46.22000 0.000
46.23000 6.086
46.24000 7.066
46.25000 4.028
46.26000 2.012
46.27000 1.992
46.28000 1.056
46.29000 1.058
46.30000 1.045
46.31000 1.065
46.32000 3.046
46.33000 3.953
46.34000 3.986
46.35000 4.968
46.36000 2.035
46.37000 2.028
46.38000 4.069
46.39000 0.000
46.40000 2.979
46.41000 0.986
46.42000 3.060
46.43000 0.986
46.44000 4.086
46.45000 2.020
46.46000 0.989
46.47000 3.022
46.48000 5.039
46.49000 3.042
46.50000 0.000
46.51000 2.969
46.52000 2.004
46.53000 3.096
46.54000 3.019
46.55000 2.015
46.56000 2.971
46.57000 5.016
46.58000 6.170
46.59000 2.010
46.60000 5.027
46.61000 6.009
46.62000 3.080
46.63000 4.022
46.64000 1.006
46.65000 2.058
46.66000 4.064
46.67000 5.017
46.68000 7.061
46.69000 2.092
46.70000 0.992
46.71000 2.017
46.72000 3.038
46.73000 3.051
46.74000 3.037
46.75000 3.067
46.76000 5.152
46.77000 5.020
46.78000 5.108
46.79000 3.003
46.80000 6.065
46.81000 2.046
46.82000 7.141
46.83000 5.038
46.84000 0.000
46.85000 0.000
46.86000 2.059
46.87000 2.042
46.88000 2.026
46.89000 2.065
46.90000 3.060
46.91000 2.978
46.92000 1.995
46.93000 3.016
46.94000 2.963
46.95000 3.022
46.96000 5.062
46.97000 2.072
46.98000 1.024
46.99000 5.047
47.00000 3.068
47.01000 4.073
47.02000 4.108
47.03000 5.998
47.04000 5.063
47.05000 4.101
47.06000 9.133
47.07000 1.975
47.08000 4.033
47.09000 1.048
47.10000 4.033
47.11000 5.125
47.12000 6.059
47.13000 3.999
47.14000 3.023
47.15000 5.143
47.16000 4.117
47.17000 5.170
47.18000 0.000
47.19000 6.102
47.20000 6.045
47.21000 7.056
47.22000 4.074
47.23000 0.974
47.24000 3.086
47.25000 2.041
47.26000 2.066
47.27000 2.035
47.28000 1.000
47.29000 0.988
47.30000 1.025
47.31000 1.991
47.32000 7.146
47.33000 3.010
47.34000 0.000
47.35000 1.018
47.36000 3.034
47.37000 2.981
47.38000 3.040
47.39000 4.040
47.40000 2.090
47.41000 6.097
47.42000 2.048
47.43000 0.000
47.44000 2.012
47.45000 6.912
47.46000 4.079
47.47000 4.082
47.48000 0.992
47.49000 1.973
47.50000 1.985
47.51000 3.995
47.52000 2.034
47.53000 2.999
47.54000 1.041
47.55000 4.013
47.56000 3.018
47.57000 1.984
47.58000 1.020
47.59000 6.126
47.60000 4.980
47.61000 5.066
47.62000 1.976
47.63000 3.061
47.64000 3.020
47.65000 3.969
47.66000 3.112
47.67000 7.075
47.68000 4.000
47.69000 3.055
47.70000 5.051
47.71000 2.988
47.72000 1.992
47.73000 1.013
47.74000 2.024
47.75000 3.040
47.76000 3.999
47.77000 1.995
47.78000 1.029
47.79000 3.955
47.80000 4.107
47.81000 5.068
47.82000 3.071
47.83000 2.081
47.84000 3.086
47.85000 2.050
47.86000 7.018
47.87000 0.991
47.88000 2.019
47.89000 2.051
47.90000 2.019
47.91000 0.995
47.92000 3.062
47.93000 3.089
47.94000 0.998
47.95000 5.071
47.96000 3.067
47.97000 4.068
47.98000 6.083
47.99000 2.002
48.00000 7.108
48.01000 2.017
48.02000 6.026
48.03000 1.972
48.04000 1.997
48.05000 4.089
48.06000 4.003
48.07000 4.106
48.08000 2.069
48.09000 4.124
48.10000 2.995
48.11000 5.100
48.12000 3.104
48.13000 6.135
48.14000 1.030
48.15000 4.986
48.16000 2.023
48.17000 4.016
48.18000 1.024
48.19000 4.032
48.20000 6.115
48.21000 2.024
48.22000 2.053
48.23000 5.106
48.24000 2.031
48.25000 5.024
48.26000 1.022
48.27000 1.013
48.28000 0.000
48.29000 4.937
48.30000 2.961
48.31000 3.047
48.32000 2.041
48.33000 2.029
48.34000 3.074
48.35000 1.039
48.36000 2.063
48.37000 7.138
48.38000 2.043
48.39000 4.000
48.40000 3.034
48.41000 4.049
48.42000 0.000
48.43000 6.083
48.44000 0.000
48.45000 6.063
48.46000 5.068
48.47000 5.069
48.48000 2.994
48.49000 0.000
48.50000 2.052
48.51000 0.000
48.52000 2.967
48.53000 3.953
48.54000 1.022
48.55000 2.052
48.56000 1.991
48.57000 4.041
48.58000 1.994
48.59000 1.023
48.60000 5.078
48.61000 7.968
48.62000 3.042
48.63000 0.990
48.64000 4.055
48.65000 3.008
48.66000 6.122
48.67000 4.993
48.68000 3.961
48.69000 5.116
48.70000 4.072
48.71000 2.049
48.72000 3.097
48.73000 2.022
48.74000 2.053
48.75000 4.092
48.76000 2.103
48.77000 0.989
48.78000 2.069
48.79000 5.118
48.80000 2.021
48.81000 2.101
48.82000 5.032
48.83000 0.985
48.84000 5.072
48.85000 3.064
48.86000 0.000
48.87000 0.000
48.88000 5.057
48.89000 0.989
48.90000 3.966
48.91000 1.978
48.92000 2.997
48.93000 2.005
48.94000 2.995
48.95000 1.018
48.96000 5.110
48.97000 3.053
48.98000 0.987
48.99000 1.016
49.00000 1.046
49.01000 5.064
49.02000 3.977
49.03000 2.071
49.04000 0.000
49.05000 0.000
49.06000 1.012
49.07000 2.001
49.08000 2.036
49.09000 4.116
49.10000 3.079
49.11000 3.032
49.12000 4.972
49.13000 3.988
49.14000 4.103
49.15000 1.978
49.16000 6.112
49.17000 2.028
49.18000 2.992
49.19000 1.020
49.20000 2.043
49.21000 2.030
49.22000 3.000
49.23000 3.986
49.24000 2.033
49.25000 2.038
49.26000 3.068
49.27000 0.996
49.28000 2.044
49.29000 0.993
49.30000 4.198
49.31000 5.047
49.32000 2.091
49.33000 3.033
49.34000 2.013
49.35000 3.004
49.36000 4.010
49.37000 4.037
49.38000 5.095
49.39000 1.043
49.40000 1.026
49.41000 6.074
49.42000 0.966
49.43000 2.027
49.44000 2.058
49.45000 1.997
49.46000 3.018
49.47000 2.033
49.48000 2.091
49.49000 3.101
49.50000 0.000
49.51000 5.113
49.52000 2.014
49.53000 6.074
49.54000 0.000
49.55000 3.017
49.56000 1.004
49.57000 3.090
49.58000 3.019
49.59000 4.027
49.60000 2.991
49.61000 3.105
49.62000 0.000
49.63000 6.074
49.64000 4.030
49.65000 4.075
49.66000 3.006
49.67000 6.076
49.68000 4.070
49.69000 2.024
49.70000 3.954
49.71000 2.010
49.72000 6.031
49.73000 2.003
49.74000 4.028
49.75000 1.001
49.76000 4.110
49.77000 1.013
49.78000 1.982
49.79000 2.074
49.80000 3.971
49.81000 4.005
49.82000 6.135
49.83000 2.042
49.84000 1.009
49.85000 2.073
49.86000 1.060
49.87000 3.947
49.88000 2.037
49.89000 6.086
49.90000 3.049
49.91000 1.030
49.92000 6.013
49.93000 0.984
49.94000 1.997
49.95000 2.008
49.96000 3.985
49.97000 4.033
49.98000 3.043
49.99000 2.054
50.00000 3.054
50.01000 1.046
50.02000 1.087
50.03000 3.989
50.04000 1.025
50.05000 1.983
50.06000 4.084
50.07000 1.003
50.08000 0.983
50.09000 2.956
50.10000 3.044
50.11000 2.037
50.12000 0.979
50.13000 0.977
50.14000 1.048
50.15000 0.996
50.16000 2.052
50.17000 0.987
50.18000 2.040
50.19000 1.008
50.20000 2.025
50.21000 4.100
50.22000 0.000
50.23000 1.029
50.24000 4.081
50.25000 4.102
50.26000 1.964
50.27000 3.005
50.28000 4.081
50.29000 3.062
50.30000 5.988
50.31000 3.004
50.32000 3.000
50.33000 4.095
50.34000 3.006
50.35000 1.990
50.36000 1.063
50.37000 3.983
50.38000 1.021
50.39000 4.118
50.40000 3.010
50.41000 4.031
50.42000 3.025
50.43000 1.010
50.44000 2.005
50.45000 1.045
50.46000 4.104
50.47000 0.000
50.48000 5.010
50.49000 4.985
50.50000 5.060
50.51000 3.053
50.52000 1.005
50.53000 1.016
50.54000 2.058
50.55000 2.986
50.56000 2.966
50.57000 2.027
50.58000 4.053
50.59000 6.116
50.60000 1.041
50.61000 2.049
50.62000 3.003
50.63000 5.095
50.64000 1.001
50.65000 4.083
50.66000 5.046
50.67000 7.069
50.68000 1.998
50.69000 2.069
50.70000 3.094
50.71000 3.086
50.72000 3.024
50.73000 3.039
50.74000 2.058
50.75000 5.003
50.76000 2.008
50.77000 4.985
50.78000 0.978
50.79000 2.033
50.80000 2.987
50.81000 1.061
50.82000 1.024
50.83000 0.985
50.84000 3.024
50.85000 3.000
50.86000 0.000
50.87000 4.022
50.88000 6.981
50.89000 7.063
50.90000 2.022
50.91000 2.986
50.92000 2.021
50.93000 2.128
50.94000 0.000
50.95000 1.030
50.96000 2.026
50.97000 0.000
50.98000 0.990
50.99000 2.020
51.00000 2.994
51.01000 2.028
51.02000 2.056
51.03000 1.023
51.04000 0.000
51.05000 0.995
51.06000 7.016
51.07000 6.101
51.08000 5.087
51.09000 4.077
51.10000 2.030
51.11000 1.039
51.12000 1.029
51.13000 2.001
51.14000 2.964
51.15000 3.017
51.16000 6.109
51.17000 8.107
51.18000 2.988
51.19000 1.970
51.20000 2.030
51.21000 3.104
51.22000 6.047
51.23000 3.023
51.24000 3.002
51.25000 3.085
51.26000 2.981
51.27000 6.189
51.28000 5.024
51.29000 2.074
51.30000 3.028
51.31000 4.043
51.32000 4.023
51.33000 0.977
51.34000 2.019
51.35000 3.025
51.36000 5.093
51.37000 8.053
51.38000 5.021
51.39000 1.987
51.40000 5.044
51.41000 4.033
51.42000 3.033
51.43000 0.000
51.44000 6.089
51.45000 0.000
51.46000 0.979
51.47000 4.080
51.48000 0.992
51.49000 0.980
51.50000 3.074
51.51000 4.045
51.52000 2.033
51.53000 0.000
51.54000 3.003
51.55000 5.119
51.56000 2.080
51.57000 4.001
51.58000 8.094
51.59000 5.035
51.60000 2.014
51.61000 4.055
51.62000 4.039
51.63000 1.992
51.64000 2.030
51.65000 2.146
51.66000 2.038
51.67000 2.080
51.68000 2.033
51.69000 5.074
51.70000 3.056
51.71000 4.046
51.72000 0.000
51.73000 4.028
51.74000 4.057
51.75000 1.041
51.76000 4.094
51.77000 2.995
51.78000 5.995
51.79000 7.113
51.80000 3.028
51.81000 2.025
51.82000 1.024
51.83000 4.050
51.84000 2.024
51.85000 1.985
51.86000 2.063
51.87000 8.014
51.88000 2.026
51.89000 1.047
51.90000 3.084
51.91000 2.991
51.92000 2.018
51.93000 2.013
51.94000 7.118
51.95000 5.042
51.96000 2.006
51.97000 2.013
51.98000 0.000
51.99000 4.003
52.00000 2.002
52.01000 1.966
52.02000 0.976
52.03000 4.025
52.04000 4.045
52.05000 5.029
52.06000 3.095
52.07000 1.985
52.08000 1.986
52.09000 1.003
52.10000 3.014
52.11000 2.018
52.12000 1.992
52.13000 1.968
52.14000 6.142
52.15000 1.000
52.16000 4.037
52.17000 4.098
52.18000 3.078
52.19000 4.113
52.20000 1.012
52.21000 1.001
52.22000 2.065
52.23000 3.001
52.24000 1.024
52.25000 0.000
52.26000 0.987
52.27000 4.998
52.28000 2.029
52.29000 0.997
52.30000 0.000
52.31000 1.020
52.32000 5.037
52.33000 5.038
52.34000 2.980
52.35000 5.078
52.36000 1.030
52.37000 1.999
52.38000 1.023
52.39000 0.998
52.40000 2.024
52.41000 3.041
52.42000 1.036
52.43000 2.069
52.44000 4.085
52.45000 2.011
52.46000 3.096
52.47000 1.020
52.48000 0.995
52.49000 7.082
52.50000 3.051
52.51000 6.087
52.52000 1.035
52.53000 1.003
52.54000 5.024
52.55000 5.044
52.56000 5.038
52.57000 1.035
52.58000 1.009
52.59000 4.059
52.60000 1.998
52.61000 2.040
52.62000 0.000
52.63000 5.017
52.64000 2.017
52.65000 1.973
52.66000 3.069
52.67000 3.039
52.68000 0.988
52.69000 1.999
52.70000 0.980
52.71000 3.043
52.72000 3.096
52.73000 3.047
52.74000 0.981
52.75000 4.037
52.76000 4.004
52.77000 0.000
52.78000 2.005
52.79000 3.052
52.80000 3.021
52.81000 4.003
52.82000 2.019
52.83000 9.240
52.84000 1.986
52.85000 1.063
52.86000 0.994
52.87000 5.026
52.88000 2.095
52.89000 3.046
52.90000 2.000
52.91000 1.981
52.92000 1.997
52.93000 2.090
52.94000 3.076
52.95000 5.187
52.96000 0.987
52.97000 1.016
52.98000 0.000
52.99000 0.989
53.00000 0.000
53.01000 4.056
53.02000 2.983
53.03000 2.981
53.04000 3.047
53.05000 1.982
53.06000 3.082
53.07000 7.113
53.08000 0.000
53.09000 0.982
53.10000 1.016
53.11000 4.112
53.12000 1.019
53.13000 1.993
53.14000 0.000
53.15000 3.081
53.16000 4.073
53.17000 2.005
53.18000 3.068
53.19000 4.082
53.20000 3.000
53.21000 2.961
53.22000 0.982
53.23000 2.074
53.24000 0.000
53.25000 1.983
53.26000 1.018
53.27000 3.026
53.28000 1.011
53.29000 4.042
53.30000 1.024
53.31000 1.024
53.32000 4.991
53.33000 0.993
53.34000 0.000
53.35000 3.052
53.36000 5.091
53.37000 4.999
53.38000 2.043
53.39000 0.000
53.40000 3.992
53.41000 3.958
53.42000 4.117
53.43000 3.029
53.44000 2.045
53.45000 0.000
53.46000 4.055
53.47000 3.053
53.48000 0.994
53.49000 0.984
53.50000 5.061
53.51000 2.038
53.52000 0.997
53.53000 1.990
53.54000 5.065
53.55000 2.999
53.56000 2.986
53.57000 2.007
53.58000 2.041
53.59000 2.024
53.60000 3.045
53.61000 1.002
53.62000 2.036
53.63000 4.035
53.64000 4.096
53.65000 2.000
53.66000 1.056
53.67000 2.049
53.68000 4.055
53.69000 4.040
53.70000 0.994
53.71000 4.021
53.72000 3.007
53.73000 4.026
53.74000 2.016
53.75000 0.984
53.76000 4.048
53.77000 1.052
53.78000 3.081
53.79000 0.989
53.80000 2.074
53.81000 1.051
53.82000 5.015
53.83000 0.986
53.84000 3.045
53.85000 7.165
53.86000 0.000
53.87000 1.050
53.88000 0.000
53.89000 4.117
53.90000 2.043
53.91000 3.000
53.92000 2.026
53.93000 3.122
53.94000 4.051
53.95000 3.051
53.96000 4.039
53.97000 3.989
53.98000 4.050
53.99000 0.000
54.00000 4.134
54.01000 2.011
54.02000 3.044
54.03000 4.042
54.04000 3.023
54.05000 0.000
54.06000 2.007
54.07000 4.102
54.08000 0.000
54.09000 4.092
54.10000 2.071
54.11000 2.047
54.12000 3.034
54.13000 1.997
54.14000 2.043
54.15000 3.957
54.16000 5.114
54.17000 1.014
54.18000 2.957
54.19000 4.078
54.20000 3.080
54.21000 1.058
54.22000 3.077
54.23000 1.977
54.24000 4.078
54.25000 5.064
54.26000 2.028
54.27000 1.005
54.28000 0.996
54.29000 0.000
54.30000 3.047
54.31000 1.990
54.32000 0.998
54.33000 0.996
54.34000 3.980
54.35000 0.000
54.36000 1.005
54.37000 1.004
54.38000 2.006
54.39000 2.066
54.40000 3.969
54.41000 1.063
54.42000 5.041
54.43000 2.072
54.44000 4.058
54.45000 4.074
54.46000 4.017
54.47000 2.056
54.48000 2.998
54.49000 4.055
54.50000 3.027
54.51000 5.064
54.52000 2.034
54.53000 4.012
54.54000 4.073
54.55000 6.099
54.56000 2.043
54.57000 2.078
54.58000 1.996
54.59000 3.004
54.60000 6.038
54.61000 4.058
54.62000 1.999
54.63000 0.000
54.64000 1.041
54.65000 6.045
54.66000 4.051
54.67000 0.996
54.68000 6.117
54.69000 2.949
54.70000 1.008
54.71000 3.046
54.72000 2.019
54.73000 2.027
54.74000 1.990
54.75000 1.014
54.76000 5.057
54.77000 7.178
54.78000 5.037
54.79000 2.078
54.80000 2.009
54.81000 4.019
54.82000 3.999
54.83000 2.037
54.84000 4.151
54.85000 2.039
54.86000 0.000
54.87000 4.063
54.88000 0.000
54.89000 3.022
54.90000 2.029
54.91000 2.067
54.92000 3.062
54.93000 2.086
54.94000 3.021
54.95000 3.000
54.96000 2.006
54.97000 1.009
54.98000 3.942
54.99000 1.053
55.00000 3.086
55.01000 1.020
55.02000 1.019
55.03000 3.077
55.04000 3.013
55.05000 2.079
55.06000 1.972
55.07000 5.039
55.08000 4.124
55.09000 2.024
55.10000 0.000
55.11000 0.993
55.12000 8.068
55.13000 0.000
55.14000 4.102
55.15000 2.024
55.16000 3.011
55.17000 1.009
55.18000 2.035
55.19000 4.076
55.20000 3.011
55.21000 2.985
55.22000 0.000
55.23000 0.000
55.24000 2.062
55.25000 4.061
55.26000 0.970
55.27000 3.989
55.28000 1.995
55.29000 1.017
55.30000 0.000
55.31000 4.023
55.32000 2.018
55.33000 3.016
55.34000 3.989
55.35000 0.000
55.36000 1.039
55.37000 0.998
55.38000 0.000
55.39000 2.120
55.40000 0.996
55.41000 3.055
55.42000 3.047
55.43000 2.028
55.44000 4.030
55.45000 3.054
55.46000 2.008
55.47000 5.044
55.48000 6.084
55.49000 2.035
55.50000 3.038
55.51000 3.033
55.52000 2.997
55.53000 2.018
55.54000 0.000
55.55000 3.041
55.56000 4.088
55.57000 1.019
55.58000 3.073
55.59000 2.082
55.60000 0.000
55.61000 5.054
55.62000 2.998
55.63000 1.964
55.64000 1.045
55.65000 5.045
55.66000 0.000
55.67000 1.997
55.68000 1.999
55.69000 3.055
55.70000 4.071
55.71000 7.127
55.72000 3.016
55.73000 0.000
55.74000 3.049
55.75000 2.035
55.76000 0.000
55.77000 0.000
55.78000 3.030
55.79000 6.066
55.80000 3.012
55.81000 0.990
55.82000 2.967
55.83000 1.000
55.84000 3.023
55.85000 2.993
55.86000 1.046
55.87000 2.019
55.88000 1.967
55.89000 3.014
55.90000 3.070
55.91000 1.968
55.92000 3.986
55.93000 2.023
55.94000 2.947
55.95000 1.988
55.96000 3.054
55.97000 2.037
55.98000 3.987
55.99000 2.074
56.00000 0.994
56.01000 2.040
56.02000 3.062
56.03000 4.004
56.04000 2.035
56.05000 0.000
56.06000 4.057
56.07000 1.012
56.08000 1.971
56.09000 0.000
56.10000 0.000
56.11000 0.000
56.12000 2.028
56.13000 3.109
56.14000 4.083
56.15000 2.995
56.16000 1.988
56.17000 2.963
56.18000 4.051
56.19000 0.000
56.20000 0.980
56.21000 4.097
56.22000 1.988
56.23000 0.000
56.24000 3.042
56.25000 1.986
56.26000 4.011
56.27000 0.986
56.28000 0.999
56.29000 2.101
56.30000 6.080
56.31000 3.098
56.32000 0.984
56.33000 0.991
56.34000 4.026
56.35000 0.000
56.36000 5.009
56.37000 3.109
56.38000 2.070
56.39000 3.039
56.40000 0.000
56.41000 1.013
56.42000 2.023
56.43000 2.040
56.44000 3.021
56.45000 5.023
56.46000 1.009
56.47000 2.024
56.48000 2.029
56.49000 2.037
56.50000 1.005
56.51000 4.011
56.52000 2.012
56.53000 0.000
56.54000 3.974
56.55000 0.000
56.56000 1.985
56.57000 1.993
56.58000 4.047
56.59000 4.075
56.60000 1.051
56.61000 4.082
56.62000 2.994
56.63000 3.062
56.64000 2.028
56.65000 3.033
56.66000 1.987
56.67000 1.048
56.68000 2.008
56.69000 1.041
56.70000 0.000
56.71000 2.987
56.72000 2.037
56.73000 2.059
56.74000 5.961
56.75000 4.995
56.76000 1.995
56.77000 2.066
56.78000 0.000
56.79000 2.093
56.80000 1.954
56.81000 1.071
56.82000 7.076
56.83000 4.087
56.84000 0.996
56.85000 2.098
56.86000 4.069
56.87000 4.137
56.88000 4.027
56.89000 3.087
56.90000 5.009
56.91000 2.023
56.92000 3.054
56.93000 2.992
56.94000 5.023
56.95000 5.062
56.96000 0.998
56.97000 0.000
56.98000 3.095
56.99000 0.000
57.00000 1.042
57.01000 2.024
57.02000 1.990
57.03000 0.982
57.04000 4.039
57.05000 1.018
57.06000 2.018
57.07000 3.079
57.08000 1.048
57.09000 3.103
57.10000 2.048
57.11000 3.096
57.12000 3.056
57.13000 0.000
57.14000 2.965
57.15000 4.042
57.16000 4.163
57.17000 2.053
57.18000 1.987
57.19000 1.027
57.20000 2.982
57.21000 2.086
57.22000 4.032
57.23000 0.000
57.24000 0.000
57.25000 0.000
57.26000 1.027
57.27000 2.035
57.28000 2.999
57.29000 4.047
57.30000 2.044
57.31000 2.017
57.32000 1.004
57.33000 3.080
57.34000 1.017
57.35000 3.040
57.36000 2.060
57.37000 0.000
57.38000 0.000
57.39000 2.015
57.40000 1.005
57.41000 0.000
57.42000 2.012
57.43000 1.033
57.44000 0.000
57.45000 1.002
57.46000 2.937
57.47000 2.003
57.48000 2.022
57.49000 2.045
57.50000 0.992
57.51000 2.029
57.52000 2.025
57.53000 4.075
57.54000 0.000
57.55000 0.000
57.56000 3.991
57.57000 2.956
57.58000 0.000
57.59000 0.000
57.60000 2.038
57.61000 1.010
57.62000 2.035
57.63000 3.035
57.64000 2.024
57.65000 7.054
57.66000 4.029
57.67000 0.976
57.68000 4.021
57.69000 0.000
57.70000 2.027
57.71000 0.000
57.72000 1.957
57.73000 3.079
57.74000 0.000
57.75000 2.045
57.76000 1.039
57.77000 3.025
57.78000 0.991
57.79000 4.044
57.80000 3.026
57.81000 6.105
57.82000 4.053
57.83000 4.140
57.84000 3.028
57.85000 2.989
57.86000 3.990
57.87000 1.023
57.88000 0.982
57.89000 0.984
57.90000 1.031
57.91000 0.996
57.92000 2.066
57.93000 0.985
57.94000 3.077
57.95000 1.982
57.96000 2.002
57.97000 2.997
57.98000 0.000
57.99000 3.000
58.00000 2.976
58.01000 0.987
58.02000 4.037
58.03000 3.055
58.04000 3.106
58.05000 2.031
58.06000 3.054
58.07000 2.982
58.08000 5.019
58.09000 1.027
58.10000 0.978
58.11000 4.028
58.12000 3.005
58.13000 5.118
58.14000 3.072
58.15000 0.999
58.16000 0.000
58.17000 4.115
58.18000 0.000
58.19000 1.999
58.20000 1.050
58.21000 3.082
58.22000 1.981
58.23000 2.040
58.24000 0.967
58.25000 0.000
58.26000 2.026
58.27000 3.979
58.28000 4.030
58.29000 0.000
58.30000 3.088
58.31000 1.042
58.32000 1.022
58.33000 3.041
58.34000 1.003
58.35000 0.000
58.36000 2.952
58.37000 4.075
58.38000 2.062
58.39000 4.142
58.40000 3.964
58.41000 3.029
58.42000 0.000
58.43000 5.076
58.44000 2.089
58.45000 1.032
58.46000 1.038
58.47000 1.972
58.48000 5.150
58.49000 4.009
58.50000 2.026
58.51000 3.975
58.52000 4.057
58.53000 3.109
58.54000 3.012
58.55000 0.990
58.56000 0.000
58.57000 4.102
58.58000 1.064
58.59000 1.982
58.60000 3.033
58.61000 2.009
58.62000 2.965
58.63000 1.061
58.64000 4.056
58.65000 3.092
58.66000 2.034
58.67000 4.066
58.68000 2.022
58.69000 2.083
58.70000 2.006
58.71000 1.034
58.72000 0.982
58.73000 3.007
58.74000 2.008
58.75000 2.060
58.76000 2.010
58.77000 1.038
58.78000 0.970
58.79000 1.074
58.80000 2.015
58.81000 1.009
58.82000 0.979
58.83000 0.000
58.84000 1.007
58.85000 3.015
58.86000 0.000
58.87000 5.074
58.88000 0.000
58.89000 4.123
58.90000 0.993
58.91000 3.014
58.92000 2.007
58.93000 4.077
58.94000 0.000
58.95000 4.095
58.96000 1.990
58.97000 0.989
58.98000 6.134
58.99000 0.984
59.00000 1.040
59.01000 5.099
59.02000 2.025
59.03000 3.980
59.04000 3.981
59.05000 1.971
59.06000 1.023
59.07000 1.036
59.08000 0.000
59.09000 1.986
59.10000 1.020
59.11000 1.001
59.12000 5.189
59.13000 2.021
59.14000 2.090
59.15000 3.033
59.16000 0.997
59.17000 2.052
59.18000 3.067
59.19000 1.018
59.20000 0.987
59.21000 4.105
59.22000 3.101
59.23000 2.000
59.24000 1.978
59.25000 2.000
59.26000 1.987
59.27000 2.001
59.28000 1.024
59.29000 0.997
59.30000 1.029
59.31000 2.017
59.32000 2.043
59.33000 5.070
59.34000 2.035
59.35000 2.060
59.36000 1.982
59.37000 0.987
59.38000 2.013
59.39000 3.133
59.40000 1.986
59.41000 3.016
59.42000 0.994
59.43000 2.980
59.44000 2.016
59.45000 1.055
59.46000 1.024
59.47000 3.016
59.48000 5.095
59.49000 2.000
59.50000 0.990
59.51000 0.000
59.52000 4.103
59.53000 0.000
59.54000 2.033
59.55000 1.024
59.56000 4.027
59.57000 4.035
59.58000 4.060
59.59000 5.989
59.60000 1.035
59.61000 3.105
59.62000 0.000
59.63000 0.971
59.64000 0.995
59.65000 0.000
59.66000 2.041
59.67000 0.000
59.68000 5.033
59.69000 0.000
59.70000 3.004
59.71000 1.988
59.72000 3.113
59.73000 3.095
59.74000 2.036
59.75000 1.012
59.76000 1.965
59.77000 2.034
59.78000 1.000
59.79000 1.986
59.80000 7.053
59.81000 1.039
59.82000 1.003
59.83000 3.079
59.84000 0.000
59.85000 3.074
59.86000 0.996
59.87000 2.040
59.88000 2.965
59.89000 2.011
59.90000 4.012
59.91000 1.025
59.92000 4.036
59.93000 2.038
59.94000 1.994
59.95000 3.029
59.96000 1.041
59.97000 3.025
59.98000 3.094
59.99000 3.010
60.00000 3.035
60.01000 0.000
60.02000 1.032
60.03000 2.083
60.04000 0.000
60.05000 4.085
60.06000 3.027
60.07000 0.000
60.08000 1.047
60.09000 0.988
60.10000 0.000
60.11000 5.119
60.12000 0.999
60.13000 0.000
60.14000 1.978
60.15000 4.091
60.16000 3.981
60.17000 2.006
60.18000 4.036
60.19000 2.002
60.20000 1.024
60.21000 2.009
60.22000 5.076
60.23000 1.934
60.24000 0.989
60.25000 2.000
60.26000 0.983
60.27000 3.031
60.28000 1.005
60.29000 2.005
60.30000 1.023
60.31000 1.973
60.32000 2.053
60.33000 2.998
60.34000 2.983
60.35000 3.036
60.36000 0.998
60.37000 4.090
60.38000 3.060
60.39000 2.021
60.40000 3.104
60.41000 0.998
60.42000 0.000
60.43000 3.019
60.44000 2.971
60.45000 1.001
60.46000 4.019
60.47000 3.032
60.48000 1.989
60.49000 4.051
60.50000 3.062
60.51000 6.130
60.52000 1.014
60.53000 2.095
60.54000 2.023
60.55000 1.965
60.56000 1.991
60.57000 2.047
60.58000 0.000
60.59000 0.000
60.60000 1.992
60.61000 1.054
60.62000 2.030
60.63000 1.975
60.64000 0.000
60.65000 1.018
60.66000 2.018
60.67000 3.144
60.68000 5.045
60.69000 2.060
60.70000 3.072
60.71000 6.050
60.72000 4.066
60.73000 1.980
60.74000 0.977
60.75000 1.979
60.76000 2.084
60.77000 0.992
60.78000 0.992
60.79000 3.086
60.80000 3.010
60.81000 0.994
60.82000 2.037
60.83000 1.036
60.84000 5.026
60.85000 1.051
60.86000 2.010
60.87000 1.037
60.88000 3.009
60.89000 2.992
60.90000 0.983
60.91000 0.984
60.92000 5.089
60.93000 3.021
60.94000 0.998
60.95000 2.943
60.96000 2.024
60.97000 2.044
60.98000 0.994
60.99000 2.061
61.00000 1.952
61.01000 1.005
61.02000 4.122
61.03000 2.943
61.04000 3.006
61.05000 1.985
61.06000 0.000
61.07000 3.006
61.08000 1.978
61.09000 4.050
61.10000 1.001
61.11000 3.011
61.12000 4.126
61.13000 0.000
61.14000 2.022
61.15000 3.083
61.16000 2.018
61.17000 7.087
61.18000 0.000
61.19000 0.000
61.20000 2.993
61.21000 0.991
61.22000 1.046
61.23000 1.011
61.24000 3.050
61.25000 2.043
61.26000 1.977
61.27000 2.035
61.28000 3.036
61.29000 2.000
61.30000 2.997
61.31000 0.000
61.32000 3.027
61.33000 4.093
61.34000 1.008
61.35000 1.977
61.36000 3.098
61.37000 2.127
61.38000 2.074
61.39000 1.009
61.40000 2.082
61.41000 0.000
61.42000 1.060
61.43000 0.000
61.44000 2.052
61.45000 1.007
61.46000 3.049
61.47000 0.990
61.48000 4.061
61.49000 3.090
61.50000 1.049
61.51000 0.985
61.52000 0.000
61.53000 2.044
61.54000 0.000
61.55000 2.004
61.56000 2.986
61.57000 8.113
61.58000 2.018
61.59000 2.045
61.60000 2.028
61.61000 2.007
61.62000 1.987
61.63000 0.997
61.64000 3.132
61.65000 4.082
61.66000 6.091
61.67000 0.990
61.68000 3.006
61.69000 4.036
61.70000 1.998
61.71000 1.016
61.72000 4.065
61.73000 4.067
61.74000 4.124
61.75000 3.005
61.76000 3.052
61.77000 0.000
61.78000 1.019
61.79000 2.105
61.80000 4.004
61.81000 2.019
61.82000 1.000
61.83000 2.075
61.84000 1.986
61.85000 3.103
61.86000 1.007
61.87000 2.003
61.88000 0.000
61.89000 2.982
61.90000 0.987
61.91000 1.962
61.92000 1.025
61.93000 4.096
61.94000 1.028
61.95000 4.007
61.96000 2.064
61.97000 2.041
61.98000 2.046
61.99000 5.088
62.00000 1.058
62.01000 2.019
62.02000 5.119
62.03000 2.029
62.04000 0.000
62.05000 3.037
62.06000 2.059
62.07000 3.031
62.08000 3.069
62.09000 2.014
62.10000 1.024
62.11000 2.086
62.12000 3.988
62.13000 4.081
62.14000 3.066
62.15000 0.998
62.16000 3.036
62.17000 1.968
62.18000 2.000
62.19000 2.010
62.20000 2.044
62.21000 2.008
62.22000 0.000
62.23000 6.212
62.24000 2.053
62.25000 5.143
62.26000 0.980
62.27000 3.074
62.28000 0.000
62.29000 4.992
62.30000 3.021
62.31000 0.000
62.32000 1.055
62.33000 0.000
62.34000 2.967
62.35000 3.045
62.36000 0.000
62.37000 0.000
62.38000 2.971
62.39000 1.038
62.40000 1.022
62.41000 3.016
62.42000 4.110
62.43000 4.033
62.44000 2.002
62.45000 2.048
62.46000 2.033
62.47000 3.020
62.48000 1.011
62.49000 2.029
62.50000 1.995
62.51000 0.000
62.52000 2.055
62.53000 1.994
62.54000 0.985
62.55000 2.042
62.56000 1.996
62.57000 1.001
62.58000 1.971
62.59000 2.031
62.60000 1.995
62.61000 0.000
62.62000 3.032
62.63000 1.972
62.64000 5.051
62.65000 5.216
62.66000 0.000
62.67000 2.005
62.68000 2.000
62.69000 2.073
62.70000 1.041
62.71000 4.058
62.72000 3.008
62.73000 2.994
62.74000 3.007
62.75000 2.077
62.76000 2.029
62.77000 6.069
62.78000 1.031
62.79000 0.986
62.80000 4.032
62.81000 1.999
62.82000 8.036
62.83000 1.043
62.84000 2.027
62.85000 1.017
62.86000 3.025
62.87000 2.001
62.88000 1.038
62.89000 1.020
62.90000 0.983
62.91000 3.039
62.92000 3.006
62.93000 4.948
62.94000 1.033
62.95000 3.011
62.96000 1.026
62.97000 3.050
62.98000 0.000
62.99000 3.110
63.00000 1.053
63.01000 4.094
63.02000 2.010
63.03000 1.002
63.04000 0.983
63.05000 2.075
63.06000 3.092
63.07000 2.038
63.08000 5.129
63.09000 2.046
63.10000 5.042
63.11000 3.119
63.12000 3.094
63.13000 2.987
63.14000 2.022
63.15000 2.014
63.16000 6.005
63.17000 5.077
63.18000 3.036
63.19000 5.022
63.20000 2.020
63.21000 3.063
63.22000 2.011
63.23000 3.093
63.24000 1.011
63.25000 0.994
63.26000 0.000
63.27000 1.082
63.28000 4.032
63.29000 1.984
63.30000 1.963
63.31000 0.000
63.32000 4.090
63.33000 1.018
63.34000 1.041
63.35000 4.019
63.36000 0.000
63.37000 1.016
63.38000 0.000
63.39000 2.059
63.40000 0.997
63.41000 3.101
63.42000 3.011
63.43000 3.022
63.44000 0.000
63.45000 3.048
63.46000 1.044
63.47000 2.011
63.48000 2.000
63.49000 0.000
63.50000 0.000
63.51000 1.018
63.52000 3.064
63.53000 5.210
63.54000 3.023
63.55000 0.996
63.56000 1.978
63.57000 0.992
63.58000 4.107
63.59000 3.012
63.60000 4.122
63.61000 1.991
63.62000 0.980
63.63000 0.000
63.64000 4.118
63.65000 2.080
63.66000 1.033
63.67000 3.113
63.68000 4.017
63.69000 1.988
63.70000 0.994
63.71000 3.039
63.72000 2.033
63.73000 1.012
63.74000 3.023
63.75000 0.000
63.76000 4.046
63.77000 1.029
63.78000 0.000
63.79000 2.095
63.80000 0.000
63.81000 1.031
63.82000 1.005
63.83000 2.022
63.84000 4.057
63.85000 1.999
63.86000 0.982
63.87000 0.000
63.88000 2.022
63.89000 1.018
63.90000 1.017
63.91000 2.021
63.92000 2.040
63.93000 4.058
63.94000 0.977
63.95000 3.068
63.96000 3.003
63.97000 0.000
63.98000 3.063
63.99000 3.004
64.00000 1.998
64.01000 3.028
64.02000 1.009
64.03000 2.026
64.04000 0.990
64.05000 3.036
64.06000 1.056
64.07000 4.080
64.08000 4.090
64.09000 3.074
64.10000 2.038
64.11000 1.026
64.12000 0.000
64.13000 4.045
64.14000 3.019
64.15000 0.991
64.16000 2.007
64.17000 3.970
64.18000 1.993
64.19000 2.003
64.20000 1.033
64.21000 1.046
64.22000 3.079
64.23000 1.016
64.24000 1.008
64.25000 3.035
64.26000 2.003
64.27000 2.008
64.28000 2.965
64.29000 1.005
64.30000 2.072
64.31000 3.011
64.32000 1.037
64.33000 3.023
64.34000 3.068
64.35000 1.995
64.36000 0.998
64.37000 0.976
64.38000 3.114
64.39000 0.997
64.40000 4.031
64.41000 0.000
64.42000 3.038
64.43000 4.069
64.44000 2.047
64.45000 0.969
64.46000 3.077
64.47000 3.002
64.48000 1.986
64.49000 2.020
64.50000 3.038
64.51000 1.016
64.52000 1.039
64.53000 3.088
64.54000 5.038
64.55000 0.000
64.56000 1.023
64.57000 2.007
64.58000 2.028
64.59000 1.002
64.60000 0.000
64.61000 0.984
64.62000 1.008
64.63000 4.019
64.64000 4.059
64.65000 1.963
64.66000 1.011
64.67000 1.966
64.68000 2.048
64.69000 1.007
64.70000 0.000
64.71000 0.996
64.72000 3.038
64.73000 0.988
64.74000 3.048
64.75000 0.000
64.76000 2.014
64.77000 3.965
64.78000 1.973
64.79000 0.989
64.80000 0.000
64.81000 1.042
64.82000 2.003
64.83000 0.000
64.84000 3.981
64.85000 1.001
64.86000 1.990
64.87000 0.990
64.88000 0.000
64.89000 1.014
64.90000 5.079
64.91000 2.001
64.92000 0.000
64.93000 0.985
64.94000 2.029
64.95000 0.000
64.96000 2.028
64.97000 0.989
64.98000 2.990
64.99000 3.063
65.00000 5.022
