20.00000 21.277
20.01000 20.228
20.02000 23.363
20.03000 19.226
20.04000 11.098
20.05000 18.215
20.06000 17.418
20.07000 17.135
20.08000 14.169
20.09000 16.990
20.10000 14.054
20.11000 17.322
20.12000 17.223
20.13000 21.311
20.14000 20.116
20.15000 18.203
20.16000 18.232
20.17000 11.182
20.18000 17.284
20.19000 20.508
20.20000 18.210
20.21000 20.092
20.22000 19.346
20.23000 17.144
20.24000 16.384
20.25000 13.163
20.26000 19.240
20.27000 14.163
20.28000 15.021
20.29000 7.026
20.30000 13.107
20.31000 20.370
20.32000 24.265
20.33000 15.361
20.34000 22.476
20.35000 14.108
20.36000 24.106
20.37000 22.278
20.38000 19.267
20.39000 22.205
20.40000 20.232
20.41000 25.489
20.42000 24.293
20.43000 20.281
20.44000 20.450
20.45000 22.984
20.46000 21.192
20.47000 16.223
20.48000 29.362
20.49000 19.240
20.50000 18.294
20.51000 16.251
20.52000 15.360
20.53000 21.211
20.54000 17.276
20.55000 17.207
20.56000 22.414
20.57000 26.401
20.58000 15.124
20.59000 23.199
20.60000 18.163
20.61000 18.239
20.62000 15.168
20.63000 14.210
20.64000 12.098
20.65000 18.095
20.66000 25.286
20.67000 14.160
20.68000 20.409
20.69000 15.208
20.70000 28.259
20.71000 14.078
20.72000 17.218
20.73000 22.235
20.74000 14.122
20.75000 13.302
20.76000 11.222
20.77000 16.109
20.78000 22.293
20.79000 18.127
20.80000 17.098
20.81000 21.297
20.82000 23.151
20.83000 15.133
20.84000 13.019
20.85000 14.343
20.86000 13.984
20.87000 20.328
20.88000 17.108
20.89000 21.442
20.90000 14.056
20.91000 23.467
20.92000 19.288
20.93000 23.311
20.94000 21.309
20.95000 15.025
20.96000 16.120
20.97000 14.268
20.98000 19.211
20.99000 24.401
21.00000 21.224
21.01000 18.210
21.02000 30.351
21.03000 16.278
21.04000 28.289
21.05000 20.248
21.06000 23.476
21.07000 23.381
21.08000 26.402
21.09000 14.311
21.10000 23.186
21.11000 23.293
21.12000 11.100
21.13000 13.219
21.14000 21.338
21.15000 19.180
21.16000 26.402
21.17000 20.259
21.18000 26.317
21.19000 24.370
21.20000 27.112
21.21000 12.102
21.22000 12.027
21.23000 17.393
21.24000 19.343
21.25000 22.322
21.26000 16.055
21.27000 27.283
21.28000 28.248
21.29000 22.440
21.30000 14.028
21.31000 17.150
21.32000 20.381
21.33000 18.220
21.34000 23.214
21.35000 26.465
21.36000 18.335
21.37000 17.326
21.38000 34.390
21.39000 21.334
21.40000 20.235
21.41000 19.251
21.42000 27.301
21.43000 25.303
21.44000 24.386
21.45000 18.188
21.46000 20.256
21.47000 23.296
21.48000 17.299
21.49000 17.062
21.50000 14.170
21.51000 20.248
21.52000 16.203
21.53000 18.277
21.54000 33.440
21.55000 21.316
21.56000 18.136
21.57000 17.253
21.58000 12.252
21.59000 23.146
21.60000 17.094
21.61000 20.201
21.62000 17.379
21.63000 14.060
21.64000 21.386
21.65000 21.249
21.66000 13.031
21.67000 17.376
21.68000 18.281
21.69000 32.362
21.70000 24.157
21.71000 14.249
21.72000 26.238
21.73000 28.267
21.74000 20.159
21.75000 16.122
21.76000 21.240
21.77000 24.390
21.78000 21.208
21.79000 18.268
21.80000 10.130
21.81000 19.248
21.82000 23.382
21.83000 13.082
21.84000 26.370
21.85000 19.265
21.86000 29.274
21.87000 24.329
21.88000 12.175
21.89000 20.394
21.90000 19.075
21.91000 12.071
21.92000 27.614
21.93000 22.353
21.94000 18.210
21.95000 25.208
21.96000 15.129
21.97000 21.340
21.98000 16.316
21.99000 14.370
22.00000 27.271
22.01000 15.042
22.02000 28.570
22.03000 32.584
22.04000 24.262
22.05000 26.539
22.06000 18.265
22.07000 22.163
22.08000 23.270
22.09000 19.224
22.10000 19.294
22.11000 22.183
22.12000 20.194
22.13000 23.376
22.14000 18.111
22.15000 23.440
22.16000 25.250
22.17000 25.425
22.18000 20.269
22.19000 15.281
22.20000 25.137
22.21000 18.238
22.22000 28.584
22.23000 23.072
22.24000 24.277
22.25000 25.319
22.26000 21.363
22.27000 23.238
22.28000 18.274
22.29000 30.480
22.30000 17.241
22.31000 15.338
22.32000 33.580
22.33000 27.571
22.34000 33.382
22.35000 17.225
22.36000 25.184
22.37000 22.287
22.38000 22.183
22.39000 28.290
22.40000 24.322
22.41000 22.279
22.42000 15.133
22.43000 18.419
22.44000 14.088
22.45000 16.411
22.46000 19.390
22.47000 23.392
22.48000 26.170
22.49000 24.768
22.50000 26.309
22.51000 19.155
22.52000 15.261
22.53000 20.381
22.54000 28.375
22.55000 22.480
22.56000 20.298
22.57000 23.369
22.58000 33.479
22.59000 17.267
22.60000 18.292
22.61000 20.344
22.62000 25.542
22.63000 31.513
22.64000 24.293
22.65000 24.347
22.66000 30.169
22.67000 22.398
22.68000 21.246
22.69000 15.080
22.70000 21.222
22.71000 28.123
22.72000 14.028
22.73000 18.393
22.74000 30.341
22.75000 30.383
22.76000 27.186
22.77000 22.030
22.78000 22.379
22.79000 22.180
22.80000 25.389
22.81000 27.274
22.82000 18.257
22.83000 24.269
22.84000 26.446
22.85000 27.407
22.86000 26.286
22.87000 24.288
22.88000 22.154
22.89000 36.330
22.90000 25.687
22.91000 22.382
22.92000 21.283
22.93000 16.008
22.94000 38.567
22.95000 21.254
22.96000 33.383
22.97000 25.560
22.98000 27.272
22.99000 25.310
23.00000 27.607
23.01000 29.425
23.02000 32.485
23.03000 25.494
23.04000 22.167
23.05000 29.318
23.06000 33.589
23.07000 27.060
23.08000 19.405
23.09000 29.290
23.10000 17.078
23.11000 22.295
23.12000 23.217
23.13000 35.360
23.14000 23.364
23.15000 22.370
23.16000 20.199
23.17000 29.274
23.18000 28.301
23.19000 29.355
23.20000 19.186
23.21000 29.389
23.22000 27.534
23.23000 24.187
23.24000 27.423
23.25000 26.212
23.26000 29.466
23.27000 21.130
23.28000 26.411
23.29000 29.729
23.30000 32.454
23.31000 26.453
23.32000 29.481
23.33000 27.424
23.34000 13.151
23.35000 19.354
23.36000 24.578
23.37000 34.652
23.38000 38.353
23.39000 30.308
23.40000 25.291
23.41000 33.349
23.42000 23.339
23.43000 34.233
23.44000 31.423
23.45000 27.174
23.46000 29.370
23.47000 29.591
23.48000 34.540
23.49000 23.382
23.50000 18.225
23.51000 22.282
23.52000 35.257
23.53000 19.239
23.54000 29.355
23.55000 21.424
23.56000 27.341
23.57000 23.346
23.58000 27.287
23.59000 24.291
23.60000 29.298
23.61000 29.335
23.62000 35.437
23.63000 23.350
23.64000 30.451
23.65000 26.303
23.66000 29.527
23.67000 35.208
23.68000 21.484
23.69000 39.387
23.70000 26.180
23.71000 34.526
23.72000 38.597
23.73000 34.152
23.74000 21.122
23.75000 26.221
23.76000 28.406
23.77000 30.408
23.78000 30.547
23.79000 31.464
23.80000 25.321
23.81000 31.579
23.82000 31.490
23.83000 20.165
23.84000 34.513
23.85000 20.188
23.86000 35.203
23.87000 33.507
23.88000 32.159
23.89000 26.422
23.90000 32.386
23.91000 31.392
23.92000 24.251
23.93000 34.592
23.94000 25.272
23.95000 27.426
23.96000 25.253
23.97000 32.364
23.98000 29.168
23.99000 27.386
24.00000 34.217
24.01000 32.600
24.02000 33.664
24.03000 34.573
24.04000 33.244
24.05000 21.387
24.06000 30.305
24.07000 35.730
24.08000 35.649
24.09000 27.365
24.10000 36.276
24.11000 33.574
24.12000 29.331
24.13000 31.299
24.14000 31.351
24.15000 34.488
24.16000 28.420
24.17000 35.528
24.18000 36.787
24.19000 31.345
24.20000 28.369
24.21000 25.403
24.22000 29.636
24.23000 18.258
24.24000 33.519
24.25000 28.418
24.26000 33.115
24.27000 28.468
24.28000 31.337
24.29000 30.366
24.30000 37.659
24.31000 47.616
24.32000 30.317
24.33000 27.336
24.34000 32.455
24.35000 38.630
24.36000 31.551
24.37000 19.193
24.38000 34.413
24.39000 32.288
24.40000 39.690
24.41000 37.443
24.42000 37.465
24.43000 33.365
24.44000 22.259
24.45000 40.387
24.46000 34.354
24.47000 30.460
24.48000 37.593
24.49000 35.703
24.50000 43.786
24.51000 39.566
24.52000 28.357
24.53000 30.529
24.54000 28.601
24.55000 42.586
24.56000 32.519
24.57000 47.945
24.58000 29.438
24.59000 46.552
24.60000 37.830
24.61000 34.552
24.62000 26.597
24.63000 35.684
24.64000 37.409
24.65000 40.545
24.66000 39.331
24.67000 48.521
24.68000 42.430
24.69000 27.262
24.70000 39.552
24.71000 32.258
24.72000 50.565
24.73000 43.388
24.74000 39.419
24.75000 32.386
24.76000 35.241
24.77000 36.720
24.78000 42.794
24.79000 41.625
24.80000 42.593
24.81000 24.295
24.82000 37.378
24.83000 33.552
24.84000 40.436
24.85000 41.684
24.86000 38.317
24.87000 35.625
24.88000 32.731
24.89000 39.285
24.90000 22.334
24.91000 35.264
24.92000 35.241
24.93000 40.455
24.94000 31.610
24.95000 33.349
24.96000 42.457
24.97000 48.278
24.98000 41.709
24.99000 41.698
25.00000 32.567
25.01000 39.696
25.02000 40.339
25.03000 39.594
25.04000 35.585
25.05000 38.549
25.06000 52.537
25.07000 47.452
25.08000 47.476
25.09000 34.508
25.10000 39.367
25.11000 44.279
25.12000 33.362
25.13000 31.377
25.14000 44.512
25.15000 33.383
25.16000 44.333
25.17000 50.471
25.18000 34.537
25.19000 38.435
25.20000 46.669
25.21000 39.512
25.22000 51.097
25.23000 40.534
25.24000 42.552
25.25000 44.629
25.26000 51.490
25.27000 35.377
25.28000 41.404
25.29000 38.473
25.30000 43.543
25.31000 37.423
25.32000 45.718
25.33000 34.397
25.34000 36.399
25.35000 40.361
25.36000 40.669
25.37000 40.589
25.38000 46.352
25.39000 35.325
25.40000 51.850
25.41000 35.357
25.42000 45.761
25.43000 43.644
25.44000 42.734
25.45000 46.457
25.46000 44.535
25.47000 50.616
25.48000 34.669
25.49000 51.695
25.50000 36.385
25.51000 54.725
25.52000 37.389
25.53000 36.455
25.54000 44.519
25.55000 38.491
25.56000 48.604
25.57000 48.511
25.58000 39.383
25.59000 34.687
25.60000 44.483
25.61000 34.508
25.62000 43.885
25.63000 48.901
25.64000 57.453
25.65000 54.401
25.66000 45.491
25.67000 53.549
25.68000 43.721
25.69000 34.751
25.70000 36.428
25.71000 47.742
25.72000 48.716
25.73000 45.379
25.74000 49.897
25.75000 34.771
25.76000 51.589
25.77000 45.732
25.78000 55.729
25.79000 47.833
25.80000 49.598
25.81000 53.550
25.82000 49.589
25.83000 50.752
25.84000 50.605
25.85000 45.808
25.86000 50.563
25.87000 45.502
25.88000 42.562
25.89000 54.590
25.90000 41.444
25.91000 46.787
25.92000 45.611
25.93000 51.918
25.94000 64.848
25.95000 45.361
25.96000 54.559
25.97000 54.604
25.98000 43.740
25.99000 58.760
26.00000 46.496
26.01000 40.348
26.02000 51.734
26.03000 53.009
26.04000 66.085
26.05000 40.569
26.06000 41.638
26.07000 48.564
26.08000 44.592
26.09000 47.547
26.10000 43.599
26.11000 55.548
26.12000 47.843
26.13000 48.538
26.14000 51.266
26.15000 57.971
26.16000 57.642
26.17000 62.912
26.18000 54.897
26.19000 46.656
26.20000 63.137
26.21000 50.816
26.22000 57.735
26.23000 51.452
26.24000 36.665
26.25000 64.650
26.26000 37.644
26.27000 53.881
26.28000 52.576
26.29000 61.861
26.30000 57.680
26.31000 50.426
26.32000 50.565
26.33000 45.637
26.34000 64.061
26.35000 58.963
26.36000 41.383
26.37000 57.963
26.38000 43.409
26.39000 55.770
26.40000 58.643
26.41000 43.723
26.42000 65.087
26.43000 59.829
26.44000 50.652
26.45000 53.780
26.46000 46.763
26.47000 49.816
26.48000 59.030
26.49000 80.348
26.50000 54.851
26.51000 64.732
26.52000 63.554
26.53000 61.856
26.54000 48.565
26.55000 51.783
26.56000 52.511
26.57000 56.685
26.58000 50.867
26.59000 50.395
26.60000 40.660
26.61000 59.882
26.62000 57.015
26.63000 52.465
26.64000 54.750
26.65000 55.870
26.66000 56.661
26.67000 59.731
26.68000 65.771
26.69000 66.654
26.70000 49.945
26.71000 63.540
26.72000 46.488
26.73000 67.791
26.74000 66.757
26.75000 44.701
26.76000 57.790
26.77000 63.711
26.78000 56.798
26.79000 55.866
26.80000 42.735
26.81000 68.683
26.82000 54.883
26.83000 57.820
26.84000 60.480
26.85000 68.016
26.86000 50.930
26.87000 57.612
26.88000 67.826
26.89000 68.383
26.90000 56.580
26.91000 55.508
26.92000 60.921
26.93000 59.017
26.94000 62.793
26.95000 45.772
26.96000 51.873
26.97000 44.732
26.98000 60.677
26.99000 54.799
27.00000 72.896
27.01000 73.089
27.02000 60.895
27.03000 62.851
27.04000 54.698
27.05000 66.501
27.06000 74.881
27.07000 69.136
27.08000 58.677
27.09000 51.987
27.10000 49.548
27.11000 63.659
27.12000 65.052
27.13000 55.584
27.14000 70.216
27.15000 66.765
27.16000 69.590
27.17000 60.804
27.18000 68.945
27.19000 72.027
27.20000 51.935
27.21000 58.604
27.22000 83.843
27.23000 54.800
27.24000 61.045
27.25000 73.105
27.26000 54.034
27.27000 75.182
27.28000 82.785
27.29000 54.956
27.30000 67.339
27.31000 83.973
27.32000 64.767
27.33000 66.097
27.34000 64.978
27.35000 64.066
27.36000 66.944
27.37000 65.735
27.38000 55.010
27.39000 67.974
27.40000 63.265
27.41000 63.848
27.42000 55.682
27.43000 75.833
27.44000 67.900
27.45000 72.137
27.46000 60.610
27.47000 66.939
27.48000 66.939
27.49000 57.800
27.50000 67.798
27.51000 55.805
27.52000 71.216
27.53000 66.013
27.54000 80.427
27.55000 70.077
27.56000 75.039
27.57000 68.104
27.58000 55.049
27.59000 49.741
27.60000 58.794
27.61000 67.925
27.62000 66.720
27.63000 69.039
27.64000 64.745
27.65000 85.280
27.66000 66.956
27.67000 63.862
27.68000 59.911
27.69000 53.617
27.70000 51.039
27.71000 62.250
27.72000 74.236
27.73000 65.971
27.74000 64.726
27.75000 63.851
27.76000 57.558
27.77000 59.765
27.78000 66.033
27.79000 79.282
27.80000 77.230
27.81000 62.012
27.82000 71.971
27.83000 70.112
27.84000 69.094
27.85000 62.637
27.86000 71.698
27.87000 61.791
27.88000 55.624
27.89000 72.027
27.90000 67.113
27.91000 57.735
27.92000 78.888
27.93000 58.582
27.94000 55.984
27.95000 62.877
27.96000 58.958
27.97000 63.722
27.98000 72.957
27.99000 88.067
28.00000 50.824
28.01000 76.992
28.02000 58.768
28.03000 58.735
28.04000 61.834
28.05000 77.908
28.06000 61.853
28.07000 67.930
28.08000 71.729
28.09000 77.073
28.10000 67.939
28.11000 63.919
28.12000 72.887
28.13000 73.584
28.14000 59.645
28.15000 55.848
28.16000 56.465
28.17000 75.024
28.18000 64.855
28.19000 52.520
28.20000 65.252
28.21000 51.572
28.22000 60.096
28.23000 64.613
28.24000 56.585
28.25000 60.910
28.26000 75.937
28.27000 61.593
28.28000 52.821
28.29000 44.591
28.30000 72.076
28.31000 72.016
28.32000 69.061
28.33000 51.554
28.34000 64.942
28.35000 48.618
28.36000 77.970
28.37000 58.928
28.38000 75.709
28.39000 52.809
28.40000 50.689
28.41000 65.635
28.42000 52.523
28.43000 68.080
28.44000 53.943
28.45000 68.020
28.46000 62.876
28.47000 62.742
28.48000 72.136
28.49000 72.146
28.50000 60.944
28.51000 61.775
28.52000 53.589
28.53000 60.645
28.54000 53.716
28.55000 74.955
28.56000 66.837
28.57000 55.752
28.58000 61.849
28.59000 58.660
28.60000 53.785
28.61000 62.821
28.62000 56.704
28.63000 65.973
28.64000 63.133
28.65000 49.873
28.66000 49.993
28.67000 73.127
28.68000 69.675
28.69000 60.842
28.70000 62.679
28.71000 64.562
28.72000 65.761
28.73000 57.630
28.74000 74.931
28.75000 53.878
28.76000 62.548
28.77000 70.987
28.78000 69.969
28.79000 45.335
28.80000 66.989
28.81000 53.724
28.82000 61.696
28.83000 60.872
28.84000 67.172
28.85000 68.937
28.86000 60.088
28.87000 44.873
28.88000 61.513
28.89000 42.376
28.90000 48.806
28.91000 70.089
28.92000 57.108
28.93000 45.444
28.94000 66.882
28.95000 79.298
28.96000 65.146
28.97000 56.529
28.98000 64.801
28.99000 53.484
29.00000 54.854
29.01000 52.892
29.02000 62.102
29.03000 63.580
29.04000 49.626
29.05000 52.509
29.06000 66.045
29.07000 56.543
29.08000 54.851
29.09000 58.719
29.10000 55.532
29.11000 68.069
29.12000 55.653
29.13000 68.932
29.14000 70.016
29.15000 48.517
29.16000 50.703
29.17000 63.888
29.18000 47.748
29.19000 58.729
29.20000 51.693
29.21000 70.132
29.22000 59.862
29.23000 56.631
29.24000 72.205
29.25000 58.655
29.26000 59.468
29.27000 52.786
29.28000 57.978
29.29000 57.605
29.30000 70.229
29.31000 54.720
29.32000 44.626
29.33000 48.669
29.34000 42.411
29.35000 59.812
29.36000 56.504
29.37000 54.749
29.38000 56.729
29.39000 53.053
29.40000 57.604
29.41000 53.862
29.42000 54.982
29.43000 57.726
29.44000 39.565
29.45000 47.673
29.46000 52.879
29.47000 52.214
29.48000 59.932
29.49000 45.626
29.50000 47.861
29.51000 42.782
29.52000 46.753
29.53000 49.284
29.54000 55.839
29.55000 67.065
29.56000 46.747
29.57000 51.691
29.58000 57.698
29.59000 63.842
29.60000 51.689
29.61000 53.682
29.62000 41.523
29.63000 63.713
29.64000 45.707
29.65000 52.622
29.66000 56.039
29.67000 44.888
29.68000 50.628
29.69000 45.976
29.70000 44.552
29.71000 54.836
29.72000 55.828
29.73000 52.993
29.74000 49.466
29.75000 46.563
29.76000 55.659
29.77000 51.644
29.78000 53.942
29.79000 47.458
29.80000 53.794
29.81000 43.293
29.82000 51.814
29.83000 62.580
29.84000 49.298
29.85000 53.569
29.86000 57.087
29.87000 45.836
29.88000 44.420
29.89000 44.676
29.90000 64.545
29.91000 47.645
29.92000 54.980
29.93000 67.267
29.94000 45.796
29.95000 35.542
29.96000 50.910
29.97000 44.715
29.98000 43.567
29.99000 47.805
30.00000 47.820
30.01000 51.118
30.02000 43.606
30.03000 48.620
30.04000 35.351
30.05000 52.846
30.06000 38.262
30.07000 51.652
30.08000 48.832
30.09000 41.341
30.10000 53.672
30.11000 37.693
30.12000 37.397
30.13000 57.668
30.14000 40.433
30.15000 39.445
30.16000 53.697
30.17000 47.835
30.18000 43.530
30.19000 51.413
30.20000 33.396
30.21000 48.633
30.22000 44.562
30.23000 42.501
30.24000 43.662
30.25000 49.556
30.26000 31.378
30.27000 36.513
30.28000 39.633
30.29000 46.701
30.30000 48.551
30.31000 32.425
30.32000 40.449
30.33000 34.222
30.34000 37.471
30.35000 40.485
30.36000 43.383
30.37000 42.403
30.38000 43.520
30.39000 40.761
30.40000 50.741
30.41000 46.669
30.42000 37.607
30.43000 40.313
30.44000 38.448
30.45000 51.695
30.46000 46.783
30.47000 49.317
30.48000 50.584
30.49000 40.643
30.50000 39.564
30.51000 42.366
30.52000 37.491
30.53000 35.519
30.54000 50.689
30.55000 48.442
30.56000 33.274
30.57000 44.563
30.58000 41.829
30.59000 52.477
30.60000 45.561
30.61000 48.454
30.62000 39.572
30.63000 43.601
30.64000 45.426
30.65000 40.651
30.66000 39.330
30.67000 39.381
30.68000 45.865
30.69000 41.340
30.70000 46.763
30.71000 35.602
30.72000 44.709
30.73000 44.616
30.74000 26.285
30.75000 34.518
30.76000 32.419
30.77000 40.539
30.78000 38.304
30.79000 31.600
30.80000 40.359
30.81000 36.495
30.82000 30.427
30.83000 36.561
30.84000 48.879
30.85000 34.373
30.86000 37.426
30.87000 37.330
30.88000 37.376
30.89000 34.367
30.90000 40.230
30.91000 32.508
30.92000 44.400
30.93000 39.442
30.94000 30.260
30.95000 30.357
30.96000 43.603
30.97000 39.642
30.98000 31.320
30.99000 41.428
31.00000 26.441
31.01000 43.400
31.02000 44.562
31.03000 33.411
31.04000 38.328
31.05000 38.565
31.06000 22.281
31.07000 49.663
31.08000 30.375
31.09000 33.557
31.10000 29.281
31.11000 37.428
31.12000 42.718
31.13000 44.454
31.14000 36.289
31.15000 35.265
31.16000 44.547
31.17000 28.332
31.18000 39.668
31.19000 37.698
31.20000 42.538
31.21000 32.331
31.22000 38.352
31.23000 37.391
31.24000 33.433
31.25000 35.512
31.26000 32.415
31.27000 37.335
31.28000 33.469
31.29000 30.231
31.30000 35.496
31.31000 31.280
31.32000 41.479
31.33000 32.296
31.34000 27.388
31.35000 33.518
31.36000 24.405
31.37000 24.478
31.38000 29.540
31.39000 41.468
31.40000 37.431
31.41000 34.579
31.42000 35.423
31.43000 33.305
31.44000 34.507
31.45000 33.289
31.46000 31.736
31.47000 29.357
31.48000 44.583
31.49000 49.383
31.50000 31.192
31.51000 42.460
31.52000 44.912
31.53000 36.185
31.54000 34.201
31.55000 30.344
31.56000 30.702
31.57000 30.301
31.58000 31.315
31.59000 28.709
31.60000 26.034
31.61000 21.380
31.62000 32.461
31.63000 29.597
31.64000 37.474
31.65000 30.365
31.66000 30.385
31.67000 27.285
31.68000 27.439
31.69000 36.359
31.70000 34.506
31.71000 36.451
31.72000 19.007
31.73000 35.742
31.74000 17.077
31.75000 32.410
31.76000 27.414
31.77000 18.247
31.78000 28.349
31.79000 34.343
31.80000 26.457
31.81000 29.159
31.82000 39.559
31.83000 32.500
31.84000 31.177
31.85000 31.605
31.86000 27.269
31.87000 25.376
31.88000 26.326
31.89000 34.351
31.90000 23.445
31.91000 26.366
31.92000 30.301
31.93000 27.287
31.94000 32.410
31.95000 26.312
31.96000 24.291
31.97000 35.466
31.98000 26.414
31.99000 20.129
32.00000 40.707
32.01000 28.428
32.02000 33.713
32.03000 27.423
32.04000 22.166
32.05000 30.433
32.06000 26.519
32.07000 33.599
32.08000 30.349
32.09000 23.440
32.10000 41.386
32.11000 19.155
32.12000 27.221
32.13000 36.396
32.14000 30.302
32.15000 21.240
32.16000 24.438
32.17000 23.348
32.18000 26.351
32.19000 24.290
32.20000 25.319
32.21000 24.449
32.22000 35.553
32.23000 20.380
32.24000 25.699
32.25000 21.190
32.26000 31.389
32.27000 17.160
32.28000 27.196
32.29000 29.468
32.30000 29.426
32.31000 30.275
32.32000 23.390
32.33000 29.197
32.34000 34.426
32.35000 21.109
32.36000 17.130
32.37000 28.279
32.38000 21.495
32.39000 23.377
32.40000 24.357
32.41000 36.416
32.42000 31.116
32.43000 26.386
32.44000 23.270
32.45000 22.253
32.46000 38.486
32.47000 28.395
32.48000 29.316
32.49000 30.403
32.50000 25.408
32.51000 23.226
32.52000 20.194
32.53000 30.337
32.54000 16.221
32.55000 17.161
32.56000 28.335
32.57000 23.210
32.58000 22.014
32.59000 22.369
32.60000 29.400
32.61000 30.306
32.62000 24.515
32.63000 20.171
32.64000 38.590
32.65000 33.205
32.66000 26.276
32.67000 25.267
32.68000 26.408
32.69000 29.405
32.70000 30.485
32.71000 31.422
32.72000 21.207
32.73000 20.379
32.74000 28.363
32.75000 27.319
32.76000 29.384
32.77000 27.233
32.78000 30.344
32.79000 20.222
32.80000 29.263
32.81000 25.389
32.82000 24.314
32.83000 22.444
32.84000 21.079
32.85000 16.179
32.86000 19.221
32.87000 26.005
32.88000 27.131
32.89000 24.360
32.90000 25.486
32.91000 22.393
32.92000 16.215
32.93000 26.335
32.94000 21.342
32.95000 27.675
32.96000 28.190
32.97000 30.327
32.98000 13.103
32.99000 21.208
33.00000 22.268
33.01000 25.216
33.02000 18.155
33.03000 20.252
33.04000 20.529
33.05000 19.199
33.06000 20.244
33.07000 24.187
33.08000 25.101
33.09000 30.249
33.10000 22.429
33.11000 14.067
33.12000 23.435
33.13000 25.409
33.14000 21.159
33.15000 26.260
33.16000 27.338
33.17000 18.186
33.18000 25.397
33.19000 23.491
33.20000 30.382
33.21000 25.451
33.22000 23.280
33.23000 15.206
33.24000 19.257
33.25000 17.166
33.26000 25.166
33.27000 22.297
33.28000 23.971
33.29000 27.479
33.30000 18.145
33.31000 20.193
33.32000 23.231
33.33000 20.212
33.34000 15.208
33.35000 19.182
33.36000 27.555
33.37000 18.076
33.38000 19.285
33.39000 19.423
33.40000 18.365
33.41000 20.305
33.42000 22.473
33.43000 19.301
33.44000 16.307
33.45000 17.103
33.46000 32.344
33.47000 20.110
33.48000 25.328
33.49000 23.315
33.50000 22.322
33.51000 21.255
33.52000 13.066
33.53000 18.256
33.54000 24.159
33.55000 15.286
33.56000 22.410
33.57000 23.316
33.58000 19.221
33.59000 15.279
33.60000 26.451
33.61000 20.216
33.62000 32.621
33.63000 20.142
33.64000 24.169
33.65000 15.251
33.66000 20.289
33.67000 18.209
33.68000 21.250
33.69000 26.370
33.70000 16.171
33.71000 17.267
33.72000 13.248
33.73000 15.143
33.74000 26.345
33.75000 19.204
33.76000 20.518
33.77000 22.434
33.78000 18.025
33.79000 23.389
33.80000 23.261
33.81000 18.154
33.82000 23.079
33.83000 10.081
33.84000 15.442
33.85000 24.077
33.86000 20.315
33.87000 25.219
33.88000 16.018
33.89000 9.103
33.90000 19.302
33.91000 23.425
33.92000 33.542
33.93000 20.359
33.94000 15.276
33.95000 18.346
33.96000 16.118
33.97000 21.391
33.98000 20.263
33.99000 21.231
34.00000 13.178
34.01000 18.392
34.02000 9.040
34.03000 31.531
34.04000 19.433
34.05000 22.275
34.06000 24.259
34.07000 18.245
34.08000 16.207
34.09000 16.116
34.10000 17.201
34.11000 18.399
34.12000 19.244
34.13000 16.285
34.14000 20.168
34.15000 10.243
34.16000 22.122
34.17000 26.221
34.18000 17.115
34.19000 16.126
34.20000 18.229
34.21000 16.384
34.22000 18.266
34.23000 20.267
34.24000 30.225
34.25000 9.133
34.26000 23.365
34.27000 11.038
34.28000 17.179
34.29000 18.376
34.30000 16.174
34.31000 15.138
34.32000 15.279
34.33000 20.348
34.34000 15.226
34.35000 16.283
34.36000 24.276
34.37000 17.261
34.38000 10.208
34.39000 17.256
34.40000 17.275
34.41000 18.287
34.42000 14.201
34.43000 22.323
34.44000 19.370
34.45000 9.189
34.46000 14.220
34.47000 21.080
34.48000 14.230
34.49000 21.404
34.50000 15.293
34.51000 14.205
34.52000 14.158
34.53000 12.140
34.54000 20.316
34.55000 9.164
34.56000 17.273
34.57000 27.451
34.58000 14.336
34.59000 17.382
34.60000 19.192
34.61000 17.259
34.62000 20.379
34.63000 19.186
34.64000 22.211
34.65000 16.193
34.66000 14.397
34.67000 12.092
34.68000 14.068
34.69000 26.231
34.70000 20.491
34.71000 12.312
34.72000 21.233
34.73000 29.445
34.74000 19.220
34.75000 18.260
34.76000 21.127
34.77000 17.165
34.78000 27.269
34.79000 20.310
34.80000 24.461
34.81000 22.208
34.82000 21.336
34.83000 21.390
34.84000 16.105
34.85000 13.252
34.86000 16.264
34.87000 18.330
34.88000 27.474
34.89000 13.277
34.90000 12.125
34.91000 22.332
34.92000 16.123
34.93000 19.445
34.94000 16.019
34.95000 12.164
34.96000 20.221
34.97000 16.022
34.98000 14.266
34.99000 13.143
35.00000 20.349
35.01000 26.349
35.02000 19.955
35.03000 22.381
35.04000 23.142
35.05000 23.305
35.06000 14.999
35.07000 26.723
35.08000 15.121
35.09000 17.307
35.10000 12.032
35.11000 11.179
35.12000 20.191
35.13000 21.340
35.14000 20.227
35.15000 23.320
35.16000 16.143
35.17000 18.374
35.18000 15.178
35.19000 17.277
35.20000 18.247
35.21000 10.076
35.22000 28.625
35.23000 21.120
35.24000 13.181
35.25000 13.123
35.26000 22.167
35.27000 17.368
35.28000 22.229
35.29000 16.402
35.30000 15.104
35.31000 15.231
35.32000 19.158
35.33000 20.074
35.34000 16.074
35.35000 18.250
35.36000 17.135
35.37000 15.152
35.38000 18.121
35.39000 13.163
35.40000 24.412
35.41000 16.142
35.42000 21.222
35.43000 19.230
35.44000 20.100
35.45000 14.056
35.46000 19.190
35.47000 17.148
35.48000 24.176
35.49000 17.094
35.50000 25.234
35.51000 11.074
35.52000 13.109
35.53000 21.228
35.54000 17.254
35.55000 19.198
35.56000 17.159
35.57000 18.302
35.58000 18.347
35.59000 31.353
35.60000 22.352
35.61000 22.258
35.62000 16.082
35.63000 20.354
35.64000 6.092
35.65000 12.219
35.66000 22.354
35.67000 19.331
35.68000 15.139
35.69000 14.332
35.70000 18.246
35.71000 19.104
35.72000 15.105
35.73000 20.122
35.74000 15.245
35.75000 23.355
35.76000 14.228
35.77000 20.445
35.78000 12.215
35.79000 15.078
35.80000 19.220
35.81000 27.301
35.82000 9.058
35.83000 18.357
35.84000 12.146
35.85000 22.321
35.86000 21.344
35.87000 17.161
35.88000 23.185
35.89000 20.190
35.90000 23.218
35.91000 19.265
35.92000 14.160
35.93000 19.275
35.94000 20.470
35.95000 16.162
35.96000 19.156
35.97000 22.488
35.98000 13.092
35.99000 22.231
36.00000 20.356
36.01000 20.342
36.02000 30.300
36.03000 19.203
36.04000 14.148
36.05000 16.145
36.06000 20.158
36.07000 12.190
36.08000 22.202
36.09000 20.471
36.10000 20.168
36.11000 22.425
36.12000 14.169
36.13000 16.329
36.14000 26.329
36.15000 15.137
36.16000 18.253
36.17000 23.466
36.18000 21.401
36.19000 23.519
36.20000 18.277
36.21000 16.249
36.22000 22.417
36.23000 18.295
36.24000 25.392
36.25000 15.212
36.26000 21.291
36.27000 19.189
36.28000 14.255
36.29000 22.281
36.30000 21.026
36.31000 13.193
36.32000 16.314
36.33000 18.345
36.34000 12.307
36.35000 12.121
36.36000 13.073
36.37000 13.162
36.38000 22.335
36.39000 8.974
36.40000 17.140
36.41000 17.225
36.42000 18.245
36.43000 18.188
36.44000 19.164
36.45000 17.056
36.46000 13.129
36.47000 15.247
36.48000 19.204
36.49000 12.184
36.50000 27.304
36.51000 16.032
36.52000 23.255
36.53000 18.160
36.54000 14.256
36.55000 24.274
36.56000 22.297
36.57000 22.157
36.58000 19.255
36.59000 21.244
36.60000 19.419
36.61000 19.301
36.62000 21.226
36.63000 20.533
36.64000 9.101
36.65000 15.248
36.66000 11.131
36.67000 19.286
36.68000 22.269
36.69000 22.130
36.70000 16.183
36.71000 21.231
36.72000 24.433
36.73000 18.286
36.74000 19.117
36.75000 17.340
36.76000 18.147
36.77000 20.200
36.78000 19.394
36.79000 20.355
36.80000 18.328
36.81000 24.254
36.82000 17.447
36.83000 24.275
36.84000 14.177
36.85000 16.291
36.86000 17.203
36.87000 16.160
36.88000 14.291
36.89000 9.178
36.90000 14.149
36.91000 18.303
36.92000 19.169
36.93000 14.313
36.94000 18.340
36.95000 17.209
36.96000 12.031
36.97000 14.272
36.98000 21.206
36.99000 17.177
37.00000 20.509
37.01000 20.213
37.02000 14.243
37.03000 17.297
37.04000 8.079
37.05000 25.507
37.06000 20.247
37.07000 23.276
37.08000 20.155
37.09000 16.281
37.10000 15.265
37.11000 17.348
37.12000 21.089
37.13000 15.076
37.14000 10.236
37.15000 19.270
37.16000 18.125
37.17000 21.307
37.18000 26.556
37.19000 24.193
37.20000 23.308
37.21000 23.164
37.22000 13.095
37.23000 14.206
37.24000 28.461
37.25000 16.133
37.26000 31.612
37.27000 23.250
37.28000 25.356
37.29000 14.081
37.30000 13.145
37.31000 22.274
37.32000 17.304
37.33000 15.064
37.34000 18.146
37.35000 22.445
37.36000 28.226
37.37000 17.274
37.38000 17.183
37.39000 23.554
37.40000 15.057
37.41000 29.306
37.42000 27.272
37.43000 17.150
37.44000 17.066
37.45000 21.386
37.46000 25.268
37.47000 32.526
37.48000 14.177
37.49000 21.177
37.50000 15.250
37.51000 21.341
37.52000 18.133
37.53000 12.255
37.54000 12.194
37.55000 13.248
37.56000 20.221
37.57000 22.338
37.58000 18.262
37.59000 19.207
37.60000 13.037
37.61000 16.203
37.62000 20.152
37.63000 24.168
37.64000 16.303
37.65000 22.229
37.66000 15.190
37.67000 14.208
37.68000 17.148
37.69000 21.404
37.70000 22.385
37.71000 13.147
37.72000 23.383
37.73000 18.266
37.74000 19.173
37.75000 18.224
37.76000 19.237
37.77000 15.180
37.78000 17.079
37.79000 25.400
37.80000 21.466
37.81000 21.288
37.82000 19.321
37.83000 17.121
37.84000 21.304
37.85000 20.168
37.86000 15.263
37.87000 20.172
37.88000 20.484
37.89000 18.314
37.90000 22.348
37.91000 21.203
37.92000 15.277
37.93000 17.300
37.94000 23.283
37.95000 18.321
37.96000 19.100
37.97000 18.264
37.98000 15.285
37.99000 22.146
38.00000 17.365
38.01000 12.246
38.02000 20.372
38.03000 14.198
38.04000 15.128
38.05000 28.319
38.06000 19.061
38.07000 20.283
38.08000 22.367
38.09000 32.403
38.10000 23.178
38.11000 21.258
38.12000 25.368
38.13000 15.245
38.14000 14.123
38.15000 21.309
38.16000 25.268
38.17000 19.359
38.18000 26.487
38.19000 20.160
38.20000 18.231
38.21000 20.231
38.22000 15.129
38.23000 17.320
38.24000 18.315
38.25000 17.218
38.26000 19.328
38.27000 10.038
38.28000 15.154
38.29000 11.049
38.30000 23.390
38.31000 19.244
38.32000 22.295
38.33000 16.304
38.34000 25.283
38.35000 15.135
38.36000 32.236
38.37000 13.066
38.38000 23.195
38.39000 35.255
38.40000 16.042
38.41000 19.365
38.42000 19.164
38.43000 22.246
38.44000 20.073
38.45000 18.107
38.46000 16.262
38.47000 24.432
38.48000 29.266
38.49000 21.365
38.50000 19.226
38.51000 27.287
38.52000 19.323
38.53000 27.575
38.54000 17.200
38.55000 23.206
38.56000 20.300
38.57000 21.514
38.58000 20.196
38.59000 18.253
38.60000 26.152
38.61000 16.071
38.62000 20.194
38.63000 16.133
38.64000 19.467
38.65000 17.217
38.66000 24.464
38.67000 17.022
38.68000 16.139
38.69000 27.321
38.70000 33.705
38.71000 21.170
38.72000 20.134
38.73000 31.357
38.74000 24.219
38.75000 26.415
38.76000 35.655
38.77000 17.136
38.78000 20.256
38.79000 23.158
38.80000 19.213
38.81000 27.299
38.82000 14.103
38.83000 21.289
38.84000 22.287
38.85000 14.327
38.86000 23.282
38.87000 19.056
38.88000 23.298
38.89000 15.252
38.90000 22.350
38.91000 19.342
38.92000 21.136
38.93000 36.530
38.94000 16.222
38.95000 17.157
38.96000 27.480
38.97000 19.318
38.98000 19.216
38.99000 17.304
39.00000 27.369
39.01000 23.389
39.02000 22.220
39.03000 24.255
39.04000 27.234
39.05000 18.095
39.06000 25.498
39.07000 24.346
39.08000 16.243
39.09000 19.170
39.10000 21.191
39.11000 22.254
39.12000 19.267
39.13000 17.094
39.14000 15.185
39.15000 20.312
39.16000 20.287
39.17000 24.424
39.18000 16.184
39.19000 14.240
39.20000 16.046
39.21000 22.580
39.22000 24.488
39.23000 21.144
39.24000 21.230
39.25000 18.246
39.26000 17.198
39.27000 30.493
39.28000 20.390
39.29000 18.410
39.30000 27.508
39.31000 32.657
39.32000 19.305
39.33000 15.066
39.34000 24.340
39.35000 20.222
39.36000 17.169
39.37000 15.200
39.38000 25.325
39.39000 19.141
39.40000 17.205
39.41000 15.101
39.42000 22.131
39.43000 24.283
39.44000 19.308
39.45000 20.372
39.46000 18.510
39.47000 21.279
39.48000 24.299
39.49000 20.021
39.50000 26.504
39.51000 26.194
39.52000 23.484
39.53000 20.170
39.54000 18.218
39.55000 25.200
39.56000 31.367
39.57000 24.519
39.58000 17.277
39.59000 21.133
39.60000 15.168
39.61000 23.144
39.62000 18.143
39.63000 22.335
39.64000 29.237
39.65000 22.306
39.66000 21.535
39.67000 16.129
39.68000 25.437
39.69000 32.083
39.70000 15.103
39.71000 21.300
39.72000 20.374
39.73000 20.235
39.74000 20.352
39.75000 24.308
39.76000 29.399
39.77000 23.095
39.78000 21.262
39.79000 19.476
39.80000 35.552
39.81000 16.178
39.82000 22.179
39.83000 23.358
39.84000 22.269
39.85000 20.244
39.86000 18.180
39.87000 19.216
39.88000 21.057
39.89000 32.371
39.90000 25.310
39.91000 18.255
39.92000 22.361
39.93000 20.387
39.94000 22.185
39.95000 22.197
39.96000 23.172
39.97000 18.355
39.98000 17.013
39.99000 15.080
40.00000 13.225
40.01000 15.320
40.02000 18.217
40.03000 16.240
40.04000 20.292
40.05000 28.272
40.06000 15.084
40.07000 20.307
40.08000 23.334
40.09000 19.226
40.10000 23.215
40.11000 20.515
40.12000 25.314
40.13000 16.142
40.14000 24.494
40.15000 21.267
40.16000 11.241
40.17000 25.224
40.18000 19.242
40.19000 22.257
40.20000 26.508
40.21000 21.424
40.22000 21.326
40.23000 21.186
40.24000 22.335
40.25000 33.647
40.26000 29.271
40.27000 26.150
40.28000 29.538
40.29000 19.171
40.30000 32.382
40.31000 30.294
40.32000 20.186
40.33000 26.643
40.34000 16.349
40.35000 26.301
40.36000 15.327
40.37000 22.396
40.38000 18.337
40.39000 24.186
40.40000 19.268
40.41000 22.266
40.42000 20.164
40.43000 21.265
40.44000 23.440
40.45000 26.209
40.46000 22.383
40.47000 21.335
40.48000 17.374
40.49000 25.160
40.50000 14.223
40.51000 20.333
40.52000 18.428
40.53000 16.077
40.54000 20.454
40.55000 26.354
40.56000 28.386
40.57000 29.419
40.58000 26.483
40.59000 15.223
40.60000 18.283
40.61000 20.462
40.62000 15.311
40.63000 18.298
40.64000 22.118
40.65000 19.314
40.66000 15.130
40.67000 21.350
40.68000 19.092
40.69000 17.074
40.70000 29.501
40.71000 24.454
40.72000 22.335
40.73000 21.179
40.74000 23.507
40.75000 16.123
40.76000 22.256
40.77000 23.374
40.78000 18.335
40.79000 18.212
40.80000 25.483
40.81000 23.180
40.82000 28.457
40.83000 39.342
40.84000 16.208
40.85000 21.361
40.86000 29.538
40.87000 17.205
40.88000 21.282
40.89000 20.514
40.90000 29.513
40.91000 22.316
40.92000 12.120
40.93000 14.014
40.94000 19.245
40.95000 25.346
40.96000 25.317
40.97000 20.280
40.98000 25.257
40.99000 17.186
41.00000 21.177
41.01000 22.314
41.02000 24.373
41.03000 20.064
41.04000 23.429
41.05000 21.238
41.06000 22.433
41.07000 14.192
41.08000 27.402
41.09000 25.489
41.10000 25.225
41.11000 19.230
41.12000 15.163
41.13000 21.531
41.14000 20.376
41.15000 20.260
41.16000 16.168
41.17000 22.335
41.18000 24.505
41.19000 22.257
41.20000 25.376
41.21000 20.139
41.22000 26.202
41.23000 25.558
41.24000 22.033
41.25000 16.189
41.26000 21.360
41.27000 26.243
41.28000 19.299
41.29000 31.329
41.30000 23.106
41.31000 21.336
41.32000 17.226
41.33000 15.146
41.34000 22.291
41.35000 28.310
41.36000 23.217
41.37000 25.480
41.38000 29.482
41.39000 29.720
41.40000 16.295
41.41000 25.344
41.42000 26.384
41.43000 19.258
41.44000 19.117
41.45000 20.393
41.46000 20.227
41.47000 31.445
41.48000 29.413
41.49000 26.209
41.50000 28.486
41.51000 19.248
41.52000 14.105
41.53000 28.361
41.54000 20.188
41.55000 15.195
41.56000 23.357
41.57000 23.442
41.58000 26.458
41.59000 19.125
41.60000 21.466
41.61000 32.178
41.62000 25.438
41.63000 20.258
41.64000 24.492
41.65000 18.175
41.66000 22.114
41.67000 27.251
41.68000 20.343
41.69000 21.251
41.70000 31.666
41.71000 22.331
41.72000 24.315
41.73000 18.202
41.74000 21.068
41.75000 26.256
41.76000 19.278
41.77000 23.389
41.78000 22.420
41.79000 16.148
41.80000 22.512
41.81000 14.089
41.82000 20.234
41.83000 13.152
41.84000 21.483
41.85000 22.362
41.86000 29.543
41.87000 28.400
41.88000 25.458
41.89000 25.202
41.90000 28.558
41.91000 20.062
41.92000 27.352
41.93000 26.165
41.94000 29.333
41.95000 25.232
41.96000 24.411
41.97000 22.378
41.98000 31.156
41.99000 28.572
42.00000 23.285
42.01000 30.357
42.02000 15.232
42.03000 23.267
42.04000 20.165
42.05000 24.293
42.06000 22.309
42.07000 19.059
42.08000 20.529
42.09000 17.168
42.10000 15.148
42.11000 28.348
42.12000 20.409
42.13000 25.336
42.14000 24.145
42.15000 20.247
42.16000 23.106
42.17000 28.340
42.18000 25.284
42.19000 22.404
42.20000 23.116
42.21000 18.239
42.22000 23.225
42.23000 28.239
42.24000 27.343
42.25000 19.248
42.26000 25.391
42.27000 17.183
42.28000 19.135
42.29000 22.371
42.30000 22.207
42.31000 14.148
42.32000 14.168
42.33000 24.226
42.34000 25.234
42.35000 19.230
42.36000 24.274
42.37000 16.337
42.38000 20.269
42.39000 22.252
42.40000 24.384
42.41000 16.261
42.42000 24.421
42.43000 19.170
42.44000 18.320
42.45000 25.317
42.46000 14.174
42.47000 22.340
42.48000 14.139
42.49000 30.415
42.50000 18.303
42.51000 19.188
42.52000 12.170
42.53000 40.648
42.54000 23.385
42.55000 15.133
42.56000 25.289
42.57000 36.695
42.58000 26.360
42.59000 18.142
42.60000 14.273
42.61000 25.101
42.62000 26.503
42.63000 23.204
42.64000 21.357
42.65000 29.369
42.66000 22.422
42.67000 20.326
42.68000 23.258
42.69000 25.161
42.70000 19.183
42.71000 18.089
42.72000 17.229
42.73000 26.538
42.74000 17.155
42.75000 28.467
42.76000 18.197
42.77000 26.294
42.78000 13.009
42.79000 29.662
42.80000 24.300
42.81000 19.425
42.82000 24.108
42.83000 25.260
42.84000 16.418
42.85000 22.277
42.86000 26.296
42.87000 31.256
42.88000 22.338
42.89000 15.071
42.90000 27.471
42.91000 17.349
42.92000 22.193
42.93000 23.282
42.94000 26.388
42.95000 19.231
42.96000 20.365
42.97000 31.428
42.98000 28.219
42.99000 13.179
43.00000 19.163
43.01000 21.068
43.02000 13.378
43.03000 18.306
43.04000 16.266
43.05000 32.550
43.06000 22.476
43.07000 24.433
43.08000 21.153
43.09000 18.222
43.10000 10.189
43.11000 17.305
43.12000 16.330
43.13000 15.179
43.14000 19.176
43.15000 23.231
43.16000 19.333
43.17000 17.129
43.18000 22.321
43.19000 22.264
43.20000 24.344
43.21000 14.190
43.22000 25.219
43.23000 22.334
43.24000 18.125
43.25000 27.004
43.26000 20.314
43.27000 25.333
43.28000 30.578
43.29000 26.431
43.30000 25.308
43.31000 20.256
43.32000 23.340
43.33000 26.441
43.34000 28.325
43.35000 19.278
43.36000 26.324
43.37000 24.237
43.38000 15.192
43.39000 14.111
43.40000 22.364
43.41000 15.292
43.42000 16.110
43.43000 22.337
43.44000 20.306
43.45000 19.239
43.46000 18.354
43.47000 15.325
43.48000 25.381
43.49000 21.257
43.50000 13.142
43.51000 30.336
43.52000 22.336
43.53000 17.201
43.54000 36.482
43.55000 18.429
43.56000 31.391
43.57000 30.495
43.58000 24.314
43.59000 27.345
43.60000 17.216
43.61000 23.474
43.62000 21.314
43.63000 22.432
43.64000 16.131
43.65000 18.105
43.66000 23.182
43.67000 18.108
43.68000 26.386
43.69000 26.256
43.70000 18.059
43.71000 25.217
43.72000 25.093
43.73000 26.527
43.74000 23.313
43.75000 23.455
43.76000 21.371
43.77000 17.126
43.78000 24.349
43.79000 20.392
43.80000 19.400
43.81000 32.331
43.82000 35.480
43.83000 20.250
43.84000 20.137
43.85000 30.291
43.86000 30.375
43.87000 29.421
43.88000 23.384
43.89000 16.219
43.90000 29.206
43.91000 20.118
43.92000 24.199
43.93000 17.122
43.94000 23.282
43.95000 23.253
43.96000 25.454
43.97000 26.336
43.98000 22.364
43.99000 23.270
44.00000 26.188
44.01000 24.302
44.02000 32.152
44.03000 27.639
44.04000 26.353
44.05000 24.299
44.06000 13.380
44.07000 16.146
44.08000 25.123
44.09000 22.349
44.10000 33.535
44.11000 32.553
44.12000 19.386
44.13000 21.350
44.14000 14.040
44.15000 18.301
44.16000 30.416
44.17000 27.458
44.18000 21.378
44.19000 24.331
44.20000 18.213
44.21000 24.225
44.22000 26.509
44.23000 21.237
44.24000 26.397
44.25000 23.256
44.26000 19.474
44.27000 26.207
44.28000 20.291
44.29000 23.359
44.30000 19.096
44.31000 16.044
44.32000 20.421
44.33000 14.159
44.34000 27.372
44.35000 28.090
44.36000 27.436
44.37000 18.149
44.38000 27.202
44.39000 19.250
44.40000 19.306
44.41000 23.500
44.42000 19.178
44.43000 20.277
44.44000 19.216
44.45000 18.174
44.46000 23.906
44.47000 24.335
44.48000 21.376
44.49000 25.454
44.50000 26.328
44.51000 19.142
44.52000 25.323
44.53000 15.321
44.54000 20.224
44.55000 28.284
44.56000 24.158
44.57000 19.294
44.58000 22.427
44.59000 30.413
44.60000 27.394
44.61000 26.300
44.62000 20.295
44.63000 21.195
44.64000 29.384
44.65000 26.234
44.66000 13.335
44.67000 21.243
44.68000 19.184
44.69000 17.190
44.70000 16.323
44.71000 21.214
44.72000 16.193
44.73000 22.253
44.74000 20.302
44.75000 18.233
44.76000 24.221
44.77000 29.505
44.78000 26.304
44.79000 30.430
44.80000 29.219
44.81000 19.219
44.82000 17.193
44.83000 28.458
44.84000 26.277
44.85000 18.204
44.86000 27.483
44.87000 19.200
44.88000 21.424
44.89000 27.649
44.90000 21.335
44.91000 19.227
44.92000 19.208
44.93000 22.260
44.94000 33.357
44.95000 26.569
44.96000 17.177
44.97000 17.164
44.98000 21.369
44.99000 21.426
45.00000 24.103
45.01000 33.340
45.02000 24.147
45.03000 17.042
45.04000 18.219
45.05000 20.144
45.06000 23.288
45.07000 20.373
45.08000 18.256
45.09000 19.297
45.10000 13.182
45.11000 22.242
45.12000 17.316
45.13000 23.375
45.14000 19.453
45.15000 22.532
45.16000 24.269
45.17000 21.258
45.18000 19.042
45.19000 28.236
45.20000 19.250
45.21000 20.283
45.22000 22.396
45.23000 23.337
45.24000 23.247
45.25000 22.349
45.26000 22.405
45.27000 21.216
45.28000 19.243
45.29000 18.191
45.30000 16.354
45.31000 25.337
45.32000 18.197
45.33000 31.179
45.34000 19.452
45.35000 20.334
45.36000 20.052
45.37000 20.155
45.38000 20.035
45.39000 22.234
45.40000 25.440
45.41000 17.452
45.42000 23.241
45.43000 22.306
45.44000 26.590
45.45000 25.339
45.46000 26.403
45.47000 22.391
45.48000 16.182
45.49000 25.247
45.50000 23.346
45.51000 27.217
45.52000 28.414
45.53000 34.698
45.54000 19.300
45.55000 23.379
45.56000 18.122
45.57000 23.472
45.58000 21.408
45.59000 20.188
45.60000 26.220
45.61000 19.202
45.62000 17.223
45.63000 23.378
45.64000 26.267
45.65000 17.262
45.66000 20.400
45.67000 15.134
45.68000 16.336
45.69000 29.447
45.70000 23.305
45.71000 19.195
45.72000 23.456
45.73000 26.365
45.74000 31.474
45.75000 24.210
45.76000 28.390
45.77000 14.114
45.78000 18.371
45.79000 27.428
45.80000 21.165
45.81000 14.223
45.82000 20.194
45.83000 28.465
45.84000 18.108
45.85000 27.547
45.86000 22.271
45.87000 12.237
45.88000 19.099
45.89000 18.292
45.90000 21.423
45.91000 10.994
45.92000 23.299
45.93000 21.179
45.94000 12.224
45.95000 20.284
45.96000 22.192
45.97000 17.088
45.98000 23.269
45.99000 17.239
46.00000 28.401
46.01000 15.438
46.02000 18.303
46.03000 31.476
46.04000 20.170
46.05000 24.232
46.06000 13.075
46.07000 13.316
46.08000 19.257
46.09000 27.254
46.10000 21.114
46.11000 13.190
46.12000 25.365
46.13000 17.124
46.14000 23.121
46.15000 12.281
46.16000 30.654
46.17000 18.276
46.18000 22.357
46.19000 29.478
46.20000 21.117
46.21000 19.311
46.22000 13.197
46.23000 21.379
46.24000 24.419
46.25000 13.182
46.26000 17.222
46.27000 19.356
46.28000 18.307
46.29000 13.184
46.30000 19.261
46.31000 23.385
46.32000 14.211
46.33000 17.173
46.34000 27.230
46.35000 23.209
46.36000 15.206
46.37000 29.499
46.38000 16.266
46.39000 17.231
46.40000 19.186
46.41000 17.327
46.42000 17.172
46.43000 15.249
46.44000 19.391
46.45000 30.597
46.46000 26.218
46.47000 13.213
46.48000 31.291
46.49000 28.293
46.50000 14.152
46.51000 19.434
46.52000 20.287
46.53000 13.098
46.54000 23.257
46.55000 27.214
46.56000 22.163
46.57000 20.127
46.58000 25.631
46.59000 21.425
46.60000 21.189
46.61000 29.282
46.62000 24.218
46.63000 17.269
46.64000 21.302
46.65000 16.402
46.66000 19.295
46.67000 26.455
46.68000 15.322
46.69000 30.314
46.70000 15.071
46.71000 21.162
46.72000 17.166
46.73000 31.377
46.74000 18.097
46.75000 17.356
46.76000 18.017
46.77000 24.261
46.78000 16.292
46.79000 21.425
46.80000 23.134
46.81000 14.246
46.82000 31.418
46.83000 21.353
46.84000 25.140
46.85000 25.178
46.86000 25.389
46.87000 13.283
46.88000 16.199
46.89000 15.026
46.90000 17.229
46.91000 15.351
46.92000 22.142
46.93000 24.347
46.94000 29.502
46.95000 20.117
46.96000 16.190
46.97000 17.199
46.98000 17.207
46.99000 16.214
47.00000 16.195
47.01000 17.163
47.02000 20.175
47.03000 29.372
47.04000 24.204
47.05000 20.307
47.06000 15.139
47.07000 22.302
47.08000 25.469
47.09000 25.282
47.10000 19.331
47.11000 26.244
47.12000 25.237
47.13000 22.375
47.14000 21.300
47.15000 17.251
47.16000 17.179
47.17000 10.211
47.18000 14.161
47.19000 20.314
47.20000 11.169
47.21000 26.480
47.22000 12.217
47.23000 27.538
47.24000 23.086
47.25000 24.233
47.26000 17.367
47.27000 21.243
47.28000 22.127
47.29000 18.121
47.30000 20.129
47.31000 15.287
47.32000 20.360
47.33000 25.268
47.34000 22.138
47.35000 21.297
47.36000 25.237
47.37000 23.367
47.38000 31.397
47.39000 21.155
47.40000 24.186
47.41000 15.220
47.42000 25.431
47.43000 16.262
47.44000 21.286
47.45000 18.119
47.46000 28.350
47.47000 16.254
47.48000 21.228
47.49000 24.376
47.50000 22.311
47.51000 19.433
47.52000 27.345
47.53000 18.206
47.54000 22.384
47.55000 19.036
47.56000 20.272
47.57000 22.324
47.58000 21.210
47.59000 15.243
47.60000 22.244
47.61000 20.365
47.62000 21.172
47.63000 27.306
47.64000 18.226
47.65000 27.325
47.66000 26.239
47.67000 16.233
47.68000 20.162
47.69000 21.259
47.70000 20.221
47.71000 21.150
47.72000 16.356
47.73000 24.317
47.74000 20.190
47.75000 17.239
47.76000 21.098
47.77000 28.549
47.78000 18.236
47.79000 22.502
47.80000 18.377
47.81000 20.248
47.82000 20.429
47.83000 24.172
47.84000 20.279
47.85000 26.251
47.86000 16.061
47.87000 25.538
47.88000 22.274
47.89000 19.396
47.90000 15.140
47.91000 22.248
47.92000 13.192
47.93000 16.332
47.94000 28.419
47.95000 16.253
47.96000 22.302
47.97000 14.039
47.98000 20.374
47.99000 21.209
48.00000 17.101
48.01000 15.055
48.02000 21.204
48.03000 16.152
48.04000 18.146
48.05000 16.332
48.06000 25.441
48.07000 23.398
48.08000 21.331
48.09000 23.501
48.10000 11.111
48.11000 28.329
48.12000 30.300
48.13000 25.309
48.14000 16.100
48.15000 22.357
48.16000 16.238
48.17000 28.619
48.18000 20.364
48.19000 20.065
48.20000 33.612
48.21000 23.216
48.22000 21.245
48.23000 13.115
48.24000 19.307
48.25000 21.210
48.26000 20.255
48.27000 17.140
48.28000 19.242
48.29000 17.152
48.30000 16.167
48.31000 23.288
48.32000 17.244
48.33000 24.308
48.34000 15.248
48.35000 18.344
48.36000 19.281
48.37000 17.236
48.38000 19.242
48.39000 18.281
48.40000 22.422
48.41000 22.346
48.42000 18.260
48.43000 19.247
48.44000 21.261
48.45000 17.248
48.46000 18.249
48.47000 27.378
48.48000 22.271
48.49000 19.156
48.50000 26.494
48.51000 10.191
48.52000 18.297
48.53000 16.143
48.54000 23.143
48.55000 28.427
48.56000 18.196
48.57000 20.109
48.58000 21.307
48.59000 19.341
48.60000 14.148
48.61000 18.320
48.62000 15.116
48.63000 21.361
48.64000 17.434
48.65000 19.253
48.66000 24.208
48.67000 20.274
48.68000 15.163
48.69000 17.178
48.70000 20.291
48.71000 21.085
48.72000 27.330
48.73000 9.041
48.74000 27.114
48.75000 17.158
48.76000 20.367
48.77000 23.227
48.78000 25.210
48.79000 16.362
48.80000 22.166
48.81000 26.393
48.82000 16.067
48.83000 20.347
48.84000 11.037
48.85000 21.308
48.86000 18.125
48.87000 33.236
48.88000 22.333
48.89000 28.361
48.90000 23.242
48.91000 16.074
48.92000 25.402
48.93000 20.098
48.94000 17.196
48.95000 24.422
48.96000 16.339
48.97000 14.232
48.98000 19.450
48.99000 12.212
49.00000 16.185
49.01000 20.340
49.02000 23.493
49.03000 14.283
49.04000 24.467
49.05000 17.138
49.06000 16.200
49.07000 18.278
49.08000 22.490
49.09000 24.379
49.10000 16.181
49.11000 14.169
49.12000 15.139
49.13000 19.242
49.14000 22.341
49.15000 20.280
49.16000 11.112
49.17000 15.299
49.18000 20.270
49.19000 17.160
49.20000 17.170
49.21000 28.136
49.22000 12.027
49.23000 17.429
49.24000 11.136
49.25000 18.261
49.26000 16.172
49.27000 26.318
49.28000 18.312
49.29000 19.142
49.30000 23.098
49.31000 16.317
49.32000 13.235
49.33000 18.068
49.34000 23.386
49.35000 21.304
49.36000 17.175
49.37000 20.162
49.38000 30.479
49.39000 17.037
49.40000 16.300
49.41000 14.045
49.42000 14.212
49.43000 22.233
49.44000 23.407
49.45000 19.387
49.46000 17.183
49.47000 14.267
49.48000 12.167
49.49000 21.182
49.50000 28.483
49.51000 16.206
49.52000 15.208
49.53000 22.173
49.54000 15.105
49.55000 26.374
49.56000 21.480
49.57000 24.473
49.58000 14.131
49.59000 19.180
49.60000 18.197
49.61000 21.333
49.62000 14.253
49.63000 16.324
49.64000 14.096
49.65000 17.292
49.66000 16.686
49.67000 10.132
49.68000 18.267
49.69000 25.356
49.70000 21.186
49.71000 18.188
49.72000 20.176
49.73000 18.085
49.74000 21.109
49.75000 18.099
49.76000 17.204
49.77000 18.156
49.78000 18.256
49.79000 23.180
49.80000 16.248
49.81000 16.313
49.82000 23.271
49.83000 23.491
49.84000 21.426
49.85000 24.468
49.86000 20.364
49.87000 8.107
49.88000 22.764
49.89000 15.200
49.90000 18.156
49.91000 15.258
49.92000 19.322
49.93000 14.064
49.94000 16.220
49.95000 16.019
49.96000 11.161
49.97000 25.447
49.98000 11.129
49.99000 13.179
50.00000 20.312
50.01000 14.013
50.02000 18.293
50.03000 21.277
50.04000 17.305
50.05000 19.200
50.06000 19.206
50.07000 23.367
50.08000 15.096
50.09000 17.314
50.10000 21.340
50.11000 20.144
50.12000 18.469
50.13000 18.382
50.14000 28.313
50.15000 17.230
50.16000 25.422
50.17000 19.439
50.18000 20.369
50.19000 16.310
50.20000 16.158
50.21000 15.230
50.22000 17.242
50.23000 12.105
50.24000 22.376
50.25000 15.220
50.26000 28.285
50.27000 22.220
50.28000 25.404
50.29000 24.253
50.30000 20.321
50.31000 23.377
50.32000 19.062
50.33000 27.177
50.34000 12.190
50.35000 12.183
50.36000 18.212
50.37000 22.166
50.38000 9.170
50.39000 19.114
50.40000 20.222
50.41000 19.179
50.42000 23.244
50.43000 17.227
50.44000 21.347
50.45000 18.381
50.46000 11.233
50.47000 18.103
50.48000 7.075
50.49000 27.469
50.50000 15.231
50.51000 18.282
50.52000 13.122
50.53000 13.136
50.54000 16.100
50.55000 11.224
50.56000 10.160
50.57000 28.424
50.58000 14.290
50.59000 18.192
50.60000 24.196
50.61000 21.238
50.62000 12.074
50.63000 22.320
50.64000 18.161
50.65000 23.349
50.66000 15.131
50.67000 19.214
50.68000 10.065
50.69000 18.134
50.70000 17.385
50.71000 19.274
50.72000 16.078
50.73000 25.315
50.74000 26.164
50.75000 25.242
50.76000 16.317
50.77000 14.319
50.78000 13.123
50.79000 16.277
50.80000 17.142
50.81000 12.069
50.82000 13.171
50.83000 15.204
50.84000 17.206
50.85000 14.333
50.86000 23.218
50.87000 16.325
50.88000 23.201
50.89000 27.536
50.90000 21.106
50.91000 18.147
50.92000 17.225
50.93000 14.124
50.94000 19.355
50.95000 18.331
50.96000 14.291
50.97000 15.095
50.98000 24.353
50.99000 18.111
51.00000 18.412
51.01000 15.228
51.02000 13.186
51.03000 12.032
51.04000 11.162
51.05000 14.401
51.06000 15.298
51.07000 18.347
51.08000 15.094
51.09000 16.063
51.10000 9.083
51.11000 18.048
51.12000 15.117
51.13000 11.285
51.14000 15.290
51.15000 15.150
51.16000 12.083
51.17000 12.257
51.18000 16.294
51.19000 22.303
51.20000 18.136
51.21000 18.252
51.22000 11.111
51.23000 20.289
51.24000 14.164
51.25000 20.250
51.26000 17.129
51.27000 15.224
51.28000 22.439
51.29000 18.236
51.30000 19.291
51.31000 16.103
51.32000 14.200
51.33000 16.260
51.34000 7.124
51.35000 16.012
51.36000 17.139
51.37000 16.319
51.38000 19.183
51.39000 23.372
51.40000 17.274
51.41000 24.216
51.42000 20.385
51.43000 15.247
51.44000 12.238
51.45000 14.193
51.46000 16.156
51.47000 21.434
51.48000 13.135
51.49000 20.200
51.50000 12.142
51.51000 13.148
51.52000 17.173
51.53000 10.059
51.54000 11.049
51.55000 18.311
51.56000 15.126
51.57000 14.138
51.58000 24.274
51.59000 17.297
51.60000 23.337
51.61000 11.013
51.62000 11.181
51.63000 18.156
51.64000 18.322
51.65000 18.250
51.66000 19.246
51.67000 20.232
51.68000 21.269
51.69000 15.200
51.70000 17.238
51.71000 16.142
51.72000 19.368
51.73000 16.205
51.74000 20.345
51.75000 16.195
51.76000 18.245
51.77000 30.412
51.78000 20.115
51.79000 12.111
51.80000 13.990
51.81000 12.026
51.82000 12.075
51.83000 13.225
51.84000 12.272
51.85000 20.512
51.86000 18.395
51.87000 24.248
51.88000 13.302
51.89000 28.312
51.90000 17.268
51.91000 20.492
51.92000 15.265
51.93000 21.295
51.94000 8.102
51.95000 21.383
51.96000 14.181
51.97000 18.150
51.98000 18.248
51.99000 20.239
52.00000 21.468
52.01000 11.229
52.02000 12.136
52.03000 16.399
52.04000 23.358
52.05000 12.225
52.06000 16.233
52.07000 20.143
52.08000 11.192
52.09000 14.204
52.10000 15.064
52.11000 17.055
52.12000 14.114
52.13000 16.098
52.14000 18.183
52.15000 15.207
52.16000 13.062
52.17000 21.396
52.18000 15.159
52.19000 13.137
52.20000 14.163
52.21000 17.267
52.22000 17.305
52.23000 25.276
52.24000 17.276
52.25000 13.082
52.26000 26.194
52.27000 15.215
52.28000 17.013
52.29000 14.139
52.30000 11.019
52.31000 12.160
52.32000 17.430
52.33000 18.262
52.34000 14.354
52.35000 14.221
52.36000 13.121
52.37000 11.119
52.38000 15.032
52.39000 17.196
52.40000 13.186
52.41000 22.376
52.42000 18.306
52.43000 19.118
52.44000 18.143
52.45000 16.312
52.46000 14.165
52.47000 13.064
52.48000 13.230
52.49000 15.108
52.50000 17.150
52.51000 11.261
52.52000 15.235
52.53000 9.207
52.54000 14.192
52.55000 20.373
52.56000 14.158
52.57000 11.097
52.58000 10.254
52.59000 20.459
52.60000 20.005
52.61000 15.252
52.62000 24.199
52.63000 26.274
52.64000 19.194
52.65000 14.240
52.66000 23.089
52.67000 14.306
52.68000 15.226
52.69000 22.255
52.70000 18.309
52.71000 15.228
52.72000 21.162
52.73000 17.210
52.74000 9.068
52.75000 17.270
52.76000 15.192
52.77000 13.069
52.78000 25.456
52.79000 20.266
52.80000 19.063
52.81000 7.098
52.82000 11.192
52.83000 13.211
52.84000 6.133
52.85000 17.139
52.86000 18.442
52.87000 20.174
52.88000 21.231
52.89000 23.341
52.90000 16.438
52.91000 12.336
52.92000 16.207
52.93000 14.359
52.94000 19.268
52.95000 12.146
52.96000 19.244
52.97000 28.438
52.98000 8.103
52.99000 15.126
53.00000 18.278
53.01000 16.118
53.02000 19.251
53.03000 22.285
53.04000 13.157
53.05000 16.240
53.06000 15.233
53.07000 16.253
53.08000 21.398
53.09000 10.185
53.10000 16.264
53.11000 8.002
53.12000 15.130
53.13000 24.192
53.14000 20.306
53.15000 19.105
53.16000 14.088
53.17000 16.163
53.18000 22.375
53.19000 12.123
53.20000 16.398
53.21000 15.192
53.22000 20.248
53.23000 20.464
53.24000 10.156
53.25000 21.311
53.26000 13.238
53.27000 24.183
53.28000 16.202
53.29000 19.083
53.30000 17.256
53.31000 18.245
53.32000 20.108
53.33000 17.169
53.34000 15.098
53.35000 12.299
53.36000 12.064
53.37000 23.126
53.38000 11.118
53.39000 10.097
53.40000 17.249
53.41000 18.114
53.42000 16.244
53.43000 23.395
53.44000 16.230
53.45000 17.399
53.46000 19.367
53.47000 15.125
53.48000 14.140
53.49000 14.060
53.50000 13.164
53.51000 16.213
53.52000 16.191
53.53000 23.254
53.54000 12.080
53.55000 18.236
53.56000 16.282
53.57000 16.331
53.58000 7.174
53.59000 17.076
53.60000 18.376
53.61000 21.286
53.62000 22.130
53.63000 16.160
53.64000 16.134
53.65000 9.055
53.66000 14.175
53.67000 15.301
53.68000 19.324
53.69000 21.297
53.70000 25.390
53.71000 16.197
53.72000 17.400
53.73000 20.224
53.74000 19.363
53.75000 12.224
53.76000 18.115
53.77000 14.173
53.78000 16.301
53.79000 12.111
53.80000 16.242
53.81000 19.160
53.82000 13.162
53.83000 13.373
53.84000 21.031
53.85000 19.052
53.86000 15.270
53.87000 13.302
53.88000 12.154
53.89000 18.357
53.90000 12.273
53.91000 23.262
53.92000 15.211
53.93000 9.096
53.94000 15.278
53.95000 5.170
53.96000 14.251
53.97000 12.115
53.98000 17.304
53.99000 12.148
54.00000 23.219
54.01000 20.369
54.02000 16.264
54.03000 9.111
54.04000 13.212
54.05000 18.130
54.06000 10.143
54.07000 11.161
54.08000 18.294
54.09000 14.247
54.10000 11.222
54.11000 18.168
54.12000 10.158
54.13000 16.049
54.14000 11.164
54.15000 15.315
54.16000 18.470
54.17000 12.164
54.18000 18.340
54.19000 16.127
54.20000 11.141
54.21000 19.151
54.22000 12.216
54.23000 20.055
54.24000 13.091
54.25000 16.114
54.26000 16.194
54.27000 11.101
54.28000 7.107
54.29000 15.112
54.30000 15.289
54.31000 21.303
54.32000 9.064
54.33000 17.354
54.34000 7.044
54.35000 13.132
54.36000 17.323
54.37000 15.359
54.38000 14.250
54.39000 14.265
54.40000 5.038
54.41000 15.069
54.42000 14.155
54.43000 17.306
54.44000 12.087
54.45000 19.219
54.46000 10.102
54.47000 19.380
54.48000 15.091
54.49000 16.279
54.50000 18.284
54.51000 15.108
54.52000 22.127
54.53000 8.138
54.54000 14.218
54.55000 19.254
54.56000 20.338
54.57000 12.161
54.58000 18.288
54.59000 13.056
54.60000 11.093
54.61000 7.192
54.62000 10.247
54.63000 10.175
54.64000 15.328
54.65000 12.107
54.66000 15.086
54.67000 15.084
54.68000 9.186
54.69000 11.165
54.70000 14.212
54.71000 9.073
54.72000 12.043
54.73000 19.228
54.74000 10.044
54.75000 14.231
54.76000 18.109
54.77000 12.181
54.78000 13.164
54.79000 15.180
54.80000 15.065
54.81000 17.161
54.82000 15.261
54.83000 22.420
54.84000 16.151
54.85000 14.377
54.86000 9.019
54.87000 10.095
54.88000 11.140
54.89000 11.159
54.90000 9.075
54.91000 14.153
54.92000 15.250
54.93000 12.231
54.94000 11.989
54.95000 8.110
54.96000 12.159
54.97000 16.246
54.98000 15.199
54.99000 10.185
55.00000 10.044
55.01000 12.261
55.02000 15.176
55.03000 19.178
55.04000 19.476
55.05000 11.076
55.06000 12.985
55.07000 15.212
55.08000 12.359
55.09000 18.238
55.10000 17.198
55.11000 11.172
55.12000 7.071
55.13000 21.243
55.14000 14.119
55.15000 8.161
55.16000 16.382
55.17000 19.262
55.18000 15.251
55.19000 9.184
55.20000 8.134
55.21000 20.286
55.22000 12.333
55.23000 9.014
55.24000 14.264
55.25000 14.993
55.26000 12.112
55.27000 19.366
55.28000 12.233
55.29000 7.153
55.30000 10.131
55.31000 18.117
55.32000 19.295
55.33000 16.214
55.34000 15.343
55.35000 10.082
55.36000 11.105
55.37000 16.213
55.38000 23.242
55.39000 18.193
55.40000 8.152
55.41000 19.100
55.42000 19.034
55.43000 14.239
55.44000 10.181
55.45000 10.130
55.46000 11.310
55.47000 12.202
55.48000 14.112
55.49000 13.176
55.50000 11.175
55.51000 10.125
55.52000 14.189
55.53000 6.063
55.54000 11.220
55.55000 13.111
55.56000 15.070
55.57000 11.255
55.58000 13.207
55.59000 13.118
55.60000 11.109
55.61000 12.166
55.62000 12.073
55.63000 11.136
55.64000 10.038
55.65000 13.145
55.66000 21.473
55.67000 17.233
55.68000 12.942
55.69000 16.318
55.70000 11.133
55.71000 19.278
55.72000 15.185
55.73000 10.145
55.74000 14.220
55.75000 13.164
55.76000 14.278
55.77000 9.105
55.78000 11.157
55.79000 19.038
55.80000 9.099
55.81000 17.325
55.82000 7.154
55.83000 6.023
55.84000 9.156
55.85000 18.222
55.86000 18.207
55.87000 15.325
55.88000 17.336
55.89000 18.264
55.90000 14.289
55.91000 12.139
55.92000 15.166
55.93000 14.207
55.94000 12.202
55.95000 8.151
55.96000 12.058
55.97000 11.083
55.98000 15.314
55.99000 13.148
56.00000 18.189
56.01000 17.171
56.02000 16.111
56.03000 22.297
56.04000 16.345
56.05000 15.231
56.06000 12.231
56.07000 15.142
56.08000 19.234
56.09000 12.208
56.10000 15.284
56.11000 13.476
56.12000 12.087
56.13000 14.130
56.14000 6.984
56.15000 13.174
56.16000 15.086
56.17000 13.031
56.18000 15.307
56.19000 15.324
56.20000 15.132
56.21000 15.263
56.22000 12.158
56.23000 10.104
56.24000 14.158
56.25000 17.179
56.26000 21.137
56.27000 10.223
56.28000 14.145
56.29000 7.153
56.30000 9.142
56.31000 13.209
56.32000 13.148
56.33000 8.004
56.34000 16.180
56.35000 10.032
56.36000 14.261
56.37000 16.221
56.38000 16.174
56.39000 7.237
56.40000 14.264
56.41000 12.201
56.42000 13.181
56.43000 7.064
56.44000 13.216
56.45000 14.241
56.46000 9.216
56.47000 14.139
56.48000 16.229
56.49000 11.035
56.50000 18.185
56.51000 12.168
56.52000 13.177
56.53000 18.421
56.54000 13.205
56.55000 6.081
56.56000 13.191
56.57000 22.194
56.58000 13.294
56.59000 6.147
56.60000 10.110
56.61000 13.089
56.62000 13.030
56.63000 9.110
56.64000 14.168
56.65000 10.044
56.66000 13.159
56.67000 5.024
56.68000 10.225
56.69000 9.154
56.70000 18.074
56.71000 11.030
56.72000 19.242
56.73000 11.188
56.74000 12.050
56.75000 6.115
56.76000 9.027
56.77000 17.230
56.78000 9.187
56.79000 15.217
56.80000 10.944
56.81000 14.957
56.82000 14.218
56.83000 10.024
56.84000 16.401
56.85000 11.197
56.86000 9.001
56.87000 12.162
56.88000 14.233
56.89000 13.110
56.90000 10.185
56.91000 11.141
56.92000 10.118
56.93000 9.034
56.94000 10.204
56.95000 16.112
56.96000 9.080
56.97000 11.091
56.98000 18.167
56.99000 13.197
57.00000 15.199
57.01000 14.089
57.02000 11.096
57.03000 10.018
57.04000 11.054
57.05000 22.328
57.06000 10.227
57.07000 12.120
57.08000 11.921
57.09000 11.104
57.10000 6.019
57.11000 12.189
57.12000 9.045
57.13000 10.071
57.14000 10.046
57.15000 15.193
57.16000 8.083
57.17000 9.129
57.18000 16.143
57.19000 14.226
57.20000 11.256
57.21000 10.355
57.22000 8.114
57.23000 15.013
57.24000 13.189
57.25000 14.145
57.26000 9.074
57.27000 7.032
57.28000 21.665
57.29000 11.199
57.30000 19.041
57.31000 6.037
57.32000 13.216
57.33000 8.102
57.34000 14.280
57.35000 21.244
57.36000 15.130
57.37000 7.197
57.38000 8.153
57.39000 12.062
57.40000 11.183
57.41000 13.206
57.42000 17.352
57.43000 12.044
57.44000 18.290
57.45000 10.090
57.46000 9.172
57.47000 11.274
57.48000 13.194
57.49000 12.208
57.50000 6.063
57.51000 23.334
57.52000 12.110
57.53000 13.198
57.54000 14.228
57.55000 14.184
57.56000 15.193
57.57000 11.070
57.58000 11.092
57.59000 11.102
57.60000 9.080
57.61000 13.003
57.62000 14.309
57.63000 11.272
57.64000 16.222
57.65000 9.310
57.66000 13.031
57.67000 10.383
57.68000 11.178
57.69000 13.136
57.70000 16.136
57.71000 15.210
57.72000 10.261
57.73000 14.187
57.74000 9.103
57.75000 14.216
57.76000 11.089
57.77000 14.221
57.78000 10.058
57.79000 9.136
57.80000 8.978
57.81000 9.035
57.82000 9.949
57.83000 14.164
57.84000 16.165
57.85000 22.243
57.86000 10.203
57.87000 23.296
57.88000 11.116
57.89000 19.301
57.90000 12.153
57.91000 14.270
57.92000 18.272
57.93000 14.172
57.94000 15.071
57.95000 12.221
57.96000 13.194
57.97000 16.136
57.98000 11.109
57.99000 13.257
58.00000 16.148
58.01000 9.176
58.02000 4.095
58.03000 12.178
58.04000 9.179
58.05000 16.311
58.06000 13.044
58.07000 17.441
58.08000 12.212
58.09000 14.317
58.10000 20.305
58.11000 10.094
58.12000 16.066
58.13000 15.189
58.14000 9.224
58.15000 10.037
58.16000 12.156
58.17000 13.158
58.18000 15.278
58.19000 13.214
58.20000 8.164
58.21000 10.072
58.22000 8.079
58.23000 7.093
58.24000 10.148
58.25000 13.174
58.26000 10.157
58.27000 13.041
58.28000 7.047
58.29000 15.340
58.30000 8.038
58.31000 15.242
58.32000 13.198
58.33000 9.110
58.34000 11.010
58.35000 11.251
58.36000 14.363
58.37000 13.220
58.38000 8.905
58.39000 8.142
58.40000 17.245
58.41000 10.295
58.42000 15.226
58.43000 13.069
58.44000 8.114
58.45000 8.165
58.46000 10.041
58.47000 4.034
58.48000 11.227
58.49000 12.227
58.50000 13.202
58.51000 14.103
58.52000 9.130
58.53000 14.212
58.54000 10.096
58.55000 14.102
58.56000 7.148
58.57000 6.019
58.58000 18.136
58.59000 13.169
58.60000 4.080
58.61000 15.262
58.62000 14.266
58.63000 13.230
58.64000 12.185
58.65000 10.209
58.66000 7.011
58.67000 7.276
58.68000 10.284
58.69000 8.150
58.70000 8.151
58.71000 13.999
58.72000 11.206
58.73000 12.006
58.74000 10.153
58.75000 17.075
58.76000 12.167
58.77000 8.173
58.78000 14.085
58.79000 15.176
58.80000 11.190
58.81000 12.217
58.82000 11.062
58.83000 12.150
58.84000 21.282
58.85000 10.077
58.86000 11.180
58.87000 8.114
58.88000 5.127
58.89000 8.215
58.90000 16.349
58.91000 17.162
58.92000 10.162
58.93000 17.253
58.94000 7.127
58.95000 12.070
58.96000 12.242
58.97000 8.100
58.98000 11.107
58.99000 18.141
59.00000 12.120
59.01000 11.139
59.02000 8.111
59.03000 6.087
59.04000 11.134
59.05000 6.166
59.06000 14.165
59.07000 10.140
59.08000 8.181
59.09000 13.195
59.10000 13.129
59.11000 6.258
59.12000 5.060
59.13000 15.215
59.14000 9.115
59.15000 6.038
59.16000 12.096
59.17000 8.089
59.18000 8.148
59.19000 10.149
59.20000 5.989
59.21000 9.144
59.22000 13.206
59.23000 6.021
59.24000 15.048
59.25000 16.088
59.26000 13.256
59.27000 12.199
59.28000 10.077
59.29000 9.020
59.30000 11.138
59.31000 9.118
59.32000 6.053
59.33000 12.104
59.34000 12.120
59.35000 12.157
59.36000 14.155
59.37000 12.056
59.38000 9.182
59.39000 16.248
59.40000 9.039
59.41000 10.254
59.42000 11.151
59.43000 13.144
59.44000 7.110
59.45000 10.134
59.46000 12.090
59.47000 11.035
59.48000 12.216
59.49000 9.091
59.50000 8.068
59.51000 9.193
59.52000 11.162
59.53000 9.215
59.54000 12.136
59.55000 9.050
59.56000 8.116
59.57000 9.251
59.58000 12.013
59.59000 12.122
59.60000 12.287
59.61000 15.276
59.62000 10.156
59.63000 5.926
59.64000 9.120
59.65000 9.117
59.66000 7.131
59.67000 10.185
59.68000 9.135
59.69000 11.104
59.70000 12.101
59.71000 11.104
59.72000 9.165
59.73000 9.060
59.74000 14.153
59.75000 15.284
59.76000 8.091
59.77000 3.011
59.78000 7.232
59.79000 6.258
59.80000 15.126
59.81000 7.060
59.82000 14.275
59.83000 9.106
59.84000 12.045
59.85000 11.117
59.86000 7.229
59.87000 7.042
59.88000 8.204
59.89000 6.114
59.90000 10.054
59.91000 15.177
59.92000 15.172
59.93000 7.066
59.94000 12.311
59.95000 9.103
59.96000 14.105
59.97000 8.105
59.98000 9.193
59.99000 6.056
60.00000 8.035
60.01000 13.342
60.02000 6.058
60.03000 19.438
60.04000 6.180
60.05000 8.074
60.06000 5.992
60.07000 10.021
60.08000 9.167
60.09000 12.181
60.10000 7.101
60.11000 5.102
60.12000 10.089
60.13000 11.118
60.14000 8.178
60.15000 10.117
60.16000 8.118
60.17000 2.018
60.18000 10.203
60.19000 10.181
60.20000 9.127
60.21000 11.131
60.22000 8.111
60.23000 10.196
60.24000 10.087
60.25000 8.143
60.26000 11.071
60.27000 12.197
60.28000 6.048
60.29000 7.109
60.30000 9.088
60.31000 10.162
60.32000 5.085
60.33000 6.027
60.34000 5.097
60.35000 11.045
60.36000 4.963
60.37000 9.136
60.38000 6.994
60.39000 9.032
60.40000 14.204
60.41000 7.040
60.42000 10.232
60.43000 9.231
60.44000 14.165
60.45000 9.033
60.46000 11.183
60.47000 14.074
60.48000 10.129
60.49000 13.015
60.50000 15.289
60.51000 15.214
60.52000 13.296
60.53000 8.011
60.54000 18.184
60.55000 6.060
60.56000 6.175
60.57000 7.061
60.58000 17.320
60.59000 8.982
60.60000 7.077
60.61000 8.114
60.62000 6.083
60.63000 12.289
60.64000 13.170
60.65000 5.059
60.66000 6.133
60.67000 11.164
60.68000 7.100
60.69000 8.977
60.70000 18.181
60.71000 10.090
60.72000 7.065
60.73000 7.151
60.74000 9.188
60.75000 5.024
60.76000 12.134
60.77000 6.993
60.78000 10.149
60.79000 11.145
60.80000 7.186
60.81000 11.087
60.82000 6.105
60.83000 12.124
60.84000 10.037
60.85000 11.151
60.86000 6.062
60.87000 11.141
60.88000 9.186
60.89000 14.178
60.90000 8.016
60.91000 11.207
60.92000 8.015
60.93000 3.023
60.94000 9.148
60.95000 10.131
60.96000 11.212
60.97000 11.157
60.98000 8.932
60.99000 8.100
61.00000 7.248
61.01000 16.173
61.02000 13.212
61.03000 8.103
61.04000 2.012
61.05000 11.156
61.06000 13.003
61.07000 8.190
61.08000 10.180
61.09000 10.054
61.10000 5.038
61.11000 13.174
61.12000 8.993
61.13000 9.201
61.14000 4.074
61.15000 10.138
61.16000 6.094
61.17000 10.099
61.18000 11.077
61.19000 6.217
61.20000 10.179
61.21000 8.944
61.22000 13.309
61.23000 6.022
61.24000 11.138
61.25000 8.008
61.26000 9.094
61.27000 5.118
61.28000 8.061
61.29000 12.119
61.30000 7.978
61.31000 6.018
61.32000 11.038
61.33000 11.165
61.34000 9.134
61.35000 9.157
61.36000 8.049
61.37000 11.082
61.38000 11.040
61.39000 10.151
61.40000 15.155
61.41000 12.147
61.42000 5.036
61.43000 12.227
61.44000 9.053
61.45000 9.181
61.46000 14.194
61.47000 6.074
61.48000 11.090
61.49000 8.075
61.50000 12.212
61.51000 8.079
61.52000 10.065
61.53000 12.272
61.54000 12.184
61.55000 9.142
61.56000 9.211
61.57000 12.141
61.58000 13.136
61.59000 10.061
61.60000 8.134
61.61000 14.171
61.62000 7.117
61.63000 13.235
61.64000 4.154
61.65000 12.227
61.66000 8.060
61.67000 5.965
61.68000 11.229
61.69000 15.067
61.70000 7.997
61.71000 9.117
61.72000 11.188
61.73000 7.049
61.74000 15.319
61.75000 12.195
61.76000 14.290
61.77000 12.119
61.78000 9.140
61.79000 11.125
61.80000 9.089
61.81000 15.325
61.82000 7.187
61.83000 5.135
61.84000 9.149
61.85000 8.045
61.86000 7.088
61.87000 8.141
61.88000 7.028
61.89000 10.105
61.90000 4.151
61.91000 7.198
61.92000 7.046
61.93000 5.142
61.94000 8.052
61.95000 14.060
61.96000 8.014
61.97000 10.124
61.98000 11.133
61.99000 5.134
62.00000 13.198
62.01000 1.025
62.02000 11.154
62.03000 11.204
62.04000 6.151
62.05000 10.118
62.06000 9.135
62.07000 7.003
62.08000 12.164
62.09000 10.158
62.10000 14.282
62.11000 7.169
62.12000 12.127
62.13000 10.104
62.14000 7.123
62.15000 6.970
62.16000 6.966
62.17000 14.236
62.18000 16.353
62.19000 11.166
62.20000 8.976
62.21000 7.146
62.22000 7.963
62.23000 10.224
62.24000 9.198
62.25000 12.199
62.26000 12.150
62.27000 11.999
62.28000 8.045
62.29000 3.031
62.30000 5.022
62.31000 10.278
62.32000 9.163
62.33000 7.108
62.34000 7.068
62.35000 6.182
62.36000 6.056
62.37000 14.252
62.38000 8.154
62.39000 7.988
62.40000 14.052
62.41000 10.927
62.42000 8.230
62.43000 15.112
62.44000 9.170
62.45000 13.119
62.46000 12.180
62.47000 7.047
62.48000 4.105
62.49000 10.106
62.50000 8.094
62.51000 5.076
62.52000 6.988
62.53000 5.979
62.54000 8.173
62.55000 5.040
62.56000 8.108
62.57000 9.199
62.58000 7.108
62.59000 10.100
62.60000 11.122
62.61000 13.195
62.62000 5.134
62.63000 8.136
62.64000 11.143
62.65000 5.039
62.66000 11.070
62.67000 10.118
62.68000 6.112
62.69000 17.199
62.70000 8.027
62.71000 10.346
62.72000 5.068
62.73000 5.045
62.74000 8.122
62.75000 7.139
62.76000 7.068
62.77000 6.091
62.78000 8.115
62.79000 5.116
62.80000 10.018
62.81000 6.188
62.82000 7.112
62.83000 7.041
62.84000 8.047
62.85000 12.273
62.86000 5.048
62.87000 7.113
62.88000 7.142
62.89000 11.081
62.90000 2.970
62.91000 5.142
62.92000 12.159
62.93000 6.023
62.94000 12.150
62.95000 4.110
62.96000 9.097
62.97000 8.051
62.98000 14.123
62.99000 15.349
63.00000 12.068
63.01000 4.082
63.02000 10.011
63.03000 14.116
63.04000 8.133
63.05000 10.294
63.06000 5.087
63.07000 6.074
63.08000 7.018
63.09000 8.040
63.10000 8.165
63.11000 6.978
63.12000 13.212
63.13000 9.109
63.14000 8.087
63.15000 13.137
63.16000 4.072
63.17000 6.024
63.18000 8.189
63.19000 5.002
63.20000 7.082
63.21000 9.049
63.22000 4.109
63.23000 7.080
63.24000 17.200
63.25000 10.204
63.26000 9.125
63.27000 11.026
63.28000 8.200
63.29000 2.997
63.30000 13.136
63.31000 9.174
63.32000 2.021
63.33000 10.176
63.34000 7.195
63.35000 10.094
63.36000 7.106
63.37000 10.076
63.38000 9.165
63.39000 7.119
63.40000 6.126
63.41000 11.164
63.42000 11.203
63.43000 8.224
63.44000 10.985
63.45000 13.180
63.46000 12.174
63.47000 10.113
63.48000 4.074
63.49000 6.114
63.50000 6.061
63.51000 7.035
63.52000 9.114
63.53000 8.173
63.54000 14.204
63.55000 8.094
63.56000 7.045
63.57000 11.013
63.58000 11.085
63.59000 11.118
63.60000 7.094
63.61000 10.087
63.62000 9.058
63.63000 9.206
63.64000 7.106
63.65000 8.133
63.66000 11.299
63.67000 10.073
63.68000 8.151
63.69000 11.118
63.70000 9.196
63.71000 7.051
63.72000 5.114
63.73000 11.046
63.74000 13.039
63.75000 14.198
63.76000 14.276
63.77000 13.085
63.78000 9.168
63.79000 2.974
63.80000 10.170
63.81000 9.088
63.82000 12.190
63.83000 6.088
63.84000 3.056
63.85000 10.222
63.86000 8.019
63.87000 10.068
63.88000 5.075
63.89000 8.128
63.90000 12.070
63.91000 4.006
63.92000 9.161
63.93000 8.111
63.94000 13.260
63.95000 3.035
63.96000 9.202
63.97000 13.262
63.98000 11.155
63.99000 13.248
64.00000 0.000
64.01000 13.215
64.02000 12.199
64.03000 5.072
64.04000 5.082
64.05000 13.190
64.06000 12.172
64.07000 8.084
64.08000 12.236
64.09000 8.082
64.10000 8.091
64.11000 8.055
64.12000 9.241
64.13000 8.036
64.14000 5.068
64.15000 4.098
64.16000 4.068
64.17000 6.041
64.18000 7.077
64.19000 4.094
64.20000 7.039
64.21000 13.193
64.22000 11.144
64.23000 8.136
64.24000 11.203
64.25000 7.107
64.26000 10.123
64.27000 6.098
64.28000 12.031
64.29000 13.207
64.30000 13.049
64.31000 6.031
64.32000 15.238
64.33000 9.134
64.34000 9.095
64.35000 8.097
64.36000 7.045
64.37000 6.060
64.38000 7.080
64.39000 15.248
64.40000 7.115
64.41000 11.050
64.42000 6.016
64.43000 14.069
64.44000 10.006
64.45000 10.131
64.46000 8.184
64.47000 11.296
64.48000 12.132
64.49000 6.053
64.50000 4.003
64.51000 8.007
64.52000 9.083
64.53000 3.075
64.54000 6.007
64.55000 8.049
64.56000 8.159
64.57000 7.089
64.58000 7.034
64.59000 5.084
64.60000 9.055
64.61000 3.041
64.62000 9.098
64.63000 8.162
64.64000 6.110
64.65000 9.080
64.66000 10.123
64.67000 8.071
64.68000 10.130
64.69000 5.050
64.70000 5.049
64.71000 7.050
64.72000 11.327
64.73000 7.141
64.74000 5.000
64.75000 13.051
64.76000 9.202
64.77000 11.179
64.78000 5.115
64.79000 6.180
64.80000 1.973
64.81000 9.980
64.82000 8.055
64.83000 10.060
64.84000 9.021
64.85000 9.182
64.86000 5.047
64.87000 9.066
64.88000 5.999
64.89000 10.114
64.90000 12.022
64.91000 9.045
64.92000 7.055
64.93000 5.081
64.94000 5.121
64.95000 8.086
64.96000 7.085
64.97000 14.324
64.98000 11.175
64.99000 8.107
65.00000 7.185
