20.00000 15.118
20.01000 11.077
20.02000 13.205
20.03000 10.121
20.04000 20.942
20.05000 14.305
20.06000 19.326
20.07000 18.426
20.08000 14.514
20.09000 15.150
20.10000 16.249
20.11000 28.305
20.12000 23.324
20.13000 13.093
20.14000 16.038
20.15000 22.323
20.16000 18.425
20.17000 24.447
20.18000 21.184
20.19000 14.166
20.20000 15.163
20.21000 11.172
20.22000 17.213
20.23000 16.285
20.24000 22.212
20.25000 14.070
20.26000 21.271
20.27000 15.209
20.28000 26.516
20.29000 16.132
20.30000 17.284
20.31000 25.316
20.32000 13.022
20.33000 18.316
20.34000 13.235
20.35000 20.115
20.36000 18.362
20.37000 16.188
20.38000 11.114
20.39000 17.297
20.40000 15.222
20.41000 20.417
20.42000 17.370
20.43000 19.303
20.44000 14.151
20.45000 18.307
20.46000 15.127
20.47000 17.086
20.48000 24.093
20.49000 21.098
20.50000 26.420
20.51000 20.315
20.52000 15.384
20.53000 27.255
20.54000 19.301
20.55000 14.233
20.56000 18.367
20.57000 15.304
20.58000 13.183
20.59000 17.255
20.60000 22.238
20.61000 21.264
20.62000 22.316
20.63000 10.105
20.64000 20.459
20.65000 16.141
20.66000 20.206
20.67000 16.245
20.68000 31.435
20.69000 15.327
20.70000 20.303
20.71000 18.299
20.72000 15.326
20.73000 23.334
20.74000 15.302
20.75000 14.219
20.76000 16.260
20.77000 16.193
20.78000 19.248
20.79000 26.328
20.80000 10.260
20.81000 17.222
20.82000 28.079
20.83000 18.098
20.84000 21.391
20.85000 17.534
20.86000 17.310
20.87000 28.435
20.88000 20.180
20.89000 15.243
20.90000 20.160
20.91000 18.068
20.92000 18.964
20.93000 15.124
20.94000 20.219
20.95000 12.127
20.96000 17.206
20.97000 23.351
20.98000 20.241
20.99000 16.153
21.00000 19.329
21.01000 20.208
21.02000 22.229
21.03000 21.316
21.04000 23.507
21.05000 22.346
21.06000 19.151
21.07000 16.325
21.08000 30.307
21.09000 18.284
21.10000 17.268
21.11000 24.453
21.12000 24.082
21.13000 16.272
21.14000 14.173
21.15000 18.218
21.16000 19.149
21.17000 20.109
21.18000 17.198
21.19000 17.258
21.20000 20.103
21.21000 23.509
21.22000 22.043
21.23000 19.331
21.24000 19.233
21.25000 17.244
21.26000 16.269
21.27000 18.361
21.28000 21.216
21.29000 19.370
21.30000 18.257
21.31000 20.138
21.32000 23.326
21.33000 18.177
21.34000 12.115
21.35000 27.350
21.36000 18.389
21.37000 23.309
21.38000 18.376
21.39000 16.929
21.40000 17.198
21.41000 18.447
21.42000 15.258
21.43000 19.371
21.44000 22.263
21.45000 21.261
21.46000 17.346
21.47000 16.223
21.48000 21.062
21.49000 20.382
21.50000 20.216
21.51000 19.238
21.52000 22.047
21.53000 25.349
21.54000 23.160
21.55000 19.192
21.56000 20.328
21.57000 22.396
21.58000 16.166
21.59000 19.259
21.60000 29.563
21.61000 17.241
21.62000 17.154
21.63000 23.236
21.64000 16.152
21.65000 27.387
21.66000 20.408
21.67000 21.420
21.68000 18.260
21.69000 26.268
21.70000 19.408
21.71000 23.464
21.72000 18.159
21.73000 17.170
21.74000 22.284
21.75000 19.256
21.76000 26.273
21.77000 25.320
21.78000 23.235
21.79000 28.317
21.80000 28.583
21.81000 14.991
21.82000 22.285
21.83000 13.209
21.84000 15.135
21.85000 25.101
21.86000 13.167
21.87000 23.591
21.88000 15.147
21.89000 33.260
21.90000 15.258
21.91000 14.134
21.92000 20.352
21.93000 28.442
21.94000 28.380
21.95000 20.150
21.96000 13.199
21.97000 24.274
21.98000 18.234
21.99000 19.236
22.00000 21.240
22.01000 18.105
22.02000 17.385
22.03000 29.382
22.04000 24.467
22.05000 15.449
22.06000 27.537
22.07000 32.378
22.08000 17.027
22.09000 16.150
22.10000 24.326
22.11000 22.347
22.12000 17.389
22.13000 29.458
22.14000 32.586
22.15000 16.237
22.16000 26.330
22.17000 13.145
22.18000 27.251
22.19000 20.297
22.20000 22.224
22.21000 25.642
22.22000 18.257
22.23000 18.163
22.24000 26.425
22.25000 21.288
22.26000 24.558
22.27000 20.187
22.28000 27.245
22.29000 27.277
22.30000 21.316
22.31000 20.148
22.32000 18.159
22.33000 26.268
22.34000 20.413
22.35000 26.549
22.36000 21.136
22.37000 22.347
22.38000 16.042
22.39000 20.261
22.40000 23.218
22.41000 30.261
22.42000 29.182
22.43000 29.435
22.44000 27.241
22.45000 23.346
22.46000 16.906
22.47000 13.095
22.48000 19.328
22.49000 19.057
22.50000 32.676
22.51000 35.789
22.52000 21.290
22.53000 24.257
22.54000 17.132
22.55000 17.246
22.56000 22.317
22.57000 21.274
22.58000 23.312
22.59000 21.117
22.60000 30.596
22.61000 19.348
22.62000 17.146
22.63000 24.402
22.64000 26.016
22.65000 31.227
22.66000 26.378
22.67000 23.419
22.68000 25.144
22.69000 26.453
22.70000 23.435
22.71000 25.330
22.72000 16.135
22.73000 27.329
22.74000 24.170
22.75000 18.208
22.76000 20.191
22.77000 29.439
22.78000 21.192
22.79000 29.350
22.80000 14.234
22.81000 23.443
22.82000 28.457
22.83000 11.181
22.84000 35.642
22.85000 29.544
22.86000 18.212
22.87000 16.164
22.88000 13.123
22.89000 17.300
22.90000 29.386
22.91000 26.459
22.92000 29.637
22.93000 28.190
22.94000 22.278
22.95000 20.359
22.96000 27.485
22.97000 30.275
22.98000 17.328
22.99000 18.092
23.00000 22.185
23.01000 27.270
23.02000 33.525
23.03000 22.173
23.04000 24.131
23.05000 22.385
23.06000 15.235
23.07000 26.143
23.08000 26.459
23.09000 27.449
23.10000 19.202
23.11000 21.271
23.12000 27.428
23.13000 20.255
23.14000 20.408
23.15000 27.407
23.16000 23.286
23.17000 21.143
23.18000 23.217
23.19000 27.284
23.20000 19.155
23.21000 19.326
23.22000 19.262
23.23000 25.327
23.24000 25.343
23.25000 16.163
23.26000 22.224
23.27000 21.149
23.28000 19.433
23.29000 19.454
23.30000 27.389
23.31000 29.387
23.32000 27.318
23.33000 23.198
23.34000 28.191
23.35000 24.110
23.36000 19.155
23.37000 21.229
23.38000 21.241
23.39000 27.451
23.40000 25.138
23.41000 33.223
23.42000 31.123
23.43000 24.299
23.44000 18.153
23.45000 25.164
23.46000 33.480
23.47000 18.150
23.48000 19.118
23.49000 28.391
23.50000 36.309
23.51000 19.286
23.52000 29.435
23.53000 16.189
23.54000 22.311
23.55000 29.319
23.56000 29.384
23.57000 33.356
23.58000 28.174
23.59000 25.599
23.60000 25.352
23.61000 18.179
23.62000 24.344
23.63000 29.178
23.64000 21.277
23.65000 18.108
23.66000 30.269
23.67000 31.489
23.68000 29.498
23.69000 22.518
23.70000 21.132
23.71000 21.217
23.72000 27.168
23.73000 28.327
23.74000 22.458
23.75000 33.248
23.76000 34.524
23.77000 24.331
23.78000 26.462
23.79000 28.364
23.80000 28.180
23.81000 31.519
23.82000 28.316
23.83000 22.329
23.84000 27.440
23.85000 23.278
23.86000 24.478
23.87000 17.122
23.88000 22.311
23.89000 27.422
23.90000 22.156
23.91000 42.587
23.92000 28.270
23.93000 28.317
23.94000 32.576
23.95000 21.384
23.96000 31.480
23.97000 32.338
23.98000 26.231
23.99000 27.470
24.00000 28.348
24.01000 25.379
24.02000 26.399
24.03000 29.327
24.04000 24.144
24.05000 30.391
24.06000 33.417
24.07000 19.347
24.08000 24.660
24.09000 33.506
24.10000 37.401
24.11000 23.165
24.12000 29.251
24.13000 43.461
24.14000 27.360
24.15000 28.423
24.16000 21.301
24.17000 31.215
24.18000 30.478
24.19000 27.534
24.20000 34.530
24.21000 29.309
24.22000 21.267
24.23000 31.579
24.24000 33.215
24.25000 29.327
24.26000 20.161
24.27000 28.408
24.28000 28.330
24.29000 29.284
24.30000 28.395
24.31000 27.375
24.32000 28.483
24.33000 29.442
24.34000 24.470
24.35000 24.117
24.36000 32.331
24.37000 35.349
24.38000 33.475
24.39000 27.271
24.40000 23.177
24.41000 34.342
24.42000 33.499
24.43000 22.373
24.44000 25.505
24.45000 23.236
24.46000 36.558
24.47000 33.277
24.48000 22.161
24.49000 26.292
24.50000 21.124
24.51000 26.412
24.52000 34.556
24.53000 25.139
24.54000 36.353
24.55000 26.482
24.56000 28.427
24.57000 38.271
24.58000 36.454
24.59000 25.073
24.60000 35.339
24.61000 32.548
24.62000 25.372
24.63000 29.455
24.64000 22.185
24.65000 34.417
24.66000 27.436
24.67000 26.373
24.68000 37.609
24.69000 25.454
24.70000 20.331
24.71000 35.721
24.72000 29.614
24.73000 35.408
24.74000 27.370
24.75000 27.350
24.76000 28.346
24.77000 23.364
24.78000 36.447
24.79000 27.346
24.80000 26.278
24.81000 29.233
24.82000 22.302
24.83000 27.304
24.84000 24.258
24.85000 31.555
24.86000 37.359
24.87000 32.387
24.88000 34.390
24.89000 33.466
24.90000 25.415
24.91000 31.465
24.92000 31.267
24.93000 38.634
24.94000 26.296
24.95000 28.298
24.96000 32.307
24.97000 31.570
24.98000 20.236
24.99000 36.658
25.00000 36.492
25.01000 45.460
25.02000 37.450
25.03000 46.729
25.04000 34.327
25.05000 32.400
25.06000 38.292
25.07000 36.475
25.08000 35.524
25.09000 35.444
25.10000 16.182
25.11000 26.371
25.12000 38.283
25.13000 29.506
25.14000 26.482
25.15000 43.371
25.16000 44.586
25.17000 21.357
25.18000 29.418
25.19000 33.524
25.20000 35.503
25.21000 44.561
25.22000 42.448
25.23000 29.581
25.24000 32.339
25.25000 26.459
25.26000 31.840
25.27000 42.428
25.28000 30.321
25.29000 33.353
25.30000 36.657
25.31000 42.653
25.32000 30.195
25.33000 31.432
25.34000 33.347
25.35000 42.633
25.36000 28.322
25.37000 33.390
25.38000 27.215
25.39000 35.501
25.40000 29.322
25.41000 39.370
25.42000 30.379
25.43000 26.371
25.44000 41.576
25.45000 35.611
25.46000 39.580
25.47000 24.318
25.48000 32.633
25.49000 43.517
25.50000 37.479
25.51000 34.330
25.52000 30.497
25.53000 32.347
25.54000 41.419
25.55000 40.695
25.56000 39.293
25.57000 33.283
25.58000 36.265
25.59000 37.389
25.60000 31.341
25.61000 34.266
25.62000 35.593
25.63000 25.230
25.64000 41.394
25.65000 31.270
25.66000 38.281
25.67000 41.474
25.68000 37.380
25.69000 38.264
25.70000 31.142
25.71000 45.052
25.72000 34.602
25.73000 45.606
25.74000 33.533
25.75000 33.605
25.76000 39.568
25.77000 45.675
25.78000 31.400
25.79000 37.536
25.80000 45.471
25.81000 35.485
25.82000 38.089
25.83000 40.322
25.84000 37.583
25.85000 32.523
25.86000 46.529
25.87000 37.255
25.88000 36.401
25.89000 37.286
25.90000 47.873
25.91000 41.261
25.92000 45.447
25.93000 44.579
25.94000 48.374
25.95000 44.551
25.96000 51.903
25.97000 40.400
25.98000 43.759
25.99000 41.416
26.00000 38.166
26.01000 29.281
26.02000 33.651
26.03000 38.622
26.04000 35.381
26.05000 48.566
26.06000 37.651
26.07000 38.548
26.08000 33.501
26.09000 34.136
26.10000 47.444
26.11000 30.438
26.12000 33.230
26.13000 38.492
26.14000 41.296
26.15000 52.629
26.16000 32.491
26.17000 40.441
26.18000 36.435
26.19000 46.599
26.20000 34.281
26.21000 48.487
26.22000 45.793
26.23000 34.599
26.24000 48.552
26.25000 45.529
26.26000 45.794
26.27000 40.270
26.28000 39.498
26.29000 42.598
26.30000 38.531
26.31000 39.400
26.32000 50.392
26.33000 40.668
26.34000 47.563
26.35000 31.395
26.36000 40.505
26.37000 44.561
26.38000 40.712
26.39000 38.759
26.40000 41.439
26.41000 36.536
26.42000 38.182
26.43000 51.475
26.44000 36.314
26.45000 49.371
26.46000 41.316
26.47000 41.643
26.48000 46.540
26.49000 40.396
26.50000 38.415
26.51000 40.648
26.52000 37.750
26.53000 32.210
26.54000 34.310
26.55000 41.687
26.56000 41.577
26.57000 38.655
26.58000 44.785
26.59000 53.990
26.60000 44.628
26.61000 36.280
26.62000 53.306
26.63000 45.767
26.64000 42.613
26.65000 32.463
26.66000 42.725
26.67000 51.881
26.68000 43.816
26.69000 52.695
26.70000 33.427
26.71000 45.653
26.72000 48.710
26.73000 59.780
26.74000 43.386
26.75000 35.544
26.76000 38.583
26.77000 42.776
26.78000 45.751
26.79000 41.506
26.80000 39.317
26.81000 53.517
26.82000 49.081
26.83000 52.899
26.84000 40.348
26.85000 57.979
26.86000 31.342
26.87000 51.473
26.88000 51.061
26.89000 45.532
26.90000 38.481
26.91000 34.675
26.92000 37.510
26.93000 46.634
26.94000 46.302
26.95000 45.598
26.96000 52.096
26.97000 47.622
26.98000 49.008
26.99000 55.713
27.00000 39.462
27.01000 42.561
27.02000 47.678
27.03000 48.606
27.04000 59.540
27.05000 39.535
27.06000 60.032
27.07000 42.425
27.08000 50.553
27.09000 51.643
27.10000 43.419
27.11000 53.882
27.12000 36.336
27.13000 32.545
27.14000 54.422
27.15000 50.443
27.16000 41.535
27.17000 43.136
27.18000 35.503
27.19000 38.135
27.20000 39.578
27.21000 61.969
27.22000 44.518
27.23000 46.383
27.24000 44.710
27.25000 57.797
27.26000 47.698
27.27000 41.541
27.28000 47.737
27.29000 51.643
27.30000 41.578
27.31000 32.640
27.32000 43.559
27.33000 51.754
27.34000 42.614
27.35000 48.480
27.36000 47.548
27.37000 44.548
27.38000 38.732
27.39000 48.050
27.40000 48.422
27.41000 46.449
27.42000 53.312
27.43000 56.854
27.44000 56.803
27.45000 48.623
27.46000 56.335
27.47000 52.612
27.48000 37.435
27.49000 49.820
27.50000 56.625
27.51000 52.278
27.52000 49.654
27.53000 43.351
27.54000 40.425
27.55000 48.596
27.56000 44.674
27.57000 45.620
27.58000 42.354
27.59000 46.862
27.60000 50.482
27.61000 54.609
27.62000 51.513
27.63000 65.980
27.64000 41.608
27.65000 44.757
27.66000 56.701
27.67000 43.680
27.68000 50.451
27.69000 53.916
27.70000 39.346
27.71000 67.019
27.72000 46.639
27.73000 51.544
27.74000 61.712
27.75000 47.686
27.76000 46.717
27.77000 45.798
27.78000 39.429
27.79000 50.883
27.80000 40.472
27.81000 45.654
27.82000 54.471
27.83000 53.876
27.84000 39.426
27.85000 46.504
27.86000 56.870
27.87000 47.541
27.88000 37.357
27.89000 41.742
27.90000 43.485
27.91000 57.862
27.92000 36.370
27.93000 48.820
27.94000 54.580
27.95000 52.028
27.96000 50.780
27.97000 36.553
27.98000 60.640
27.99000 54.699
28.00000 52.675
28.01000 55.425
28.02000 47.488
28.03000 47.379
28.04000 57.871
28.05000 45.439
28.06000 53.931
28.07000 53.754
28.08000 43.551
28.09000 41.595
28.10000 50.690
28.11000 52.584
28.12000 43.687
28.13000 53.610
28.14000 44.532
28.15000 50.753
28.16000 53.715
28.17000 54.839
28.18000 45.509
28.19000 37.827
28.20000 60.502
28.21000 71.087
28.22000 52.906
28.23000 63.044
28.24000 49.740
28.25000 46.621
28.26000 42.909
28.27000 45.777
28.28000 46.519
28.29000 53.784
28.30000 49.617
28.31000 50.689
28.32000 43.546
28.33000 38.520
28.34000 60.757
28.35000 39.424
28.36000 37.388
28.37000 32.268
28.38000 41.631
28.39000 51.808
28.40000 48.612
28.41000 42.422
28.42000 45.545
28.43000 48.545
28.44000 61.405
28.45000 41.481
28.46000 50.621
28.47000 52.696
28.48000 44.592
28.49000 51.493
28.50000 36.452
28.51000 58.821
28.52000 52.448
28.53000 48.611
28.54000 52.630
28.55000 53.579
28.56000 50.614
28.57000 45.584
28.58000 41.579
28.59000 52.827
28.60000 41.633
28.61000 42.509
28.62000 48.950
28.63000 46.770
28.64000 47.223
28.65000 41.848
28.66000 46.376
28.67000 43.347
28.68000 50.792
28.69000 42.628
28.70000 44.619
28.71000 46.549
28.72000 51.602
28.73000 48.845
28.74000 64.623
28.75000 45.488
28.76000 36.548
28.77000 30.314
28.78000 47.388
28.79000 41.334
28.80000 39.359
28.81000 32.483
28.82000 37.356
28.83000 36.488
28.84000 44.607
28.85000 42.318
28.86000 46.293
28.87000 55.756
28.88000 43.642
28.89000 49.925
28.90000 52.765
28.91000 41.542
28.92000 42.501
28.93000 38.661
28.94000 40.705
28.95000 40.736
28.96000 36.406
28.97000 29.289
28.98000 42.509
28.99000 42.377
29.00000 49.712
29.01000 51.783
29.02000 45.518
29.03000 38.310
29.04000 49.446
29.05000 45.587
29.06000 49.299
29.07000 39.452
29.08000 48.740
29.09000 44.358
29.10000 39.342
29.11000 43.476
29.12000 41.523
29.13000 42.589
29.14000 38.320
29.15000 39.348
29.16000 39.451
29.17000 55.970
29.18000 38.585
29.19000 29.397
29.20000 32.256
29.21000 42.424
29.22000 39.514
29.23000 40.763
29.24000 39.377
29.25000 43.673
29.26000 41.393
29.27000 40.143
29.28000 35.433
29.29000 50.729
29.30000 43.394
29.31000 54.919
29.32000 35.761
29.33000 48.911
29.34000 47.136
29.35000 36.731
29.36000 40.443
29.37000 35.524
29.38000 46.344
29.39000 31.310
29.40000 50.561
29.41000 43.730
29.42000 43.696
29.43000 42.709
29.44000 45.624
29.45000 38.532
29.46000 45.492
29.47000 36.522
29.48000 43.351
29.49000 29.299
29.50000 40.361
29.51000 38.686
29.52000 51.631
29.53000 42.571
29.54000 40.637
29.55000 36.303
29.56000 47.672
29.57000 42.789
29.58000 26.414
29.59000 26.253
29.60000 50.743
29.61000 33.618
29.62000 34.362
29.63000 34.166
29.64000 35.406
29.65000 33.806
29.66000 45.768
29.67000 48.793
29.68000 50.779
29.69000 37.572
29.70000 32.571
29.71000 28.649
29.72000 41.389
29.73000 30.509
29.74000 39.481
29.75000 32.196
29.76000 31.522
29.77000 44.613
29.78000 34.271
29.79000 32.593
29.80000 27.483
29.81000 40.825
29.82000 34.538
29.83000 42.456
29.84000 41.350
29.85000 38.293
29.86000 32.355
29.87000 37.688
29.88000 35.470
29.89000 37.257
29.90000 37.330
29.91000 33.346
29.92000 40.755
29.93000 35.280
29.94000 42.647
29.95000 40.550
29.96000 42.530
29.97000 42.085
29.98000 33.338
29.99000 27.293
30.00000 27.184
30.01000 34.581
30.02000 31.324
30.03000 31.529
30.04000 33.096
30.05000 39.490
30.06000 39.599
30.07000 43.898
30.08000 34.323
30.09000 39.515
30.10000 43.572
30.11000 40.362
30.12000 38.592
30.13000 30.242
30.14000 39.462
30.15000 23.247
30.16000 28.312
30.17000 26.258
30.18000 32.375
30.19000 23.331
30.20000 31.207
30.21000 41.389
30.22000 34.401
30.23000 31.307
30.24000 40.635
30.25000 39.592
30.26000 23.296
30.27000 31.543
30.28000 36.262
30.29000 35.579
30.30000 37.415
30.31000 27.328
30.32000 41.443
30.33000 29.266
30.34000 39.516
30.35000 36.514
30.36000 25.391
30.37000 41.567
30.38000 39.655
30.39000 36.401
30.40000 49.848
30.41000 36.546
30.42000 37.380
30.43000 37.580
30.44000 22.100
30.45000 27.426
30.46000 28.315
30.47000 34.425
30.48000 37.804
30.49000 32.384
30.50000 35.137
30.51000 29.250
30.52000 31.186
30.53000 36.541
30.54000 40.155
30.55000 26.515
30.56000 27.162
30.57000 32.396
30.58000 27.180
30.59000 25.459
30.60000 35.512
30.61000 31.366
30.62000 34.442
30.63000 28.331
30.64000 28.582
30.65000 26.392
30.66000 30.428
30.67000 28.388
30.68000 30.490
30.69000 32.139
30.70000 40.425
30.71000 31.490
30.72000 28.198
30.73000 28.592
30.74000 35.531
30.75000 32.334
30.76000 30.366
30.77000 26.385
30.78000 24.095
30.79000 32.549
30.80000 32.581
30.81000 28.471
30.82000 29.426
30.83000 38.239
30.84000 28.246
30.85000 43.671
30.86000 17.182
30.87000 23.068
30.88000 24.362
30.89000 30.557
30.90000 37.580
30.91000 42.625
30.92000 28.436
30.93000 20.347
30.94000 33.560
30.95000 29.351
30.96000 34.126
30.97000 27.225
30.98000 17.226
30.99000 24.433
31.00000 29.622
31.01000 31.377
31.02000 25.240
31.03000 28.691
31.04000 31.403
31.05000 33.509
31.06000 23.483
31.07000 23.238
31.08000 23.374
31.09000 32.236
31.10000 37.326
31.11000 28.255
31.12000 29.519
31.13000 29.432
31.14000 25.378
31.15000 17.440
31.16000 21.402
31.17000 30.358
31.18000 35.395
31.19000 27.381
31.20000 21.220
31.21000 32.502
31.22000 25.403
31.23000 24.131
31.24000 21.193
31.25000 24.246
31.26000 32.415
31.27000 17.292
31.28000 22.506
31.29000 21.313
31.30000 26.323
31.31000 20.253
31.32000 25.385
31.33000 29.635
31.34000 22.273
31.35000 25.545
31.36000 28.388
31.37000 34.176
31.38000 34.436
31.39000 23.382
31.40000 20.101
31.41000 23.442
31.42000 31.598
31.43000 21.272
31.44000 22.135
31.45000 18.391
31.46000 26.516
31.47000 30.245
31.48000 23.380
31.49000 36.484
31.50000 23.362
31.51000 25.257
31.52000 20.167
31.53000 26.567
31.54000 31.396
31.55000 22.419
31.56000 22.364
31.57000 19.189
31.58000 28.502
31.59000 16.082
31.60000 21.133
31.61000 26.437
31.62000 23.388
31.63000 32.380
31.64000 23.457
31.65000 19.210
31.66000 22.228
31.67000 27.525
31.68000 28.439
31.69000 23.447
31.70000 21.155
31.71000 26.147
31.72000 20.206
31.73000 27.148
31.74000 28.432
31.75000 16.225
31.76000 18.145
31.77000 25.281
31.78000 28.283
31.79000 20.348
31.80000 30.623
31.81000 35.609
31.82000 30.335
31.83000 27.475
31.84000 25.378
31.85000 24.215
31.86000 28.490
31.87000 20.437
31.88000 29.474
31.89000 20.188
31.90000 22.288
31.91000 25.553
31.92000 24.441
31.93000 24.165
31.94000 15.105
31.95000 26.240
31.96000 27.343
31.97000 20.406
31.98000 21.319
31.99000 20.312
32.00000 19.517
32.01000 24.429
32.02000 26.503
32.03000 18.245
32.04000 25.227
32.05000 16.041
32.06000 19.293
32.07000 26.331
32.08000 26.473
32.09000 31.551
32.10000 22.400
32.11000 30.251
32.12000 21.301
32.13000 25.193
32.14000 26.353
32.15000 26.249
32.16000 28.390
32.17000 35.575
32.18000 18.254
32.19000 28.253
32.20000 22.256
32.21000 36.587
32.22000 26.342
32.23000 21.326
32.24000 22.350
32.25000 21.313
32.26000 21.981
32.27000 32.338
32.28000 25.079
32.29000 24.293
32.30000 35.339
32.31000 28.053
32.32000 23.256
32.33000 23.200
32.34000 24.496
32.35000 25.137
32.36000 25.136
32.37000 41.513
32.38000 18.231
32.39000 27.170
32.40000 30.492
32.41000 23.292
32.42000 34.195
32.43000 24.306
32.44000 27.356
32.45000 21.227
32.46000 28.431
32.47000 19.191
32.48000 26.211
32.49000 37.348
32.50000 27.379
32.51000 16.297
32.52000 20.143
32.53000 30.288
32.54000 18.231
32.55000 16.120
32.56000 25.493
32.57000 22.430
32.58000 34.329
32.59000 22.999
32.60000 30.191
32.61000 24.409
32.62000 32.470
32.63000 20.297
32.64000 22.066
32.65000 31.397
32.66000 27.326
32.67000 11.079
32.68000 25.296
32.69000 20.278
32.70000 24.427
32.71000 18.340
32.72000 19.389
32.73000 29.443
32.74000 24.320
32.75000 20.179
32.76000 14.150
32.77000 22.123
32.78000 22.457
32.79000 19.229
32.80000 19.112
32.81000 27.402
32.82000 20.212
32.83000 24.321
32.84000 18.379
32.85000 14.099
32.86000 21.352
32.87000 18.078
32.88000 20.177
32.89000 19.214
32.90000 24.429
32.91000 20.079
32.92000 24.422
32.93000 19.241
32.94000 21.291
32.95000 17.116
32.96000 23.403
32.97000 26.229
32.98000 26.263
32.99000 19.286
33.00000 22.297
33.01000 19.068
33.02000 19.107
33.03000 17.218
33.04000 11.260
33.05000 28.601
33.06000 25.412
33.07000 18.176
33.08000 19.177
33.09000 23.345
33.10000 24.090
33.11000 12.217
33.12000 24.272
33.13000 18.343
33.14000 16.448
33.15000 17.206
33.16000 11.126
33.17000 19.405
33.18000 13.159
33.19000 24.115
33.20000 18.090
33.21000 16.995
33.22000 19.318
33.23000 23.431
33.24000 20.078
33.25000 15.197
33.26000 17.124
33.27000 11.043
33.28000 20.096
33.29000 27.281
33.30000 15.345
33.31000 17.053
33.32000 17.283
33.33000 25.317
33.34000 24.682
33.35000 20.148
33.36000 23.279
33.37000 27.115
33.38000 24.284
33.39000 25.388
33.40000 20.220
33.41000 20.476
33.42000 25.268
33.43000 15.230
33.44000 7.237
33.45000 10.076
33.46000 16.188
33.47000 20.218
33.48000 25.221
33.49000 17.086
33.50000 16.224
33.51000 20.404
33.52000 18.359
33.53000 19.277
33.54000 18.190
33.55000 14.213
33.56000 18.165
33.57000 25.165
33.58000 22.224
33.59000 15.017
33.60000 12.093
33.61000 20.124
33.62000 16.183
33.63000 17.040
33.64000 24.189
33.65000 12.158
33.66000 10.163
33.67000 20.255
33.68000 22.548
33.69000 20.478
33.70000 21.169
33.71000 12.196
33.72000 12.240
33.73000 10.158
33.74000 15.199
33.75000 18.408
33.76000 14.215
33.77000 12.130
33.78000 18.255
33.79000 20.176
33.80000 19.204
33.81000 22.452
33.82000 10.164
33.83000 13.985
33.84000 11.171
33.85000 12.207
33.86000 24.367
33.87000 17.362
33.88000 18.362
33.89000 12.084
33.90000 19.067
33.91000 22.142
33.92000 13.159
33.93000 16.255
33.94000 16.141
33.95000 7.029
33.96000 16.204
33.97000 17.215
33.98000 16.305
33.99000 17.247
34.00000 18.270
34.01000 29.242
34.02000 12.146
34.03000 16.127
34.04000 17.278
34.05000 22.302
34.06000 19.211
34.07000 13.207
34.08000 9.105
34.09000 19.250
34.10000 14.137
34.11000 18.253
34.12000 13.219
34.13000 18.307
34.14000 16.178
34.15000 13.050
34.16000 15.050
34.17000 14.367
34.18000 19.528
34.19000 16.207
34.20000 11.186
34.21000 22.505
34.22000 17.198
34.23000 16.194
34.24000 16.249
34.25000 13.115
34.26000 11.103
34.27000 14.145
34.28000 7.184
34.29000 11.059
34.30000 17.315
34.31000 13.127
34.32000 19.317
34.33000 11.142
34.34000 10.115
34.35000 9.045
34.36000 11.111
34.37000 16.108
34.38000 16.383
34.39000 17.277
34.40000 18.282
34.41000 22.117
34.42000 19.204
34.43000 15.298
34.44000 17.247
34.45000 17.199
34.46000 13.104
34.47000 15.068
34.48000 22.162
34.49000 12.244
34.50000 18.202
34.51000 14.177
34.52000 15.025
34.53000 18.226
34.54000 12.250
34.55000 14.088
34.56000 17.195
34.57000 15.267
34.58000 8.070
34.59000 12.144
34.60000 13.149
34.61000 11.974
34.62000 16.305
34.63000 12.224
34.64000 17.362
34.65000 18.388
34.66000 11.078
34.67000 13.045
34.68000 9.080
34.69000 17.255
34.70000 14.180
34.71000 15.213
34.72000 22.195
34.73000 14.301
34.74000 15.059
34.75000 15.267
34.76000 13.180
34.77000 9.151
34.78000 13.058
34.79000 16.209
34.80000 10.093
34.81000 19.376
34.82000 10.053
34.83000 16.149
34.84000 16.345
34.85000 11.136
34.86000 17.165
34.87000 12.992
34.88000 13.027
34.89000 18.246
34.90000 20.356
34.91000 14.042
34.92000 11.340
34.93000 19.217
34.94000 17.359
34.95000 20.137
34.96000 20.252
34.97000 10.250
34.98000 21.050
34.99000 12.166
35.00000 18.320
35.01000 14.069
35.02000 9.182
35.03000 10.211
35.04000 17.177
35.05000 14.096
35.06000 17.269
35.07000 18.225
35.08000 21.116
35.09000 14.250
35.10000 11.081
35.11000 14.136
35.12000 17.146
35.13000 14.418
35.14000 12.193
35.15000 14.236
35.16000 14.248
35.17000 21.178
35.18000 11.306
35.19000 10.112
35.20000 13.202
35.21000 15.214
35.22000 9.164
35.23000 20.045
35.24000 18.217
35.25000 9.203
35.26000 13.212
35.27000 18.323
35.28000 12.180
35.29000 18.262
35.30000 12.095
35.31000 15.137
35.32000 12.110
35.33000 9.145
35.34000 19.233
35.35000 20.239
35.36000 15.218
35.37000 14.253
35.38000 19.165
35.39000 11.106
35.40000 15.117
35.41000 15.321
35.42000 14.163
35.43000 16.209
35.44000 20.158
35.45000 11.398
35.46000 22.426
35.47000 18.117
35.48000 19.283
35.49000 19.303
35.50000 17.310
35.51000 19.221
35.52000 18.189
35.53000 10.135
35.54000 11.154
35.55000 19.351
35.56000 21.226
35.57000 16.033
35.58000 18.237
35.59000 16.237
35.60000 12.153
35.61000 18.344
35.62000 26.321
35.63000 15.340
35.64000 17.241
35.65000 18.321
35.66000 9.157
35.67000 14.355
35.68000 20.395
35.69000 19.416
35.70000 15.116
35.71000 14.321
35.72000 11.060
35.73000 11.041
35.74000 15.099
35.75000 16.131
35.76000 15.277
35.77000 16.277
35.78000 9.255
35.79000 14.255
35.80000 8.127
35.81000 14.055
35.82000 13.104
35.83000 17.260
35.84000 22.381
35.85000 14.384
35.86000 20.190
35.87000 15.131
35.88000 26.391
35.89000 16.263
35.90000 31.373
35.91000 11.084
35.92000 25.340
35.93000 18.179
35.94000 20.114
35.95000 20.265
35.96000 12.183
35.97000 10.080
35.98000 14.218
35.99000 14.074
36.00000 14.167
36.01000 14.317
36.02000 18.340
36.03000 15.100
36.04000 15.174
36.05000 12.066
36.06000 19.135
36.07000 14.229
36.08000 15.033
36.09000 13.223
36.10000 12.136
36.11000 14.164
36.12000 18.177
36.13000 18.308
36.14000 13.092
36.15000 19.265
36.16000 8.153
36.17000 16.203
36.18000 15.069
36.19000 17.069
36.20000 9.012
36.21000 13.124
36.22000 25.379
36.23000 14.119
36.24000 11.202
36.25000 15.086
36.26000 17.164
36.27000 21.084
36.28000 23.401
36.29000 9.146
36.30000 20.209
36.31000 21.313
36.32000 18.070
36.33000 13.330
36.34000 20.252
36.35000 15.419
36.36000 10.010
36.37000 11.199
36.38000 9.105
36.39000 13.229
36.40000 16.214
36.41000 17.225
36.42000 16.158
36.43000 10.141
36.44000 14.165
36.45000 13.156
36.46000 11.079
36.47000 13.134
36.48000 21.283
36.49000 17.221
36.50000 18.293
36.51000 18.206
36.52000 21.344
36.53000 17.066
36.54000 19.358
36.55000 8.033
36.56000 17.376
36.57000 17.242
36.58000 24.403
36.59000 14.115
36.60000 4.032
36.61000 16.242
36.62000 13.034
36.63000 20.273
36.64000 20.274
36.65000 18.081
36.66000 12.290
36.67000 19.232
36.68000 14.080
36.69000 16.213
36.70000 12.144
36.71000 17.022
36.72000 17.167
36.73000 15.219
36.74000 16.219
36.75000 12.204
36.76000 14.306
36.77000 11.147
36.78000 15.142
36.79000 19.145
36.80000 18.249
36.81000 14.103
36.82000 18.270
36.83000 25.221
36.84000 19.309
36.85000 28.208
36.86000 17.096
36.87000 17.219
36.88000 9.989
36.89000 21.236
36.90000 19.349
36.91000 12.120
36.92000 15.208
36.93000 16.184
36.94000 13.181
36.95000 15.318
36.96000 26.276
36.97000 18.283
36.98000 20.204
36.99000 14.159
37.00000 18.314
37.01000 11.196
37.02000 13.220
37.03000 17.176
37.04000 20.201
37.05000 13.063
37.06000 15.109
37.07000 21.022
37.08000 19.306
37.09000 16.136
37.10000 15.339
37.11000 11.099
37.12000 11.307
37.13000 20.379
37.14000 22.281
37.15000 20.072
37.16000 17.074
37.17000 16.057
37.18000 12.025
37.19000 16.035
37.20000 15.441
37.21000 11.191
37.22000 19.163
37.23000 22.284
37.24000 18.078
37.25000 14.306
37.26000 17.253
37.27000 14.129
37.28000 18.246
37.29000 23.025
37.30000 20.297
37.31000 18.264
37.32000 9.027
37.33000 14.165
37.34000 22.248
37.35000 12.156
37.36000 9.052
37.37000 13.065
37.38000 13.163
37.39000 15.227
37.40000 18.076
37.41000 17.119
37.42000 25.068
37.43000 15.366
37.44000 9.117
37.45000 21.110
37.46000 21.334
37.47000 16.167
37.48000 20.422
37.49000 26.156
37.50000 13.247
37.51000 19.226
37.52000 21.440
37.53000 15.271
37.54000 19.420
37.55000 14.106
37.56000 19.212
37.57000 21.156
37.58000 21.233
37.59000 12.084
37.60000 19.206
37.61000 17.370
37.62000 21.167
37.63000 19.291
37.64000 20.441
37.65000 15.003
37.66000 10.126
37.67000 19.270
37.68000 10.290
37.69000 17.409
37.70000 14.358
37.71000 14.127
37.72000 17.062
37.73000 19.249
37.74000 19.385
37.75000 14.130
37.76000 13.186
37.77000 24.305
37.78000 16.311
37.79000 15.095
37.80000 18.191
37.81000 11.004
37.82000 14.188
37.83000 13.103
37.84000 15.289
37.85000 14.115
37.86000 11.185
37.87000 19.218
37.88000 15.213
37.89000 11.102
37.90000 22.195
37.91000 23.349
37.92000 16.184
37.93000 14.053
37.94000 15.257
37.95000 21.382
37.96000 11.101
37.97000 13.160
37.98000 17.260
37.99000 12.042
38.00000 21.072
38.01000 10.103
38.02000 19.126
38.03000 19.172
38.04000 16.096
38.05000 19.068
38.06000 18.018
38.07000 14.098
38.08000 19.249
38.09000 12.949
38.10000 13.206
38.11000 22.236
38.12000 19.173
38.13000 13.159
38.14000 14.147
38.15000 17.240
38.16000 14.138
38.17000 17.321
38.18000 13.203
38.19000 18.282
38.20000 17.314
38.21000 18.226
38.22000 20.343
38.23000 20.266
38.24000 13.007
38.25000 15.040
38.26000 14.159
38.27000 14.061
38.28000 12.090
38.29000 21.228
38.30000 19.121
38.31000 15.165
38.32000 20.309
38.33000 12.163
38.34000 25.240
38.35000 19.407
38.36000 15.083
38.37000 19.324
38.38000 9.192
38.39000 24.407
38.40000 15.272
38.41000 19.222
38.42000 14.157
38.43000 19.155
38.44000 15.221
38.45000 7.002
38.46000 17.294
38.47000 15.082
38.48000 18.091
38.49000 14.065
38.50000 17.196
38.51000 15.208
38.52000 14.292
38.53000 13.117
38.54000 13.328
38.55000 25.561
38.56000 17.134
38.57000 17.254
38.58000 13.319
38.59000 22.078
38.60000 17.215
38.61000 14.184
38.62000 21.139
38.63000 17.211
38.64000 19.037
38.65000 22.309
38.66000 15.127
38.67000 20.199
38.68000 21.365
38.69000 15.156
38.70000 15.229
38.71000 19.198
38.72000 16.157
38.73000 25.170
38.74000 4.960
38.75000 18.379
38.76000 16.229
38.77000 12.164
38.78000 14.229
38.79000 13.142
38.80000 11.112
38.81000 18.175
38.82000 11.160
38.83000 17.172
38.84000 18.479
38.85000 18.316
38.86000 18.191
38.87000 19.177
38.88000 18.269
38.89000 11.261
38.90000 19.254
38.91000 20.059
38.92000 15.195
38.93000 27.546
38.94000 16.095
38.95000 15.192
38.96000 16.308
38.97000 21.152
38.98000 15.116
38.99000 15.309
39.00000 22.188
39.01000 18.129
39.02000 19.375
39.03000 21.193
39.04000 14.070
39.05000 26.264
39.06000 14.145
39.07000 21.422
39.08000 16.026
39.09000 16.317
39.10000 18.252
39.11000 10.052
39.12000 18.053
39.13000 15.236
39.14000 25.353
39.15000 21.175
39.16000 13.268
39.17000 20.175
39.18000 27.203
39.19000 14.304
39.20000 11.112
39.21000 14.146
39.22000 13.045
39.23000 17.309
39.24000 18.300
39.25000 16.383
39.26000 17.220
39.27000 22.230
39.28000 22.217
39.29000 12.128
39.30000 16.082
39.31000 17.208
39.32000 13.214
39.33000 18.110
39.34000 21.225
39.35000 16.468
39.36000 14.089
39.37000 22.183
39.38000 22.129
39.39000 15.243
39.40000 21.264
39.41000 13.044
39.42000 21.507
39.43000 19.276
39.44000 8.182
39.45000 27.369
39.46000 20.114
39.47000 14.154
39.48000 18.221
39.49000 22.357
39.50000 16.322
39.51000 21.146
39.52000 19.105
39.53000 21.213
39.54000 18.214
39.55000 19.202
39.56000 17.273
39.57000 16.375
39.58000 15.182
39.59000 15.262
39.60000 21.367
39.61000 18.325
39.62000 13.217
39.63000 24.342
39.64000 23.391
39.65000 22.426
39.66000 15.272
39.67000 17.360
39.68000 15.240
39.69000 13.127
39.70000 18.382
39.71000 19.317
39.72000 25.167
39.73000 11.093
39.74000 18.410
39.75000 23.381
39.76000 17.253
39.77000 19.366
39.78000 16.347
39.79000 19.499
39.80000 25.228
39.81000 15.208
39.82000 18.234
39.83000 16.287
39.84000 23.397
39.85000 20.195
39.86000 12.546
39.87000 18.438
39.88000 21.318
39.89000 16.194
39.90000 17.124
39.91000 15.277
39.92000 20.312
39.93000 25.258
39.94000 21.361
39.95000 18.431
39.96000 25.475
39.97000 19.279
39.98000 20.364
39.99000 27.429
40.00000 14.353
40.01000 16.288
40.02000 20.181
40.03000 11.235
40.04000 15.215
40.05000 21.448
40.06000 17.264
40.07000 12.288
40.08000 24.300
40.09000 19.272
40.10000 21.390
40.11000 18.144
40.12000 26.305
40.13000 22.188
40.14000 14.082
40.15000 15.233
40.16000 21.422
40.17000 20.215
40.18000 18.243
40.19000 16.224
40.20000 20.476
40.21000 20.375
40.22000 19.317
40.23000 19.256
40.24000 15.145
40.25000 19.196
40.26000 9.080
40.27000 21.329
40.28000 10.174
40.29000 20.417
40.30000 18.314
40.31000 23.196
40.32000 16.973
40.33000 20.251
40.34000 21.150
40.35000 9.078
40.36000 28.538
40.37000 23.377
40.38000 25.628
40.39000 18.116
40.40000 15.097
40.41000 21.278
40.42000 17.202
40.43000 16.024
40.44000 14.174
40.45000 17.267
40.46000 12.217
40.47000 10.202
40.48000 15.985
40.49000 22.433
40.50000 15.141
40.51000 14.243
40.52000 16.114
40.53000 21.246
40.54000 18.265
40.55000 16.097
40.56000 14.166
40.57000 14.090
40.58000 19.305
40.59000 15.336
40.60000 17.267
40.61000 14.230
40.62000 15.168
40.63000 11.114
40.64000 29.475
40.65000 12.108
40.66000 15.213
40.67000 13.149
40.68000 13.183
40.69000 17.212
40.70000 14.276
40.71000 13.106
40.72000 13.054
40.73000 18.332
40.74000 23.449
40.75000 17.360
40.76000 15.237
40.77000 21.372
40.78000 18.175
40.79000 16.244
40.80000 24.308
40.81000 18.197
40.82000 13.204
40.83000 20.318
40.84000 13.239
40.85000 21.341
40.86000 17.185
40.87000 22.162
40.88000 20.331
40.89000 15.045
40.90000 27.403
40.91000 20.308
40.92000 17.400
40.93000 20.248
40.94000 16.187
40.95000 26.427
40.96000 22.394
40.97000 18.236
40.98000 15.326
40.99000 21.477
41.00000 12.160
41.01000 23.406
41.02000 26.184
41.03000 17.036
41.04000 15.219
41.05000 17.252
41.06000 20.206
41.07000 19.216
41.08000 22.248
41.09000 19.074
41.10000 14.276
41.11000 28.657
41.12000 23.329
41.13000 26.125
41.14000 13.123
41.15000 9.031
41.16000 28.481
41.17000 19.303
41.18000 24.374
41.19000 15.247
41.20000 20.292
41.21000 19.351
41.22000 21.324
41.23000 18.327
41.24000 17.147
41.25000 21.223
41.26000 28.342
41.27000 17.296
41.28000 15.315
41.29000 16.407
41.30000 21.449
41.31000 14.258
41.32000 29.203
41.33000 13.229
41.34000 13.243
41.35000 17.189
41.36000 20.559
41.37000 11.330
41.38000 15.235
41.39000 23.272
41.40000 15.119
41.41000 21.357
41.42000 18.125
41.43000 22.217
41.44000 20.144
41.45000 22.617
41.46000 25.337
41.47000 23.318
41.48000 17.321
41.49000 19.115
41.50000 22.138
41.51000 18.452
41.52000 18.254
41.53000 26.325
41.54000 18.293
41.55000 16.208
41.56000 23.312
41.57000 16.103
41.58000 27.172
41.59000 14.425
41.60000 11.233
41.61000 29.445
41.62000 16.084
41.63000 15.183
41.64000 21.239
41.65000 21.395
41.66000 15.166
41.67000 23.256
41.68000 16.356
41.69000 22.359
41.70000 17.260
41.71000 16.307
41.72000 21.270
41.73000 17.364
41.74000 18.086
41.75000 16.284
41.76000 23.200
41.77000 14.066
41.78000 15.376
41.79000 15.259
41.80000 17.318
41.81000 16.250
41.82000 13.222
41.83000 18.417
41.84000 19.408
41.85000 18.142
41.86000 17.316
41.87000 20.301
41.88000 24.265
41.89000 24.452
41.90000 25.156
41.91000 16.137
41.92000 22.509
41.93000 24.431
41.94000 19.057
41.95000 27.587
41.96000 12.219
41.97000 7.978
41.98000 26.340
41.99000 19.265
42.00000 15.154
42.01000 23.383
42.02000 27.261
42.03000 19.273
42.04000 15.230
42.05000 19.036
42.06000 26.404
42.07000 18.243
42.08000 12.248
42.09000 25.346
42.10000 20.217
42.11000 17.066
42.12000 13.263
42.13000 16.258
42.14000 11.166
42.15000 17.084
42.16000 19.252
42.17000 22.404
42.18000 12.329
42.19000 15.171
42.20000 15.185
42.21000 18.117
42.22000 17.074
42.23000 24.445
42.24000 27.363
42.25000 22.079
42.26000 16.145
42.27000 26.253
42.28000 18.203
42.29000 25.435
42.30000 16.236
42.31000 26.373
42.32000 20.287
42.33000 14.088
42.34000 23.261
42.35000 16.421
42.36000 18.456
42.37000 14.202
42.38000 22.411
42.39000 21.359
42.40000 12.013
42.41000 18.345
42.42000 21.337
42.43000 21.157
42.44000 19.292
42.45000 18.141
42.46000 22.436
42.47000 19.112
42.48000 22.323
42.49000 15.304
42.50000 15.186
42.51000 10.050
42.52000 11.161
42.53000 16.170
42.54000 17.228
42.55000 15.291
42.56000 19.120
42.57000 18.158
42.58000 23.461
42.59000 17.074
42.60000 9.085
42.61000 14.206
42.62000 13.996
42.63000 14.087
42.64000 22.286
42.65000 12.046
42.66000 21.223
42.67000 10.146
42.68000 19.331
42.69000 6.043
42.70000 21.311
42.71000 21.366
42.72000 25.246
42.73000 14.053
42.74000 18.382
42.75000 21.368
42.76000 34.455
42.77000 11.303
42.78000 20.298
42.79000 17.205
42.80000 21.430
42.81000 16.264
42.82000 21.405
42.83000 17.267
42.84000 23.256
42.85000 13.295
42.86000 26.508
42.87000 17.185
42.88000 13.153
42.89000 16.082
42.90000 18.512
42.91000 18.124
42.92000 20.100
42.93000 23.328
42.94000 15.218
42.95000 16.265
42.96000 15.307
42.97000 20.435
42.98000 11.026
42.99000 15.093
43.00000 14.117
43.01000 19.274
43.02000 15.209
43.03000 21.190
43.04000 26.394
43.05000 15.165
43.06000 23.397
43.07000 19.260
43.08000 12.105
43.09000 26.207
43.10000 20.146
43.11000 15.225
43.12000 11.087
43.13000 20.391
43.14000 17.271
43.15000 23.318
43.16000 24.239
43.17000 12.333
43.18000 19.387
43.19000 16.276
43.20000 24.262
43.21000 17.430
43.22000 15.094
43.23000 21.173
43.24000 15.129
43.25000 18.291
43.26000 24.361
43.27000 15.146
43.28000 22.377
43.29000 25.207
43.30000 11.067
43.31000 15.131
43.32000 24.451
43.33000 22.335
43.34000 17.378
43.35000 21.424
43.36000 16.272
43.37000 17.308
43.38000 17.302
43.39000 16.191
43.40000 15.280
43.41000 15.029
43.42000 18.203
43.43000 11.134
43.44000 16.326
43.45000 10.171
43.46000 11.244
43.47000 21.384
43.48000 15.157
43.49000 16.403
43.50000 16.211
43.51000 17.408
43.52000 22.289
43.53000 17.340
43.54000 11.139
43.55000 24.210
43.56000 21.372
43.57000 18.278
43.58000 18.151
43.59000 13.261
43.60000 20.180
43.61000 22.336
43.62000 18.469
43.63000 18.529
43.64000 12.049
43.65000 18.257
43.66000 16.174
43.67000 24.472
43.68000 14.089
43.69000 21.396
43.70000 14.216
43.71000 20.281
43.72000 21.083
43.73000 18.180
43.74000 22.164
43.75000 26.379
43.76000 13.004
43.77000 14.359
43.78000 18.259
43.79000 18.322
43.80000 20.191
43.81000 19.379
43.82000 18.327
43.83000 24.246
43.84000 17.310
43.85000 27.423
43.86000 21.240
43.87000 17.088
43.88000 23.581
43.89000 16.211
43.90000 19.312
43.91000 18.174
43.92000 17.243
43.93000 12.068
43.94000 21.378
43.95000 21.302
43.96000 17.240
43.97000 19.332
43.98000 16.989
43.99000 16.121
44.00000 14.279
44.01000 13.151
44.02000 21.366
44.03000 19.121
44.04000 15.231
44.05000 16.317
44.06000 19.357
44.07000 19.276
44.08000 14.260
44.09000 18.246
44.10000 19.058
44.11000 18.257
44.12000 17.351
44.13000 14.123
44.14000 21.275
44.15000 13.164
44.16000 22.109
44.17000 25.432
44.18000 21.226
44.19000 13.026
44.20000 18.214
44.21000 24.176
44.22000 15.165
44.23000 26.405
44.24000 14.234
44.25000 19.296
44.26000 17.088
44.27000 12.105
44.28000 17.286
44.29000 18.303
44.30000 23.094
44.31000 24.410
44.32000 13.147
44.33000 15.153
44.34000 17.177
44.35000 19.328
44.36000 13.175
44.37000 20.146
44.38000 11.053
44.39000 19.177
44.40000 16.502
44.41000 17.312
44.42000 16.234
44.43000 16.080
44.44000 22.145
44.45000 18.265
44.46000 23.206
44.47000 20.229
44.48000 18.419
44.49000 36.365
44.50000 23.219
44.51000 20.347
44.52000 10.113
44.53000 13.149
44.54000 16.400
44.55000 16.209
44.56000 14.150
44.57000 20.078
44.58000 10.246
44.59000 9.179
44.60000 18.239
44.61000 32.304
44.62000 18.138
44.63000 16.218
44.64000 20.312
44.65000 14.091
44.66000 24.524
44.67000 13.185
44.68000 18.292
44.69000 19.325
44.70000 16.350
44.71000 24.440
44.72000 18.100
44.73000 28.544
44.74000 17.135
44.75000 27.240
44.76000 15.201
44.77000 21.405
44.78000 18.076
44.79000 18.274
44.80000 15.285
44.81000 17.230
44.82000 19.219
44.83000 19.215
44.84000 18.269
44.85000 17.133
44.86000 21.178
44.87000 15.114
44.88000 12.235
44.89000 16.253
44.90000 16.187
44.91000 13.259
44.92000 19.277
44.93000 13.095
44.94000 12.221
44.95000 17.070
44.96000 14.200
44.97000 22.376
44.98000 14.199
44.99000 27.322
45.00000 18.163
45.01000 14.063
45.02000 15.185
45.03000 22.271
45.04000 17.261
45.05000 18.179
45.06000 20.215
45.07000 12.045
45.08000 14.313
45.09000 23.259
45.10000 16.352
45.11000 16.315
45.12000 13.165
45.13000 21.543
45.14000 14.258
45.15000 18.280
45.16000 19.260
45.17000 10.210
45.18000 15.122
45.19000 8.074
45.20000 15.207
45.21000 9.094
45.22000 16.168
45.23000 14.217
45.24000 16.178
45.25000 19.133
45.26000 20.189
45.27000 16.188
45.28000 15.983
45.29000 10.213
45.30000 17.439
45.31000 35.454
45.32000 15.111
45.33000 27.244
45.34000 17.178
45.35000 12.142
45.36000 21.457
45.37000 22.174
45.38000 26.297
45.39000 14.166
45.40000 24.387
45.41000 16.297
45.42000 10.097
45.43000 13.286
45.44000 20.242
45.45000 24.263
45.46000 18.189
45.47000 22.182
45.48000 18.188
45.49000 22.106
45.50000 26.332
45.51000 17.209
45.52000 13.197
45.53000 22.361
45.54000 21.357
45.55000 18.252
45.56000 22.388
45.57000 14.083
45.58000 17.247
45.59000 11.242
45.60000 25.291
45.61000 21.278
45.62000 22.277
45.63000 16.263
45.64000 27.388
45.65000 17.097
45.66000 21.215
45.67000 16.265
45.68000 13.192
45.69000 21.170
45.70000 25.329
45.71000 19.092
45.72000 22.353
45.73000 18.080
45.74000 20.287
45.75000 17.235
45.76000 17.118
45.77000 21.164
45.78000 11.207
45.79000 17.379
45.80000 29.200
45.81000 21.183
45.82000 16.943
45.83000 21.082
45.84000 14.320
45.85000 23.312
45.86000 17.304
45.87000 14.084
45.88000 25.335
45.89000 13.180
45.90000 19.253
45.91000 14.294
45.92000 18.030
45.93000 19.109
45.94000 13.104
45.95000 25.296
45.96000 21.554
45.97000 17.059
45.98000 20.230
45.99000 16.055
46.00000 20.342
46.01000 16.142
46.02000 16.199
46.03000 21.397
46.04000 24.477
46.05000 22.316
46.06000 18.391
46.07000 21.035
46.08000 24.345
46.09000 16.193
46.10000 17.300
46.11000 19.135
46.12000 17.291
46.13000 17.083
46.14000 21.522
46.15000 20.106
46.16000 19.334
46.17000 29.410
46.18000 26.580
46.19000 11.140
46.20000 13.178
46.21000 20.320
46.22000 21.385
46.23000 16.334
46.24000 24.179
46.25000 18.249
46.26000 18.275
46.27000 21.179
46.28000 19.105
46.29000 21.342
46.30000 19.084
46.31000 19.176
46.32000 19.317
46.33000 19.270
46.34000 22.296
46.35000 17.224
46.36000 13.334
46.37000 22.392
46.38000 17.345
46.39000 23.359
46.40000 16.208
46.41000 20.198
46.42000 16.124
46.43000 18.156
46.44000 15.164
46.45000 22.386
46.46000 19.225
46.47000 15.202
46.48000 25.436
46.49000 27.246
46.50000 31.534
46.51000 17.262
46.52000 20.158
46.53000 20.163
46.54000 13.273
46.55000 17.221
46.56000 16.139
46.57000 16.148
46.58000 20.508
46.59000 16.234
46.60000 21.157
46.61000 24.223
46.62000 23.382
46.63000 12.049
46.64000 21.156
46.65000 20.441
46.66000 15.489
46.67000 19.486
46.68000 25.393
46.69000 12.149
46.70000 18.177
46.71000 16.327
46.72000 10.127
46.73000 20.456
46.74000 20.354
46.75000 22.455
46.76000 15.276
46.77000 24.375
46.78000 23.394
46.79000 21.411
46.80000 19.268
46.81000 19.355
46.82000 14.016
46.83000 17.179
46.84000 19.018
46.85000 13.244
46.86000 24.200
46.87000 19.141
46.88000 22.486
46.89000 23.390
46.90000 17.045
46.91000 17.264
46.92000 22.415
46.93000 14.121
46.94000 17.203
46.95000 17.154
46.96000 10.266
46.97000 20.383
46.98000 18.161
46.99000 17.142
47.00000 28.158
47.01000 22.118
47.02000 18.308
47.03000 21.206
47.04000 18.166
47.05000 16.162
47.06000 25.234
47.07000 16.222
47.08000 13.144
47.09000 22.489
47.10000 20.217
47.11000 16.196
47.12000 17.145
47.13000 17.213
47.14000 17.143
47.15000 26.275
47.16000 22.314
47.17000 23.228
47.18000 17.273
47.19000 10.076
47.20000 11.236
47.21000 13.277
47.22000 11.341
47.23000 15.264
47.24000 17.193
47.25000 15.230
47.26000 19.308
47.27000 6.038
47.28000 20.375
47.29000 24.226
47.30000 13.033
47.31000 21.173
47.32000 18.258
47.33000 22.259
47.34000 18.337
47.35000 21.141
47.36000 21.317
47.37000 22.345
47.38000 19.188
47.39000 21.165
47.40000 13.265
47.41000 19.366
47.42000 13.203
47.43000 15.122
47.44000 21.244
47.45000 12.147
47.46000 16.205
47.47000 19.009
47.48000 19.159
47.49000 16.246
47.50000 20.071
47.51000 14.004
47.52000 15.216
47.53000 16.263
47.54000 26.321
47.55000 10.225
47.56000 14.269
47.57000 17.188
47.58000 17.142
47.59000 19.128
47.60000 25.247
47.61000 22.383
47.62000 15.086
47.63000 24.196
47.64000 8.147
47.65000 14.100
47.66000 17.258
47.67000 16.237
47.68000 12.252
47.69000 14.251
47.70000 23.214
47.71000 21.456
47.72000 20.384
47.73000 16.475
47.74000 14.119
47.75000 15.256
47.76000 15.290
47.77000 13.172
47.78000 18.946
47.79000 16.190
47.80000 16.151
47.81000 18.311
47.82000 8.207
47.83000 12.196
47.84000 13.103
47.85000 16.256
47.86000 15.179
47.87000 15.266
47.88000 17.224
47.89000 16.328
47.90000 11.267
47.91000 18.214
47.92000 17.216
47.93000 13.157
47.94000 15.275
47.95000 18.164
47.96000 15.204
47.97000 17.187
47.98000 18.322
47.99000 25.520
48.00000 24.312
48.01000 22.303
48.02000 13.974
48.03000 10.164
48.04000 21.034
48.05000 17.299
48.06000 15.093
48.07000 25.364
48.08000 15.265
48.09000 24.325
48.10000 13.209
48.11000 19.305
48.12000 17.059
48.13000 27.381
48.14000 24.276
48.15000 17.122
48.16000 9.204
48.17000 28.294
48.18000 30.651
48.19000 19.220
48.20000 13.218
48.21000 17.377
48.22000 18.248
48.23000 23.224
48.24000 19.139
48.25000 14.192
48.26000 15.141
48.27000 16.149
48.28000 14.157
48.29000 10.067
48.30000 19.312
48.31000 22.279
48.32000 18.070
48.33000 14.194
48.34000 19.133
48.35000 19.372
48.36000 13.043
48.37000 15.323
48.38000 11.270
48.39000 18.217
48.40000 16.386
48.41000 7.078
48.42000 14.026
48.43000 17.139
48.44000 22.393
48.45000 19.265
48.46000 13.081
48.47000 21.342
48.48000 13.127
48.49000 13.151
48.50000 17.224
48.51000 16.380
48.52000 17.219
48.53000 20.375
48.54000 17.251
48.55000 18.157
48.56000 16.234
48.57000 23.467
48.58000 17.303
48.59000 11.182
48.60000 21.509
48.61000 17.158
48.62000 17.267
48.63000 16.180
48.64000 17.437
48.65000 17.313
48.66000 9.087
48.67000 17.404
48.68000 10.195
48.69000 13.139
48.70000 12.143
48.71000 15.055
48.72000 16.011
48.73000 15.199
48.74000 18.127
48.75000 23.347
48.76000 18.184
48.77000 17.124
48.78000 15.203
48.79000 16.218
48.80000 18.378
48.81000 16.339
48.82000 16.451
48.83000 17.314
48.84000 17.308
48.85000 19.323
48.86000 21.382
48.87000 11.183
48.88000 17.220
48.89000 14.153
48.90000 17.326
48.91000 25.185
48.92000 22.377
48.93000 17.135
48.94000 7.194
48.95000 11.193
48.96000 23.420
48.97000 17.447
48.98000 14.123
48.99000 16.132
49.00000 17.185
49.01000 13.066
49.02000 16.236
49.03000 16.330
49.04000 17.099
49.05000 19.395
49.06000 12.358
49.07000 23.281
49.08000 10.076
49.09000 18.229
49.10000 15.248
49.11000 16.042
49.12000 18.440
49.13000 17.355
49.14000 13.048
49.15000 14.305
49.16000 16.357
49.17000 19.251
49.18000 26.364
49.19000 15.204
49.20000 10.121
49.21000 24.252
49.22000 14.211
49.23000 11.063
49.24000 14.278
49.25000 10.124
49.26000 20.449
49.27000 24.398
49.28000 11.307
49.29000 10.015
49.30000 21.275
49.31000 20.160
49.32000 15.184
49.33000 15.131
49.34000 16.389
49.35000 18.165
49.36000 14.206
49.37000 15.341
49.38000 14.205
49.39000 17.347
49.40000 7.020
49.41000 17.186
49.42000 17.142
49.43000 26.530
49.44000 17.140
49.45000 15.287
49.46000 10.200
49.47000 15.218
49.48000 15.108
49.49000 21.337
49.50000 13.294
49.51000 18.174
49.52000 10.153
49.53000 19.232
49.54000 16.173
49.55000 14.234
49.56000 20.017
49.57000 15.273
49.58000 20.349
49.59000 21.213
49.60000 19.175
49.61000 14.185
49.62000 19.286
49.63000 9.077
49.64000 18.210
49.65000 15.202
49.66000 19.341
49.67000 14.116
49.68000 17.188
49.69000 19.124
49.70000 20.238
49.71000 17.172
49.72000 12.176
49.73000 26.437
49.74000 16.292
49.75000 20.108
49.76000 17.189
49.77000 19.273
49.78000 7.046
49.79000 21.136
49.80000 22.282
49.81000 15.231
49.82000 18.168
49.83000 22.187
49.84000 18.221
49.85000 23.433
49.86000 14.150
49.87000 19.204
49.88000 20.397
49.89000 22.328
49.90000 16.007
49.91000 17.269
49.92000 23.232
49.93000 10.067
49.94000 11.991
49.95000 16.272
49.96000 16.264
49.97000 18.236
49.98000 20.156
49.99000 14.113
50.00000 14.187
50.01000 19.216
50.02000 10.998
50.03000 17.021
50.04000 17.314
50.05000 21.159
50.06000 20.221
50.07000 19.423
50.08000 16.333
50.09000 10.133
50.10000 15.203
50.11000 23.166
50.12000 13.171
50.13000 13.201
50.14000 15.138
50.15000 12.191
50.16000 14.222
50.17000 10.991
50.18000 15.192
50.19000 19.191
50.20000 18.448
50.21000 18.451
50.22000 13.089
50.23000 12.131
50.24000 16.165
50.25000 18.174
50.26000 17.068
50.27000 19.294
50.28000 13.202
50.29000 20.390
50.30000 17.326
50.31000 10.179
50.32000 12.211
50.33000 16.180
50.34000 14.336
50.35000 11.216
50.36000 9.044
50.37000 13.079
50.38000 14.107
50.39000 9.047
50.40000 20.255
50.41000 17.212
50.42000 14.119
50.43000 15.071
50.44000 26.409
50.45000 19.192
50.46000 18.300
50.47000 17.208
50.48000 28.132
50.49000 21.245
50.50000 19.362
50.51000 18.259
50.52000 20.262
50.53000 12.153
50.54000 12.089
50.55000 17.195
50.56000 20.058
50.57000 17.245
50.58000 13.180
50.59000 18.164
50.60000 14.340
50.61000 12.141
50.62000 20.262
50.63000 18.220
50.64000 11.035
50.65000 14.196
50.66000 9.085
50.67000 16.242
50.68000 20.200
50.69000 21.286
50.70000 8.017
50.71000 19.299
50.72000 13.955
50.73000 9.089
50.74000 11.052
50.75000 12.135
50.76000 13.226
50.77000 10.217
50.78000 16.380
50.79000 12.180
50.80000 16.192
50.81000 11.191
50.82000 15.205
50.83000 22.373
50.84000 17.166
50.85000 18.310
50.86000 13.209
50.87000 16.214
50.88000 15.219
50.89000 12.118
50.90000 20.305
50.91000 16.143
50.92000 20.282
50.93000 17.117
50.94000 9.259
50.95000 23.170
50.96000 14.169
50.97000 19.156
50.98000 13.136
50.99000 17.162
51.00000 17.229
51.01000 14.204
51.02000 12.074
51.03000 19.328
51.04000 17.212
51.05000 20.095
51.06000 19.263
51.07000 17.265
51.08000 19.216
51.09000 19.329
51.10000 15.134
51.11000 19.139
51.12000 18.144
51.13000 16.253
51.14000 9.178
51.15000 21.306
51.16000 14.125
51.17000 7.085
51.18000 16.232
51.19000 13.141
51.20000 13.036
51.21000 17.242
51.22000 20.420
51.23000 20.321
51.24000 13.201
51.25000 23.159
51.26000 11.999
51.27000 16.390
51.28000 15.201
51.29000 20.258
51.30000 12.042
51.31000 24.109
51.32000 15.077
51.33000 17.254
51.34000 11.069
51.35000 14.029
51.36000 16.337
51.37000 16.388
51.38000 20.180
51.39000 16.234
51.40000 20.394
51.41000 11.032
51.42000 18.309
51.43000 10.076
51.44000 20.185
51.45000 16.244
51.46000 15.194
51.47000 18.192
51.48000 24.385
51.49000 11.112
51.50000 9.160
51.51000 15.291
51.52000 15.226
51.53000 20.174
51.54000 13.153
51.55000 10.026
51.56000 17.384
51.57000 21.339
51.58000 16.200
51.59000 12.257
51.60000 14.248
51.61000 16.254
51.62000 13.062
51.63000 11.943
51.64000 12.941
51.65000 18.314
51.66000 9.139
51.67000 24.449
51.68000 13.180
51.69000 12.145
51.70000 22.277
51.71000 12.205
51.72000 22.255
51.73000 15.278
51.74000 16.154
51.75000 13.169
51.76000 20.305
51.77000 20.106
51.78000 17.358
51.79000 10.080
51.80000 14.163
51.81000 19.341
51.82000 15.102
51.83000 14.263
51.84000 13.207
51.85000 12.190
51.86000 13.216
51.87000 16.213
51.88000 9.179
51.89000 10.134
51.90000 16.220
51.91000 11.240
51.92000 13.045
51.93000 24.117
51.94000 15.105
51.95000 21.246
51.96000 13.171
51.97000 17.172
51.98000 13.358
51.99000 8.094
52.00000 17.328
52.01000 20.226
52.02000 11.173
52.03000 24.226
52.04000 21.357
52.05000 6.072
52.06000 10.010
52.07000 19.284
52.08000 13.222
52.09000 18.334
52.10000 19.271
52.11000 9.062
52.12000 14.235
52.13000 16.075
52.14000 13.083
52.15000 21.168
52.16000 8.117
52.17000 16.116
52.18000 14.227
52.19000 14.100
52.20000 18.200
52.21000 14.066
52.22000 15.256
52.23000 14.073
52.24000 16.023
52.25000 12.385
52.26000 14.242
52.27000 17.409
52.28000 10.121
52.29000 14.153
52.30000 19.176
52.31000 19.317
52.32000 11.069
52.33000 13.277
52.34000 10.082
52.35000 17.256
52.36000 13.152
52.37000 12.230
52.38000 8.122
52.39000 16.133
52.40000 8.176
52.41000 18.414
52.42000 18.168
52.43000 15.248
52.44000 15.220
52.45000 11.212
52.46000 12.201
52.47000 13.166
52.48000 17.236
52.49000 13.332
52.50000 14.183
52.51000 23.536
52.52000 12.024
52.53000 16.154
52.54000 20.150
52.55000 19.210
52.56000 16.206
52.57000 12.135
52.58000 11.141
52.59000 17.298
52.60000 8.202
52.61000 16.069
52.62000 19.244
52.63000 23.362
52.64000 18.270
52.65000 14.205
52.66000 26.298
52.67000 19.077
52.68000 7.148
52.69000 16.216
52.70000 16.189
52.71000 16.159
52.72000 21.344
52.73000 14.163
52.74000 13.180
52.75000 17.134
52.76000 8.212
52.77000 12.221
52.78000 10.155
52.79000 14.394
52.80000 17.182
52.81000 16.293
52.82000 12.183
52.83000 13.196
52.84000 13.167
52.85000 17.221
52.86000 12.186
52.87000 12.104
52.88000 8.046
52.89000 10.096
52.90000 12.197
52.91000 10.154
52.92000 23.296
52.93000 10.063
52.94000 16.267
52.95000 10.102
52.96000 14.311
52.97000 22.242
52.98000 16.257
52.99000 14.295
53.00000 15.304
53.01000 14.224
53.02000 18.294
53.03000 18.353
53.04000 6.129
53.05000 17.345
53.06000 17.325
53.07000 13.246
53.08000 19.272
53.09000 15.282
53.10000 21.303
53.11000 19.248
53.12000 16.256
53.13000 12.036
53.14000 9.116
53.15000 11.283
53.16000 14.036
53.17000 5.125
53.18000 16.224
53.19000 10.036
53.20000 22.326
53.21000 27.408
53.22000 20.354
53.23000 17.252
53.24000 11.212
53.25000 12.953
53.26000 14.373
53.27000 25.477
53.28000 14.046
53.29000 16.208
53.30000 11.259
53.31000 16.200
53.32000 4.982
53.33000 13.170
53.34000 11.181
53.35000 11.245
53.36000 12.338
53.37000 19.061
53.38000 14.247
53.39000 14.247
53.40000 16.223
53.41000 17.212
53.42000 18.139
53.43000 15.220
53.44000 22.386
53.45000 14.218
53.46000 15.290
53.47000 13.171
53.48000 8.164
53.49000 13.158
53.50000 11.217
53.51000 12.152
53.52000 13.134
53.53000 19.430
53.54000 9.186
53.55000 12.165
53.56000 16.177
53.57000 13.108
53.58000 18.275
53.59000 19.244
53.60000 20.337
53.61000 12.349
53.62000 12.098
53.63000 14.194
53.64000 11.179
53.65000 8.097
53.66000 19.370
53.67000 16.110
53.68000 13.937
53.69000 10.176
53.70000 9.133
53.71000 15.149
53.72000 13.190
53.73000 17.190
53.74000 9.060
53.75000 9.220
53.76000 17.304
53.77000 15.071
53.78000 21.417
53.79000 12.203
53.80000 15.314
53.81000 15.446
53.82000 20.255
53.83000 17.258
53.84000 20.362
53.85000 20.500
53.86000 10.171
53.87000 16.341
53.88000 13.947
53.89000 18.172
53.90000 14.132
53.91000 16.102
53.92000 10.165
53.93000 18.240
53.94000 13.145
53.95000 9.034
53.96000 10.168
53.97000 13.305
53.98000 16.222
53.99000 12.279
54.00000 13.178
54.01000 12.039
54.02000 20.167
54.03000 11.237
54.04000 7.054
54.05000 14.106
54.06000 19.238
54.07000 13.179
54.08000 13.123
54.09000 10.187
54.10000 20.239
54.11000 17.923
54.12000 12.288
54.13000 11.097
54.14000 9.141
54.15000 11.082
54.16000 19.340
54.17000 18.238
54.18000 10.173
54.19000 10.048
54.20000 21.229
54.21000 16.243
54.22000 9.222
54.23000 10.212
54.24000 14.221
54.25000 12.205
54.26000 13.064
54.27000 12.251
54.28000 8.138
54.29000 19.316
54.30000 14.308
54.31000 8.039
54.32000 11.111
54.33000 11.133
54.34000 11.173
54.35000 13.114
54.36000 20.140
54.37000 12.096
54.38000 16.224
54.39000 16.162
54.40000 14.216
54.41000 13.196
54.42000 16.142
54.43000 11.241
54.44000 15.155
54.45000 15.163
54.46000 12.049
54.47000 16.280
54.48000 9.114
54.49000 21.251
54.50000 7.094
54.51000 11.204
54.52000 15.321
54.53000 10.185
54.54000 10.108
54.55000 14.102
54.56000 10.005
54.57000 14.166
54.58000 17.054
54.59000 12.129
54.60000 18.247
54.61000 19.375
54.62000 15.192
54.63000 12.135
54.64000 9.030
54.65000 9.159
54.66000 18.263
54.67000 11.088
54.68000 16.210
54.69000 10.129
54.70000 9.155
54.71000 12.101
54.72000 22.317
54.73000 22.316
54.74000 15.159
54.75000 17.234
54.76000 16.268
54.77000 6.056
54.78000 8.137
54.79000 11.064
54.80000 18.200
54.81000 16.275
54.82000 9.119
54.83000 15.228
54.84000 14.213
54.85000 17.136
54.86000 13.287
54.87000 21.274
54.88000 11.238
54.89000 10.035
54.90000 13.246
54.91000 9.211
54.92000 10.278
54.93000 16.114
54.94000 16.302
54.95000 16.181
54.96000 19.197
54.97000 18.418
54.98000 17.198
54.99000 15.207
55.00000 17.407
55.01000 10.025
55.02000 12.146
55.03000 18.204
55.04000 10.110
55.05000 16.023
55.06000 14.267
55.07000 12.121
55.08000 14.166
55.09000 11.263
55.10000 14.224
55.11000 9.119
55.12000 18.168
55.13000 16.270
55.14000 11.256
55.15000 7.147
55.16000 19.119
55.17000 15.127
55.18000 10.128
55.19000 19.310
55.20000 10.015
55.21000 14.224
55.22000 16.468
55.23000 10.058
55.24000 10.142
55.25000 20.992
55.26000 15.188
55.27000 6.050
55.28000 12.228
55.29000 18.173
55.30000 10.196
55.31000 10.186
55.32000 20.127
55.33000 13.273
55.34000 15.150
55.35000 14.276
55.36000 8.994
55.37000 22.201
55.38000 18.152
55.39000 11.109
55.40000 8.108
55.41000 22.149
55.42000 11.218
55.43000 13.163
55.44000 5.082
55.45000 10.981
55.46000 14.137
55.47000 15.099
55.48000 14.181
55.49000 9.275
55.50000 11.184
55.51000 19.100
55.52000 12.187
55.53000 11.232
55.54000 16.192
55.55000 15.185
55.56000 11.089
55.57000 12.016
55.58000 11.201
55.59000 10.182
55.60000 10.073
55.61000 13.249
55.62000 10.149
55.63000 9.997
55.64000 12.095
55.65000 12.218
55.66000 19.205
55.67000 14.361
55.68000 16.280
55.69000 11.285
55.70000 7.095
55.71000 14.148
55.72000 11.139
55.73000 9.115
55.74000 10.136
55.75000 14.147
55.76000 18.465
55.77000 9.128
55.78000 12.006
55.79000 19.324
55.80000 11.113
55.81000 18.165
55.82000 9.209
55.83000 10.084
55.84000 13.210
55.85000 13.197
55.86000 16.027
55.87000 15.118
55.88000 8.048
55.89000 15.173
55.90000 11.209
55.91000 19.179
55.92000 12.368
55.93000 10.055
55.94000 10.067
55.95000 7.146
55.96000 15.211
55.97000 11.110
55.98000 14.224
55.99000 12.282
56.00000 10.253
56.01000 20.177
56.02000 15.203
56.03000 18.281
56.04000 17.290
56.05000 11.087
56.06000 11.138
56.07000 11.016
56.08000 11.216
56.09000 17.195
56.10000 6.157
56.11000 15.998
56.12000 7.101
56.13000 9.091
56.14000 13.162
56.15000 12.112
56.16000 8.148
56.17000 14.220
56.18000 7.114
56.19000 6.175
56.20000 16.288
56.21000 17.026
56.22000 11.121
56.23000 17.275
56.24000 18.179
56.25000 15.195
56.26000 14.217
56.27000 15.117
56.28000 10.991
56.29000 8.160
56.30000 13.107
56.31000 9.261
56.32000 11.170
56.33000 10.220
56.34000 9.225
56.35000 12.085
56.36000 9.113
56.37000 10.137
56.38000 17.115
56.39000 18.171
56.40000 9.130
56.41000 17.466
56.42000 7.067
56.43000 7.991
56.44000 13.296
56.45000 13.164
56.46000 15.265
56.47000 8.210
56.48000 12.099
56.49000 7.159
56.50000 18.113
56.51000 12.117
56.52000 10.209
56.53000 14.152
56.54000 15.261
56.55000 12.114
56.56000 12.288
56.57000 10.192
56.58000 8.184
56.59000 10.230
56.60000 10.181
56.61000 14.144
56.62000 12.153
56.63000 14.202
56.64000 19.145
56.65000 12.135
56.66000 15.110
56.67000 18.136
56.68000 15.270
56.69000 13.058
56.70000 14.249
56.71000 11.202
56.72000 9.168
56.73000 16.154
56.74000 14.104
56.75000 7.202
56.76000 15.084
56.77000 11.036
56.78000 17.184
56.79000 14.336
56.80000 13.280
56.81000 12.133
56.82000 10.130
56.83000 14.189
56.84000 10.076
56.85000 7.144
56.86000 12.084
56.87000 10.098
56.88000 10.070
56.89000 8.050
56.90000 8.155
56.91000 16.137
56.92000 13.299
56.93000 8.110
56.94000 6.069
56.95000 9.039
56.96000 18.169
56.97000 22.200
56.98000 10.199
56.99000 13.208
57.00000 13.139
57.01000 12.125
57.02000 16.377
57.03000 9.197
57.04000 16.182
57.05000 8.100
57.06000 12.162
57.07000 16.230
57.08000 10.099
57.09000 9.046
57.10000 18.322
57.11000 14.118
57.12000 7.081
57.13000 18.222
57.14000 21.141
57.15000 14.056
57.16000 15.282
57.17000 18.262
57.18000 18.298
57.19000 7.961
57.20000 8.199
57.21000 19.209
57.22000 11.176
57.23000 13.222
57.24000 10.165
57.25000 14.272
57.26000 12.234
57.27000 8.133
57.28000 16.235
57.29000 14.096
57.30000 15.227
57.31000 16.369
57.32000 13.146
57.33000 13.172
57.34000 8.153
57.35000 11.283
57.36000 13.226
57.37000 14.034
57.38000 8.044
57.39000 15.050
57.40000 9.163
57.41000 15.106
57.42000 12.140
57.43000 12.030
57.44000 14.209
57.45000 11.025
57.46000 11.136
57.47000 15.104
57.48000 9.113
57.49000 14.140
57.50000 15.222
57.51000 14.202
57.52000 8.127
57.53000 11.163
57.54000 17.413
57.55000 7.137
57.56000 9.102
57.57000 16.221
57.58000 8.105
57.59000 14.198
57.60000 15.127
57.61000 14.286
57.62000 12.080
57.63000 11.117
57.64000 10.001
57.65000 23.282
57.66000 11.177
57.67000 23.471
57.68000 17.005
57.69000 12.186
57.70000 11.097
57.71000 15.326
57.72000 14.241
57.73000 16.230
57.74000 14.098
57.75000 13.095
57.76000 10.040
57.77000 14.184
57.78000 14.048
57.79000 20.329
57.80000 5.057
57.81000 15.333
57.82000 6.138
57.83000 18.044
57.84000 19.306
57.85000 9.167
57.86000 19.288
57.87000 12.225
57.88000 12.308
57.89000 17.163
57.90000 13.317
57.91000 12.296
57.92000 17.313
57.93000 16.124
57.94000 10.050
57.95000 17.133
57.96000 12.263
57.97000 15.229
57.98000 13.233
57.99000 13.020
58.00000 14.130
58.01000 11.261
58.02000 10.104
58.03000 11.263
58.04000 13.159
58.05000 12.081
58.06000 11.149
58.07000 14.291
58.08000 9.125
58.09000 19.246
58.10000 15.174
58.11000 10.170
58.12000 21.246
58.13000 15.219
58.14000 11.085
58.15000 13.156
58.16000 9.072
58.17000 15.175
58.18000 12.240
58.19000 11.084
58.20000 5.128
58.21000 13.164
58.22000 9.180
58.23000 15.186
58.24000 10.170
58.25000 16.199
58.26000 12.251
58.27000 15.296
58.28000 8.038
58.29000 9.068
58.30000 11.291
58.31000 15.084
58.32000 16.272
58.33000 6.934
58.34000 15.100
58.35000 17.180
58.36000 6.163
58.37000 11.047
58.38000 8.149
58.39000 8.180
58.40000 14.303
58.41000 13.106
58.42000 13.080
58.43000 14.040
58.44000 8.105
58.45000 9.139
58.46000 16.445
58.47000 9.257
58.48000 11.974
58.49000 10.131
58.50000 8.173
58.51000 13.272
58.52000 10.230
58.53000 11.260
58.54000 14.124
58.55000 9.150
58.56000 12.210
58.57000 9.139
58.58000 14.116
58.59000 9.172
58.60000 15.181
58.61000 11.145
58.62000 15.047
58.63000 12.310
58.64000 7.075
58.65000 8.094
58.66000 13.961
58.67000 7.959
58.68000 10.086
58.69000 19.102
58.70000 15.355
58.71000 16.334
58.72000 14.067
58.73000 9.270
58.74000 8.201
58.75000 7.955
58.76000 10.994
58.77000 9.176
58.78000 13.153
58.79000 14.257
58.80000 14.193
58.81000 6.093
58.82000 13.332
58.83000 12.172
58.84000 14.024
58.85000 15.138
58.86000 7.109
58.87000 9.089
58.88000 14.288
58.89000 18.248
58.90000 11.168
58.91000 10.993
58.92000 9.176
58.93000 8.000
58.94000 10.018
58.95000 9.140
58.96000 9.081
58.97000 8.163
58.98000 10.012
58.99000 11.195
59.00000 18.207
59.01000 13.196
59.02000 10.189
59.03000 12.198
59.04000 11.170
59.05000 12.213
59.06000 10.251
59.07000 5.054
59.08000 10.151
59.09000 10.019
59.10000 8.117
59.11000 10.089
59.12000 10.011
59.13000 13.305
59.14000 16.242
59.15000 12.115
59.16000 6.999
59.17000 8.024
59.18000 7.087
59.19000 10.206
59.20000 8.058
59.21000 7.017
59.22000 13.243
59.23000 15.153
59.24000 12.129
59.25000 10.158
59.26000 15.123
59.27000 15.202
59.28000 17.165
59.29000 11.131
59.30000 14.018
59.31000 8.164
59.32000 8.212
59.33000 8.160
59.34000 13.174
59.35000 3.975
59.36000 13.227
59.37000 10.196
59.38000 14.242
59.39000 7.005
59.40000 7.131
59.41000 13.107
59.42000 11.176
59.43000 12.068
59.44000 9.981
59.45000 7.084
59.46000 9.192
59.47000 10.065
59.48000 6.071
59.49000 8.988
59.50000 16.976
59.51000 10.067
59.52000 12.086
59.53000 6.098
59.54000 16.108
59.55000 12.081
59.56000 5.045
59.57000 12.071
59.58000 12.091
59.59000 13.175
59.60000 15.123
59.61000 14.160
59.62000 6.182
59.63000 11.121
59.64000 10.112
59.65000 5.061
59.66000 11.094
59.67000 14.087
59.68000 5.923
59.69000 17.261
59.70000 8.978
59.71000 14.076
59.72000 5.070
59.73000 11.322
59.74000 8.158
59.75000 11.064
59.76000 8.085
59.77000 8.267
59.78000 5.936
59.79000 8.120
59.80000 8.041
59.81000 13.115
59.82000 20.276
59.83000 8.190
59.84000 9.152
59.85000 9.081
59.86000 10.209
59.87000 11.957
59.88000 12.269
59.89000 8.030
59.90000 7.113
59.91000 13.196
59.92000 9.129
59.93000 14.253
59.94000 6.021
59.95000 9.159
59.96000 16.110
59.97000 8.074
59.98000 9.070
59.99000 9.023
60.00000 13.045
60.01000 13.129
60.02000 6.071
60.03000 6.001
60.04000 8.313
60.05000 14.216
60.06000 12.154
60.07000 9.080
60.08000 6.126
60.09000 14.240
60.10000 12.292
60.11000 7.058
60.12000 10.065
60.13000 11.142
60.14000 9.089
60.15000 9.023
60.16000 8.143
60.17000 9.217
60.18000 14.158
60.19000 9.041
60.20000 10.163
60.21000 14.133
60.22000 13.114
60.23000 9.142
60.24000 8.129
60.25000 8.003
60.26000 13.182
60.27000 16.149
60.28000 4.007
60.29000 10.060
60.30000 16.115
60.31000 12.095
60.32000 15.335
60.33000 8.068
60.34000 8.971
60.35000 7.118
60.36000 11.143
60.37000 12.267
60.38000 13.207
60.39000 9.138
60.40000 13.019
60.41000 19.382
60.42000 8.153
60.43000 9.131
60.44000 10.243
60.45000 9.134
60.46000 12.424
60.47000 13.208
60.48000 9.127
60.49000 9.075
60.50000 10.149
60.51000 11.160
60.52000 9.158
60.53000 7.116
60.54000 13.383
60.55000 17.145
60.56000 5.092
60.57000 9.030
60.58000 10.093
60.59000 13.183
60.60000 12.155
60.61000 5.072
60.62000 10.026
60.63000 10.173
60.64000 11.283
60.65000 11.240
60.66000 12.230
60.67000 2.998
60.68000 14.294
60.69000 10.277
60.70000 8.991
60.71000 9.249
60.72000 11.217
60.73000 13.198
60.74000 13.245
60.75000 17.366
60.76000 4.039
60.77000 14.283
60.78000 9.088
60.79000 13.135
60.80000 12.200
60.81000 2.014
60.82000 11.120
60.83000 8.031
60.84000 10.262
60.85000 7.117
60.86000 9.066
60.87000 6.027
60.88000 9.033
60.89000 13.103
60.90000 15.064
60.91000 6.040
60.92000 10.170
60.93000 14.164
60.94000 9.123
60.95000 13.157
60.96000 10.084
60.97000 12.090
60.98000 2.971
60.99000 7.219
61.00000 8.110
61.01000 8.063
61.02000 12.071
61.03000 13.118
61.04000 12.239
61.05000 13.239
61.06000 7.098
61.07000 10.090
61.08000 9.098
61.09000 13.288
61.10000 8.139
61.11000 10.282
61.12000 8.980
61.13000 7.961
61.14000 5.071
61.15000 8.113
61.16000 11.131
61.17000 5.991
61.18000 14.197
61.19000 9.156
61.20000 4.062
61.21000 7.997
61.22000 13.225
61.23000 13.340
61.24000 7.168
61.25000 15.213
61.26000 9.201
61.27000 7.007
61.28000 12.052
61.29000 11.216
61.30000 12.104
61.31000 8.991
61.32000 9.073
61.33000 8.124
61.34000 5.125
61.35000 11.148
61.36000 7.999
61.37000 5.065
61.38000 13.317
61.39000 12.170
61.40000 7.111
61.41000 8.049
61.42000 12.089
61.43000 10.146
61.44000 7.129
61.45000 17.157
61.46000 15.163
61.47000 10.084
61.48000 6.063
61.49000 8.164
61.50000 10.075
61.51000 15.184
61.52000 7.185
61.53000 9.107
61.54000 8.115
61.55000 17.265
61.56000 10.244
61.57000 8.013
61.58000 9.172
61.59000 11.103
61.60000 5.102
61.61000 7.067
61.62000 10.061
61.63000 12.070
61.64000 15.223
61.65000 6.097
61.66000 14.086
61.67000 11.224
61.68000 7.122
61.69000 16.251
61.70000 11.181
61.71000 10.034
61.72000 10.173
61.73000 10.108
61.74000 12.180
61.75000 8.225
61.76000 9.113
61.77000 10.084
61.78000 3.067
61.79000 14.226
61.80000 10.219
61.81000 8.162
61.82000 7.048
61.83000 4.038
61.84000 12.149
61.85000 14.129
61.86000 2.984
61.87000 7.015
61.88000 8.023
61.89000 8.104
61.90000 9.077
61.91000 13.100
61.92000 8.154
61.93000 15.249
61.94000 13.185
61.95000 11.053
61.96000 10.183
61.97000 7.061
61.98000 11.244
61.99000 15.252
62.00000 9.221
62.01000 11.159
62.02000 11.050
62.03000 15.074
62.04000 10.083
62.05000 9.091
62.06000 9.123
62.07000 7.059
62.08000 9.165
62.09000 15.193
62.10000 12.112
62.11000 10.140
62.12000 12.177
62.13000 10.153
62.14000 15.195
62.15000 10.193
62.16000 8.105
62.17000 13.157
62.18000 13.099
62.19000 9.137
62.20000 7.083
62.21000 6.061
62.22000 6.024
62.23000 14.108
62.24000 8.080
62.25000 13.178
62.26000 8.108
62.27000 14.271
62.28000 21.221
62.29000 9.158
62.30000 5.097
62.31000 13.142
62.32000 11.153
62.33000 11.212
62.34000 4.061
62.35000 11.172
62.36000 9.104
62.37000 7.166
62.38000 9.073
62.39000 11.143
62.40000 10.985
62.41000 7.005
62.42000 14.954
62.43000 15.199
62.44000 9.072
62.45000 10.166
62.46000 17.296
62.47000 15.118
62.48000 10.050
62.49000 9.117
62.50000 5.111
62.51000 12.278
62.52000 23.388
62.53000 9.048
62.54000 8.114
62.55000 14.283
62.56000 7.030
62.57000 8.052
62.58000 15.158
62.59000 8.063
62.60000 9.177
62.61000 9.117
62.62000 6.102
62.63000 8.084
62.64000 4.049
62.65000 13.112
62.66000 12.143
62.67000 14.130
62.68000 12.125
62.69000 8.136
62.70000 9.951
62.71000 6.096
62.72000 20.211
62.73000 9.244
62.74000 8.180
62.75000 10.045
62.76000 10.185
62.77000 13.333
62.78000 9.240
62.79000 11.262
62.80000 14.136
62.81000 9.062
62.82000 12.135
62.83000 10.229
62.84000 9.217
62.85000 12.170
62.86000 11.995
62.87000 9.063
62.88000 11.029
62.89000 12.155
62.90000 8.169
62.91000 10.155
62.92000 6.088
62.93000 7.214
62.94000 8.138
62.95000 7.080
62.96000 7.134
62.97000 12.118
62.98000 10.083
62.99000 15.256
63.00000 8.160
63.01000 10.168
63.02000 7.163
63.03000 10.164
63.04000 7.106
63.05000 7.125
63.06000 7.055
63.07000 5.055
63.08000 13.151
63.09000 13.170
63.10000 13.251
63.11000 7.099
63.12000 8.091
63.13000 9.140
63.14000 10.048
63.15000 10.146
63.16000 8.065
63.17000 6.999
63.18000 9.103
63.19000 10.205
63.20000 5.041
63.21000 10.136
63.22000 12.095
63.23000 12.054
63.24000 11.252
63.25000 6.085
63.26000 10.178
63.27000 10.263
63.28000 8.093
63.29000 4.129
63.30000 15.251
63.31000 13.095
63.32000 12.209
63.33000 11.106
63.34000 8.191
63.35000 5.065
63.36000 9.180
63.37000 8.217
63.38000 9.152
63.39000 9.179
63.40000 9.938
63.41000 6.160
63.42000 7.145
63.43000 4.126
63.44000 9.159
63.45000 7.946
63.46000 8.027
63.47000 8.058
63.48000 5.040
63.49000 8.085
63.50000 13.274
63.51000 17.273
63.52000 9.125
63.53000 13.151
63.54000 5.150
63.55000 11.261
63.56000 9.110
63.57000 5.079
63.58000 7.098
63.59000 8.048
63.60000 6.958
63.61000 11.199
63.62000 13.097
63.63000 12.166
63.64000 11.134
63.65000 16.193
63.66000 9.066
63.67000 9.038
63.68000 7.075
63.69000 14.059
63.70000 8.198
63.71000 4.101
63.72000 7.097
63.73000 7.242
63.74000 12.186
63.75000 13.206
63.76000 14.030
63.77000 5.979
63.78000 15.115
63.79000 12.106
63.80000 8.090
63.81000 5.007
63.82000 9.156
63.83000 7.172
63.84000 7.216
63.85000 8.127
63.86000 12.020
63.87000 8.127
63.88000 12.100
63.89000 15.230
63.90000 11.211
63.91000 8.093
63.92000 9.034
63.93000 11.270
63.94000 13.252
63.95000 6.015
63.96000 10.161
63.97000 14.175
63.98000 8.128
63.99000 12.170
64.00000 10.187
64.01000 13.207
64.02000 15.315
64.03000 6.987
64.04000 12.118
64.05000 13.092
64.06000 9.248
64.07000 8.083
64.08000 10.162
64.09000 7.097
64.10000 6.069
64.11000 10.974
64.12000 10.126
64.13000 11.193
64.14000 10.071
64.15000 13.380
64.16000 8.128
64.17000 11.166
64.18000 13.222
64.19000 15.163
64.20000 10.090
64.21000 14.218
64.22000 11.226
64.23000 14.247
64.24000 15.182
64.25000 9.978
64.26000 6.157
64.27000 6.075
64.28000 10.012
64.29000 10.086
64.30000 7.110
64.31000 8.125
64.32000 12.270
64.33000 7.043
64.34000 6.091
64.35000 13.276
64.36000 7.109
64.37000 10.078
64.38000 11.201
64.39000 13.045
64.40000 13.224
64.41000 4.061
64.42000 7.044
64.43000 6.107
64.44000 9.011
64.45000 14.337
64.46000 9.105
64.47000 4.090
64.48000 10.152
64.49000 10.184
64.50000 6.032
64.51000 6.055
64.52000 5.007
64.53000 7.061
64.54000 9.166
64.55000 14.015
64.56000 7.076
64.57000 11.028
64.58000 9.150
64.59000 8.010
64.60000 10.055
64.61000 10.205
64.62000 10.132
64.63000 8.198
64.64000 8.110
64.65000 13.282
64.66000 6.104
64.67000 9.125
64.68000 15.086
64.69000 10.119
64.70000 6.051
64.71000 12.193
64.72000 3.970
64.73000 15.263
64.74000 8.041
64.75000 12.223
64.76000 10.110
64.77000 6.052
64.78000 6.145
64.79000 6.094
64.80000 13.271
64.81000 7.129
64.82000 9.054
64.83000 8.064
64.84000 7.110
64.85000 17.156
64.86000 11.068
64.87000 9.130
64.88000 9.039
64.89000 7.060
64.90000 7.095
64.91000 6.101
64.92000 13.141
64.93000 7.073
64.94000 9.203
64.95000 13.193
64.96000 7.006
64.97000 6.142
64.98000 11.064
64.99000 7.007
65.00000 11.115
