20.00000 31.456
20.01000 36.371
20.02000 29.483
20.03000 29.377
20.04000 23.458
20.05000 37.073
20.06000 26.505
20.07000 42.610
20.08000 21.476
20.09000 25.244
20.10000 34.498
20.11000 27.386
20.12000 26.384
20.13000 23.355
20.14000 23.222
20.15000 25.649
20.16000 18.187
20.17000 23.425
20.18000 29.269
20.19000 32.376
20.20000 26.325
20.21000 25.371
20.22000 36.270
20.23000 26.456
20.24000 20.288
20.25000 30.434
20.26000 30.338
20.27000 30.240
20.28000 31.409
20.29000 22.329
20.30000 27.208
20.31000 33.647
20.32000 17.260
20.33000 27.350
20.34000 33.570
20.35000 21.526
20.36000 22.269
20.37000 24.195
20.38000 26.281
20.39000 24.276
20.40000 27.419
20.41000 24.191
20.42000 25.577
20.43000 28.361
20.44000 21.396
20.45000 24.393
20.46000 16.287
20.47000 25.512
20.48000 25.295
20.49000 19.141
20.50000 25.231
20.51000 31.260
20.52000 23.228
20.53000 30.271
20.54000 32.386
20.55000 21.315
20.56000 26.413
20.57000 27.403
20.58000 30.298
20.59000 19.182
20.60000 32.430
20.61000 23.175
20.62000 20.218
20.63000 29.157
20.64000 24.323
20.65000 25.495
20.66000 31.374
20.67000 15.146
20.68000 28.398
20.69000 22.543
20.70000 29.526
20.71000 30.391
20.72000 24.188
20.73000 18.092
20.74000 18.169
20.75000 32.303
20.76000 32.392
20.77000 32.532
20.78000 27.210
20.79000 24.329
20.80000 31.555
20.81000 29.438
20.82000 21.148
20.83000 21.207
20.84000 32.304
20.85000 26.273
20.86000 22.420
20.87000 31.533
20.88000 23.345
20.89000 31.449
20.90000 28.358
20.91000 26.468
20.92000 22.367
20.93000 27.208
20.94000 19.293
20.95000 23.325
20.96000 29.282
20.97000 28.613
20.98000 23.284
20.99000 25.312
21.00000 14.986
21.01000 23.236
21.02000 26.536
21.03000 28.370
21.04000 22.286
21.05000 16.021
21.06000 26.172
21.07000 21.267
21.08000 30.438
21.09000 15.352
21.10000 17.185
21.11000 20.306
21.12000 32.633
21.13000 23.525
21.14000 24.297
21.15000 24.300
21.16000 21.351
21.17000 18.274
21.18000 21.253
21.19000 20.353
21.20000 23.409
21.21000 32.272
21.22000 22.242
21.23000 25.151
21.24000 31.472
21.25000 28.392
21.26000 21.345
21.27000 25.275
21.28000 29.323
21.29000 24.192
21.30000 18.243
21.31000 25.085
21.32000 21.524
21.33000 14.141
21.34000 27.308
21.35000 24.082
21.36000 29.392
21.37000 29.305
21.38000 18.302
21.39000 22.339
21.40000 27.400
21.41000 33.418
21.42000 16.054
21.43000 10.059
21.44000 29.315
21.45000 25.272
21.46000 17.262
21.47000 27.364
21.48000 23.416
21.49000 19.371
21.50000 12.067
21.51000 27.461
21.52000 16.289
21.53000 21.134
21.54000 35.569
21.55000 28.226
21.56000 27.191
21.57000 24.177
21.58000 22.318
21.59000 24.137
21.60000 28.248
21.61000 20.214
21.62000 19.293
21.63000 18.269
21.64000 17.251
21.65000 24.134
21.66000 23.410
21.67000 25.250
21.68000 25.307
21.69000 21.229
21.70000 22.246
21.71000 23.492
21.72000 28.466
21.73000 19.165
21.74000 32.123
21.75000 19.295
21.76000 13.147
21.77000 21.090
21.78000 31.234
21.79000 22.471
21.80000 25.256
21.81000 34.491
21.82000 25.080
21.83000 27.375
21.84000 23.368
21.85000 29.441
21.86000 19.241
21.87000 19.222
21.88000 33.446
21.89000 15.072
21.90000 18.125
21.91000 13.366
21.92000 13.262
21.93000 24.341
21.94000 25.284
21.95000 21.104
21.96000 21.320
21.97000 24.440
21.98000 21.327
21.99000 21.251
22.00000 24.126
22.01000 19.301
22.02000 21.274
22.03000 17.197
22.04000 21.165
22.05000 22.352
22.06000 23.198
22.07000 16.051
22.08000 22.257
22.09000 19.036
22.10000 27.495
22.11000 25.185
22.12000 27.400
22.13000 20.444
22.14000 20.357
22.15000 19.218
22.16000 20.263
22.17000 21.092
22.18000 19.160
22.19000 16.126
22.20000 19.148
22.21000 20.278
22.22000 37.593
22.23000 15.300
22.24000 21.463
22.25000 18.275
22.26000 15.238
22.27000 26.287
22.28000 24.518
22.29000 27.249
22.30000 19.504
22.31000 17.452
22.32000 15.133
22.33000 22.383
22.34000 21.196
22.35000 22.311
22.36000 23.353
22.37000 19.314
22.38000 24.324
22.39000 24.305
22.40000 22.157
22.41000 26.217
22.42000 11.996
22.43000 26.450
22.44000 26.344
22.45000 24.427
22.46000 18.418
22.47000 16.226
22.48000 26.427
22.49000 17.199
22.50000 18.299
22.51000 25.450
22.52000 23.374
22.53000 19.254
22.54000 16.184
22.55000 19.077
22.56000 18.209
22.57000 15.287
22.58000 20.234
22.59000 15.277
22.60000 14.009
22.61000 19.145
22.62000 23.071
22.63000 23.339
22.64000 26.385
22.65000 15.289
22.66000 18.317
22.67000 15.284
22.68000 19.070
22.69000 19.315
22.70000 18.200
22.71000 13.202
22.72000 22.281
22.73000 22.427
22.74000 20.232
22.75000 20.273
22.76000 22.343
22.77000 18.340
22.78000 24.146
22.79000 25.256
22.80000 15.163
22.81000 20.110
22.82000 13.367
22.83000 20.205
22.84000 16.122
22.85000 24.348
22.86000 19.203
22.87000 18.225
22.88000 15.130
22.89000 18.279
22.90000 12.135
22.91000 15.276
22.92000 22.187
22.93000 12.202
22.94000 9.154
22.95000 18.120
22.96000 12.150
22.97000 18.146
22.98000 22.263
22.99000 21.367
23.00000 19.153
23.01000 16.246
23.02000 16.327
23.03000 19.348
23.04000 16.139
23.05000 22.322
23.06000 24.347
23.07000 19.305
23.08000 21.406
23.09000 21.167
23.10000 11.169
23.11000 28.339
23.12000 20.314
23.13000 24.229
23.14000 19.228
23.15000 20.278
23.16000 21.238
23.17000 20.252
23.18000 17.331
23.19000 15.212
23.20000 22.380
23.21000 24.308
23.22000 16.287
23.23000 19.075
23.24000 15.428
23.25000 13.172
23.26000 8.155
23.27000 14.274
23.28000 12.204
23.29000 22.232
23.30000 19.161
23.31000 18.229
23.32000 27.335
23.33000 20.262
23.34000 25.333
23.35000 13.116
23.36000 19.268
23.37000 16.217
23.38000 19.273
23.39000 15.302
23.40000 9.150
23.41000 20.407
23.42000 14.252
23.43000 16.171
23.44000 25.349
23.45000 14.408
23.46000 14.337
23.47000 15.275
23.48000 20.225
23.49000 20.240
23.50000 22.451
23.51000 10.149
23.52000 12.978
23.53000 21.505
23.54000 18.166
23.55000 17.133
23.56000 14.139
23.57000 15.194
23.58000 14.174
23.59000 16.146
23.60000 20.230
23.61000 13.288
23.62000 15.252
23.63000 22.250
23.64000 17.087
23.65000 13.230
23.66000 11.145
23.67000 13.227
23.68000 17.316
23.69000 14.146
23.70000 11.131
23.71000 15.388
23.72000 9.156
23.73000 22.212
23.74000 20.113
23.75000 12.163
23.76000 11.190
23.77000 9.100
23.78000 17.237
23.79000 22.241
23.80000 14.132
23.81000 15.266
23.82000 25.264
23.83000 17.286
23.84000 16.128
23.85000 19.246
23.86000 14.145
23.87000 27.379
23.88000 15.225
23.89000 14.236
23.90000 15.218
23.91000 15.146
23.92000 20.550
23.93000 19.396
23.94000 15.347
23.95000 21.219
23.96000 25.263
23.97000 23.253
23.98000 15.061
23.99000 14.187
24.00000 11.166
24.01000 22.263
24.02000 27.221
24.03000 19.294
24.04000 22.232
24.05000 16.385
24.06000 16.311
24.07000 15.256
24.08000 11.121
24.09000 14.216
24.10000 12.302
24.11000 19.386
24.12000 20.149
24.13000 15.058
24.14000 18.285
24.15000 18.125
24.16000 18.100
24.17000 10.145
24.18000 11.205
24.19000 23.125
24.20000 12.113
24.21000 15.165
24.22000 24.341
24.23000 18.246
24.24000 13.183
24.25000 14.102
24.26000 9.190
24.27000 14.237
24.28000 19.380
24.29000 15.037
24.30000 11.050
24.31000 14.228
24.32000 18.287
24.33000 11.111
24.34000 16.218
24.35000 20.404
24.36000 10.086
24.37000 12.969
24.38000 15.194
24.39000 9.107
24.40000 16.365
24.41000 17.253
24.42000 15.161
24.43000 16.189
24.44000 14.025
24.45000 17.310
24.46000 11.020
24.47000 12.183
24.48000 9.016
24.49000 13.162
24.50000 11.147
24.51000 23.236
24.52000 10.129
24.53000 17.949
24.54000 10.078
24.55000 12.184
24.56000 13.219
24.57000 16.184
24.58000 14.087
24.59000 12.067
24.60000 13.106
24.61000 12.109
24.62000 9.080
24.63000 22.365
24.64000 17.132
24.65000 19.328
24.66000 12.169
24.67000 15.123
24.68000 16.123
24.69000 14.247
24.70000 17.154
24.71000 11.088
24.72000 11.148
24.73000 11.156
24.74000 18.046
24.75000 7.103
24.76000 17.237
24.77000 14.078
24.78000 21.232
24.79000 15.287
24.80000 22.374
24.81000 19.126
24.82000 14.214
24.83000 15.286
24.84000 16.147
24.85000 19.239
24.86000 13.135
24.87000 17.521
24.88000 12.115
24.89000 11.189
24.90000 12.118
24.91000 12.141
24.92000 12.210
24.93000 12.189
24.94000 13.381
24.95000 10.179
24.96000 22.155
24.97000 14.182
24.98000 13.263
24.99000 10.077
25.00000 13.084
25.01000 10.198
25.02000 21.521
25.03000 14.232
25.04000 14.215
25.05000 13.107
25.06000 17.236
25.07000 13.036
25.08000 18.234
25.09000 11.231
25.10000 19.441
25.11000 13.269
25.12000 7.112
25.13000 21.344
25.14000 17.404
25.15000 11.091
25.16000 13.101
25.17000 10.209
25.18000 21.162
25.19000 22.261
25.20000 13.178
25.21000 11.144
25.22000 13.111
25.23000 9.197
25.24000 13.130
25.25000 14.226
25.26000 13.252
25.27000 12.149
25.28000 25.368
25.29000 14.217
25.30000 13.236
25.31000 15.291
25.32000 13.100
25.33000 16.242
25.34000 9.049
25.35000 12.288
25.36000 14.200
25.37000 22.270
25.38000 12.127
25.39000 17.239
25.40000 12.117
25.41000 14.050
25.42000 11.287
25.43000 9.209
25.44000 13.248
25.45000 11.154
25.46000 11.144
25.47000 9.065
25.48000 14.250
25.49000 11.212
25.50000 13.116
25.51000 5.041
25.52000 15.197
25.53000 13.240
25.54000 11.070
25.55000 25.299
25.56000 19.330
25.57000 13.181
25.58000 13.236
25.59000 14.140
25.60000 15.249
25.61000 18.196
25.62000 10.141
25.63000 14.127
25.64000 14.098
25.65000 7.206
25.66000 15.118
25.67000 8.171
25.68000 19.206
25.69000 9.197
25.70000 8.203
25.71000 14.255
25.72000 17.178
25.73000 12.142
25.74000 22.344
25.75000 18.208
25.76000 9.190
25.77000 13.110
25.78000 12.235
25.79000 14.073
25.80000 9.266
25.81000 15.185
25.82000 10.053
25.83000 9.231
25.84000 16.388
25.85000 13.028
25.86000 11.089
25.87000 22.167
25.88000 11.207
25.89000 12.196
25.90000 7.987
25.91000 11.405
25.92000 16.249
25.93000 9.122
25.94000 13.227
25.95000 19.397
25.96000 15.222
25.97000 7.061
25.98000 13.259
25.99000 9.173
26.00000 13.292
26.01000 17.182
26.02000 11.186
26.03000 6.093
26.04000 11.203
26.05000 14.313
26.06000 15.103
26.07000 14.150
26.08000 9.148
26.09000 15.191
26.10000 11.100
26.11000 6.121
26.12000 13.193
26.13000 9.199
26.14000 15.139
26.15000 9.134
26.16000 13.065
26.17000 12.280
26.18000 12.407
26.19000 12.041
26.20000 4.079
26.21000 12.180
26.22000 10.155
26.23000 19.247
26.24000 10.264
26.25000 15.100
26.26000 13.296
26.27000 8.110
26.28000 4.076
26.29000 8.975
26.30000 8.035
26.31000 12.117
26.32000 16.227
26.33000 11.171
26.34000 14.298
26.35000 18.186
26.36000 9.218
26.37000 8.030
26.38000 10.149
26.39000 10.055
26.40000 5.041
26.41000 14.189
26.42000 9.130
26.43000 12.158
26.44000 13.312
26.45000 8.068
26.46000 7.147
26.47000 12.283
26.48000 18.087
26.49000 7.104
26.50000 8.144
26.51000 15.303
26.52000 23.216
26.53000 15.053
26.54000 14.158
26.55000 15.197
26.56000 16.220
26.57000 11.054
26.58000 12.319
26.59000 9.132
26.60000 6.096
26.61000 11.032
26.62000 8.049
26.63000 12.054
26.64000 11.228
26.65000 10.151
26.66000 10.172
26.67000 12.270
26.68000 15.290
26.69000 12.098
26.70000 9.035
26.71000 11.967
26.72000 15.053
26.73000 12.212
26.74000 16.088
26.75000 11.021
26.76000 7.988
26.77000 14.245
26.78000 10.134
26.79000 11.061
26.80000 12.220
26.81000 8.110
26.82000 18.360
26.83000 9.224
26.84000 12.137
26.85000 13.093
26.86000 8.204
26.87000 7.117
26.88000 14.092
26.89000 15.234
26.90000 13.345
26.91000 11.072
26.92000 13.239
26.93000 12.211
26.94000 6.120
26.95000 12.091
26.96000 7.075
26.97000 13.314
26.98000 8.071
26.99000 12.117
27.00000 14.307
27.01000 11.072
27.02000 14.211
27.03000 7.097
27.04000 6.079
27.05000 14.220
27.06000 15.110
27.07000 15.981
27.08000 16.412
27.09000 11.091
27.10000 13.186
27.11000 10.129
27.12000 14.158
27.13000 11.179
27.14000 19.180
27.15000 17.258
27.16000 21.277
27.17000 8.135
27.18000 14.261
27.19000 10.196
27.20000 12.082
27.21000 14.221
27.22000 15.177
27.23000 7.106
27.24000 10.204
27.25000 14.260
27.26000 8.070
27.27000 15.245
27.28000 10.143
27.29000 10.100
27.30000 11.071
27.31000 13.276
27.32000 10.057
27.33000 13.169
27.34000 13.260
27.35000 9.181
27.36000 12.098
27.37000 9.099
27.38000 10.166
27.39000 11.131
27.40000 8.063
27.41000 13.131
27.42000 14.144
27.43000 10.308
27.44000 14.276
27.45000 8.132
27.46000 6.001
27.47000 11.043
27.48000 14.243
27.49000 2.083
27.50000 14.251
27.51000 14.277
27.52000 8.115
27.53000 9.085
27.54000 10.111
27.55000 14.216
27.56000 10.059
27.57000 17.303
27.58000 9.086
27.59000 10.153
27.60000 15.282
27.61000 14.233
27.62000 14.267
27.63000 6.154
27.64000 8.145
27.65000 9.221
27.66000 9.085
27.67000 10.094
27.68000 12.163
27.69000 16.078
27.70000 14.146
27.71000 13.126
27.72000 12.170
27.73000 18.170
27.74000 11.039
27.75000 8.196
27.76000 13.946
27.77000 9.139
27.78000 12.104
27.79000 16.257
27.80000 8.067
27.81000 8.297
27.82000 10.082
27.83000 5.008
27.84000 11.179
27.85000 12.224
27.86000 11.171
27.87000 8.213
27.88000 10.084
27.89000 18.303
27.90000 14.269
27.91000 14.175
27.92000 8.140
27.93000 14.385
27.94000 14.093
27.95000 5.027
27.96000 9.135
27.97000 10.118
27.98000 13.171
27.99000 7.077
28.00000 9.187
28.01000 6.047
28.02000 7.081
28.03000 6.024
28.04000 11.125
28.05000 7.182
28.06000 10.199
28.07000 4.023
28.08000 6.122
28.09000 9.088
28.10000 9.070
28.11000 13.074
28.12000 13.112
28.13000 9.150
28.14000 10.057
28.15000 9.128
28.16000 9.147
28.17000 8.158
28.18000 15.405
28.19000 9.055
28.20000 8.191
28.21000 14.273
28.22000 11.060
28.23000 7.169
28.24000 8.134
28.25000 11.183
28.26000 14.109
28.27000 10.132
28.28000 16.230
28.29000 12.122
28.30000 6.123
28.31000 9.124
28.32000 13.161
28.33000 7.175
28.34000 11.113
28.35000 13.191
28.36000 12.238
28.37000 8.154
28.38000 14.378
28.39000 9.028
28.40000 14.189
28.41000 11.029
28.42000 8.060
28.43000 16.247
28.44000 8.017
28.45000 10.132
28.46000 9.042
28.47000 11.058
28.48000 6.099
28.49000 4.074
28.50000 15.240
28.51000 7.204
28.52000 9.210
28.53000 14.152
28.54000 11.205
28.55000 6.081
28.56000 9.079
28.57000 14.301
28.58000 8.215
28.59000 8.187
28.60000 8.058
28.61000 7.142
28.62000 8.060
28.63000 5.080
28.64000 10.191
28.65000 7.040
28.66000 5.047
28.67000 9.054
28.68000 7.177
28.69000 11.211
28.70000 6.084
28.71000 12.157
28.72000 11.081
28.73000 11.187
28.74000 4.011
28.75000 13.230
28.76000 5.071
28.77000 6.197
28.78000 10.249
28.79000 10.037
28.80000 12.086
28.81000 7.092
28.82000 9.954
28.83000 7.013
28.84000 14.255
28.85000 8.093
28.86000 13.299
28.87000 11.098
28.88000 14.091
28.89000 13.175
28.90000 6.025
28.91000 11.251
28.92000 9.198
28.93000 10.102
28.94000 6.068
28.95000 12.172
28.96000 10.156
28.97000 10.100
28.98000 11.116
28.99000 10.162
29.00000 4.973
29.01000 5.067
29.02000 13.154
29.03000 12.225
29.04000 7.227
29.05000 10.122
29.06000 12.012
29.07000 14.139
29.08000 14.331
29.09000 9.057
29.10000 7.154
29.11000 9.175
29.12000 14.235
29.13000 3.066
29.14000 12.103
29.15000 6.099
29.16000 16.411
29.17000 8.108
29.18000 8.044
29.19000 9.042
29.20000 9.126
29.21000 11.139
29.22000 8.175
29.23000 2.047
29.24000 8.101
29.25000 8.186
29.26000 8.074
29.27000 7.080
29.28000 9.146
29.29000 3.984
29.30000 17.294
29.31000 10.118
29.32000 10.190
29.33000 7.048
29.34000 9.119
29.35000 6.038
29.36000 13.122
29.37000 11.103
29.38000 7.054
29.39000 9.113
29.40000 7.164
29.41000 9.037
29.42000 8.054
29.43000 6.132
29.44000 11.137
29.45000 10.170
29.46000 10.084
29.47000 5.043
29.48000 5.995
29.49000 6.198
29.50000 11.155
29.51000 5.984
29.52000 7.092
29.53000 12.208
29.54000 10.165
29.55000 10.085
29.56000 7.037
29.57000 11.244
29.58000 7.162
29.59000 12.026
29.60000 8.102
29.61000 7.189
29.62000 6.031
29.63000 8.109
29.64000 9.065
29.65000 5.084
29.66000 7.004
29.67000 7.131
29.68000 10.151
29.69000 5.033
29.70000 4.079
29.71000 6.044
29.72000 5.047
29.73000 9.220
29.74000 9.045
29.75000 12.274
29.76000 5.100
29.77000 5.021
29.78000 10.083
29.79000 10.213
29.80000 8.005
29.81000 7.008
29.82000 9.153
29.83000 6.026
29.84000 10.195
29.85000 14.170
29.86000 9.314
29.87000 5.114
29.88000 9.270
29.89000 12.036
29.90000 10.171
29.91000 10.142
29.92000 15.103
29.93000 5.110
29.94000 8.103
29.95000 8.041
29.96000 6.033
29.97000 6.091
29.98000 12.124
29.99000 8.075
30.00000 17.270
30.01000 8.963
30.02000 6.076
30.03000 12.230
30.04000 7.059
30.05000 10.185
30.06000 8.108
30.07000 10.092
30.08000 6.080
30.09000 4.057
30.10000 10.117
30.11000 9.214
30.12000 6.006
30.13000 6.079
30.14000 9.133
30.15000 11.179
30.16000 8.975
30.17000 12.182
30.18000 11.091
30.19000 8.095
30.20000 13.154
30.21000 11.148
30.22000 8.204
30.23000 12.187
30.24000 5.012
30.25000 15.347
30.26000 8.187
30.27000 1.024
30.28000 10.126
30.29000 12.205
30.30000 12.146
30.31000 11.077
30.32000 13.068
30.33000 5.060
30.34000 10.146
30.35000 8.020
30.36000 6.181
30.37000 4.042
30.38000 7.048
30.39000 10.126
30.40000 2.071
30.41000 3.047
30.42000 12.216
30.43000 7.101
30.44000 7.216
30.45000 10.115
30.46000 11.206
30.47000 7.192
30.48000 5.045
30.49000 15.228
30.50000 5.163
30.51000 5.114
30.52000 5.157
30.53000 3.026
30.54000 10.223
30.55000 11.066
30.56000 8.068
30.57000 6.059
30.58000 3.056
30.59000 8.165
30.60000 9.030
30.61000 5.064
30.62000 7.080
30.63000 4.037
30.64000 12.304
30.65000 5.112
30.66000 9.078
30.67000 8.952
30.68000 7.013
30.69000 8.056
30.70000 13.105
30.71000 7.062
30.72000 9.091
30.73000 17.151
30.74000 8.018
30.75000 9.211
30.76000 14.145
30.77000 7.165
30.78000 8.206
30.79000 6.080
30.80000 7.107
30.81000 11.160
30.82000 4.085
30.83000 10.146
30.84000 6.073
30.85000 8.059
30.86000 10.167
30.87000 4.092
30.88000 6.026
30.89000 9.057
30.90000 9.102
30.91000 5.138
30.92000 7.107
30.93000 7.024
30.94000 11.292
30.95000 8.155
30.96000 12.189
30.97000 10.086
30.98000 4.987
30.99000 7.127
31.00000 5.088
31.01000 4.024
31.02000 10.137
31.03000 6.107
31.04000 8.993
31.05000 2.039
31.06000 7.148
31.07000 8.078
31.08000 3.127
31.09000 8.066
31.10000 9.082
31.11000 8.156
31.12000 13.191
31.13000 6.058
31.14000 3.078
31.15000 11.121
31.16000 6.108
31.17000 8.081
31.18000 8.050
31.19000 8.147
31.20000 4.066
31.21000 10.206
31.22000 11.217
31.23000 9.074
31.24000 10.002
31.25000 9.031
31.26000 3.990
31.27000 8.118
31.28000 7.067
31.29000 10.006
31.30000 3.994
31.31000 7.093
31.32000 7.992
31.33000 10.141
31.34000 12.107
31.35000 3.010
31.36000 6.099
31.37000 5.049
31.38000 4.995
31.39000 10.131
31.40000 3.093
31.41000 14.169
31.42000 8.034
31.43000 7.029
31.44000 3.047
31.45000 10.086
31.46000 8.109
31.47000 6.074
31.48000 11.179
31.49000 8.110
31.50000 10.074
31.51000 6.070
31.52000 3.088
31.53000 8.265
31.54000 9.183
31.55000 6.043
31.56000 6.141
31.57000 6.007
31.58000 9.172
31.59000 10.130
31.60000 5.057
31.61000 5.077
31.62000 2.996
31.63000 8.124
31.64000 4.017
31.65000 9.094
31.66000 6.127
31.67000 5.132
31.68000 4.144
31.69000 4.990
31.70000 7.102
31.71000 5.089
31.72000 4.065
31.73000 7.216
31.74000 3.071
31.75000 7.119
31.76000 6.018
31.77000 7.140
31.78000 9.051
31.79000 9.125
31.80000 9.181
31.81000 7.121
31.82000 7.152
31.83000 5.075
31.84000 7.155
31.85000 7.054
31.86000 5.072
31.87000 4.046
31.88000 5.952
31.89000 10.082
31.90000 7.128
31.91000 8.055
31.92000 6.066
31.93000 1.985
31.94000 4.990
31.95000 7.105
31.96000 7.197
31.97000 8.066
31.98000 5.031
31.99000 6.072
32.00000 2.019
32.01000 4.172
32.02000 6.165
32.03000 6.090
32.04000 8.138
32.05000 8.045
32.06000 10.156
32.07000 7.109
32.08000 8.150
32.09000 5.106
32.10000 6.038
32.11000 9.160
32.12000 6.179
32.13000 11.080
32.14000 4.929
32.15000 6.070
32.16000 4.151
32.17000 9.077
32.18000 7.091
32.19000 8.183
32.20000 6.973
32.21000 6.085
32.22000 8.222
32.23000 7.030
32.24000 3.055
32.25000 10.093
32.26000 7.158
32.27000 8.099
32.28000 7.196
32.29000 7.096
32.30000 10.197
32.31000 6.149
32.32000 6.044
32.33000 8.152
32.34000 6.113
32.35000 2.084
32.36000 11.038
32.37000 11.105
32.38000 6.009
32.39000 6.068
32.40000 11.105
32.41000 8.088
32.42000 4.016
32.43000 8.039
32.44000 5.038
32.45000 8.055
32.46000 5.036
32.47000 6.000
32.48000 5.985
32.49000 5.085
32.50000 8.203
32.51000 6.144
32.52000 8.020
32.53000 5.103
32.54000 10.263
32.55000 5.120
32.56000 4.035
32.57000 1.039
32.58000 5.998
32.59000 7.111
32.60000 9.145
32.61000 5.142
32.62000 9.090
32.63000 6.069
32.64000 3.035
32.65000 8.993
32.66000 6.158
32.67000 7.201
32.68000 6.067
32.69000 5.117
32.70000 5.101
32.71000 7.109
32.72000 13.134
32.73000 2.021
32.74000 7.045
32.75000 8.157
32.76000 8.068
32.77000 4.081
32.78000 2.032
32.79000 9.274
32.80000 9.158
32.81000 5.132
32.82000 6.080
32.83000 5.046
32.84000 6.061
32.85000 12.167
32.86000 7.076
32.87000 7.135
32.88000 8.121
32.89000 7.002
32.90000 6.125
32.91000 10.162
32.92000 8.188
32.93000 10.020
32.94000 5.994
32.95000 9.075
32.96000 9.999
32.97000 11.084
32.98000 4.934
32.99000 4.009
33.00000 7.010
33.01000 7.069
33.02000 3.060
33.03000 5.098
33.04000 6.113
33.05000 7.021
33.06000 1.047
33.07000 7.137
33.08000 12.146
33.09000 7.058
33.10000 9.141
33.11000 5.155
33.12000 6.037
33.13000 2.039
33.14000 4.060
33.15000 5.098
33.16000 4.033
33.17000 6.099
33.18000 7.173
33.19000 3.034
33.20000 10.122
33.21000 1.993
33.22000 6.033
33.23000 8.953
33.24000 3.067
33.25000 6.059
33.26000 9.052
33.27000 4.105
33.28000 10.032
33.29000 5.132
33.30000 8.253
33.31000 10.145
33.32000 3.047
33.33000 7.139
33.34000 5.984
33.35000 6.106
33.36000 9.194
33.37000 7.227
33.38000 2.033
33.39000 7.091
33.40000 7.073
33.41000 6.147
33.42000 4.032
33.43000 5.055
33.44000 11.181
33.45000 5.013
33.46000 5.070
33.47000 6.116
33.48000 9.102
33.49000 8.035
33.50000 4.007
33.51000 7.060
33.52000 6.085
33.53000 7.131
33.54000 12.312
33.55000 7.154
33.56000 8.097
33.57000 1.959
33.58000 5.093
33.59000 5.116
33.60000 7.281
33.61000 7.048
33.62000 8.176
33.63000 12.233
33.64000 3.065
33.65000 6.171
33.66000 8.149
33.67000 6.172
33.68000 8.114
33.69000 6.072
33.70000 4.048
33.71000 3.007
33.72000 7.102
33.73000 6.972
33.74000 9.099
33.75000 4.061
33.76000 2.996
33.77000 7.079
33.78000 6.115
33.79000 8.100
33.80000 3.070
33.81000 7.114
33.82000 8.120
33.83000 6.108
33.84000 9.115
33.85000 10.096
33.86000 4.117
33.87000 10.277
33.88000 5.078
33.89000 6.083
33.90000 9.044
33.91000 6.039
33.92000 4.101
33.93000 6.069
33.94000 3.080
33.95000 5.087
33.96000 6.986
33.97000 9.125
33.98000 6.092
33.99000 6.056
34.00000 7.081
34.01000 6.092
34.02000 4.019
34.03000 7.001
34.04000 4.088
34.05000 3.099
34.06000 3.015
34.07000 10.183
34.08000 10.242
34.09000 11.203
34.10000 6.029
34.11000 6.056
34.12000 6.063
34.13000 6.064
34.14000 5.039
34.15000 7.134
34.16000 3.989
34.17000 8.142
34.18000 3.049
34.19000 5.106
34.20000 5.992
34.21000 7.002
34.22000 7.102
34.23000 8.077
34.24000 2.084
34.25000 9.099
34.26000 8.009
34.27000 6.114
34.28000 3.015
34.29000 6.044
34.30000 9.181
34.31000 4.051
34.32000 4.189
34.33000 3.976
34.34000 5.048
34.35000 5.039
34.36000 3.049
34.37000 8.080
34.38000 5.121
34.39000 2.977
34.40000 10.149
34.41000 4.095
34.42000 6.108
34.43000 6.069
34.44000 5.064
34.45000 6.109
34.46000 5.070
34.47000 11.191
34.48000 8.196
34.49000 7.154
34.50000 5.137
34.51000 9.122
34.52000 4.089
34.53000 2.995
34.54000 6.037
34.55000 8.102
34.56000 7.113
34.57000 9.005
34.58000 7.200
34.59000 8.162
34.60000 2.988
34.61000 5.016
34.62000 2.957
34.63000 5.126
34.64000 6.068
34.65000 5.005
34.66000 12.292
34.67000 5.157
34.68000 5.123
34.69000 7.078
34.70000 6.014
34.71000 5.018
34.72000 3.074
34.73000 2.014
34.74000 6.959
34.75000 6.034
34.76000 6.001
34.77000 1.969
34.78000 5.035
34.79000 3.027
34.80000 4.018
34.81000 5.162
34.82000 4.086
34.83000 6.008
34.84000 4.001
34.85000 4.034
34.86000 6.138
34.87000 3.009
34.88000 7.111
34.89000 6.988
34.90000 7.103
34.91000 6.094
34.92000 0.989
34.93000 4.127
34.94000 4.004
34.95000 5.152
34.96000 4.079
34.97000 8.061
34.98000 6.054
34.99000 10.180
35.00000 2.007
35.01000 4.043
35.02000 6.026
35.03000 2.966
35.04000 4.047
35.05000 8.117
35.06000 3.089
35.07000 4.085
35.08000 5.124
35.09000 5.275
35.10000 5.961
35.11000 4.075
35.12000 6.083
35.13000 2.049
35.14000 4.153
35.15000 5.057
35.16000 7.170
35.17000 3.050
35.18000 8.958
35.19000 8.112
35.20000 3.063
35.21000 4.129
35.22000 7.024
35.23000 3.040
35.24000 4.100
35.25000 7.119
35.26000 4.122
35.27000 5.019
35.28000 9.161
35.29000 2.045
35.30000 8.351
35.31000 8.015
35.32000 12.110
35.33000 3.023
35.34000 8.160
35.35000 6.019
35.36000 3.013
35.37000 4.992
35.38000 4.002
35.39000 7.156
35.40000 6.278
35.41000 6.975
35.42000 5.014
35.43000 3.074
35.44000 3.018
35.45000 5.093
35.46000 2.044
35.47000 9.106
35.48000 4.078
35.49000 5.187
35.50000 1.007
35.51000 7.225
35.52000 8.089
35.53000 4.104
35.54000 1.985
35.55000 5.107
35.56000 7.002
35.57000 8.944
35.58000 2.021
35.59000 7.141
35.60000 2.029
35.61000 4.072
35.62000 12.082
35.63000 6.054
35.64000 8.064
35.65000 7.939
35.66000 3.226
35.67000 5.088
35.68000 4.065
35.69000 6.078
35.70000 4.032
35.71000 13.108
35.72000 3.062
35.73000 6.094
35.74000 6.189
35.75000 2.016
35.76000 1.995
35.77000 7.049
35.78000 9.032
35.79000 3.098
35.80000 5.093
35.81000 6.145
35.82000 8.132
35.83000 2.982
35.84000 5.054
35.85000 2.064
35.86000 6.263
35.87000 3.076
35.88000 4.105
35.89000 10.078
35.90000 4.044
35.91000 4.108
35.92000 12.162
35.93000 2.030
35.94000 7.174
35.95000 5.050
35.96000 4.149
35.97000 8.157
35.98000 8.208
35.99000 4.986
36.00000 6.117
36.01000 3.020
36.02000 1.968
36.03000 6.156
36.04000 7.212
36.05000 3.039
36.06000 4.044
36.07000 5.067
36.08000 2.036
36.09000 6.183
36.10000 8.190
36.11000 1.995
36.12000 5.058
36.13000 4.045
36.14000 7.081
36.15000 3.999
36.16000 1.030
36.17000 4.029
36.18000 7.102
36.19000 3.060
36.20000 5.144
36.21000 5.997
36.22000 5.119
36.23000 4.029
36.24000 3.033
36.25000 6.186
36.26000 6.080
36.27000 5.064
36.28000 6.168
36.29000 7.022
36.30000 1.991
36.31000 4.140
36.32000 7.109
36.33000 3.041
36.34000 3.040
36.35000 4.033
36.36000 0.972
36.37000 10.132
36.38000 8.138
36.39000 4.009
36.40000 3.040
36.41000 0.000
36.42000 8.086
36.43000 8.001
36.44000 4.948
36.45000 1.971
36.46000 6.054
36.47000 6.100
36.48000 6.179
36.49000 2.004
36.50000 2.062
36.51000 4.119
36.52000 2.083
36.53000 7.117
36.54000 0.991
36.55000 3.092
36.56000 3.987
36.57000 6.097
36.58000 4.019
36.59000 3.021
36.60000 10.181
36.61000 7.053
36.62000 8.036
36.63000 5.110
36.64000 2.001
36.65000 5.045
36.66000 2.024
36.67000 2.054
36.68000 3.977
36.69000 1.060
36.70000 7.091
36.71000 3.048
36.72000 7.151
36.73000 5.052
36.74000 7.099
36.75000 3.043
36.76000 8.171
36.77000 5.118
36.78000 1.009
36.79000 7.144
36.80000 6.005
36.81000 4.988
36.82000 4.037
36.83000 4.049
36.84000 3.090
36.85000 2.023
36.86000 5.054
36.87000 5.091
36.88000 1.994
36.89000 4.023
36.90000 4.063
36.91000 3.056
36.92000 6.106
36.93000 3.008
36.94000 6.028
36.95000 2.044
36.96000 1.988
36.97000 5.050
36.98000 4.072
36.99000 1.988
37.00000 2.981
37.01000 3.036
37.02000 3.017
37.03000 3.048
37.04000 5.077
37.05000 2.050
37.06000 2.996
37.07000 2.997
37.08000 2.039
37.09000 6.160
37.10000 4.072
37.11000 5.057
37.12000 4.046
37.13000 9.160
37.14000 3.024
37.15000 7.039
37.16000 4.036
37.17000 5.011
37.18000 7.051
37.19000 6.122
37.20000 3.110
37.21000 6.034
37.22000 4.049
37.23000 11.022
37.24000 8.056
37.25000 5.129
37.26000 3.033
37.27000 12.134
37.28000 3.075
37.29000 3.045
37.30000 5.062
37.31000 5.052
37.32000 3.043
37.33000 3.013
37.34000 4.105
37.35000 9.120
37.36000 6.116
37.37000 5.075
37.38000 4.131
37.39000 3.123
37.40000 5.166
37.41000 8.126
37.42000 10.001
37.43000 2.941
37.44000 4.076
37.45000 7.223
37.46000 5.111
37.47000 7.995
37.48000 5.984
37.49000 3.004
37.50000 6.037
37.51000 3.961
37.52000 4.112
37.53000 6.098
37.54000 3.069
37.55000 6.125
37.56000 0.996
37.57000 2.013
37.58000 6.141
37.59000 7.124
37.60000 7.152
37.61000 5.094
37.62000 7.109
37.63000 2.002
37.64000 8.158
37.65000 2.039
37.66000 2.009
37.67000 6.060
37.68000 5.100
37.69000 2.993
37.70000 5.092
37.71000 6.134
37.72000 5.068
37.73000 6.101
37.74000 3.153
37.75000 7.243
37.76000 10.095
37.77000 4.082
37.78000 8.219
37.79000 4.058
37.80000 4.073
37.81000 0.000
37.82000 5.085
37.83000 8.151
37.84000 6.052
37.85000 9.093
37.86000 1.055
37.87000 7.215
37.88000 0.000
37.89000 6.121
37.90000 7.007
37.91000 2.055
37.92000 5.072
37.93000 10.148
37.94000 4.022
37.95000 9.175
37.96000 5.055
37.97000 1.991
37.98000 4.035
37.99000 4.026
38.00000 2.058
38.01000 5.962
38.02000 5.109
38.03000 6.199
38.04000 0.995
38.05000 5.114
38.06000 8.190
38.07000 2.016
38.08000 2.040
38.09000 3.999
38.10000 2.011
38.11000 7.067
38.12000 3.032
38.13000 7.064
38.14000 2.990
38.15000 7.982
38.16000 4.068
38.17000 9.137
38.18000 3.096
38.19000 4.062
38.20000 4.995
38.21000 2.999
38.22000 4.032
38.23000 4.993
38.24000 3.005
38.25000 3.074
38.26000 6.948
38.27000 5.987
38.28000 8.155
38.29000 6.114
38.30000 8.113
38.31000 2.063
38.32000 8.981
38.33000 4.990
38.34000 0.998
38.35000 3.126
38.36000 6.038
38.37000 7.028
38.38000 10.020
38.39000 7.183
38.40000 1.976
38.41000 2.038
38.42000 2.992
38.43000 6.123
38.44000 5.007
38.45000 4.976
38.46000 6.092
38.47000 4.091
38.48000 7.033
38.49000 5.073
38.50000 3.053
38.51000 6.103
38.52000 6.024
38.53000 7.137
38.54000 3.060
38.55000 3.002
38.56000 3.064
38.57000 1.040
38.58000 4.125
38.59000 2.944
38.60000 2.981
38.61000 3.069
38.62000 6.147
38.63000 6.126
38.64000 8.196
38.65000 2.984
38.66000 3.019
38.67000 1.990
38.68000 7.119
38.69000 6.084
38.70000 2.986
38.71000 0.986
38.72000 3.095
38.73000 3.061
38.74000 6.090
38.75000 7.189
38.76000 5.143
38.77000 7.116
38.78000 3.011
38.79000 3.064
38.80000 6.009
38.81000 4.020
38.82000 6.039
38.83000 7.975
38.84000 8.162
38.85000 2.041
38.86000 1.990
38.87000 5.119
38.88000 4.035
38.89000 3.037
38.90000 5.055
38.91000 4.097
38.92000 4.013
38.93000 4.015
38.94000 8.111
38.95000 6.061
38.96000 8.104
38.97000 7.238
38.98000 2.064
38.99000 5.053
39.00000 1.005
39.01000 2.060
39.02000 5.075
39.03000 3.027
39.04000 5.124
39.05000 6.011
39.06000 0.000
39.07000 1.978
39.08000 5.091
39.09000 7.970
39.10000 8.039
39.11000 1.978
39.12000 3.114
39.13000 5.162
39.14000 1.022
39.15000 5.222
39.16000 0.985
39.17000 3.043
39.18000 2.985
39.19000 3.069
39.20000 4.174
39.21000 5.054
39.22000 2.988
39.23000 4.970
39.24000 7.158
39.25000 1.996
39.26000 5.092
39.27000 3.023
39.28000 4.970
39.29000 5.025
39.30000 2.977
39.31000 4.997
39.32000 4.098
39.33000 5.069
39.34000 5.061
39.35000 6.055
39.36000 4.089
39.37000 1.052
39.38000 5.070
39.39000 6.153
39.40000 3.023
39.41000 3.095
39.42000 3.087
39.43000 8.056
39.44000 4.101
39.45000 6.180
39.46000 4.079
39.47000 1.036
39.48000 4.102
39.49000 3.072
39.50000 1.021
39.51000 1.051
39.52000 3.097
39.53000 7.193
39.54000 1.032
39.55000 4.990
39.56000 9.182
39.57000 4.063
39.58000 7.020
39.59000 3.029
39.60000 5.127
39.61000 7.077
39.62000 3.035
39.63000 7.073
39.64000 1.029
39.65000 4.106
39.66000 4.066
39.67000 4.143
39.68000 2.960
39.69000 5.987
39.70000 3.961
39.71000 5.011
39.72000 5.047
39.73000 4.094
39.74000 2.032
39.75000 2.969
39.76000 4.028
39.77000 5.166
39.78000 8.133
39.79000 4.046
39.80000 5.109
39.81000 4.047
39.82000 4.055
39.83000 1.967
39.84000 5.971
39.85000 6.108
39.86000 2.030
39.87000 5.065
39.88000 2.010
39.89000 8.134
39.90000 4.030
39.91000 1.995
39.92000 1.051
39.93000 0.000
39.94000 3.056
39.95000 7.053
39.96000 7.083
39.97000 5.093
39.98000 4.076
39.99000 7.056
40.00000 1.989
40.01000 8.109
40.02000 2.074
40.03000 4.034
40.04000 3.075
40.05000 5.054
40.06000 7.086
40.07000 3.026
40.08000 3.031
40.09000 8.058
40.10000 4.070
40.11000 4.005
40.12000 1.967
40.13000 5.069
40.14000 9.185
40.15000 1.056
40.16000 1.016
40.17000 5.142
40.18000 4.967
40.19000 4.097
40.20000 3.051
40.21000 2.987
40.22000 4.105
40.23000 1.004
40.24000 4.074
40.25000 0.991
40.26000 6.100
40.27000 6.002
40.28000 5.018
40.29000 2.042
40.30000 3.074
40.31000 4.067
40.32000 6.228
40.33000 1.027
40.34000 3.066
40.35000 4.119
40.36000 7.101
40.37000 5.050
40.38000 2.021
40.39000 1.031
40.40000 5.124
40.41000 5.017
40.42000 6.135
40.43000 7.182
40.44000 4.057
40.45000 3.043
40.46000 2.013
40.47000 3.005
40.48000 5.009
40.49000 2.034
40.50000 2.006
40.51000 3.103
40.52000 3.029
40.53000 6.122
40.54000 4.084
40.55000 6.102
40.56000 0.000
40.57000 4.023
40.58000 3.055
40.59000 4.040
40.60000 7.109
40.61000 1.000
40.62000 4.022
40.63000 3.989
40.64000 3.065
40.65000 4.107
40.66000 2.067
40.67000 2.022
40.68000 8.077
40.69000 6.000
40.70000 2.004
40.71000 2.159
40.72000 1.013
40.73000 6.185
40.74000 4.008
40.75000 7.178
40.76000 0.998
40.77000 4.095
40.78000 6.976
40.79000 4.050
40.80000 3.089
40.81000 2.042
40.82000 3.092
40.83000 6.017
40.84000 7.088
40.85000 4.049
40.86000 2.032
40.87000 3.002
40.88000 6.068
40.89000 2.018
40.90000 5.073
40.91000 2.034
40.92000 3.023
40.93000 5.114
40.94000 6.036
40.95000 4.036
40.96000 3.972
40.97000 2.025
40.98000 3.975
40.99000 2.050
41.00000 4.115
41.01000 4.059
41.02000 4.036
41.03000 6.156
41.04000 7.271
41.05000 2.992
41.06000 5.045
41.07000 2.999
41.08000 3.017
41.09000 2.059
41.10000 2.052
41.11000 3.026
41.12000 3.070
41.13000 4.007
41.14000 0.985
41.15000 5.978
41.16000 6.064
41.17000 7.014
41.18000 3.015
41.19000 8.120
41.20000 2.040
41.21000 0.996
41.22000 2.034
41.23000 5.013
41.24000 6.035
41.25000 5.027
41.26000 6.014
41.27000 1.002
41.28000 5.158
41.29000 3.073
41.30000 3.041
41.31000 4.066
41.32000 6.027
41.33000 2.011
41.34000 9.146
41.35000 8.240
41.36000 5.088
41.37000 3.041
41.38000 7.073
41.39000 3.026
41.40000 4.102
41.41000 4.049
41.42000 4.003
41.43000 6.094
41.44000 9.084
41.45000 6.185
41.46000 4.171
41.47000 3.101
41.48000 2.028
41.49000 2.038
41.50000 4.026
41.51000 5.059
41.52000 1.995
41.53000 4.066
41.54000 5.061
41.55000 3.052
41.56000 2.022
41.57000 3.055
41.58000 4.051
41.59000 3.064
41.60000 0.995
41.61000 5.070
41.62000 4.989
41.63000 2.033
41.64000 2.000
41.65000 3.011
41.66000 3.948
41.67000 1.028
41.68000 3.976
41.69000 4.089
41.70000 1.042
41.71000 4.057
41.72000 5.077
41.73000 3.037
41.74000 1.018
41.75000 5.045
41.76000 4.133
41.77000 6.038
41.78000 3.027
41.79000 3.113
41.80000 0.991
41.81000 0.000
41.82000 4.072
41.83000 3.039
41.84000 2.961
41.85000 5.053
41.86000 1.058
41.87000 4.995
41.88000 3.025
41.89000 2.043
41.90000 2.042
41.91000 3.033
41.92000 4.029
41.93000 0.000
41.94000 0.000
41.95000 2.061
41.96000 1.970
41.97000 6.091
41.98000 1.956
41.99000 1.985
42.00000 5.045
42.01000 3.128
42.02000 1.975
42.03000 0.973
42.04000 3.092
42.05000 3.081
42.06000 5.132
42.07000 4.196
42.08000 0.994
42.09000 1.981
42.10000 4.008
42.11000 5.052
42.12000 6.055
42.13000 3.027
42.14000 6.105
42.15000 3.019
42.16000 5.075
42.17000 1.025
42.18000 0.988
42.19000 3.035
42.20000 6.173
42.21000 6.125
42.22000 3.050
42.23000 4.084
42.24000 1.037
42.25000 0.978
42.26000 2.010
42.27000 3.087
42.28000 7.044
42.29000 4.114
42.30000 0.994
42.31000 0.000
42.32000 4.093
42.33000 0.985
42.34000 1.023
42.35000 2.031
42.36000 7.160
42.37000 4.041
42.38000 5.070
42.39000 6.062
42.40000 6.035
42.41000 1.017
42.42000 1.019
42.43000 0.000
42.44000 7.042
42.45000 4.074
42.46000 1.023
42.47000 0.993
42.48000 1.043
42.49000 6.051
42.50000 3.040
42.51000 2.998
42.52000 4.077
42.53000 1.986
42.54000 4.085
42.55000 3.064
42.56000 2.035
42.57000 3.054
42.58000 6.173
42.59000 4.003
42.60000 7.109
42.61000 2.021
42.62000 0.000
42.63000 4.049
42.64000 1.975
42.65000 3.073
42.66000 3.018
42.67000 3.025
42.68000 4.074
42.69000 0.000
42.70000 6.085
42.71000 5.078
42.72000 5.133
42.73000 1.983
42.74000 8.133
42.75000 2.023
42.76000 5.066
42.77000 9.083
42.78000 1.014
42.79000 5.081
42.80000 1.981
42.81000 4.175
42.82000 9.086
42.83000 4.115
42.84000 2.948
42.85000 3.090
42.86000 4.019
42.87000 7.042
42.88000 5.016
42.89000 6.021
42.90000 1.013
42.91000 6.097
42.92000 0.994
42.93000 1.958
42.94000 2.050
42.95000 3.023
42.96000 7.205
42.97000 3.115
42.98000 6.063
42.99000 6.072
43.00000 1.025
43.01000 3.018
43.02000 3.047
43.03000 2.029
43.04000 7.121
43.05000 3.073
43.06000 2.034
43.07000 1.992
43.08000 3.025
43.09000 1.002
43.10000 2.053
43.11000 3.015
43.12000 1.041
43.13000 1.051
43.14000 7.135
43.15000 5.057
43.16000 3.056
43.17000 3.093
43.18000 5.097
43.19000 5.123
43.20000 2.006
43.21000 4.062
43.22000 2.043
43.23000 3.084
43.24000 1.990
43.25000 3.023
43.26000 3.005
43.27000 1.009
43.28000 4.002
43.29000 3.042
43.30000 4.141
43.31000 4.035
43.32000 3.075
43.33000 3.942
43.34000 7.044
43.35000 1.043
43.36000 2.016
43.37000 1.045
43.38000 5.053
43.39000 4.083
43.40000 4.113
43.41000 4.116
43.42000 5.992
43.43000 4.095
43.44000 0.995
43.45000 1.024
43.46000 5.989
43.47000 1.989
43.48000 6.062
43.49000 2.086
43.50000 2.018
43.51000 6.099
43.52000 7.036
43.53000 3.008
43.54000 4.055
43.55000 3.064
43.56000 0.978
43.57000 5.092
43.58000 1.034
43.59000 1.989
43.60000 0.000
43.61000 3.058
43.62000 4.004
43.63000 6.109
43.64000 2.951
43.65000 1.051
43.66000 0.985
43.67000 1.061
43.68000 5.022
43.69000 9.104
43.70000 1.034
43.71000 0.000
43.72000 2.002
43.73000 2.035
43.74000 2.096
43.75000 0.000
43.76000 5.001
43.77000 2.010
43.78000 2.995
43.79000 5.109
43.80000 2.073
43.81000 2.086
43.82000 0.987
43.83000 4.052
43.84000 2.983
43.85000 2.958
43.86000 5.161
43.87000 0.994
43.88000 7.017
43.89000 2.020
43.90000 5.095
43.91000 1.967
43.92000 1.074
43.93000 2.030
43.94000 3.074
43.95000 2.995
43.96000 2.028
43.97000 3.125
43.98000 5.007
43.99000 4.024
44.00000 0.000
44.01000 4.116
44.02000 2.007
44.03000 4.078
44.04000 1.008
44.05000 1.051
44.06000 1.035
44.07000 3.104
44.08000 4.075
44.09000 3.017
44.10000 4.042
44.11000 0.991
44.12000 2.022
44.13000 4.014
44.14000 4.086
44.15000 2.990
44.16000 4.013
44.17000 3.007
44.18000 2.074
44.19000 3.083
44.20000 2.074
44.21000 2.030
44.22000 2.034
44.23000 4.136
44.24000 2.011
44.25000 5.013
44.26000 2.021
44.27000 6.118
44.28000 3.118
44.29000 3.003
44.30000 2.047
44.31000 2.022
44.32000 3.013
44.33000 4.103
44.34000 0.992
44.35000 4.028
44.36000 2.967
44.37000 1.010
44.38000 4.020
44.39000 4.012
44.40000 4.117
44.41000 2.022
44.42000 1.959
44.43000 3.942
44.44000 3.031
44.45000 3.048
44.46000 4.048
44.47000 2.028
44.48000 1.061
44.49000 3.111
44.50000 4.029
44.51000 14.244
44.52000 5.111
44.53000 2.045
44.54000 3.003
44.55000 4.083
44.56000 4.006
44.57000 3.050
44.58000 1.006
44.59000 5.102
44.60000 2.075
44.61000 5.013
44.62000 2.008
44.63000 2.999
44.64000 0.987
44.65000 1.017
44.66000 5.092
44.67000 2.023
44.68000 3.048
44.69000 3.108
44.70000 0.987
44.71000 2.007
44.72000 1.026
44.73000 4.014
44.74000 3.111
44.75000 3.015
44.76000 4.034
44.77000 1.999
44.78000 3.065
44.79000 4.037
44.80000 2.014
44.81000 2.023
44.82000 2.024
44.83000 2.033
44.84000 0.985
44.85000 3.052
44.86000 4.000
44.87000 3.055
44.88000 7.081
44.89000 2.051
44.90000 5.097
44.91000 2.004
44.92000 3.024
44.93000 4.125
44.94000 1.977
44.95000 3.100
44.96000 6.041
44.97000 5.158
44.98000 2.997
44.99000 4.069
45.00000 1.010
45.01000 0.000
45.02000 4.057
45.03000 2.006
45.04000 1.034
45.05000 3.068
45.06000 4.028
45.07000 3.121
45.08000 0.000
45.09000 1.992
45.10000 1.008
45.11000 0.000
45.12000 3.035
45.13000 4.068
45.14000 4.014
45.15000 1.993
45.16000 2.066
45.17000 3.041
45.18000 5.091
45.19000 2.038
45.20000 4.010
45.21000 3.013
45.22000 6.049
45.23000 1.010
45.24000 0.000
45.25000 2.056
45.26000 1.009
45.27000 2.054
45.28000 2.099
45.29000 4.071
45.30000 0.000
45.31000 4.075
45.32000 4.012
45.33000 6.057
45.34000 1.010
45.35000 7.145
45.36000 1.043
45.37000 3.086
45.38000 3.018
45.39000 5.022
45.40000 3.993
45.41000 2.989
45.42000 0.985
45.43000 1.000
45.44000 2.006
45.45000 4.149
45.46000 1.996
45.47000 4.057
45.48000 4.064
45.49000 0.984
45.50000 4.035
45.51000 2.040
45.52000 3.080
45.53000 2.010
45.54000 6.010
45.55000 0.990
45.56000 4.088
45.57000 5.067
45.58000 4.092
45.59000 3.047
45.60000 6.081
45.61000 3.017
45.62000 4.051
45.63000 4.049
45.64000 0.988
45.65000 3.032
45.66000 2.017
45.67000 0.992
45.68000 2.069
45.69000 5.130
45.70000 1.009
45.71000 0.985
45.72000 3.043
45.73000 6.110
45.74000 4.050
45.75000 3.028
45.76000 0.000
45.77000 6.102
45.78000 4.010
45.79000 2.029
45.80000 2.064
45.81000 0.997
45.82000 2.016
45.83000 2.000
45.84000 4.082
45.85000 5.095
45.86000 2.050
45.87000 3.060
45.88000 5.085
45.89000 0.989
45.90000 2.008
45.91000 1.081
45.92000 3.059
45.93000 4.117
45.94000 1.016
45.95000 1.997
45.96000 5.142
45.97000 0.000
45.98000 2.007
45.99000 3.150
46.00000 3.054
46.01000 4.104
46.02000 3.009
46.03000 2.046
46.04000 3.075
46.05000 4.025
46.06000 1.048
46.07000 4.025
46.08000 2.982
46.09000 2.065
46.10000 3.089
46.11000 2.053
46.12000 0.990
46.13000 3.049
46.14000 4.006
46.15000 2.071
46.16000 2.025
46.17000 2.056
46.18000 1.009
46.19000 2.974
46.20000 2.053
46.21000 0.984
46.22000 5.000
46.23000 2.030
46.24000 5.966
46.25000 2.043
46.26000 2.015
46.27000 3.066
46.28000 0.000
46.29000 4.173
46.30000 3.026
46.31000 2.064
46.32000 5.082
46.33000 2.005
46.34000 1.035
46.35000 2.033
46.36000 1.032
46.37000 2.048
46.38000 2.037
46.39000 0.000
46.40000 1.993
46.41000 3.022
46.42000 4.048
46.43000 4.021
46.44000 2.003
46.45000 1.022
46.46000 2.975
46.47000 3.040
46.48000 2.076
46.49000 3.057
46.50000 4.022
46.51000 1.971
46.52000 0.988
46.53000 5.071
46.54000 2.058
46.55000 2.084
46.56000 2.003
46.57000 3.983
46.58000 1.018
46.59000 1.000
46.60000 0.991
46.61000 1.971
46.62000 6.017
46.63000 5.093
46.64000 1.004
46.65000 1.023
46.66000 2.062
46.67000 0.994
46.68000 5.142
46.69000 2.043
46.70000 3.064
46.71000 1.997
46.72000 0.983
46.73000 2.017
46.74000 0.000
46.75000 2.999
46.76000 6.040
46.77000 3.058
46.78000 2.997
46.79000 1.037
46.80000 1.002
46.81000 6.111
46.82000 2.005
46.83000 3.097
46.84000 6.015
46.85000 2.987
46.86000 2.075
46.87000 3.046
46.88000 1.021
46.89000 3.089
46.90000 2.046
46.91000 2.000
46.92000 3.024
46.93000 1.982
46.94000 0.000
46.95000 2.987
46.96000 3.080
46.97000 2.100
46.98000 0.000
46.99000 4.085
47.00000 4.060
47.01000 0.000
47.02000 0.988
47.03000 1.059
47.04000 5.114
47.05000 6.014
47.06000 3.046
47.07000 4.078
47.08000 3.031
47.09000 3.069
47.10000 0.997
47.11000 7.125
47.12000 4.008
47.13000 1.034
47.14000 2.959
47.15000 0.000
47.16000 1.006
47.17000 2.036
47.18000 0.000
47.19000 3.049
47.20000 1.023
47.21000 3.071
47.22000 1.991
47.23000 3.091
47.24000 1.002
47.25000 3.028
47.26000 0.000
47.27000 5.025
47.28000 3.020
47.29000 2.076
47.30000 4.008
47.31000 0.995
47.32000 1.025
47.33000 0.983
47.34000 4.032
47.35000 6.089
47.36000 5.105
47.37000 0.000
47.38000 2.015
47.39000 0.000
47.40000 3.184
47.41000 1.998
47.42000 4.020
47.43000 0.980
47.44000 6.111
47.45000 3.997
47.46000 2.000
47.47000 2.022
47.48000 1.044
47.49000 2.040
47.50000 0.000
47.51000 2.036
47.52000 4.081
47.53000 6.040
47.54000 2.033
47.55000 2.080
47.56000 2.969
47.57000 0.000
47.58000 1.049
47.59000 3.024
47.60000 2.017
47.61000 6.054
47.62000 3.078
47.63000 3.000
47.64000 1.034
47.65000 1.984
47.66000 0.000
47.67000 2.092
47.68000 2.011
47.69000 3.034
47.70000 0.000
47.71000 1.023
47.72000 2.005
47.73000 3.998
47.74000 3.050
47.75000 2.080
47.76000 6.200
47.77000 4.990
47.78000 2.008
47.79000 3.074
47.80000 4.062
47.81000 0.000
47.82000 4.992
47.83000 2.005
47.84000 0.000
47.85000 1.988
47.86000 5.067
47.87000 2.005
47.88000 1.002
47.89000 3.056
47.90000 3.093
47.91000 2.013
47.92000 1.001
47.93000 2.976
47.94000 3.062
47.95000 1.998
47.96000 5.048
47.97000 5.074
47.98000 3.104
47.99000 2.996
48.00000 2.004
48.01000 0.988
48.02000 1.030
48.03000 1.013
48.04000 6.048
48.05000 3.032
48.06000 2.057
48.07000 2.034
48.08000 0.000
48.09000 1.998
48.10000 2.983
48.11000 1.024
48.12000 2.989
48.13000 3.985
48.14000 3.099
48.15000 2.016
48.16000 3.068
48.17000 0.000
48.18000 4.044
48.19000 4.077
48.20000 0.993
48.21000 4.976
48.22000 3.996
48.23000 5.094
48.24000 4.051
48.25000 2.973
48.26000 2.035
48.27000 3.064
48.28000 3.089
48.29000 1.003
48.30000 3.057
48.31000 3.956
48.32000 0.000
48.33000 2.018
48.34000 1.021
48.35000 0.000
48.36000 5.959
48.37000 0.000
48.38000 1.022
48.39000 2.115
48.40000 2.024
48.41000 1.029
48.42000 0.985
48.43000 0.000
48.44000 1.961
48.45000 1.076
48.46000 2.007
48.47000 1.034
48.48000 2.017
48.49000 4.006
48.50000 4.001
48.51000 3.090
48.52000 2.008
48.53000 0.975
48.54000 1.007
48.55000 4.003
48.56000 2.056
48.57000 3.082
48.58000 2.046
48.59000 5.119
48.60000 0.000
48.61000 2.057
48.62000 2.979
48.63000 1.971
48.64000 0.000
48.65000 4.022
48.66000 1.068
48.67000 0.997
48.68000 2.015
48.69000 2.005
48.70000 3.055
48.71000 3.036
48.72000 2.997
48.73000 0.992
48.74000 3.047
48.75000 0.000
48.76000 2.002
48.77000 2.003
48.78000 0.000
48.79000 1.007
48.80000 0.000
48.81000 5.083
48.82000 2.010
48.83000 7.052
48.84000 3.115
48.85000 3.063
48.86000 4.083
48.87000 1.995
48.88000 2.007
48.89000 3.134
48.90000 0.000
48.91000 0.984
48.92000 3.055
48.93000 4.116
48.94000 5.157
48.95000 4.019
48.96000 3.971
48.97000 1.016
48.98000 1.999
48.99000 5.028
49.00000 1.018
49.01000 1.028
49.02000 1.026
49.03000 3.034
49.04000 2.001
49.05000 3.992
49.06000 0.984
49.07000 6.018
49.08000 3.047
49.09000 0.000
49.10000 3.096
49.11000 5.110
49.12000 0.000
49.13000 3.085
49.14000 1.005
49.15000 5.032
49.16000 2.030
49.17000 1.013
49.18000 0.000
49.19000 1.013
49.20000 4.129
49.21000 6.102
49.22000 2.007
49.23000 4.050
49.24000 2.938
49.25000 2.030
49.26000 2.970
49.27000 4.026
49.28000 5.010
49.29000 0.991
49.30000 1.020
49.31000 3.019
49.32000 2.972
49.33000 3.059
49.34000 3.993
49.35000 0.974
49.36000 2.028
49.37000 3.016
49.38000 1.984
49.39000 2.038
49.40000 5.105
49.41000 0.000
49.42000 2.049
49.43000 2.067
49.44000 3.009
49.45000 5.079
49.46000 0.000
49.47000 5.048
49.48000 0.976
49.49000 0.000
49.50000 2.033
49.51000 5.094
49.52000 1.025
49.53000 1.010
49.54000 1.023
49.55000 4.055
49.56000 1.024
49.57000 3.070
49.58000 0.993
49.59000 1.010
49.60000 1.955
49.61000 1.038
49.62000 3.006
49.63000 1.057
49.64000 5.101
49.65000 2.997
49.66000 3.009
49.67000 1.030
49.68000 2.000
49.69000 1.048
49.70000 2.011
49.71000 3.008
49.72000 4.042
49.73000 6.026
49.74000 1.044
49.75000 3.073
49.76000 2.062
49.77000 0.000
49.78000 5.045
49.79000 0.991
49.80000 1.004
49.81000 3.007
49.82000 2.086
49.83000 2.031
49.84000 3.061
49.85000 1.048
49.86000 3.009
49.87000 3.051
49.88000 3.049
49.89000 1.032
49.90000 3.043
49.91000 0.000
49.92000 1.995
49.93000 3.019
49.94000 1.966
49.95000 3.052
49.96000 4.068
49.97000 2.047
49.98000 1.054
49.99000 2.997
50.00000 3.006
50.01000 5.112
50.02000 3.011
50.03000 2.044
50.04000 1.035
50.05000 1.984
50.06000 5.072
50.07000 3.078
50.08000 2.008
50.09000 7.077
50.10000 2.002
50.11000 1.017
50.12000 2.048
50.13000 1.056
50.14000 0.997
50.15000 2.004
50.16000 1.069
50.17000 0.000
50.18000 1.973
50.19000 0.994
50.20000 1.021
50.21000 8.246
50.22000 1.040
50.23000 0.000
50.24000 2.008
50.25000 1.969
50.26000 5.058
50.27000 0.000
50.28000 1.033
50.29000 5.049
50.30000 1.017
50.31000 0.978
50.32000 4.077
50.33000 3.064
50.34000 0.000
50.35000 0.000
50.36000 3.015
50.37000 0.994
50.38000 3.025
50.39000 1.007
50.40000 3.100
50.41000 1.007
50.42000 2.068
50.43000 3.075
50.44000 1.979
50.45000 2.024
50.46000 1.998
50.47000 4.092
50.48000 5.090
50.49000 1.014
50.50000 6.162
50.51000 0.000
50.52000 1.020
50.53000 2.053
50.54000 3.059
50.55000 2.125
50.56000 3.024
50.57000 0.988
50.58000 4.077
50.59000 3.077
50.60000 2.991
50.61000 1.991
50.62000 2.040
50.63000 3.116
50.64000 2.990
50.65000 5.039
50.66000 4.010
50.67000 3.015
50.68000 6.124
50.69000 0.982
50.70000 0.992
50.71000 1.047
50.72000 0.995
50.73000 0.000
50.74000 4.055
50.75000 2.005
50.76000 1.041
50.77000 2.018
50.78000 2.998
50.79000 1.011
50.80000 1.004
50.81000 1.005
50.82000 1.042
50.83000 2.074
50.84000 0.976
50.85000 1.051
50.86000 2.027
50.87000 4.987
50.88000 2.980
50.89000 5.069
50.90000 2.018
50.91000 5.045
50.92000 0.994
50.93000 2.045
50.94000 3.075
50.95000 2.990
50.96000 1.073
50.97000 3.097
50.98000 0.000
50.99000 1.013
51.00000 3.044
51.01000 0.977
51.02000 2.085
51.03000 5.127
51.04000 0.985
51.05000 2.081
51.06000 3.973
51.07000 0.000
51.08000 1.011
51.09000 2.040
51.10000 2.999
51.11000 2.019
51.12000 5.072
51.13000 0.000
51.14000 4.027
51.15000 1.051
51.16000 3.992
51.17000 3.951
51.18000 5.978
51.19000 3.022
51.20000 3.061
51.21000 2.010
51.22000 2.064
51.23000 1.011
51.24000 0.000
51.25000 3.019
51.26000 4.051
51.27000 2.069
51.28000 0.978
51.29000 3.080
51.30000 2.097
51.31000 0.000
51.32000 0.000
51.33000 3.029
51.34000 3.009
51.35000 4.979
51.36000 4.033
51.37000 4.077
51.38000 3.076
51.39000 0.998
51.40000 2.066
51.41000 1.985
51.42000 2.059
51.43000 1.013
51.44000 2.984
51.45000 4.098
51.46000 4.032
51.47000 1.024
51.48000 0.000
51.49000 3.007
51.50000 1.013
51.51000 4.024
51.52000 3.030
51.53000 0.000
51.54000 1.034
51.55000 1.016
51.56000 0.000
51.57000 1.003
51.58000 1.050
51.59000 1.954
51.60000 1.058
51.61000 2.022
51.62000 2.044
51.63000 2.024
51.64000 2.002
51.65000 0.000
51.66000 0.977
51.67000 2.063
51.68000 2.037
51.69000 1.996
51.70000 1.036
51.71000 2.038
51.72000 0.000
51.73000 1.988
51.74000 3.053
51.75000 2.039
51.76000 4.036
51.77000 0.998
51.78000 0.000
51.79000 1.997
51.80000 2.063
51.81000 2.068
51.82000 6.081
51.83000 2.022
51.84000 2.992
51.85000 0.991
51.86000 0.993
51.87000 4.013
51.88000 0.000
51.89000 2.065
51.90000 3.068
51.91000 6.105
51.92000 1.014
51.93000 3.976
51.94000 0.989
51.95000 0.000
51.96000 0.000
51.97000 3.027
51.98000 1.005
51.99000 1.979
52.00000 3.112
52.01000 1.001
52.02000 2.022
52.03000 3.032
52.04000 4.116
52.05000 3.048
52.06000 1.033
52.07000 3.053
52.08000 3.005
52.09000 2.024
52.10000 1.000
52.11000 4.013
52.12000 1.024
52.13000 0.000
52.14000 5.069
52.15000 0.000
52.16000 3.972
52.17000 0.000
52.18000 2.022
52.19000 2.024
52.20000 2.051
52.21000 3.000
52.22000 1.005
52.23000 3.108
52.24000 0.000
52.25000 2.039
52.26000 1.979
52.27000 5.031
52.28000 2.088
52.29000 4.037
52.30000 4.123
52.31000 0.000
52.32000 1.979
52.33000 1.005
52.34000 3.033
52.35000 0.987
52.36000 2.061
52.37000 5.099
52.38000 2.033
52.39000 2.067
52.40000 3.041
52.41000 1.062
52.42000 4.049
52.43000 2.014
52.44000 4.018
52.45000 0.000
52.46000 0.000
52.47000 2.997
52.48000 0.000
52.49000 1.013
52.50000 2.087
52.51000 1.980
52.52000 0.997
52.53000 0.000
52.54000 0.000
52.55000 3.054
52.56000 1.044
52.57000 1.972
52.58000 3.039
52.59000 1.063
52.60000 4.028
52.61000 3.031
52.62000 2.979
52.63000 1.001
52.64000 3.020
52.65000 0.975
52.66000 1.007
52.67000 0.992
52.68000 0.990
52.69000 0.984
52.70000 1.007
52.71000 2.023
52.72000 2.006
52.73000 2.986
52.74000 0.000
52.75000 0.000
52.76000 0.000
52.77000 3.045
52.78000 0.000
52.79000 1.013
52.80000 2.025
52.81000 3.040
52.82000 3.054
52.83000 1.985
52.84000 3.020
52.85000 3.051
52.86000 1.020
52.87000 1.979
52.88000 2.011
52.89000 0.996
52.90000 6.111
52.91000 1.002
52.92000 3.079
52.93000 0.000
52.94000 5.123
52.95000 3.017
52.96000 3.055
52.97000 2.022
52.98000 2.028
52.99000 0.990
53.00000 1.000
53.01000 1.017
53.02000 3.093
53.03000 2.998
53.04000 1.006
53.05000 3.019
53.06000 1.987
53.07000 0.990
53.08000 1.027
53.09000 1.047
53.10000 0.999
53.11000 1.005
53.12000 3.051
53.13000 5.119
53.14000 2.043
53.15000 3.031
53.16000 1.044
53.17000 1.987
53.18000 5.090
53.19000 3.030
53.20000 4.099
53.21000 0.000
53.22000 1.975
53.23000 2.058
53.24000 1.032
53.25000 0.000
53.26000 3.031
53.27000 1.028
53.28000 0.995
53.29000 2.058
53.30000 4.079
53.31000 1.001
53.32000 2.041
53.33000 0.000
53.34000 1.004
53.35000 3.019
53.36000 1.000
53.37000 1.995
53.38000 3.060
53.39000 0.000
53.40000 1.995
53.41000 2.032
53.42000 3.005
53.43000 1.037
53.44000 0.000
53.45000 0.997
53.46000 3.058
53.47000 3.036
53.48000 0.000
53.49000 2.048
53.50000 0.000
53.51000 3.024
53.52000 2.032
53.53000 2.027
53.54000 4.016
53.55000 1.043
53.56000 1.979
53.57000 2.020
53.58000 3.063
53.59000 1.028
53.60000 0.986
53.61000 2.974
53.62000 3.011
53.63000 3.031
53.64000 1.016
53.65000 1.060
53.66000 1.012
53.67000 4.013
53.68000 5.045
53.69000 5.126
53.70000 3.031
53.71000 1.053
53.72000 2.009
53.73000 4.103
53.74000 2.007
53.75000 2.969
53.76000 3.034
53.77000 2.064
53.78000 1.055
53.79000 0.000
53.80000 3.971
53.81000 0.000
53.82000 2.975
53.83000 2.099
53.84000 0.000
53.85000 2.992
53.86000 3.998
53.87000 0.981
53.88000 2.025
53.89000 1.032
53.90000 2.083
53.91000 0.000
53.92000 0.999
53.93000 5.085
53.94000 0.993
53.95000 1.013
53.96000 1.029
53.97000 1.984
53.98000 0.000
53.99000 0.000
54.00000 4.133
54.01000 3.054
54.02000 1.978
54.03000 1.994
54.04000 5.070
54.05000 1.033
54.06000 0.000
54.07000 2.026
54.08000 0.000
54.09000 1.048
54.10000 3.048
54.11000 1.049
54.12000 0.000
54.13000 1.033
54.14000 1.979
54.15000 2.966
54.16000 2.038
54.17000 0.000
54.18000 6.083
54.19000 0.981
54.20000 4.047
54.21000 1.999
54.22000 3.099
54.23000 3.131
54.24000 0.998
54.25000 2.065
54.26000 3.053
54.27000 4.142
54.28000 1.038
54.29000 0.990
54.30000 0.000
54.31000 1.026
54.32000 3.026
54.33000 1.010
54.34000 1.983
54.35000 0.977
54.36000 0.000
54.37000 0.000
54.38000 1.061
54.39000 2.020
54.40000 0.000
54.41000 5.012
54.42000 0.000
54.43000 1.057
54.44000 0.000
54.45000 2.079
54.46000 2.978
54.47000 2.005
54.48000 1.998
54.49000 0.987
54.50000 3.069
54.51000 0.000
54.52000 1.026
54.53000 0.000
54.54000 0.960
54.55000 2.036
54.56000 0.982
54.57000 2.984
54.58000 4.022
54.59000 1.973
54.60000 2.014
54.61000 3.048
54.62000 2.073
54.63000 1.996
54.64000 1.010
54.65000 1.007
54.66000 3.043
54.67000 4.049
54.68000 4.049
54.69000 2.057
54.70000 2.997
54.71000 0.989
54.72000 2.058
54.73000 4.063
54.74000 1.015
54.75000 2.954
54.76000 3.042
54.77000 4.116
54.78000 1.033
54.79000 1.023
54.80000 2.043
54.81000 0.000
54.82000 2.008
54.83000 0.000
54.84000 3.082
54.85000 4.043
54.86000 0.000
54.87000 0.992
54.88000 0.995
54.89000 1.058
54.90000 0.000
54.91000 0.993
54.92000 0.998
54.93000 3.019
54.94000 2.004
54.95000 2.050
54.96000 3.031
54.97000 0.989
54.98000 2.074
54.99000 0.980
55.00000 0.000
55.01000 2.033
55.02000 0.000
55.03000 5.032
55.04000 1.020
55.05000 1.044
55.06000 3.010
55.07000 1.039
55.08000 1.995
55.09000 4.097
55.10000 5.011
55.11000 3.049
55.12000 2.096
55.13000 1.002
55.14000 1.016
55.15000 0.000
55.16000 3.001
55.17000 3.066
55.18000 1.042
55.19000 1.040
55.20000 1.944
55.21000 0.000
55.22000 2.041
55.23000 2.984
55.24000 2.009
55.25000 2.013
55.26000 1.000
55.27000 5.993
55.28000 2.012
55.29000 0.000
55.30000 2.990
55.31000 2.068
55.32000 1.017
55.33000 2.000
55.34000 2.024
55.35000 3.024
55.36000 3.027
55.37000 2.017
55.38000 2.038
55.39000 2.034
55.40000 2.047
55.41000 0.985
55.42000 5.078
55.43000 2.086
55.44000 2.002
55.45000 5.026
55.46000 0.000
55.47000 2.024
55.48000 2.055
55.49000 2.027
55.50000 5.064
55.51000 2.117
55.52000 1.012
55.53000 3.074
55.54000 0.000
55.55000 5.048
55.56000 0.000
55.57000 1.004
55.58000 2.117
55.59000 0.000
55.60000 2.013
55.61000 0.000
55.62000 3.090
55.63000 1.014
55.64000 5.094
55.65000 3.044
55.66000 0.000
55.67000 4.174
55.68000 2.003
55.69000 4.029
55.70000 2.019
55.71000 2.045
55.72000 1.999
55.73000 4.020
55.74000 0.980
55.75000 2.004
55.76000 1.031
55.77000 4.107
55.78000 0.967
55.79000 1.093
55.80000 3.020
55.81000 2.058
55.82000 2.013
55.83000 1.991
55.84000 0.000
55.85000 1.042
55.86000 0.000
55.87000 1.008
55.88000 2.007
55.89000 0.000
55.90000 2.028
55.91000 1.990
55.92000 2.046
55.93000 1.001
55.94000 2.001
55.95000 2.048
55.96000 0.979
55.97000 3.015
55.98000 0.000
55.99000 0.000
56.00000 2.013
56.01000 0.000
56.02000 1.037
56.03000 5.073
56.04000 2.017
56.05000 2.036
56.06000 1.027
56.07000 0.971
56.08000 3.078
56.09000 2.000
56.10000 0.000
56.11000 1.005
56.12000 5.981
56.13000 0.980
56.14000 1.005
56.15000 2.052
56.16000 1.001
56.17000 0.000
56.18000 4.100
56.19000 0.997
56.20000 0.999
56.21000 1.061
56.22000 1.998
56.23000 2.998
56.24000 2.991
56.25000 0.000
56.26000 0.999
56.27000 1.006
56.28000 3.000
56.29000 3.031
56.30000 0.000
56.31000 0.970
56.32000 2.998
56.33000 0.976
56.34000 2.109
56.35000 0.988
56.36000 2.081
56.37000 5.045
56.38000 1.037
56.39000 0.000
56.40000 4.005
56.41000 1.980
56.42000 4.021
56.43000 1.004
56.44000 1.037
56.45000 0.000
56.46000 4.017
56.47000 2.052
56.48000 2.008
56.49000 3.084
56.50000 1.018
56.51000 1.041
56.52000 2.029
56.53000 0.000
56.54000 2.117
56.55000 1.059
56.56000 1.012
56.57000 2.005
56.58000 0.000
56.59000 3.042
56.60000 4.075
56.61000 1.000
56.62000 2.010
56.63000 3.016
56.64000 4.023
56.65000 2.075
56.66000 4.100
56.67000 0.000
56.68000 0.000
56.69000 1.013
56.70000 2.081
56.71000 3.076
56.72000 1.053
56.73000 1.975
56.74000 1.002
56.75000 2.032
56.76000 2.009
56.77000 1.041
56.78000 0.000
56.79000 0.000
56.80000 0.000
56.81000 1.033
56.82000 0.000
56.83000 1.978
56.84000 1.004
56.85000 1.026
56.86000 1.035
56.87000 1.983
56.88000 3.037
56.89000 1.017
56.90000 1.044
56.91000 2.038
56.92000 1.986
56.93000 2.031
56.94000 2.058
56.95000 0.000
56.96000 0.000
56.97000 0.000
56.98000 0.000
56.99000 1.000
57.00000 1.050
57.01000 2.032
57.02000 1.994
57.03000 1.994
57.04000 3.028
57.05000 0.990
57.06000 2.970
57.07000 6.087
57.08000 0.000
57.09000 1.005
57.10000 3.053
57.11000 4.071
57.12000 1.017
57.13000 0.999
57.14000 2.008
57.15000 0.000
57.16000 0.000
57.17000 2.036
57.18000 1.019
57.19000 4.002
57.20000 1.957
57.21000 3.103
57.22000 1.011
57.23000 1.035
57.24000 1.055
57.25000 2.040
57.26000 4.118
57.27000 2.049
57.28000 4.056
57.29000 1.009
57.30000 1.019
57.31000 4.089
57.32000 0.983
57.33000 4.090
57.34000 0.000
57.35000 1.994
57.36000 1.037
57.37000 3.039
57.38000 3.026
57.39000 5.104
57.40000 1.017
57.41000 2.965
57.42000 3.075
57.43000 6.120
57.44000 0.000
57.45000 4.026
57.46000 1.023
57.47000 2.998
57.48000 1.028
57.49000 1.980
57.50000 1.048
57.51000 2.988
57.52000 0.975
57.53000 2.004
57.54000 1.015
57.55000 2.046
57.56000 6.134
57.57000 1.002
57.58000 2.965
57.59000 0.000
57.60000 1.007
57.61000 1.001
57.62000 2.990
57.63000 0.978
57.64000 0.994
57.65000 0.988
57.66000 0.000
57.67000 4.029
57.68000 2.008
57.69000 2.048
57.70000 4.098
57.71000 0.000
57.72000 0.000
57.73000 1.021
57.74000 1.000
57.75000 1.028
57.76000 1.003
57.77000 2.015
57.78000 0.000
57.79000 1.993
57.80000 0.997
57.81000 0.992
57.82000 2.010
57.83000 2.007
57.84000 3.008
57.85000 3.039
57.86000 1.009
57.87000 1.995
57.88000 0.998
57.89000 2.018
57.90000 2.068
57.91000 2.068
57.92000 0.000
57.93000 0.000
57.94000 3.085
57.95000 3.006
57.96000 0.993
57.97000 3.036
57.98000 1.005
57.99000 0.991
58.00000 3.009
58.01000 1.991
58.02000 3.079
58.03000 1.021
58.04000 2.024
58.05000 2.074
58.06000 2.020
58.07000 3.155
58.08000 1.034
58.09000 0.000
58.10000 0.000
58.11000 2.963
58.12000 1.973
58.13000 1.044
58.14000 1.032
58.15000 1.025
58.16000 2.984
58.17000 3.021
58.18000 5.012
58.19000 4.080
58.20000 1.961
58.21000 0.997
58.22000 1.005
58.23000 0.987
58.24000 1.042
58.25000 2.054
58.26000 1.032
58.27000 2.050
58.28000 3.072
58.29000 0.000
58.30000 0.981
58.31000 1.001
58.32000 0.000
58.33000 2.033
58.34000 3.010
58.35000 2.033
58.36000 0.996
58.37000 0.000
58.38000 1.011
58.39000 0.000
58.40000 0.000
58.41000 3.059
58.42000 2.016
58.43000 0.000
58.44000 1.968
58.45000 3.048
58.46000 2.028
58.47000 3.008
58.48000 1.010
58.49000 3.063
58.50000 0.000
58.51000 2.005
58.52000 0.000
58.53000 1.013
58.54000 2.001
58.55000 3.991
58.56000 2.035
58.57000 1.037
58.58000 0.000
58.59000 0.984
58.60000 1.015
58.61000 3.001
58.62000 0.985
58.63000 0.000
58.64000 1.012
58.65000 1.016
58.66000 2.003
58.67000 2.002
58.68000 3.020
58.69000 1.016
58.70000 2.045
58.71000 0.998
58.72000 1.013
58.73000 0.976
58.74000 0.997
58.75000 1.980
58.76000 2.007
58.77000 0.000
58.78000 1.051
58.79000 0.000
58.80000 3.036
58.81000 2.057
58.82000 3.995
58.83000 1.020
58.84000 3.040
58.85000 0.000
58.86000 2.014
58.87000 5.086
58.88000 2.984
58.89000 1.040
58.90000 0.000
58.91000 0.996
58.92000 2.010
58.93000 0.980
58.94000 0.973
58.95000 1.027
58.96000 3.095
58.97000 1.004
58.98000 0.996
58.99000 2.041
59.00000 0.983
59.01000 3.012
59.02000 2.076
59.03000 0.000
59.04000 0.987
59.05000 2.060
59.06000 4.975
59.07000 3.026
59.08000 0.000
59.09000 0.992
59.10000 1.022
59.11000 0.000
59.12000 2.054
59.13000 2.026
59.14000 3.111
59.15000 0.000
59.16000 1.034
59.17000 3.052
59.18000 0.000
59.19000 0.000
59.20000 0.000
59.21000 0.000
59.22000 1.030
59.23000 3.018
59.24000 1.028
59.25000 1.033
59.26000 3.053
59.27000 1.042
59.28000 1.062
59.29000 3.041
59.30000 0.000
59.31000 2.014
59.32000 1.015
59.33000 3.048
59.34000 0.000
59.35000 1.011
59.36000 0.000
59.37000 1.000
59.38000 0.985
59.39000 1.012
59.40000 0.000
59.41000 0.000
59.42000 2.060
59.43000 0.997
59.44000 2.010
59.45000 0.000
59.46000 1.992
59.47000 0.000
59.48000 0.000
59.49000 1.985
59.50000 4.053
59.51000 0.000
59.52000 1.036
59.53000 2.000
59.54000 3.041
59.55000 3.046
59.56000 2.077
59.57000 2.019
59.58000 2.004
59.59000 1.008
59.60000 1.020
59.61000 1.978
59.62000 3.035
59.63000 3.083
59.64000 3.059
59.65000 3.041
59.66000 1.966
59.67000 2.101
59.68000 0.978
59.69000 3.042
59.70000 2.980
59.71000 0.000
59.72000 2.079
59.73000 1.007
59.74000 1.979
59.75000 0.000
59.76000 0.995
59.77000 1.007
59.78000 2.027
59.79000 1.003
59.80000 4.011
59.81000 0.996
59.82000 1.997
59.83000 1.030
59.84000 1.011
59.85000 0.000
59.86000 0.000
59.87000 1.975
59.88000 3.041
59.89000 3.024
59.90000 0.000
59.91000 4.160
59.92000 0.987
59.93000 4.062
59.94000 1.048
59.95000 1.014
59.96000 0.000
59.97000 2.992
59.98000 5.059
59.99000 3.029
60.00000 2.977
60.01000 2.998
60.02000 0.989
60.03000 3.085
60.04000 1.036
60.05000 2.039
60.06000 5.023
60.07000 0.000
60.08000 0.987
60.09000 0.984
60.10000 1.008
60.11000 3.018
60.12000 1.994
60.13000 1.003
60.14000 1.964
60.15000 0.980
60.16000 6.043
60.17000 0.992
60.18000 1.019
60.19000 2.000
60.20000 1.031
60.21000 3.002
60.22000 1.017
60.23000 2.046
60.24000 0.000
60.25000 3.008
60.26000 1.042
60.27000 1.001
60.28000 0.000
60.29000 2.070
60.30000 1.022
60.31000 1.035
60.32000 1.989
60.33000 1.979
60.34000 1.010
60.35000 3.024
60.36000 3.016
60.37000 2.057
60.38000 1.988
60.39000 1.001
60.40000 1.994
60.41000 0.991
60.42000 2.995
60.43000 0.000
60.44000 1.990
60.45000 2.008
60.46000 1.030
60.47000 0.000
60.48000 3.044
60.49000 1.998
60.50000 4.122
60.51000 0.000
60.52000 0.000
60.53000 1.971
60.54000 2.066
60.55000 1.028
60.56000 0.997
60.57000 1.061
60.58000 0.000
60.59000 2.003
60.60000 2.038
60.61000 0.000
60.62000 0.000
60.63000 2.009
60.64000 3.029
60.65000 1.997
60.66000 3.981
60.67000 2.042
60.68000 1.009
60.69000 2.030
60.70000 1.002
60.71000 3.040
60.72000 1.987
60.73000 1.028
60.74000 4.038
60.75000 1.991
60.76000 2.023
60.77000 0.000
60.78000 1.981
60.79000 1.969
60.80000 1.043
60.81000 0.989
60.82000 3.108
60.83000 0.000
60.84000 1.983
60.85000 1.048
60.86000 1.006
60.87000 2.061
60.88000 2.062
60.89000 1.054
60.90000 3.979
60.91000 0.000
60.92000 1.976
60.93000 1.027
60.94000 4.054
60.95000 2.022
60.96000 1.018
60.97000 2.008
60.98000 1.008
60.99000 0.000
61.00000 3.094
61.01000 1.030
61.02000 1.983
61.03000 2.080
61.04000 0.000
61.05000 0.000
61.06000 1.992
61.07000 0.000
61.08000 0.000
61.09000 0.987
61.10000 0.000
61.11000 2.002
61.12000 0.992
61.13000 1.035
61.14000 0.000
61.15000 3.030
61.16000 0.989
61.17000 0.000
61.18000 2.014
61.19000 1.000
61.20000 1.030
61.21000 4.145
61.22000 0.000
61.23000 0.997
61.24000 2.077
61.25000 1.006
61.26000 0.000
61.27000 0.000
61.28000 0.000
61.29000 1.969
61.30000 2.001
61.31000 2.046
61.32000 0.995
61.33000 1.972
61.34000 3.054
61.35000 2.013
61.36000 3.015
61.37000 1.007
61.38000 0.989
61.39000 0.000
61.40000 0.000
61.41000 1.002
61.42000 1.070
61.43000 2.054
61.44000 1.027
61.45000 1.004
61.46000 2.074
61.47000 4.080
61.48000 2.056
61.49000 2.086
61.50000 3.046
61.51000 1.021
61.52000 3.013
61.53000 2.049
61.54000 1.002
61.55000 0.992
61.56000 0.000
61.57000 4.073
61.58000 0.992
61.59000 2.047
61.60000 2.015
61.61000 1.038
61.62000 1.998
61.63000 1.010
61.64000 2.013
61.65000 3.058
61.66000 0.990
61.67000 0.000
61.68000 0.000
61.69000 1.032
61.70000 0.987
61.71000 0.000
61.72000 3.064
61.73000 0.979
61.74000 2.000
61.75000 4.059
61.76000 3.055
61.77000 0.988
61.78000 0.000
61.79000 2.045
61.80000 0.997
61.81000 3.152
61.82000 0.000
61.83000 3.048
61.84000 1.955
61.85000 1.019
61.86000 2.015
61.87000 0.000
61.88000 2.022
61.89000 0.981
61.90000 0.996
61.91000 1.026
61.92000 0.000
61.93000 1.029
61.94000 0.000
61.95000 2.982
61.96000 4.088
61.97000 3.060
61.98000 2.034
61.99000 2.081
62.00000 0.994
62.01000 3.027
62.02000 2.033
62.03000 2.013
62.04000 2.096
62.05000 4.031
62.06000 1.019
62.07000 4.047
62.08000 0.994
62.09000 3.107
62.10000 0.982
62.11000 1.001
62.12000 0.000
62.13000 2.008
62.14000 0.000
62.15000 2.009
62.16000 2.010
62.17000 3.054
62.18000 0.989
62.19000 2.045
62.20000 0.000
62.21000 5.108
62.22000 1.048
62.23000 2.042
62.24000 0.979
62.25000 2.067
62.26000 1.985
62.27000 2.989
62.28000 2.016
62.29000 3.013
62.30000 2.010
62.31000 0.000
62.32000 0.000
62.33000 2.092
62.34000 1.023
62.35000 3.043
62.36000 0.000
62.37000 0.999
62.38000 3.018
62.39000 1.056
62.40000 0.000
62.41000 4.056
62.42000 1.023
62.43000 1.970
62.44000 2.086
62.45000 1.024
62.46000 0.991
62.47000 0.983
62.48000 0.000
62.49000 2.062
62.50000 0.000
62.51000 1.047
62.52000 0.000
62.53000 2.023
62.54000 2.060
62.55000 2.053
62.56000 0.000
62.57000 1.027
62.58000 3.057
62.59000 2.068
62.60000 0.980
62.61000 3.973
62.62000 0.000
62.63000 0.000
62.64000 0.000
62.65000 0.974
62.66000 0.990
62.67000 0.000
62.68000 1.004
62.69000 1.003
62.70000 2.010
62.71000 0.000
62.72000 1.012
62.73000 0.000
62.74000 1.018
62.75000 2.028
62.76000 0.986
62.77000 2.033
62.78000 1.015
62.79000 4.021
62.80000 0.000
62.81000 0.000
62.82000 1.006
62.83000 0.000
62.84000 0.000
62.85000 1.050
62.86000 3.033
62.87000 0.000
62.88000 2.011
62.89000 3.992
62.90000 0.000
62.91000 4.001
62.92000 3.031
62.93000 3.095
62.94000 3.032
62.95000 2.023
62.96000 3.091
62.97000 2.026
62.98000 3.071
62.99000 1.008
63.00000 0.996
63.01000 5.099
63.02000 2.025
63.03000 4.947
63.04000 1.038
63.05000 0.982
63.06000 0.975
63.07000 1.989
63.08000 0.983
63.09000 1.060
63.10000 0.000
63.11000 1.996
63.12000 1.020
63.13000 4.103
63.14000 3.036
63.15000 0.977
63.16000 2.011
63.17000 3.053
63.18000 0.000
63.19000 1.020
63.20000 1.984
63.21000 2.008
63.22000 3.032
63.23000 1.036
63.24000 0.000
63.25000 4.037
63.26000 0.000
63.27000 1.995
63.28000 1.967
63.29000 1.019
63.30000 3.955
63.31000 0.000
63.32000 2.008
63.33000 0.000
63.34000 1.002
63.35000 2.087
63.36000 3.054
63.37000 3.001
63.38000 1.027
63.39000 4.002
63.40000 1.049
63.41000 1.986
63.42000 0.000
63.43000 1.036
63.44000 2.035
63.45000 2.024
63.46000 0.000
63.47000 2.031
63.48000 1.065
63.49000 3.079
63.50000 2.102
63.51000 0.000
63.52000 1.034
63.53000 5.024
63.54000 1.992
63.55000 1.988
63.56000 1.037
63.57000 0.000
63.58000 2.089
63.59000 1.061
63.60000 2.985
63.61000 1.002
63.62000 1.042
63.63000 0.000
63.64000 2.057
63.65000 3.045
63.66000 2.039
63.67000 1.970
63.68000 1.022
63.69000 0.000
63.70000 2.048
63.71000 2.036
63.72000 1.996
63.73000 2.983
63.74000 0.992
63.75000 1.028
63.76000 0.997
63.77000 2.017
63.78000 1.025
63.79000 0.981
63.80000 2.039
63.81000 5.045
63.82000 5.094
63.83000 0.991
63.84000 1.008
63.85000 2.039
63.86000 2.021
63.87000 1.005
63.88000 4.119
63.89000 3.022
63.90000 0.000
63.91000 1.040
63.92000 3.047
63.93000 0.000
63.94000 1.987
63.95000 2.066
63.96000 1.018
63.97000 1.015
63.98000 1.007
63.99000 2.108
64.00000 0.992
64.01000 0.000
64.02000 1.036
64.03000 0.000
64.04000 1.003
64.05000 2.018
64.06000 2.040
64.07000 1.017
64.08000 2.059
64.09000 0.000
64.10000 2.043
64.11000 1.003
64.12000 1.003
64.13000 1.033
64.14000 1.025
64.15000 2.001
64.16000 0.000
64.17000 0.000
64.18000 1.011
64.19000 1.070
64.20000 0.985
64.21000 0.970
64.22000 1.014
64.23000 1.028
64.24000 1.017
64.25000 2.034
64.26000 1.040
64.27000 0.000
64.28000 0.000
64.29000 2.078
64.30000 0.000
64.31000 1.025
64.32000 3.008
64.33000 1.027
64.34000 4.108
64.35000 1.006
64.36000 0.000
64.37000 1.032
64.38000 1.023
64.39000 0.000
64.40000 1.028
64.41000 0.000
64.42000 0.988
64.43000 2.006
64.44000 1.001
64.45000 1.994
64.46000 0.000
64.47000 2.063
64.48000 0.000
64.49000 0.998
64.50000 1.029
64.51000 0.990
64.52000 1.022
64.53000 1.013
64.54000 0.981
64.55000 1.033
64.56000 2.062
64.57000 2.014
64.58000 1.005
64.59000 1.018
64.60000 1.985
64.61000 1.079
64.62000 1.009
64.63000 1.019
64.64000 2.984
64.65000 1.989
64.66000 1.000
64.67000 1.013
64.68000 0.997
64.69000 2.990
64.70000 0.994
64.71000 2.013
64.72000 2.063
64.73000 0.000
64.74000 1.013
64.75000 2.014
64.76000 1.031
64.77000 0.998
64.78000 0.000
64.79000 2.010
64.80000 1.071
64.81000 2.024
64.82000 1.047
64.83000 0.000
64.84000 0.000
64.85000 0.998
64.86000 0.000
64.87000 0.996
64.88000 1.984
64.89000 0.997
64.90000 2.084
64.91000 2.989
64.92000 1.993
64.93000 1.978
64.94000 0.995
64.95000 0.987
64.96000 1.054
64.97000 0.000
64.98000 3.023
64.99000 0.000
65.00000 0.000
