20.00000 17.249
20.01000 15.220
20.02000 10.190
20.03000 16.213
20.04000 15.305
20.05000 20.240
20.06000 14.198
20.07000 16.362
20.08000 17.128
20.09000 20.327
20.10000 18.335
20.11000 20.199
20.12000 22.396
20.13000 23.362
20.14000 19.157
20.15000 20.364
20.16000 8.971
20.17000 18.200
20.18000 16.152
20.19000 18.327
20.20000 18.252
20.21000 21.178
20.22000 16.438
20.23000 20.266
20.24000 16.217
20.25000 12.165
20.26000 15.263
20.27000 20.227
20.28000 12.148
20.29000 20.093
20.30000 16.238
20.31000 12.109
20.32000 20.342
20.33000 9.096
20.34000 21.172
20.35000 14.211
20.36000 16.106
20.37000 15.985
20.38000 14.055
20.39000 14.128
20.40000 23.576
20.41000 12.319
20.42000 15.321
20.43000 13.035
20.44000 17.213
20.45000 19.344
20.46000 11.131
20.47000 11.256
20.48000 13.983
20.49000 10.074
20.50000 15.120
20.51000 16.211
20.52000 23.320
20.53000 17.050
20.54000 22.254
20.55000 16.274
20.56000 26.323
20.57000 26.345
20.58000 18.287
20.59000 12.280
20.60000 22.241
20.61000 15.231
20.62000 16.085
20.63000 19.270
20.64000 13.211
20.65000 24.393
20.66000 18.218
20.67000 15.128
20.68000 15.292
20.69000 14.132
20.70000 15.216
20.71000 12.050
20.72000 18.300
20.73000 23.341
20.74000 24.501
20.75000 16.199
20.76000 18.147
20.77000 17.281
20.78000 16.131
20.79000 11.100
20.80000 14.080
20.81000 14.369
20.82000 14.181
20.83000 16.261
20.84000 16.211
20.85000 18.278
20.86000 17.200
20.87000 18.212
20.88000 14.133
20.89000 22.401
20.90000 20.285
20.91000 19.275
20.92000 18.271
20.93000 22.466
20.94000 19.184
20.95000 12.153
20.96000 22.304
20.97000 17.297
20.98000 16.393
20.99000 12.147
21.00000 22.474
21.01000 14.132
21.02000 14.076
21.03000 14.361
21.04000 18.146
21.05000 10.235
21.06000 17.250
21.07000 8.163
21.08000 18.150
21.09000 17.280
21.10000 13.211
21.11000 19.196
21.12000 17.132
21.13000 14.200
21.14000 23.412
21.15000 15.282
21.16000 25.220
21.17000 21.110
21.18000 20.144
21.19000 12.316
21.20000 21.358
21.21000 10.219
21.22000 23.177
21.23000 14.254
21.24000 18.283
21.25000 13.209
21.26000 18.124
21.27000 11.296
21.28000 9.175
21.29000 14.247
21.30000 18.280
21.31000 13.291
21.32000 10.154
21.33000 11.015
21.34000 16.267
21.35000 20.389
21.36000 16.405
21.37000 22.419
21.38000 12.204
21.39000 22.306
21.40000 15.155
21.41000 14.276
21.42000 17.265
21.43000 8.103
21.44000 13.131
21.45000 25.346
21.46000 20.371
21.47000 16.207
21.48000 16.191
21.49000 18.340
21.50000 16.453
21.51000 12.042
21.52000 13.207
21.53000 11.198
21.54000 20.221
21.55000 18.213
21.56000 10.055
21.57000 13.186
21.58000 16.301
21.59000 24.479
21.60000 17.270
21.61000 12.102
21.62000 16.373
21.63000 23.246
21.64000 17.316
21.65000 16.294
21.66000 13.209
21.67000 14.337
21.68000 15.103
21.69000 16.297
21.70000 17.263
21.71000 13.201
21.72000 26.501
21.73000 22.102
21.74000 18.299
21.75000 16.130
21.76000 18.065
21.77000 15.218
21.78000 11.243
21.79000 24.150
21.80000 17.198
21.81000 11.324
21.82000 15.237
21.83000 16.144
21.84000 11.063
21.85000 20.261
21.86000 20.241
21.87000 14.268
21.88000 21.131
21.89000 18.323
21.90000 19.319
21.91000 19.353
21.92000 17.357
21.93000 9.100
21.94000 16.145
21.95000 15.215
21.96000 22.266
21.97000 13.365
21.98000 13.036
21.99000 8.066
22.00000 19.229
22.01000 17.156
22.02000 18.183
22.03000 16.126
22.04000 17.194
22.05000 8.133
22.06000 14.223
22.07000 15.148
22.08000 8.228
22.09000 18.335
22.10000 15.229
22.11000 12.332
22.12000 20.254
22.13000 9.167
22.14000 21.168
22.15000 10.051
22.16000 16.322
22.17000 15.218
22.18000 12.178
22.19000 15.224
22.20000 20.236
22.21000 15.350
22.22000 16.129
22.23000 14.269
22.24000 14.231
22.25000 12.124
22.26000 16.121
22.27000 22.201
22.28000 15.131
22.29000 13.176
22.30000 16.376
22.31000 14.212
22.32000 16.285
22.33000 16.134
22.34000 17.063
22.35000 14.116
22.36000 14.167
22.37000 12.344
22.38000 14.194
22.39000 15.141
22.40000 11.164
22.41000 17.346
22.42000 17.213
22.43000 10.186
22.44000 13.113
22.45000 8.283
22.46000 18.275
22.47000 14.356
22.48000 16.330
22.49000 13.138
22.50000 16.191
22.51000 12.125
22.52000 9.175
22.53000 13.164
22.54000 11.188
22.55000 18.318
22.56000 18.499
22.57000 13.149
22.58000 21.249
22.59000 18.333
22.60000 12.264
22.61000 15.052
22.62000 14.287
22.63000 13.160
22.64000 15.398
22.65000 14.185
22.66000 15.201
22.67000 16.043
22.68000 20.384
22.69000 18.369
22.70000 15.234
22.71000 16.125
22.72000 13.137
22.73000 15.238
22.74000 10.076
22.75000 19.228
22.76000 12.051
22.77000 10.972
22.78000 14.251
22.79000 15.431
22.80000 18.152
22.81000 16.279
22.82000 11.128
22.83000 13.150
22.84000 5.057
22.85000 25.350
22.86000 13.224
22.87000 14.238
22.88000 16.118
22.89000 18.308
22.90000 11.262
22.91000 16.200
22.92000 16.280
22.93000 7.161
22.94000 13.210
22.95000 9.169
22.96000 10.203
22.97000 12.071
22.98000 8.182
22.99000 13.030
23.00000 15.034
23.01000 14.044
23.02000 11.017
23.03000 10.053
23.04000 17.195
23.05000 14.241
23.06000 27.355
23.07000 13.293
23.08000 13.175
23.09000 10.199
23.10000 13.236
23.11000 17.223
23.12000 16.229
23.13000 16.276
23.14000 17.277
23.15000 10.067
23.16000 12.273
23.17000 10.126
23.18000 12.193
23.19000 17.257
23.20000 15.168
23.21000 15.215
23.22000 11.137
23.23000 15.238
23.24000 14.137
23.25000 12.091
23.26000 14.250
23.27000 15.102
23.28000 8.035
23.29000 9.239
23.30000 14.286
23.31000 14.152
23.32000 9.010
23.33000 15.003
23.34000 11.100
23.35000 11.095
23.36000 17.189
23.37000 17.338
23.38000 10.131
23.39000 15.273
23.40000 10.083
23.41000 14.051
23.42000 14.149
23.43000 9.100
23.44000 10.120
23.45000 20.280
23.46000 15.262
23.47000 18.151
23.48000 15.246
23.49000 8.027
23.50000 9.154
23.51000 11.086
23.52000 18.368
23.53000 13.140
23.54000 11.282
23.55000 11.256
23.56000 22.314
23.57000 12.104
23.58000 14.067
23.59000 10.088
23.60000 13.115
23.61000 16.213
23.62000 14.077
23.63000 12.150
23.64000 13.140
23.65000 16.174
23.66000 10.332
23.67000 12.201
23.68000 10.115
23.69000 19.363
23.70000 16.211
23.71000 12.160
23.72000 19.230
23.73000 12.156
23.74000 13.155
23.75000 13.243
23.76000 16.904
23.77000 7.204
23.78000 20.244
23.79000 12.271
23.80000 12.111
23.81000 11.094
23.82000 14.123
23.83000 12.204
23.84000 9.022
23.85000 17.310
23.86000 17.146
23.87000 14.120
23.88000 11.147
23.89000 13.287
23.90000 12.115
23.91000 15.127
23.92000 17.425
23.93000 8.075
23.94000 18.204
23.95000 16.157
23.96000 12.223
23.97000 11.124
23.98000 13.146
23.99000 8.023
24.00000 9.075
24.01000 15.194
24.02000 22.305
24.03000 12.177
24.04000 9.026
24.05000 12.110
24.06000 12.138
24.07000 10.011
24.08000 11.189
24.09000 12.210
24.10000 11.125
24.11000 18.298
24.12000 12.109
24.13000 17.070
24.14000 13.164
24.15000 6.069
24.16000 14.135
24.17000 6.045
24.18000 8.035
24.19000 16.281
24.20000 13.234
24.21000 17.265
24.22000 14.105
24.23000 20.079
24.24000 14.213
24.25000 12.998
24.26000 16.236
24.27000 14.013
24.28000 12.132
24.29000 13.098
24.30000 17.292
24.31000 19.445
24.32000 13.278
24.33000 11.053
24.34000 8.180
24.35000 12.115
24.36000 18.338
24.37000 15.198
24.38000 9.104
24.39000 16.402
24.40000 13.121
24.41000 17.204
24.42000 15.149
24.43000 15.116
24.44000 14.070
24.45000 9.204
24.46000 19.109
24.47000 6.099
24.48000 12.038
24.49000 11.206
24.50000 8.060
24.51000 14.274
24.52000 13.152
24.53000 7.211
24.54000 15.123
24.55000 12.111
24.56000 17.250
24.57000 10.126
24.58000 16.224
24.59000 14.159
24.60000 12.143
24.61000 15.184
24.62000 9.133
24.63000 16.310
24.64000 12.022
24.65000 6.164
24.66000 20.260
24.67000 15.226
24.68000 6.194
24.69000 15.050
24.70000 9.144
24.71000 16.300
24.72000 12.165
24.73000 11.128
24.74000 15.137
24.75000 14.113
24.76000 9.192
24.77000 10.164
24.78000 12.103
24.79000 12.195
24.80000 11.035
24.81000 18.299
24.82000 10.089
24.83000 15.203
24.84000 13.295
24.85000 7.097
24.86000 13.136
24.87000 17.334
24.88000 5.077
24.89000 13.257
24.90000 13.280
24.91000 14.970
24.92000 9.127
24.93000 17.203
24.94000 13.273
24.95000 9.130
24.96000 18.257
24.97000 13.183
24.98000 15.216
24.99000 9.066
25.00000 16.287
25.01000 12.939
25.02000 12.186
25.03000 14.267
25.04000 13.228
25.05000 8.174
25.06000 16.231
25.07000 12.226
25.08000 14.339
25.09000 11.077
25.10000 5.015
25.11000 10.153
25.12000 14.287
25.13000 9.145
25.14000 11.142
25.15000 15.105
25.16000 15.164
25.17000 11.147
25.18000 16.059
25.19000 10.153
25.20000 15.446
25.21000 10.074
25.22000 9.075
25.23000 12.294
25.24000 10.157
25.25000 14.062
25.26000 13.133
25.27000 14.110
25.28000 10.152
25.29000 10.203
25.30000 10.212
25.31000 7.045
25.32000 10.077
25.33000 6.075
25.34000 6.142
25.35000 8.051
25.36000 13.011
25.37000 7.065
25.38000 13.082
25.39000 13.142
25.40000 9.139
25.41000 11.174
25.42000 12.277
25.43000 16.221
25.44000 16.244
25.45000 11.121
25.46000 8.109
25.47000 11.332
25.48000 12.364
25.49000 11.301
25.50000 5.168
25.51000 13.248
25.52000 9.210
25.53000 13.183
25.54000 11.291
25.55000 13.266
25.56000 9.254
25.57000 15.361
25.58000 10.000
25.59000 14.235
25.60000 12.102
25.61000 15.175
25.62000 8.072
25.63000 4.136
25.64000 7.011
25.65000 11.111
25.66000 8.267
25.67000 15.151
25.68000 7.013
25.69000 14.172
25.70000 9.127
25.71000 14.265
25.72000 11.078
25.73000 11.046
25.74000 11.264
25.75000 13.065
25.76000 11.241
25.77000 12.114
25.78000 5.098
25.79000 11.128
25.80000 8.080
25.81000 14.074
25.82000 14.142
25.83000 8.068
25.84000 13.227
25.85000 9.064
25.86000 17.268
25.87000 16.160
25.88000 17.267
25.89000 15.108
25.90000 13.248
25.91000 13.151
25.92000 12.164
25.93000 16.044
25.94000 12.014
25.95000 11.329
25.96000 11.099
25.97000 12.360
25.98000 7.171
25.99000 14.149
26.00000 11.166
26.01000 14.176
26.02000 6.994
26.03000 9.169
26.04000 8.121
26.05000 7.051
26.06000 13.178
26.07000 5.027
26.08000 11.158
26.09000 12.243
26.10000 6.153
26.11000 12.279
26.12000 9.056
26.13000 10.128
26.14000 8.054
26.15000 13.340
26.16000 9.209
26.17000 12.076
26.18000 7.074
26.19000 12.330
26.20000 15.020
26.21000 5.963
26.22000 12.169
26.23000 8.046
26.24000 10.115
26.25000 18.133
26.26000 12.137
26.27000 12.159
26.28000 6.062
26.29000 4.057
26.30000 11.118
26.31000 7.017
26.32000 13.257
26.33000 10.037
26.34000 8.186
26.35000 18.347
26.36000 7.098
26.37000 9.139
26.38000 10.289
26.39000 10.117
26.40000 11.099
26.41000 15.271
26.42000 8.191
26.43000 12.199
26.44000 14.131
26.45000 10.995
26.46000 5.057
26.47000 13.220
26.48000 14.224
26.49000 5.106
26.50000 10.075
26.51000 9.118
26.52000 16.277
26.53000 10.262
26.54000 12.262
26.55000 15.128
26.56000 9.263
26.57000 6.065
26.58000 6.060
26.59000 10.064
26.60000 17.188
26.61000 14.191
26.62000 11.059
26.63000 8.024
26.64000 4.947
26.65000 15.082
26.66000 15.357
26.67000 9.066
26.68000 8.198
26.69000 6.149
26.70000 14.110
26.71000 11.025
26.72000 5.144
26.73000 10.103
26.74000 10.082
26.75000 9.146
26.76000 13.050
26.77000 10.182
26.78000 14.275
26.79000 5.065
26.80000 6.146
26.81000 12.228
26.82000 4.071
26.83000 9.175
26.84000 3.063
26.85000 5.168
26.86000 8.107
26.87000 9.117
26.88000 14.224
26.89000 7.014
26.90000 6.988
26.91000 13.178
26.92000 9.067
26.93000 5.048
26.94000 13.225
26.95000 13.009
26.96000 9.168
26.97000 15.196
26.98000 9.094
26.99000 7.002
27.00000 5.086
27.01000 11.114
27.02000 8.125
27.03000 16.209
27.04000 11.202
27.05000 16.293
27.06000 16.215
27.07000 10.020
27.08000 9.115
27.09000 8.055
27.10000 11.113
27.11000 13.211
27.12000 11.084
27.13000 10.191
27.14000 9.113
27.15000 12.153
27.16000 11.190
27.17000 13.134
27.18000 10.173
27.19000 8.231
27.20000 8.085
27.21000 2.018
27.22000 12.182
27.23000 14.376
27.24000 15.289
27.25000 6.080
27.26000 14.141
27.27000 18.373
27.28000 15.155
27.29000 11.118
27.30000 10.036
27.31000 11.089
27.32000 5.147
27.33000 12.186
27.34000 10.083
27.35000 10.998
27.36000 13.091
27.37000 7.147
27.38000 7.054
27.39000 4.111
27.40000 11.076
27.41000 10.010
27.42000 9.199
27.43000 8.132
27.44000 8.965
27.45000 7.066
27.46000 8.259
27.47000 16.076
27.48000 8.111
27.49000 8.121
27.50000 5.051
27.51000 9.165
27.52000 18.257
27.53000 12.242
27.54000 10.288
27.55000 11.211
27.56000 9.183
27.57000 9.263
27.58000 9.056
27.59000 8.041
27.60000 9.097
27.61000 9.002
27.62000 9.197
27.63000 7.082
27.64000 11.235
27.65000 10.131
27.66000 10.122
27.67000 12.109
27.68000 4.998
27.69000 8.050
27.70000 6.094
27.71000 15.260
27.72000 11.158
27.73000 8.094
27.74000 5.009
27.75000 8.162
27.76000 6.067
27.77000 11.091
27.78000 15.113
27.79000 7.001
27.80000 5.073
27.81000 9.177
27.82000 10.135
27.83000 12.234
27.84000 7.046
27.85000 12.149
27.86000 13.231
27.87000 9.079
27.88000 12.269
27.89000 8.144
27.90000 4.056
27.91000 13.088
27.92000 12.147
27.93000 15.111
27.94000 6.096
27.95000 7.002
27.96000 5.123
27.97000 10.190
27.98000 11.027
27.99000 12.265
28.00000 11.298
28.01000 10.080
28.02000 10.175
28.03000 7.202
28.04000 7.184
28.05000 4.013
28.06000 9.151
28.07000 10.152
28.08000 10.114
28.09000 10.130
28.10000 10.261
28.11000 8.092
28.12000 10.153
28.13000 6.981
28.14000 12.107
28.15000 9.101
28.16000 9.076
28.17000 11.141
28.18000 11.135
28.19000 9.073
28.20000 6.041
28.21000 12.212
28.22000 8.132
28.23000 10.038
28.24000 8.035
28.25000 8.114
28.26000 11.181
28.27000 5.207
28.28000 6.091
28.29000 8.040
28.30000 10.243
28.31000 9.096
28.32000 13.171
28.33000 7.146
28.34000 10.145
28.35000 7.060
28.36000 12.095
28.37000 13.349
28.38000 9.986
28.39000 7.144
28.40000 14.122
28.41000 8.086
28.42000 6.092
28.43000 10.111
28.44000 11.079
28.45000 7.085
28.46000 11.083
28.47000 9.150
28.48000 14.208
28.49000 10.051
28.50000 8.133
28.51000 4.037
28.52000 11.121
28.53000 9.119
28.54000 7.071
28.55000 9.271
28.56000 11.188
28.57000 12.161
28.58000 13.150
28.59000 10.141
28.60000 5.055
28.61000 10.123
28.62000 3.072
28.63000 8.116
28.64000 12.258
28.65000 9.167
28.66000 5.031
28.67000 6.025
28.68000 17.373
28.69000 6.069
28.70000 7.065
28.71000 7.095
28.72000 5.116
28.73000 9.285
28.74000 11.252
28.75000 7.096
28.76000 8.191
28.77000 15.202
28.78000 6.019
28.79000 8.985
28.80000 10.119
28.81000 10.107
28.82000 8.186
28.83000 10.166
28.84000 4.015
28.85000 7.064
28.86000 12.189
28.87000 9.097
28.88000 12.250
28.89000 14.111
28.90000 12.331
28.91000 9.094
28.92000 7.160
28.93000 10.038
28.94000 18.069
28.95000 8.084
28.96000 10.241
28.97000 9.053
28.98000 9.042
28.99000 9.079
29.00000 13.123
29.01000 6.071
29.02000 6.099
29.03000 10.038
29.04000 7.094
29.05000 7.082
29.06000 8.026
29.07000 11.156
29.08000 9.050
29.09000 7.958
29.10000 6.043
29.11000 12.063
29.12000 8.107
29.13000 8.108
29.14000 9.190
29.15000 11.083
29.16000 10.087
29.17000 6.048
29.18000 13.181
29.19000 11.259
29.20000 8.247
29.21000 11.097
29.22000 7.138
29.23000 4.980
29.24000 6.993
29.25000 9.111
29.26000 6.125
29.27000 12.153
29.28000 9.082
29.29000 7.023
29.30000 11.145
29.31000 7.099
29.32000 5.045
29.33000 11.318
29.34000 11.057
29.35000 10.038
29.36000 8.033
29.37000 7.090
29.38000 8.166
29.39000 9.223
29.40000 7.125
29.41000 13.328
29.42000 4.038
29.43000 8.064
29.44000 6.111
29.45000 10.128
29.46000 8.314
29.47000 8.053
29.48000 2.084
29.49000 8.164
29.50000 10.133
29.51000 8.089
29.52000 12.215
29.53000 6.043
29.54000 7.168
29.55000 5.120
29.56000 8.107
29.57000 7.089
29.58000 6.004
29.59000 12.186
29.60000 7.057
29.61000 10.150
29.62000 11.126
29.63000 4.982
29.64000 7.057
29.65000 8.161
29.66000 4.197
29.67000 8.143
29.68000 5.092
29.69000 10.074
29.70000 9.089
29.71000 2.024
29.72000 7.075
29.73000 5.988
29.74000 7.090
29.75000 8.038
29.76000 6.123
29.77000 7.139
29.78000 9.163
29.79000 8.178
29.80000 11.274
29.81000 11.117
29.82000 7.252
29.83000 5.090
29.84000 8.947
29.85000 8.035
29.86000 5.035
29.87000 3.118
29.88000 7.099
29.89000 3.073
29.90000 4.068
29.91000 6.146
29.92000 9.299
29.93000 3.985
29.94000 7.111
29.95000 8.105
29.96000 4.022
29.97000 4.098
29.98000 8.070
29.99000 3.024
30.00000 9.136
30.01000 8.143
30.02000 10.129
30.03000 7.030
30.04000 8.099
30.05000 11.284
30.06000 8.033
30.07000 10.159
30.08000 13.198
30.09000 6.210
30.10000 7.277
30.11000 5.011
30.12000 13.216
30.13000 9.089
30.14000 11.174
30.15000 7.003
30.16000 6.178
30.17000 8.209
30.18000 8.159
30.19000 6.068
30.20000 6.004
30.21000 8.125
30.22000 4.023
30.23000 13.150
30.24000 6.088
30.25000 7.027
30.26000 6.111
30.27000 7.105
30.28000 8.102
30.29000 7.055
30.30000 7.196
30.31000 12.257
30.32000 10.111
30.33000 3.081
30.34000 4.090
30.35000 5.960
30.36000 5.106
30.37000 5.121
30.38000 6.994
30.39000 4.024
30.40000 5.059
30.41000 9.116
30.42000 7.200
30.43000 4.096
30.44000 10.095
30.45000 12.222
30.46000 12.235
30.47000 10.096
30.48000 10.083
30.49000 6.206
30.50000 5.074
30.51000 11.118
30.52000 4.989
30.53000 5.033
30.54000 8.055
30.55000 5.162
30.56000 6.078
30.57000 8.162
30.58000 9.079
30.59000 3.979
30.60000 6.025
30.61000 10.142
30.62000 10.141
30.63000 9.042
30.64000 6.160
30.65000 8.125
30.66000 4.112
30.67000 6.085
30.68000 6.126
30.69000 9.139
30.70000 10.222
30.71000 11.103
30.72000 13.191
30.73000 10.151
30.74000 6.125
30.75000 6.052
30.76000 7.147
30.77000 7.053
30.78000 6.073
30.79000 8.171
30.80000 6.110
30.81000 9.093
30.82000 7.071
30.83000 9.001
30.84000 6.138
30.85000 8.066
30.86000 6.106
30.87000 9.117
30.88000 7.058
30.89000 7.108
30.90000 12.280
30.91000 5.985
30.92000 8.197
30.93000 8.042
30.94000 6.070
30.95000 12.137
30.96000 7.070
30.97000 3.009
30.98000 6.163
30.99000 10.142
31.00000 11.086
31.01000 5.057
31.02000 4.134
31.03000 5.019
31.04000 7.153
31.05000 7.098
31.06000 3.032
31.07000 4.055
31.08000 6.099
31.09000 9.108
31.10000 5.013
31.11000 4.051
31.12000 6.091
31.13000 11.163
31.14000 4.989
31.15000 9.093
31.16000 8.021
31.17000 6.068
31.18000 6.091
31.19000 6.085
31.20000 11.271
31.21000 5.134
31.22000 5.116
31.23000 10.127
31.24000 12.194
31.25000 8.090
31.26000 5.080
31.27000 5.960
31.28000 10.093
31.29000 7.019
31.30000 8.007
31.31000 3.005
31.32000 10.226
31.33000 11.202
31.34000 8.164
31.35000 10.184
31.36000 5.992
31.37000 5.039
31.38000 4.143
31.39000 9.079
31.40000 2.994
31.41000 3.968
31.42000 7.224
31.43000 6.114
31.44000 3.043
31.45000 5.152
31.46000 2.005
31.47000 4.979
31.48000 11.128
31.49000 9.097
31.50000 6.190
31.51000 3.084
31.52000 4.017
31.53000 8.111
31.54000 3.073
31.55000 7.087
31.56000 11.103
31.57000 3.052
31.58000 3.073
31.59000 6.078
31.60000 7.126
31.61000 6.094
31.62000 6.143
31.63000 5.028
31.64000 14.224
31.65000 8.085
31.66000 8.195
31.67000 14.275
31.68000 7.146
31.69000 6.129
31.70000 7.058
31.71000 6.971
31.72000 5.001
31.73000 3.051
31.74000 4.989
31.75000 8.185
31.76000 6.045
31.77000 6.063
31.78000 5.108
31.79000 8.098
31.80000 10.256
31.81000 4.035
31.82000 8.242
31.83000 7.262
31.84000 5.011
31.85000 5.102
31.86000 9.218
31.87000 8.080
31.88000 14.076
31.89000 11.138
31.90000 8.106
31.91000 6.067
31.92000 10.193
31.93000 5.104
31.94000 4.067
31.95000 6.068
31.96000 6.136
31.97000 4.070
31.98000 11.152
31.99000 7.101
32.00000 6.153
32.01000 3.078
32.02000 5.031
32.03000 7.064
32.04000 6.185
32.05000 7.160
32.06000 6.000
32.07000 13.265
32.08000 10.036
32.09000 3.082
32.10000 9.076
32.11000 8.082
32.12000 7.139
32.13000 6.076
32.14000 7.194
32.15000 3.017
32.16000 11.200
32.17000 7.101
32.18000 8.006
32.19000 6.056
32.20000 9.157
32.21000 8.165
32.22000 4.108
32.23000 14.133
32.24000 7.018
32.25000 11.233
32.26000 5.082
32.27000 8.055
32.28000 10.136
32.29000 7.076
32.30000 6.056
32.31000 4.130
32.32000 8.037
32.33000 7.097
32.34000 4.063
32.35000 4.092
32.36000 6.193
32.37000 7.070
32.38000 7.141
32.39000 9.054
32.40000 4.961
32.41000 5.079
32.42000 5.098
32.43000 6.106
32.44000 9.046
32.45000 5.184
32.46000 11.284
32.47000 9.072
32.48000 5.123
32.49000 10.201
32.50000 8.033
32.51000 11.197
32.52000 8.133
32.53000 5.134
32.54000 3.078
32.55000 7.064
32.56000 8.094
32.57000 14.150
32.58000 8.061
32.59000 8.208
32.60000 11.182
32.61000 10.162
32.62000 6.182
32.63000 6.154
32.64000 5.173
32.65000 5.156
32.66000 6.005
32.67000 4.107
32.68000 10.204
32.69000 9.227
32.70000 5.095
32.71000 5.021
32.72000 5.006
32.73000 4.973
32.74000 6.098
32.75000 10.046
32.76000 8.152
32.77000 7.078
32.78000 11.161
32.79000 4.096
32.80000 11.273
32.81000 7.142
32.82000 7.051
32.83000 5.067
32.84000 6.174
32.85000 3.078
32.86000 5.024
32.87000 9.069
32.88000 7.096
32.89000 7.128
32.90000 8.149
32.91000 6.102
32.92000 6.988
32.93000 3.114
32.94000 4.021
32.95000 5.085
32.96000 5.062
32.97000 8.125
32.98000 6.016
32.99000 10.151
33.00000 6.063
33.01000 9.070
33.02000 10.018
33.03000 8.956
33.04000 2.045
33.05000 9.183
33.06000 6.136
33.07000 7.140
33.08000 5.161
33.09000 6.048
33.10000 5.066
33.11000 10.133
33.12000 0.996
33.13000 11.227
33.14000 6.080
33.15000 8.143
33.16000 2.099
33.17000 8.180
33.18000 3.998
33.19000 6.930
33.20000 5.094
33.21000 5.036
33.22000 4.994
33.23000 7.218
33.24000 6.127
33.25000 6.048
33.26000 5.217
33.27000 7.000
33.28000 8.088
33.29000 7.086
33.30000 11.264
33.31000 6.152
33.32000 4.086
33.33000 9.120
33.34000 8.091
33.35000 4.031
33.36000 10.037
33.37000 8.156
33.38000 8.084
33.39000 2.003
33.40000 13.193
33.41000 5.087
33.42000 7.137
33.43000 8.069
33.44000 1.008
33.45000 7.043
33.46000 3.995
33.47000 6.058
33.48000 5.075
33.49000 8.170
33.50000 3.059
33.51000 9.192
33.52000 4.068
33.53000 3.057
33.54000 6.089
33.55000 3.088
33.56000 7.122
33.57000 4.950
33.58000 2.054
33.59000 7.073
33.60000 8.091
33.61000 6.061
33.62000 4.159
33.63000 4.012
33.64000 5.989
33.65000 3.098
33.66000 11.964
33.67000 9.181
33.68000 11.066
33.69000 8.058
33.70000 4.050
33.71000 3.095
33.72000 7.108
33.73000 4.146
33.74000 11.296
33.75000 4.995
33.76000 7.161
33.77000 5.082
33.78000 6.107
33.79000 5.145
33.80000 6.193
33.81000 7.084
33.82000 4.150
33.83000 4.022
33.84000 4.130
33.85000 3.034
33.86000 7.082
33.87000 6.152
33.88000 2.048
33.89000 9.092
33.90000 4.091
33.91000 6.084
33.92000 7.162
33.93000 1.034
33.94000 6.090
33.95000 7.252
33.96000 9.163
33.97000 8.054
33.98000 5.090
33.99000 7.114
34.00000 3.991
34.01000 3.067
34.02000 4.139
34.03000 7.115
34.04000 4.045
34.05000 6.133
34.06000 5.981
34.07000 3.075
34.08000 6.187
34.09000 6.955
34.10000 7.218
34.11000 11.131
34.12000 8.125
34.13000 6.127
34.14000 4.961
34.15000 9.183
34.16000 10.184
34.17000 5.978
34.18000 5.997
34.19000 6.177
34.20000 6.986
34.21000 13.143
34.22000 2.026
34.23000 4.061
34.24000 5.115
34.25000 9.068
34.26000 4.125
34.27000 4.016
34.28000 6.099
34.29000 5.149
34.30000 7.183
34.31000 10.038
34.32000 4.027
34.33000 4.042
34.34000 7.003
34.35000 1.975
34.36000 6.168
34.37000 3.000
34.38000 13.142
34.39000 3.003
34.40000 7.050
34.41000 5.158
34.42000 6.113
34.43000 6.167
34.44000 2.045
34.45000 8.090
34.46000 3.050
34.47000 2.041
34.48000 12.225
34.49000 7.109
34.50000 7.056
34.51000 7.112
34.52000 4.066
34.53000 8.226
34.54000 2.956
34.55000 4.086
34.56000 7.175
34.57000 8.136
34.58000 6.972
34.59000 9.120
34.60000 3.113
34.61000 5.007
34.62000 3.032
34.63000 1.019
34.64000 4.025
34.65000 6.058
34.66000 10.122
34.67000 4.048
34.68000 3.999
34.69000 3.031
34.70000 6.169
34.71000 2.984
34.72000 5.123
34.73000 7.135
34.74000 3.953
34.75000 4.155
34.76000 5.031
34.77000 8.066
34.78000 4.033
34.79000 4.065
34.80000 8.151
34.81000 7.106
34.82000 9.082
34.83000 7.113
34.84000 3.054
34.85000 7.193
34.86000 6.050
34.87000 5.138
34.88000 5.089
34.89000 7.128
34.90000 5.088
34.91000 7.178
34.92000 7.090
34.93000 6.029
34.94000 7.123
34.95000 5.045
34.96000 6.115
34.97000 7.053
34.98000 3.057
34.99000 4.171
35.00000 8.014
35.01000 3.041
35.02000 8.244
35.03000 6.148
35.04000 5.148
35.05000 5.134
35.06000 0.993
35.07000 7.130
35.08000 4.088
35.09000 4.043
35.10000 6.145
35.11000 3.102
35.12000 2.073
35.13000 7.157
35.14000 6.098
35.15000 6.207
35.16000 5.097
35.17000 9.106
35.18000 4.008
35.19000 3.020
35.20000 4.000
35.21000 5.022
35.22000 8.091
35.23000 4.012
35.24000 5.063
35.25000 5.126
35.26000 2.033
35.27000 6.176
35.28000 10.060
35.29000 4.077
35.30000 9.127
35.31000 6.217
35.32000 5.077
35.33000 5.106
35.34000 2.046
35.35000 7.113
35.36000 3.057
35.37000 6.002
35.38000 3.984
35.39000 3.969
35.40000 3.045
35.41000 7.051
35.42000 7.073
35.43000 3.016
35.44000 6.054
35.45000 6.137
35.46000 1.976
35.47000 0.999
35.48000 1.043
35.49000 6.041
35.50000 7.185
35.51000 3.060
35.52000 6.023
35.53000 10.339
35.54000 3.083
35.55000 8.082
35.56000 4.036
35.57000 4.996
35.58000 8.076
35.59000 3.019
35.60000 8.071
35.61000 5.092
35.62000 4.031
35.63000 7.064
35.64000 5.043
35.65000 5.133
35.66000 6.102
35.67000 3.010
35.68000 4.060
35.69000 7.005
35.70000 8.007
35.71000 3.155
35.72000 4.054
35.73000 8.105
35.74000 4.015
35.75000 6.069
35.76000 5.073
35.77000 10.181
35.78000 5.121
35.79000 2.053
35.80000 8.084
35.81000 3.065
35.82000 5.033
35.83000 6.070
35.84000 6.998
35.85000 3.075
35.86000 3.996
35.87000 6.091
35.88000 9.117
35.89000 2.039
35.90000 7.084
35.91000 3.071
35.92000 7.165
35.93000 8.117
35.94000 4.031
35.95000 3.074
35.96000 9.189
35.97000 2.033
35.98000 4.022
35.99000 1.946
36.00000 6.124
36.01000 5.052
36.02000 4.081
36.03000 4.000
36.04000 3.989
36.05000 5.980
36.06000 4.054
36.07000 4.106
36.08000 2.044
36.09000 2.073
36.10000 14.121
36.11000 5.105
36.12000 5.142
36.13000 2.015
36.14000 3.011
36.15000 4.067
36.16000 6.136
36.17000 6.973
36.18000 7.216
36.19000 3.077
36.20000 2.024
36.21000 4.079
36.22000 6.031
36.23000 7.104
36.24000 0.991
36.25000 4.095
36.26000 7.116
36.27000 8.081
36.28000 6.108
36.29000 3.006
36.30000 5.054
36.31000 3.058
36.32000 4.041
36.33000 10.065
36.34000 5.083
36.35000 5.154
36.36000 5.006
36.37000 8.200
36.38000 4.996
36.39000 4.083
36.40000 7.083
36.41000 2.045
36.42000 2.014
36.43000 3.005
36.44000 2.059
36.45000 6.149
36.46000 6.993
36.47000 11.056
36.48000 6.118
36.49000 6.141
36.50000 5.118
36.51000 3.030
36.52000 2.000
36.53000 8.142
36.54000 5.066
36.55000 4.993
36.56000 4.049
36.57000 2.035
36.58000 6.061
36.59000 3.047
36.60000 0.998
36.61000 5.979
36.62000 3.023
36.63000 7.102
36.64000 4.118
36.65000 2.037
36.66000 4.067
36.67000 4.021
36.68000 5.966
36.69000 2.066
36.70000 6.127
36.71000 8.013
36.72000 2.040
36.73000 8.104
36.74000 1.010
36.75000 4.040
36.76000 7.102
36.77000 5.224
36.78000 6.046
36.79000 3.049
36.80000 6.063
36.81000 2.019
36.82000 2.999
36.83000 6.071
36.84000 3.052
36.85000 5.071
36.86000 9.055
36.87000 3.058
36.88000 4.999
36.89000 4.067
36.90000 6.047
36.91000 7.171
36.92000 5.153
36.93000 7.136
36.94000 5.085
36.95000 4.081
36.96000 6.020
36.97000 2.060
36.98000 6.046
36.99000 1.960
37.00000 1.980
37.01000 5.047
37.02000 4.131
37.03000 2.032
37.04000 9.091
37.05000 4.103
37.06000 7.033
37.07000 4.104
37.08000 1.051
37.09000 6.034
37.10000 5.125
37.11000 3.120
37.12000 7.063
37.13000 7.167
37.14000 1.028
37.15000 5.057
37.16000 4.026
37.17000 1.016
37.18000 3.999
37.19000 3.050
37.20000 5.026
37.21000 5.095
37.22000 3.058
37.23000 3.007
37.24000 5.098
37.25000 3.072
37.26000 3.037
37.27000 6.097
37.28000 5.049
37.29000 6.068
37.30000 0.983
37.31000 4.035
37.32000 6.964
37.33000 5.098
37.34000 5.066
37.35000 1.964
37.36000 7.112
37.37000 0.000
37.38000 9.098
37.39000 3.060
37.40000 5.028
37.41000 8.161
37.42000 4.986
37.43000 2.986
37.44000 5.106
37.45000 3.092
37.46000 5.036
37.47000 5.018
37.48000 4.051
37.49000 5.092
37.50000 3.002
37.51000 0.990
37.52000 4.000
37.53000 7.142
37.54000 1.006
37.55000 3.054
37.56000 6.005
37.57000 4.047
37.58000 3.097
37.59000 5.186
37.60000 5.011
37.61000 6.108
37.62000 7.015
37.63000 6.012
37.64000 3.025
37.65000 5.187
37.66000 1.020
37.67000 3.014
37.68000 5.066
37.69000 0.962
37.70000 2.974
37.71000 2.021
37.72000 5.100
37.73000 4.052
37.74000 7.005
37.75000 4.073
37.76000 4.133
37.77000 3.010
37.78000 3.061
37.79000 8.118
37.80000 5.036
37.81000 6.022
37.82000 8.078
37.83000 5.035
37.84000 4.086
37.85000 3.027
37.86000 3.015
37.87000 6.139
37.88000 4.043
37.89000 1.002
37.90000 1.024
37.91000 7.060
37.92000 2.073
37.93000 4.086
37.94000 5.038
37.95000 7.053
37.96000 4.027
37.97000 4.056
37.98000 3.026
37.99000 7.054
38.00000 8.043
38.01000 5.089
38.02000 6.110
38.03000 7.041
38.04000 3.059
38.05000 2.021
38.06000 7.140
38.07000 7.170
38.08000 1.966
38.09000 4.018
38.10000 0.989
38.11000 4.120
38.12000 6.029
38.13000 3.072
38.14000 6.072
38.15000 2.975
38.16000 6.120
38.17000 6.014
38.18000 4.055
38.19000 3.102
38.20000 2.019
38.21000 4.053
38.22000 3.072
38.23000 4.025
38.24000 4.018
38.25000 3.021
38.26000 5.032
38.27000 3.984
38.28000 5.134
38.29000 1.065
38.30000 10.110
38.31000 3.103
38.32000 0.974
38.33000 8.066
38.34000 2.023
38.35000 6.088
38.36000 2.989
38.37000 3.951
38.38000 3.002
38.39000 3.020
38.40000 3.069
38.41000 5.074
38.42000 2.108
38.43000 6.062
38.44000 1.065
38.45000 5.991
38.46000 7.155
38.47000 7.049
38.48000 0.000
38.49000 1.011
38.50000 6.073
38.51000 3.085
38.52000 5.088
38.53000 6.046
38.54000 4.070
38.55000 6.065
38.56000 10.057
38.57000 0.000
38.58000 3.985
38.59000 2.001
38.60000 4.066
38.61000 4.997
38.62000 2.014
38.63000 2.065
38.64000 7.190
38.65000 2.971
38.66000 4.053
38.67000 2.014
38.68000 4.032
38.69000 1.997
38.70000 1.024
38.71000 6.114
38.72000 6.982
38.73000 5.122
38.74000 0.992
38.75000 0.980
38.76000 5.074
38.77000 4.028
38.78000 4.052
38.79000 2.003
38.80000 5.078
38.81000 2.027
38.82000 3.035
38.83000 4.005
38.84000 7.069
38.85000 5.007
38.86000 5.076
38.87000 3.053
38.88000 1.990
38.89000 9.122
38.90000 5.043
38.91000 8.005
38.92000 3.113
38.93000 0.000
38.94000 1.993
38.95000 4.015
38.96000 2.070
38.97000 3.059
38.98000 0.993
38.99000 4.026
39.00000 0.993
39.01000 4.072
39.02000 3.052
39.03000 4.975
39.04000 3.028
39.05000 3.123
39.06000 3.981
39.07000 5.047
39.08000 3.011
39.09000 4.051
39.10000 0.000
39.11000 4.019
39.12000 3.021
39.13000 2.048
39.14000 8.069
39.15000 4.054
39.16000 4.141
39.17000 7.038
39.18000 2.024
39.19000 8.091
39.20000 5.074
39.21000 2.995
39.22000 5.010
39.23000 3.032
39.24000 4.014
39.25000 5.151
39.26000 3.997
39.27000 3.067
39.28000 5.086
39.29000 5.037
39.30000 5.975
39.31000 3.024
39.32000 2.046
39.33000 6.146
39.34000 5.116
39.35000 4.051
39.36000 5.028
39.37000 1.041
39.38000 3.054
39.39000 1.995
39.40000 1.025
39.41000 3.024
39.42000 5.035
39.43000 6.034
39.44000 5.949
39.45000 3.069
39.46000 0.000
39.47000 4.060
39.48000 1.016
39.49000 5.034
39.50000 9.003
39.51000 2.024
39.52000 2.050
39.53000 3.975
39.54000 4.008
39.55000 7.201
39.56000 5.011
39.57000 3.062
39.58000 3.070
39.59000 5.056
39.60000 4.002
39.61000 6.119
39.62000 2.075
39.63000 4.086
39.64000 2.095
39.65000 4.044
39.66000 6.117
39.67000 6.061
39.68000 3.070
39.69000 2.995
39.70000 0.985
39.71000 8.149
39.72000 6.176
39.73000 0.000
39.74000 2.014
39.75000 4.035
39.76000 4.053
39.77000 3.974
39.78000 6.076
39.79000 3.066
39.80000 1.042
39.81000 5.123
39.82000 5.104
39.83000 4.049
39.84000 6.000
39.85000 5.151
39.86000 6.097
39.87000 3.028
39.88000 4.045
39.89000 3.946
39.90000 4.026
39.91000 3.164
39.92000 5.073
39.93000 7.045
39.94000 4.050
39.95000 4.099
39.96000 5.083
39.97000 3.062
39.98000 5.001
39.99000 6.037
40.00000 5.999
40.01000 4.091
40.02000 4.993
40.03000 2.990
40.04000 2.072
40.05000 2.030
40.06000 3.075
40.07000 7.245
40.08000 5.051
40.09000 3.081
40.10000 1.984
40.11000 2.049
40.12000 2.016
40.13000 3.018
40.14000 4.045
40.15000 6.010
40.16000 0.981
40.17000 4.045
40.18000 1.971
40.19000 5.013
40.20000 6.094
40.21000 1.050
40.22000 5.175
40.23000 0.000
40.24000 4.020
40.25000 5.123
40.26000 5.064
40.27000 4.053
40.28000 2.021
40.29000 1.048
40.30000 3.070
40.31000 6.100
40.32000 1.985
40.33000 1.995
40.34000 1.969
40.35000 3.036
40.36000 3.989
40.37000 3.059
40.38000 4.995
40.39000 2.949
40.40000 3.062
40.41000 4.011
40.42000 9.277
40.43000 3.045
40.44000 2.051
40.45000 4.060
40.46000 3.039
40.47000 6.083
40.48000 5.116
40.49000 2.039
40.50000 3.125
40.51000 4.078
40.52000 4.004
40.53000 0.974
40.54000 5.122
40.55000 1.021
40.56000 4.031
40.57000 3.079
40.58000 6.167
40.59000 5.147
40.60000 2.020
40.61000 4.992
40.62000 4.151
40.63000 4.013
40.64000 1.023
40.65000 2.966
40.66000 5.084
40.67000 4.094
40.68000 5.009
40.69000 4.951
40.70000 5.073
40.71000 2.981
40.72000 6.038
40.73000 5.042
40.74000 2.014
40.75000 3.015
40.76000 4.986
40.77000 3.047
40.78000 3.959
40.79000 5.114
40.80000 3.055
40.81000 4.026
40.82000 6.091
40.83000 0.999
40.84000 5.057
40.85000 1.004
40.86000 3.089
40.87000 2.068
40.88000 5.064
40.89000 3.068
40.90000 3.047
40.91000 5.125
40.92000 0.988
40.93000 1.031
40.94000 2.049
40.95000 9.183
40.96000 3.109
40.97000 3.114
40.98000 7.177
40.99000 3.022
41.00000 4.076
41.01000 1.025
41.02000 3.082
41.03000 1.003
41.04000 1.049
41.05000 1.989
41.06000 1.011
41.07000 7.090
41.08000 1.015
41.09000 5.063
41.10000 6.153
41.11000 7.166
41.12000 2.063
41.13000 3.997
41.14000 6.137
41.15000 7.089
41.16000 5.020
41.17000 3.989
41.18000 2.043
41.19000 1.041
41.20000 3.956
41.21000 6.090
41.22000 6.218
41.23000 2.082
41.24000 1.007
41.25000 2.046
41.26000 2.006
41.27000 3.081
41.28000 3.050
41.29000 4.020
41.30000 5.130
41.31000 1.045
41.32000 2.036
41.33000 2.092
41.34000 3.036
41.35000 3.076
41.36000 7.095
41.37000 3.030
41.38000 4.110
41.39000 7.150
41.40000 5.051
41.41000 2.022
41.42000 3.023
41.43000 5.036
41.44000 4.031
41.45000 8.143
41.46000 3.032
41.47000 3.070
41.48000 3.036
41.49000 2.991
41.50000 4.096
41.51000 3.046
41.52000 5.043
41.53000 7.060
41.54000 7.043
41.55000 4.015
41.56000 4.168
41.57000 4.110
41.58000 1.040
41.59000 6.005
41.60000 2.068
41.61000 4.064
41.62000 3.049
41.63000 3.061
41.64000 2.002
41.65000 5.055
41.66000 8.049
41.67000 0.983
41.68000 6.051
41.69000 1.035
41.70000 4.013
41.71000 4.984
41.72000 3.064
41.73000 8.247
41.74000 5.020
41.75000 12.083
41.76000 7.099
41.77000 3.109
41.78000 4.117
41.79000 0.989
41.80000 3.057
41.81000 4.020
41.82000 6.165
41.83000 4.063
41.84000 2.996
41.85000 1.984
41.86000 4.013
41.87000 3.020
41.88000 0.000
41.89000 3.004
41.90000 2.032
41.91000 6.160
41.92000 4.019
41.93000 4.067
41.94000 0.000
41.95000 0.000
41.96000 2.058
41.97000 3.026
41.98000 5.134
41.99000 5.076
42.00000 3.066
42.01000 8.060
42.02000 5.069
42.03000 2.997
42.04000 2.063
42.05000 2.009
42.06000 1.003
42.07000 6.149
42.08000 1.045
42.09000 4.069
42.10000 3.068
42.11000 3.965
42.12000 1.016
42.13000 3.024
42.14000 4.024
42.15000 4.040
42.16000 3.050
42.17000 1.016
42.18000 3.045
42.19000 3.026
42.20000 4.001
42.21000 2.020
42.22000 5.088
42.23000 2.010
42.24000 7.091
42.25000 2.035
42.26000 6.094
42.27000 3.108
42.28000 7.074
42.29000 5.076
42.30000 7.055
42.31000 7.023
42.32000 3.068
42.33000 2.045
42.34000 0.990
42.35000 6.099
42.36000 6.140
42.37000 6.147
42.38000 7.233
42.39000 8.107
42.40000 2.054
42.41000 2.039
42.42000 0.989
42.43000 4.026
42.44000 2.083
42.45000 3.008
42.46000 4.066
42.47000 2.111
42.48000 2.023
42.49000 1.995
42.50000 3.015
42.51000 1.012
42.52000 4.069
42.53000 3.999
42.54000 1.001
42.55000 7.146
42.56000 0.000
42.57000 2.032
42.58000 4.051
42.59000 6.158
42.60000 5.045
42.61000 4.009
42.62000 2.057
42.63000 5.135
42.64000 2.050
42.65000 2.064
42.66000 1.066
42.67000 4.145
42.68000 0.997
42.69000 3.087
42.70000 2.987
42.71000 2.989
42.72000 2.992
42.73000 1.980
42.74000 1.022
42.75000 2.016
42.76000 3.155
42.77000 3.057
42.78000 2.039
42.79000 0.000
42.80000 2.035
42.81000 3.018
42.82000 7.135
42.83000 2.085
42.84000 1.991
42.85000 2.022
42.86000 4.072
42.87000 1.996
42.88000 4.089
42.89000 6.032
42.90000 1.041
42.91000 3.081
42.92000 0.000
42.93000 5.014
42.94000 2.989
42.95000 6.100
42.96000 6.030
42.97000 5.084
42.98000 7.961
42.99000 6.138
43.00000 4.093
43.01000 5.133
43.02000 4.068
43.03000 4.180
43.04000 2.006
43.05000 0.992
43.06000 3.088
43.07000 4.015
43.08000 4.122
43.09000 1.988
43.10000 7.032
43.11000 3.153
43.12000 0.000
43.13000 0.000
43.14000 3.046
43.15000 5.013
43.16000 4.063
43.17000 3.026
43.18000 0.000
43.19000 4.080
43.20000 3.052
43.21000 7.089
43.22000 6.006
43.23000 6.077
43.24000 5.086
43.25000 2.005
43.26000 4.123
43.27000 1.033
43.28000 3.034
43.29000 2.056
43.30000 1.990
43.31000 5.137
43.32000 4.058
43.33000 2.006
43.34000 1.044
43.35000 1.005
43.36000 8.066
43.37000 5.052
43.38000 3.034
43.39000 2.033
43.40000 3.033
43.41000 7.037
43.42000 1.014
43.43000 5.129
43.44000 5.079
43.45000 2.997
43.46000 2.030
43.47000 2.010
43.48000 1.021
43.49000 1.992
43.50000 6.038
43.51000 2.001
43.52000 0.000
43.53000 5.140
43.54000 3.044
43.55000 2.037
43.56000 1.025
43.57000 7.174
43.58000 4.121
43.59000 3.079
43.60000 2.011
43.61000 5.147
43.62000 4.136
43.63000 4.100
43.64000 1.017
43.65000 2.070
43.66000 1.064
43.67000 4.072
43.68000 3.078
43.69000 4.074
43.70000 3.114
43.71000 3.071
43.72000 2.025
43.73000 0.997
43.74000 0.000
43.75000 3.046
43.76000 4.115
43.77000 4.076
43.78000 2.978
43.79000 4.064
43.80000 1.992
43.81000 3.056
43.82000 2.990
43.83000 2.083
43.84000 1.009
43.85000 1.944
43.86000 0.000
43.87000 3.026
43.88000 4.139
43.89000 2.044
43.90000 3.071
43.91000 3.053
43.92000 2.068
43.93000 5.058
43.94000 2.073
43.95000 3.105
43.96000 4.039
43.97000 6.093
43.98000 2.957
43.99000 3.106
44.00000 4.038
44.01000 5.018
44.02000 3.021
44.03000 3.050
44.04000 0.000
44.05000 2.027
44.06000 0.000
44.07000 2.049
44.08000 1.048
44.09000 4.063
44.10000 3.030
44.11000 1.027
44.12000 4.042
44.13000 3.049
44.14000 1.986
44.15000 0.000
44.16000 1.995
44.17000 0.000
44.18000 3.954
44.19000 3.042
44.20000 2.005
44.21000 0.000
44.22000 2.005
44.23000 6.149
44.24000 5.116
44.25000 3.101
44.26000 3.035
44.27000 0.992
44.28000 3.056
44.29000 4.973
44.30000 3.089
44.31000 5.141
44.32000 2.091
44.33000 3.051
44.34000 1.984
44.35000 6.026
44.36000 4.017
44.37000 3.079
44.38000 5.006
44.39000 4.036
44.40000 3.044
44.41000 3.079
44.42000 1.067
44.43000 6.137
44.44000 4.028
44.45000 4.029
44.46000 3.025
44.47000 1.011
44.48000 2.059
44.49000 4.080
44.50000 1.993
44.51000 2.082
44.52000 2.970
44.53000 2.040
44.54000 0.997
44.55000 3.060
44.56000 0.000
44.57000 2.023
44.58000 0.982
44.59000 0.990
44.60000 0.000
44.61000 3.052
44.62000 2.998
44.63000 2.020
44.64000 6.023
44.65000 5.071
44.66000 2.039
44.67000 0.000
44.68000 3.030
44.69000 0.000
44.70000 0.998
44.71000 3.101
44.72000 3.053
44.73000 6.131
44.74000 0.994
44.75000 5.170
44.76000 0.985
44.77000 4.034
44.78000 3.046
44.79000 3.064
44.80000 9.082
44.81000 3.079
44.82000 0.992
44.83000 1.086
44.84000 3.088
44.85000 3.050
44.86000 3.000
44.87000 5.027
44.88000 3.067
44.89000 2.056
44.90000 2.075
44.91000 0.000
44.92000 2.977
44.93000 2.014
44.94000 5.033
44.95000 6.178
44.96000 1.070
44.97000 5.126
44.98000 1.005
44.99000 5.082
45.00000 3.024
45.01000 1.975
45.02000 1.013
45.03000 2.048
45.04000 0.984
45.05000 2.042
45.06000 5.009
45.07000 2.034
45.08000 6.103
45.09000 1.986
45.10000 2.005
45.11000 1.078
45.12000 1.000
45.13000 4.038
45.14000 2.018
45.15000 1.986
45.16000 2.984
45.17000 0.997
45.18000 0.000
45.19000 0.000
45.20000 2.035
45.21000 3.047
45.22000 0.000
45.23000 2.024
45.24000 0.000
45.25000 5.043
45.26000 1.004
45.27000 4.013
45.28000 2.044
45.29000 0.988
45.30000 5.039
45.31000 1.003
45.32000 1.012
45.33000 2.057
45.34000 3.003
45.35000 2.030
45.36000 2.044
45.37000 1.995
45.38000 1.018
45.39000 0.000
45.40000 3.022
45.41000 3.028
45.42000 3.048
45.43000 0.000
45.44000 2.014
45.45000 2.027
45.46000 0.988
45.47000 4.095
45.48000 1.976
45.49000 4.005
45.50000 3.017
45.51000 3.077
45.52000 4.113
45.53000 4.074
45.54000 4.150
45.55000 2.995
45.56000 1.986
45.57000 1.021
45.58000 3.108
45.59000 0.979
45.60000 5.127
45.61000 3.961
45.62000 2.048
45.63000 6.020
45.64000 2.046
45.65000 2.021
45.66000 3.145
45.67000 3.097
45.68000 4.031
45.69000 2.097
45.70000 1.019
45.71000 0.000
45.72000 4.064
45.73000 2.023
45.74000 1.088
45.75000 4.032
45.76000 3.059
45.77000 5.074
45.78000 6.086
45.79000 5.076
45.80000 4.051
45.81000 4.147
45.82000 3.989
45.83000 2.077
45.84000 2.987
45.85000 2.024
45.86000 3.004
45.87000 0.000
45.88000 1.999
45.89000 6.006
45.90000 3.048
45.91000 4.047
45.92000 3.007
45.93000 3.030
45.94000 2.043
45.95000 2.008
45.96000 0.000
45.97000 4.068
45.98000 1.994
45.99000 2.004
46.00000 4.065
46.01000 5.104
46.02000 4.095
46.03000 3.014
46.04000 2.933
46.05000 0.000
46.06000 2.045
46.07000 2.024
46.08000 5.034
46.09000 3.133
46.10000 1.018
46.11000 2.998
46.12000 2.029
46.13000 1.988
46.14000 0.000
46.15000 2.027
46.16000 5.982
46.17000 0.987
46.18000 2.022
46.19000 7.136
46.20000 1.996
46.21000 0.000
46.22000 1.015
46.23000 0.000
46.24000 3.046
46.25000 4.018
46.26000 5.090
46.27000 2.020
46.28000 4.052
46.29000 4.123
46.30000 1.009
46.31000 2.043
46.32000 6.060
46.33000 2.079
46.34000 4.096
46.35000 4.038
46.36000 3.000
46.37000 1.019
46.38000 3.044
46.39000 3.055
46.40000 3.036
46.41000 2.983
46.42000 4.053
46.43000 4.081
46.44000 6.173
46.45000 1.039
46.46000 1.019
46.47000 0.987
46.48000 4.112
46.49000 3.074
46.50000 1.983
46.51000 4.111
46.52000 2.034
46.53000 5.049
46.54000 1.001
46.55000 3.026
46.56000 3.019
46.57000 1.992
46.58000 3.021
46.59000 4.081
46.60000 3.072
46.61000 0.994
46.62000 0.997
46.63000 1.031
46.64000 3.037
46.65000 3.050
46.66000 1.004
46.67000 2.070
46.68000 2.065
46.69000 4.014
46.70000 0.986
46.71000 2.017
46.72000 0.000
46.73000 2.026
46.74000 5.022
46.75000 5.043
46.76000 1.019
46.77000 3.141
46.78000 3.977
46.79000 6.093
46.80000 4.070
46.81000 1.995
46.82000 1.054
46.83000 2.029
46.84000 5.074
46.85000 2.056
46.86000 2.991
46.87000 1.024
46.88000 2.008
46.89000 0.978
46.90000 0.000
46.91000 5.008
46.92000 5.036
46.93000 0.000
46.94000 2.013
46.95000 2.071
46.96000 1.017
46.97000 4.027
46.98000 2.049
46.99000 2.040
47.00000 2.025
47.01000 1.025
47.02000 1.993
47.03000 1.959
47.04000 1.055
47.05000 0.000
47.06000 1.993
47.07000 4.029
47.08000 4.017
47.09000 1.029
47.10000 1.022
47.11000 3.026
47.12000 3.997
47.13000 2.017
47.14000 1.062
47.15000 4.061
47.16000 5.132
47.17000 0.999
47.18000 1.005
47.19000 0.985
47.20000 2.055
47.21000 0.000
47.22000 1.005
47.23000 3.013
47.24000 3.082
47.25000 2.001
47.26000 0.984
47.27000 1.023
47.28000 0.000
47.29000 2.998
47.30000 3.021
47.31000 4.043
47.32000 1.028
47.33000 0.992
47.34000 2.069
47.35000 1.964
47.36000 3.028
47.37000 1.989
47.38000 0.000
47.39000 2.022
47.40000 2.986
47.41000 3.118
47.42000 0.991
47.43000 7.061
47.44000 3.063
47.45000 4.097
47.46000 0.000
47.47000 2.003
47.48000 0.000
47.49000 8.128
47.50000 0.981
47.51000 2.014
47.52000 3.045
47.53000 3.961
47.54000 2.078
47.55000 1.067
47.56000 2.035
47.57000 2.002
47.58000 1.985
47.59000 3.047
47.60000 2.026
47.61000 3.102
47.62000 2.014
47.63000 2.012
47.64000 1.006
47.65000 0.998
47.66000 2.036
47.67000 0.991
47.68000 1.045
47.69000 1.025
47.70000 0.000
47.71000 3.081
47.72000 2.050
47.73000 1.055
47.74000 3.073
47.75000 3.002
47.76000 6.061
47.77000 4.027
47.78000 3.036
47.79000 3.034
47.80000 2.000
47.81000 2.010
47.82000 2.042
47.83000 3.044
47.84000 2.985
47.85000 1.036
47.86000 2.015
47.87000 1.002
47.88000 2.986
47.89000 0.981
47.90000 4.086
47.91000 2.032
47.92000 1.034
47.93000 5.073
47.94000 3.040
47.95000 0.000
47.96000 1.002
47.97000 1.975
47.98000 3.109
47.99000 4.015
48.00000 2.014
48.01000 0.000
48.02000 4.065
48.03000 4.984
48.04000 0.985
48.05000 0.000
48.06000 3.006
48.07000 5.107
48.08000 2.042
48.09000 1.000
48.10000 4.094
48.11000 2.080
48.12000 4.056
48.13000 1.991
48.14000 3.150
48.15000 2.042
48.16000 1.059
48.17000 0.000
48.18000 2.050
48.19000 4.145
48.20000 1.006
48.21000 7.061
48.22000 4.027
48.23000 1.013
48.24000 3.043
48.25000 0.999
48.26000 1.998
48.27000 3.075
48.28000 3.095
48.29000 0.982
48.30000 5.038
48.31000 4.057
48.32000 1.000
48.33000 2.048
48.34000 6.069
48.35000 2.003
48.36000 2.001
48.37000 1.993
48.38000 4.120
48.39000 4.072
48.40000 4.982
48.41000 3.036
48.42000 3.035
48.43000 2.080
48.44000 2.060
48.45000 5.075
48.46000 4.104
48.47000 4.043
48.48000 4.080
48.49000 2.068
48.50000 2.082
48.51000 0.985
48.52000 3.042
48.53000 3.974
48.54000 1.044
48.55000 0.000
48.56000 2.035
48.57000 3.094
48.58000 2.016
48.59000 0.994
48.60000 4.051
48.61000 0.000
48.62000 2.100
48.63000 2.988
48.64000 3.021
48.65000 5.098
48.66000 1.002
48.67000 3.023
48.68000 1.997
48.69000 2.997
48.70000 2.033
48.71000 2.033
48.72000 3.055
48.73000 0.000
48.74000 1.016
48.75000 1.010
48.76000 3.034
48.77000 2.077
48.78000 1.023
48.79000 3.061
48.80000 2.992
48.81000 0.000
48.82000 2.074
48.83000 3.018
48.84000 0.000
48.85000 5.082
48.86000 1.975
48.87000 0.994
48.88000 2.018
48.89000 0.000
48.90000 3.003
48.91000 2.027
48.92000 1.054
48.93000 2.023
48.94000 0.000
48.95000 3.049
48.96000 0.969
48.97000 0.000
48.98000 4.075
48.99000 0.000
49.00000 1.032
49.01000 3.013
49.02000 0.988
49.03000 2.069
49.04000 2.022
49.05000 2.087
49.06000 3.122
49.07000 2.112
49.08000 1.035
49.09000 2.975
49.10000 0.985
49.11000 3.030
49.12000 3.085
49.13000 1.007
49.14000 3.099
49.15000 3.035
49.16000 1.029
49.17000 2.084
49.18000 2.997
49.19000 2.000
49.20000 2.071
49.21000 4.086
49.22000 1.050
49.23000 2.010
49.24000 3.043
49.25000 1.968
49.26000 4.071
49.27000 0.998
49.28000 0.995
49.29000 2.017
49.30000 3.010
49.31000 4.021
49.32000 2.044
49.33000 1.020
49.34000 3.059
49.35000 0.000
49.36000 3.026
49.37000 5.099
49.38000 3.002
49.39000 4.054
49.40000 0.000
49.41000 0.000
49.42000 1.025
49.43000 4.057
49.44000 0.000
49.45000 0.993
49.46000 3.002
49.47000 3.060
49.48000 4.039
49.49000 0.999
49.50000 1.013
49.51000 2.005
49.52000 3.007
49.53000 4.007
49.54000 0.988
49.55000 2.014
49.56000 3.063
49.57000 0.992
49.58000 3.034
49.59000 1.066
49.60000 4.043
49.61000 3.044
49.62000 0.000
49.63000 2.024
49.64000 1.975
49.65000 3.067
49.66000 4.117
49.67000 2.071
49.68000 6.125
49.69000 1.993
49.70000 4.017
49.71000 3.020
49.72000 4.056
49.73000 2.046
49.74000 2.035
49.75000 0.000
49.76000 0.000
49.77000 0.977
49.78000 0.000
49.79000 0.990
49.80000 1.030
49.81000 2.014
49.82000 5.102
49.83000 4.013
49.84000 5.041
49.85000 0.000
49.86000 2.000
49.87000 3.062
49.88000 3.024
49.89000 2.017
49.90000 2.016
49.91000 3.069
49.92000 0.993
49.93000 1.020
49.94000 2.974
49.95000 3.110
49.96000 2.005
49.97000 1.996
49.98000 0.000
49.99000 3.042
50.00000 5.114
50.01000 2.049
50.02000 5.048
50.03000 0.000
50.04000 0.000
50.05000 2.041
50.06000 4.029
50.07000 5.047
50.08000 0.987
50.09000 0.995
50.10000 0.994
50.11000 4.111
50.12000 0.988
50.13000 4.090
50.14000 1.966
50.15000 1.010
50.16000 5.048
50.17000 0.000
50.18000 4.020
50.19000 2.029
50.20000 6.170
50.21000 3.044
50.22000 3.077
50.23000 2.112
50.24000 5.080
50.25000 2.097
50.26000 0.000
50.27000 2.944
50.28000 2.049
50.29000 2.047
50.30000 3.021
50.31000 1.008
50.32000 3.020
50.33000 2.984
50.34000 3.081
50.35000 0.000
50.36000 3.011
50.37000 4.026
50.38000 0.000
50.39000 4.001
50.40000 2.979
50.41000 1.993
50.42000 2.971
50.43000 1.989
50.44000 3.022
50.45000 2.035
50.46000 2.006
50.47000 2.999
50.48000 1.010
50.49000 0.997
50.50000 3.960
50.51000 0.992
50.52000 1.998
50.53000 0.998
50.54000 1.005
50.55000 0.000
50.56000 3.013
50.57000 4.059
50.58000 2.032
50.59000 0.000
50.60000 5.021
50.61000 2.047
50.62000 2.015
50.63000 3.104
50.64000 0.000
50.65000 4.060
50.66000 2.086
50.67000 1.021
50.68000 1.050
50.69000 3.049
50.70000 3.049
50.71000 1.005
50.72000 1.007
50.73000 0.000
50.74000 0.000
50.75000 1.037
50.76000 0.000
50.77000 0.000
50.78000 0.000
50.79000 2.003
50.80000 3.039
50.81000 1.014
50.82000 2.039
50.83000 2.063
50.84000 1.016
50.85000 5.065
50.86000 1.005
50.87000 2.061
50.88000 1.984
50.89000 2.020
50.90000 5.015
50.91000 2.045
50.92000 2.001
50.93000 1.987
50.94000 2.985
50.95000 2.032
50.96000 1.003
50.97000 7.045
50.98000 4.021
50.99000 1.019
51.00000 3.020
51.01000 4.064
51.02000 0.984
51.03000 1.043
51.04000 0.000
51.05000 3.056
51.06000 1.000
51.07000 1.983
51.08000 3.117
51.09000 5.161
51.10000 1.999
51.11000 2.039
51.12000 1.979
51.13000 5.060
51.14000 1.060
51.15000 1.104
51.16000 3.097
51.17000 1.034
51.18000 2.084
51.19000 0.990
51.20000 1.994
51.21000 0.000
51.22000 1.993
51.23000 1.054
51.24000 2.003
51.25000 1.048
51.26000 0.979
51.27000 1.044
51.28000 1.044
51.29000 3.124
51.30000 2.039
51.31000 2.042
51.32000 3.096
51.33000 3.033
51.34000 2.022
51.35000 0.000
51.36000 2.026
51.37000 3.066
51.38000 1.007
51.39000 2.046
51.40000 3.070
51.41000 0.000
51.42000 3.028
51.43000 2.053
51.44000 2.032
51.45000 3.067
51.46000 2.005
51.47000 1.004
51.48000 1.046
51.49000 1.014
51.50000 2.018
51.51000 0.988
51.52000 1.037
51.53000 1.039
51.54000 0.000
51.55000 0.000
51.56000 0.983
51.57000 0.995
51.58000 1.988
51.59000 2.033
51.60000 0.000
51.61000 0.000
51.62000 1.011
51.63000 6.176
51.64000 0.997
51.65000 0.000
51.66000 1.993
51.67000 1.019
51.68000 0.000
51.69000 0.999
51.70000 2.058
51.71000 2.017
51.72000 1.085
51.73000 1.999
51.74000 2.039
51.75000 1.991
51.76000 4.063
51.77000 2.068
51.78000 1.998
51.79000 0.000
51.80000 3.114
51.81000 1.002
51.82000 0.000
51.83000 1.011
51.84000 2.015
51.85000 0.980
51.86000 3.001
51.87000 1.021
51.88000 2.094
51.89000 2.015
51.90000 4.041
51.91000 1.021
51.92000 2.005
51.93000 1.004
51.94000 0.987
51.95000 4.057
51.96000 1.998
51.97000 1.039
51.98000 4.013
51.99000 2.010
52.00000 0.000
52.01000 2.006
52.02000 1.000
52.03000 0.000
52.04000 0.989
52.05000 0.995
52.06000 4.018
52.07000 3.002
52.08000 0.000
52.09000 1.000
52.10000 3.026
52.11000 4.071
52.12000 1.008
52.13000 3.093
52.14000 1.029
52.15000 1.048
52.16000 0.000
52.17000 1.021
52.18000 2.046
52.19000 0.996
52.20000 3.032
52.21000 0.997
52.22000 2.046
52.23000 0.000
52.24000 2.007
52.25000 0.000
52.26000 3.058
52.27000 1.007
52.28000 1.030
52.29000 1.060
52.30000 0.987
52.31000 3.159
52.32000 0.000
52.33000 1.010
52.34000 2.007
52.35000 2.048
52.36000 3.012
52.37000 2.003
52.38000 4.023
52.39000 4.109
52.40000 0.000
52.41000 0.000
52.42000 5.023
52.43000 1.026
52.44000 6.149
52.45000 0.000
52.46000 0.000
52.47000 0.986
52.48000 2.015
52.49000 0.000
52.50000 4.075
52.51000 0.991
52.52000 0.993
52.53000 0.984
52.54000 3.105
52.55000 1.982
52.56000 3.022
52.57000 1.031
52.58000 0.991
52.59000 2.119
52.60000 0.986
52.61000 1.987
52.62000 3.016
52.63000 0.000
52.64000 2.006
52.65000 0.990
52.66000 0.982
52.67000 5.086
52.68000 1.988
52.69000 0.000
52.70000 1.042
52.71000 1.976
52.72000 2.029
52.73000 4.090
52.74000 1.006
52.75000 0.000
52.76000 2.021
52.77000 0.000
52.78000 0.993
52.79000 1.051
52.80000 2.040
52.81000 1.017
52.82000 0.976
52.83000 0.000
52.84000 1.009
52.85000 2.025
52.86000 7.126
52.87000 2.041
52.88000 1.017
52.89000 1.042
52.90000 0.994
52.91000 0.000
52.92000 2.033
52.93000 3.046
52.94000 0.000
52.95000 4.110
52.96000 2.118
52.97000 0.000
52.98000 2.029
52.99000 1.020
53.00000 2.026
53.01000 3.028
53.02000 0.983
53.03000 2.004
53.04000 1.011
53.05000 2.043
53.06000 0.000
53.07000 1.009
53.08000 0.000
53.09000 1.016
53.10000 4.048
53.11000 2.005
53.12000 2.975
53.13000 4.007
53.14000 4.090
53.15000 0.988
53.16000 2.063
53.17000 1.993
53.18000 0.991
53.19000 1.016
53.20000 2.039
53.21000 2.057
53.22000 2.105
53.23000 2.105
53.24000 0.987
53.25000 4.101
53.26000 1.070
53.27000 2.994
53.28000 1.031
53.29000 2.027
53.30000 0.000
53.31000 1.007
53.32000 1.022
53.33000 0.000
53.34000 6.131
53.35000 0.000
53.36000 1.984
53.37000 3.004
53.38000 2.039
53.39000 2.053
53.40000 1.015
53.41000 1.007
53.42000 1.983
53.43000 3.020
53.44000 2.019
53.45000 2.068
53.46000 1.022
53.47000 1.007
53.48000 3.037
53.49000 0.000
53.50000 0.000
53.51000 0.000
53.52000 4.965
53.53000 2.011
53.54000 0.992
53.55000 0.989
53.56000 2.020
53.57000 0.000
53.58000 3.064
53.59000 1.005
53.60000 0.000
53.61000 2.011
53.62000 2.080
53.63000 1.040
53.64000 3.011
53.65000 3.006
53.66000 2.010
53.67000 3.048
53.68000 0.000
53.69000 5.026
53.70000 1.012
53.71000 2.062
53.72000 0.000
53.73000 4.076
53.74000 4.004
53.75000 2.056
53.76000 3.019
53.77000 0.000
53.78000 0.977
53.79000 2.002
53.80000 2.036
53.81000 0.991
53.82000 3.051
53.83000 1.033
53.84000 0.994
53.85000 1.001
53.86000 1.982
53.87000 2.105
53.88000 1.017
53.89000 1.028
53.90000 0.999
53.91000 0.000
53.92000 0.986
53.93000 0.997
53.94000 1.055
53.95000 5.016
53.96000 4.013
53.97000 4.004
53.98000 0.000
53.99000 4.037
54.00000 0.000
54.01000 2.042
54.02000 0.993
54.03000 1.012
54.04000 0.978
54.05000 1.987
54.06000 2.009
54.07000 3.973
54.08000 2.007
54.09000 2.049
54.10000 0.000
54.11000 5.116
54.12000 1.020
54.13000 1.012
54.14000 2.025
54.15000 2.988
54.16000 0.993
54.17000 0.996
54.18000 0.000
54.19000 5.097
54.20000 1.022
54.21000 2.037
54.22000 2.029
54.23000 2.098
54.24000 3.992
54.25000 3.125
54.26000 2.042
54.27000 2.984
54.28000 0.000
54.29000 2.990
54.30000 3.062
54.31000 2.060
54.32000 2.022
54.33000 1.043
54.34000 2.077
54.35000 2.034
54.36000 0.998
54.37000 2.058
54.38000 0.996
54.39000 1.021
54.40000 3.008
54.41000 1.013
54.42000 1.035
54.43000 2.021
54.44000 3.999
54.45000 0.000
54.46000 0.000
54.47000 2.032
54.48000 2.039
54.49000 3.097
54.50000 2.046
54.51000 1.011
54.52000 0.998
54.53000 0.974
54.54000 1.046
54.55000 0.000
54.56000 3.066
54.57000 1.008
54.58000 2.060
54.59000 1.057
54.60000 1.997
54.61000 0.000
54.62000 2.036
54.63000 4.081
54.64000 1.018
54.65000 2.008
54.66000 0.000
54.67000 2.032
54.68000 0.000
54.69000 2.016
54.70000 3.050
54.71000 1.016
54.72000 1.030
54.73000 1.042
54.74000 3.028
54.75000 1.009
54.76000 2.984
54.77000 2.023
54.78000 0.000
54.79000 2.053
54.80000 2.137
54.81000 3.038
54.82000 1.018
54.83000 0.000
54.84000 0.000
54.85000 4.065
54.86000 1.979
54.87000 2.045
54.88000 1.054
54.89000 0.000
54.90000 2.074
54.91000 1.026
54.92000 2.092
54.93000 0.000
54.94000 0.000
54.95000 4.077
54.96000 1.002
54.97000 0.997
54.98000 2.063
54.99000 1.000
55.00000 3.027
55.01000 0.000
55.02000 3.038
55.03000 1.029
55.04000 3.034
55.05000 0.000
55.06000 0.000
55.07000 0.000
55.08000 1.998
55.09000 2.043
55.10000 1.985
55.11000 3.019
55.12000 1.037
55.13000 0.000
55.14000 2.009
55.15000 1.990
55.16000 0.000
55.17000 1.003
55.18000 0.995
55.19000 0.000
55.20000 0.000
55.21000 2.042
55.22000 1.984
55.23000 0.000
55.24000 1.016
55.25000 1.026
55.26000 1.021
55.27000 4.039
55.28000 1.035
55.29000 0.992
55.30000 4.042
55.31000 4.038
55.32000 2.055
55.33000 0.000
55.34000 1.004
55.35000 2.999
55.36000 4.042
55.37000 2.026
55.38000 1.998
55.39000 1.082
55.40000 0.996
55.41000 1.005
55.42000 1.015
55.43000 1.991
55.44000 0.000
55.45000 1.032
55.46000 2.075
55.47000 4.084
55.48000 0.000
55.49000 2.014
55.50000 6.032
55.51000 1.016
55.52000 1.006
55.53000 4.117
55.54000 1.000
55.55000 2.002
55.56000 0.000
55.57000 1.050
55.58000 1.029
55.59000 4.024
55.60000 1.044
55.61000 2.037
55.62000 0.000
55.63000 0.987
55.64000 3.017
55.65000 0.998
55.66000 0.983
55.67000 2.021
55.68000 2.033
55.69000 2.038
55.70000 3.012
55.71000 3.039
55.72000 2.030
55.73000 5.062
55.74000 2.090
55.75000 1.022
55.76000 2.016
55.77000 2.055
55.78000 1.043
55.79000 0.000
55.80000 1.997
55.81000 0.000
55.82000 1.990
55.83000 2.990
55.84000 0.000
55.85000 0.000
55.86000 1.013
55.87000 2.044
55.88000 1.046
55.89000 1.021
55.90000 0.000
55.91000 0.996
55.92000 3.966
55.93000 2.044
55.94000 1.013
55.95000 2.010
55.96000 0.000
55.97000 2.978
55.98000 2.021
55.99000 0.000
56.00000 0.000
56.01000 1.995
56.02000 2.075
56.03000 3.020
56.04000 1.037
56.05000 2.054
56.06000 0.000
56.07000 1.039
56.08000 4.010
56.09000 2.942
56.10000 5.153
56.11000 0.000
56.12000 2.962
56.13000 0.000
56.14000 1.005
56.15000 1.988
56.16000 0.000
56.17000 1.019
56.18000 0.000
56.19000 0.990
56.20000 2.006
56.21000 3.033
56.22000 2.094
56.23000 3.018
56.24000 0.000
56.25000 0.000
56.26000 3.111
56.27000 2.065
56.28000 0.999
56.29000 1.036
56.30000 4.072
56.31000 2.037
56.32000 6.082
56.33000 0.000
56.34000 4.001
56.35000 2.050
56.36000 5.077
56.37000 2.019
56.38000 0.000
56.39000 3.118
56.40000 3.050
56.41000 3.020
56.42000 1.021
56.43000 4.070
56.44000 1.002
56.45000 2.015
56.46000 0.000
56.47000 0.986
56.48000 1.020
56.49000 5.986
56.50000 0.000
56.51000 2.035
56.52000 2.967
56.53000 3.004
56.54000 3.990
56.55000 1.025
56.56000 1.998
56.57000 0.000
56.58000 0.000
56.59000 1.038
56.60000 5.040
56.61000 2.057
56.62000 0.000
56.63000 5.020
56.64000 0.000
56.65000 0.992
56.66000 1.000
56.67000 0.992
56.68000 0.000
56.69000 0.000
56.70000 2.005
56.71000 2.002
56.72000 2.041
56.73000 4.156
56.74000 1.985
56.75000 1.991
56.76000 2.012
56.77000 0.000
56.78000 2.023
56.79000 0.999
56.80000 2.010
56.81000 3.065
56.82000 1.005
56.83000 3.014
56.84000 5.086
56.85000 3.099
56.86000 0.000
56.87000 0.000
56.88000 0.000
56.89000 2.033
56.90000 2.094
56.91000 1.982
56.92000 1.014
56.93000 0.000
56.94000 2.034
56.95000 0.000
56.96000 2.991
56.97000 0.000
56.98000 0.000
56.99000 2.044
57.00000 1.967
57.01000 3.086
57.02000 0.999
57.03000 3.071
57.04000 2.023
57.05000 2.045
57.06000 2.030
57.07000 0.000
57.08000 1.080
57.09000 4.006
57.10000 0.000
57.11000 2.055
57.12000 1.070
57.13000 0.987
57.14000 0.000
57.15000 4.074
57.16000 4.060
57.17000 2.049
57.18000 3.030
57.19000 1.999
57.20000 0.000
57.21000 0.000
57.22000 3.131
57.23000 4.046
57.24000 0.000
57.25000 5.119
57.26000 1.968
57.27000 3.055
57.28000 1.000
57.29000 2.054
57.30000 1.057
57.31000 0.992
57.32000 1.982
57.33000 0.980
57.34000 0.000
57.35000 0.000
57.36000 3.993
57.37000 0.996
57.38000 1.041
57.39000 1.995
57.40000 2.043
57.41000 2.030
57.42000 2.043
57.43000 1.056
57.44000 1.023
57.45000 1.011
57.46000 0.000
57.47000 0.984
57.48000 0.000
57.49000 2.036
57.50000 0.000
57.51000 3.046
57.52000 5.037
57.53000 0.998
57.54000 1.036
57.55000 1.050
57.56000 1.026
57.57000 1.014
57.58000 0.000
57.59000 1.037
57.60000 2.032
57.61000 2.040
57.62000 2.077
57.63000 2.028
57.64000 0.000
57.65000 0.998
57.66000 1.982
57.67000 0.000
57.68000 2.053
57.69000 1.977
57.70000 4.006
57.71000 0.000
57.72000 1.972
57.73000 5.105
57.74000 3.025
57.75000 2.006
57.76000 0.000
57.77000 5.143
57.78000 1.020
57.79000 5.122
57.80000 0.000
57.81000 0.000
57.82000 1.007
57.83000 1.060
57.84000 0.000
57.85000 1.052
57.86000 1.001
57.87000 1.053
57.88000 2.013
57.89000 3.090
57.90000 0.990
57.91000 1.026
57.92000 1.013
57.93000 1.011
57.94000 2.084
57.95000 1.026
57.96000 0.000
57.97000 2.975
57.98000 1.057
57.99000 3.040
58.00000 0.000
58.01000 1.007
58.02000 2.972
58.03000 0.990
58.04000 1.013
58.05000 1.003
58.06000 2.996
58.07000 0.000
58.08000 0.000
58.09000 3.012
58.10000 1.095
58.11000 0.000
58.12000 2.942
58.13000 0.993
58.14000 2.036
58.15000 1.057
58.16000 3.051
58.17000 2.058
58.18000 5.064
58.19000 0.992
58.20000 2.083
58.21000 0.984
58.22000 4.155
58.23000 0.000
58.24000 0.984
58.25000 2.056
58.26000 2.035
58.27000 1.021
58.28000 2.985
58.29000 1.005
58.30000 3.068
58.31000 1.004
58.32000 1.013
58.33000 1.976
58.34000 1.033
58.35000 2.957
58.36000 1.973
58.37000 2.104
58.38000 0.000
58.39000 1.034
58.40000 4.035
58.41000 1.005
58.42000 0.987
58.43000 3.061
58.44000 0.000
58.45000 0.000
58.46000 3.044
58.47000 3.082
58.48000 1.983
58.49000 3.023
58.50000 3.105
58.51000 1.046
58.52000 1.029
58.53000 1.996
58.54000 5.076
58.55000 3.120
58.56000 2.991
58.57000 0.000
58.58000 3.029
58.59000 2.018
58.60000 0.000
58.61000 0.000
58.62000 1.007
58.63000 0.989
58.64000 0.000
58.65000 2.070
58.66000 0.988
58.67000 2.986
58.68000 1.007
58.69000 0.987
58.70000 3.085
58.71000 1.017
58.72000 1.010
58.73000 2.092
58.74000 3.037
58.75000 1.038
58.76000 0.988
58.77000 6.155
58.78000 4.977
58.79000 1.002
58.80000 5.097
58.81000 1.059
58.82000 1.024
58.83000 1.989
58.84000 1.000
58.85000 1.018
58.86000 0.000
58.87000 1.034
58.88000 0.000
58.89000 6.093
58.90000 2.021
58.91000 0.000
58.92000 0.000
58.93000 0.000
58.94000 4.092
58.95000 0.000
58.96000 2.045
58.97000 1.009
58.98000 3.066
58.99000 0.000
59.00000 1.996
59.01000 2.027
59.02000 1.991
59.03000 1.013
59.04000 2.079
59.05000 1.005
59.06000 0.000
59.07000 1.004
59.08000 0.000
59.09000 1.004
59.10000 0.000
59.11000 0.994
59.12000 2.040
59.13000 3.029
59.14000 1.047
59.15000 2.994
59.16000 0.000
59.17000 0.000
59.18000 3.061
59.19000 1.990
59.20000 3.017
59.21000 0.000
59.22000 2.042
59.23000 3.072
59.24000 1.015
59.25000 0.000
59.26000 2.026
59.27000 1.985
59.28000 1.006
59.29000 0.000
59.30000 3.001
59.31000 0.000
59.32000 4.042
59.33000 1.005
59.34000 1.987
59.35000 1.003
59.36000 0.968
59.37000 0.000
59.38000 2.026
59.39000 1.008
59.40000 0.998
59.41000 0.998
59.42000 1.019
59.43000 2.067
59.44000 1.064
59.45000 1.010
59.46000 2.993
59.47000 2.044
59.48000 0.000
59.49000 2.057
59.50000 1.991
59.51000 0.000
59.52000 3.010
59.53000 0.000
59.54000 1.995
59.55000 1.961
59.56000 1.982
59.57000 2.045
59.58000 0.992
59.59000 2.033
59.60000 3.050
59.61000 1.055
59.62000 0.989
59.63000 2.078
59.64000 3.029
59.65000 3.012
59.66000 1.013
59.67000 0.991
59.68000 1.993
59.69000 1.045
59.70000 0.000
59.71000 2.029
59.72000 2.073
59.73000 2.089
59.74000 1.033
59.75000 2.019
59.76000 0.980
59.77000 2.081
59.78000 4.041
59.79000 3.080
59.80000 4.042
59.81000 1.042
59.82000 3.065
59.83000 1.997
59.84000 0.995
59.85000 1.057
59.86000 1.040
59.87000 2.034
59.88000 0.000
59.89000 3.027
59.90000 1.007
59.91000 1.043
59.92000 1.023
59.93000 0.000
59.94000 0.980
59.95000 5.096
59.96000 0.981
59.97000 0.000
59.98000 1.042
59.99000 1.003
60.00000 2.037
60.01000 1.996
60.02000 1.011
60.03000 0.980
60.04000 0.000
60.05000 1.966
60.06000 0.995
60.07000 0.995
60.08000 2.034
60.09000 0.973
60.10000 0.995
60.11000 2.004
60.12000 2.057
60.13000 0.000
60.14000 2.054
60.15000 0.000
60.16000 2.063
60.17000 0.000
60.18000 0.000
60.19000 0.000
60.20000 3.023
60.21000 0.000
60.22000 1.963
60.23000 1.990
60.24000 0.989
60.25000 2.021
60.26000 1.059
60.27000 2.005
60.28000 0.994
60.29000 2.027
60.30000 3.027
60.31000 1.028
60.32000 2.090
60.33000 1.015
60.34000 2.045
60.35000 0.981
60.36000 2.033
60.37000 3.024
60.38000 2.051
60.39000 1.007
60.40000 2.990
60.41000 2.053
60.42000 1.060
60.43000 5.078
60.44000 0.000
60.45000 0.000
60.46000 3.110
60.47000 2.080
60.48000 1.971
60.49000 3.030
60.50000 2.096
60.51000 2.065
60.52000 1.058
60.53000 1.026
60.54000 0.993
60.55000 0.000
60.56000 2.045
60.57000 0.000
60.58000 3.048
60.59000 3.053
60.60000 1.035
60.61000 1.001
60.62000 1.975
60.63000 3.001
60.64000 0.000
60.65000 0.000
60.66000 1.001
60.67000 2.976
60.68000 1.041
60.69000 0.000
60.70000 2.033
60.71000 0.992
60.72000 0.000
60.73000 1.997
60.74000 0.000
60.75000 3.039
60.76000 0.000
60.77000 2.029
60.78000 0.997
60.79000 2.043
60.80000 2.032
60.81000 1.004
60.82000 1.998
60.83000 2.055
60.84000 1.025
60.85000 0.000
60.86000 3.102
60.87000 2.001
60.88000 1.006
60.89000 0.998
60.90000 2.010
60.91000 2.002
60.92000 3.048
60.93000 1.032
60.94000 0.000
60.95000 3.034
60.96000 0.000
60.97000 1.003
60.98000 0.000
60.99000 2.980
61.00000 0.000
61.01000 2.031
61.02000 3.065
61.03000 0.000
61.04000 1.977
61.05000 4.063
61.06000 1.981
61.07000 3.117
61.08000 0.994
61.09000 0.000
61.10000 0.000
61.11000 3.054
61.12000 1.034
61.13000 3.118
61.14000 2.016
61.15000 0.980
61.16000 2.073
61.17000 0.000
61.18000 4.044
61.19000 1.029
61.20000 1.970
61.21000 2.037
61.22000 0.000
61.23000 3.068
61.24000 0.000
61.25000 0.994
61.26000 1.020
61.27000 1.017
61.28000 2.112
61.29000 0.000
61.30000 4.110
61.31000 0.000
61.32000 0.000
61.33000 1.956
61.34000 4.031
61.35000 0.000
61.36000 0.000
61.37000 2.073
61.38000 0.000
61.39000 4.043
61.40000 0.000
61.41000 2.044
61.42000 0.977
61.43000 3.016
61.44000 0.993
61.45000 2.065
61.46000 1.002
61.47000 1.021
61.48000 0.000
61.49000 2.972
61.50000 2.059
61.51000 1.041
61.52000 1.011
61.53000 4.107
61.54000 4.029
61.55000 3.045
61.56000 0.982
61.57000 1.036
61.58000 1.043
61.59000 2.093
61.60000 2.053
61.61000 0.000
61.62000 4.044
61.63000 1.009
61.64000 1.966
61.65000 0.000
61.66000 2.086
61.67000 0.000
61.68000 0.000
61.69000 1.013
61.70000 1.061
61.71000 0.000
61.72000 0.000
61.73000 0.000
61.74000 2.072
61.75000 1.994
61.76000 3.014
61.77000 1.025
61.78000 0.000
61.79000 0.000
61.80000 0.993
61.81000 2.053
61.82000 6.017
61.83000 1.039
61.84000 0.978
61.85000 0.000
61.86000 0.000
61.87000 0.000
61.88000 0.996
61.89000 0.000
61.90000 0.995
61.91000 1.017
61.92000 2.020
61.93000 0.994
61.94000 0.983
61.95000 1.026
61.96000 0.000
61.97000 0.000
61.98000 1.003
61.99000 5.043
62.00000 0.000
62.01000 4.014
62.02000 0.000
62.03000 3.062
62.04000 1.000
62.05000 1.028
62.06000 0.000
62.07000 1.002
62.08000 0.000
62.09000 1.975
62.10000 1.947
62.11000 3.086
62.12000 0.000
62.13000 0.000
62.14000 3.082
62.15000 0.000
62.16000 0.000
62.17000 0.000
62.18000 1.016
62.19000 2.048
62.20000 0.000
62.21000 2.064
62.22000 3.114
62.23000 1.973
62.24000 2.053
62.25000 1.010
62.26000 0.000
62.27000 0.972
62.28000 1.008
62.29000 0.000
62.30000 2.026
62.31000 0.000
62.32000 2.045
62.33000 3.090
62.34000 2.050
62.35000 1.076
62.36000 0.000
62.37000 0.998
62.38000 2.052
62.39000 0.989
62.40000 1.009
62.41000 2.023
62.42000 2.023
62.43000 2.115
62.44000 0.000
62.45000 3.035
62.46000 0.970
62.47000 5.018
62.48000 3.080
62.49000 0.000
62.50000 0.993
62.51000 0.000
62.52000 1.987
62.53000 0.977
62.54000 1.974
62.55000 2.964
62.56000 1.995
62.57000 1.046
62.58000 0.000
62.59000 1.002
62.60000 1.989
62.61000 0.000
62.62000 0.000
62.63000 4.054
62.64000 4.120
62.65000 0.979
62.66000 0.000
62.67000 3.096
62.68000 0.000
62.69000 1.033
62.70000 1.021
62.71000 0.000
62.72000 0.000
62.73000 0.982
62.74000 1.031
62.75000 2.021
62.76000 0.000
62.77000 0.988
62.78000 3.014
62.79000 2.051
62.80000 4.049
62.81000 3.055
62.82000 0.000
62.83000 1.012
62.84000 1.005
62.85000 1.049
62.86000 7.066
62.87000 1.000
62.88000 0.998
62.89000 1.970
62.90000 2.049
62.91000 0.986
62.92000 0.000
62.93000 4.046
62.94000 0.000
62.95000 1.020
62.96000 1.024
62.97000 4.125
62.98000 0.992
62.99000 2.043
63.00000 0.980
63.01000 1.999
63.02000 0.993
63.03000 0.997
63.04000 2.059
63.05000 0.000
63.06000 0.997
63.07000 0.000
63.08000 0.976
63.09000 0.000
63.10000 3.020
63.11000 2.015
63.12000 2.066
63.13000 0.993
63.14000 3.069
63.15000 0.984
63.16000 2.044
63.17000 0.997
63.18000 1.016
63.19000 0.000
63.20000 1.011
63.21000 0.000
63.22000 0.000
63.23000 2.011
63.24000 1.014
63.25000 2.084
63.26000 1.037
63.27000 0.000
63.28000 1.020
63.29000 2.021
63.30000 1.001
63.31000 2.049
63.32000 3.001
63.33000 1.080
63.34000 0.967
63.35000 0.996
63.36000 0.000
63.37000 2.015
63.38000 3.041
63.39000 3.094
63.40000 1.057
63.41000 1.009
63.42000 0.000
63.43000 2.020
63.44000 1.042
63.45000 2.013
63.46000 4.155
63.47000 1.047
63.48000 1.040
63.49000 0.000
63.50000 3.049
63.51000 2.059
63.52000 2.990
63.53000 2.048
63.54000 0.000
63.55000 0.999
63.56000 1.023
63.57000 1.035
63.58000 2.000
63.59000 2.083
63.60000 0.983
63.61000 4.034
63.62000 0.000
63.63000 1.011
63.64000 1.006
63.65000 2.061
63.66000 3.063
63.67000 1.058
63.68000 1.985
63.69000 1.065
63.70000 2.066
63.71000 2.002
63.72000 3.023
63.73000 1.076
63.74000 1.007
63.75000 1.004
63.76000 2.021
63.77000 0.000
63.78000 2.006
63.79000 1.043
63.80000 1.975
63.81000 1.002
63.82000 0.000
63.83000 1.040
63.84000 2.012
63.85000 1.011
63.86000 0.000
63.87000 2.026
63.88000 2.022
63.89000 2.019
63.90000 0.000
63.91000 2.067
63.92000 3.042
63.93000 1.029
63.94000 1.011
63.95000 0.998
63.96000 4.004
63.97000 1.100
63.98000 2.016
63.99000 0.000
64.00000 1.011
64.01000 2.995
64.02000 0.000
64.03000 3.110
64.04000 1.003
64.05000 0.991
64.06000 2.981
64.07000 4.001
64.08000 1.057
64.09000 2.030
64.10000 0.000
64.11000 2.025
64.12000 2.001
64.13000 3.026
64.14000 0.980
64.15000 0.000
64.16000 1.004
64.17000 1.042
64.18000 1.029
64.19000 1.992
64.20000 0.983
64.21000 0.000
64.22000 0.975
64.23000 3.054
64.24000 1.002
64.25000 1.003
64.26000 1.021
64.27000 0.000
64.28000 3.091
64.29000 3.063
64.30000 2.033
64.31000 1.011
64.32000 0.991
64.33000 0.000
64.34000 2.985
64.35000 1.008
64.36000 0.000
64.37000 0.000
64.38000 1.010
64.39000 0.000
64.40000 0.982
64.41000 1.971
64.42000 1.035
64.43000 1.000
64.44000 2.036
64.45000 0.994
64.46000 3.016
64.47000 1.022
64.48000 2.004
64.49000 3.073
64.50000 0.989
64.51000 5.037
64.52000 1.011
64.53000 2.004
64.54000 0.000
64.55000 1.990
64.56000 0.000
64.57000 1.070
64.58000 2.008
64.59000 2.019
64.60000 1.027
64.61000 0.000
64.62000 1.044
64.63000 0.000
64.64000 0.000
64.65000 2.050
64.66000 2.058
64.67000 0.971
64.68000 1.020
64.69000 2.020
64.70000 0.000
64.71000 2.016
64.72000 1.011
64.73000 0.000
64.74000 0.000
64.75000 0.000
64.76000 0.000
64.77000 2.017
64.78000 1.044
64.79000 3.014
64.80000 2.038
64.81000 2.021
64.82000 1.036
64.83000 1.993
64.84000 1.034
64.85000 0.000
64.86000 1.068
64.87000 0.000
64.88000 0.988
64.89000 0.990
64.90000 2.035
64.91000 2.048
64.92000 2.028
64.93000 1.043
64.94000 2.970
64.95000 1.014
64.96000 0.992
64.97000 0.000
64.98000 1.992
64.99000 0.000
65.00000 0.000
