20.00000 26.466
20.01000 27.315
20.02000 13.140
20.03000 22.389
20.04000 23.355
20.05000 25.168
20.06000 16.212
20.07000 27.370
20.08000 18.079
20.09000 19.161
20.10000 22.374
20.11000 15.077
20.12000 20.381
20.13000 19.309
20.14000 18.353
20.15000 23.144
20.16000 24.359
20.17000 20.173
20.18000 15.112
20.19000 22.315
20.20000 30.311
20.21000 12.126
20.22000 16.350
20.23000 19.124
20.24000 22.556
20.25000 17.288
20.26000 17.251
20.27000 10.013
20.28000 16.305
20.29000 20.323
20.30000 19.324
20.31000 16.972
20.32000 26.365
20.33000 21.239
20.34000 19.205
20.35000 20.249
20.36000 21.308
20.37000 22.130
20.38000 26.294
20.39000 17.337
20.40000 16.288
20.41000 21.212
20.42000 17.201
20.43000 16.314
20.44000 18.257
20.45000 15.088
20.46000 18.023
20.47000 18.395
20.48000 19.427
20.49000 15.133
20.50000 23.307
20.51000 22.352
20.52000 22.460
20.53000 24.291
20.54000 24.235
20.55000 23.396
20.56000 23.359
20.57000 19.000
20.58000 28.452
20.59000 15.122
20.60000 23.348
20.61000 13.139
20.62000 31.314
20.63000 26.252
20.64000 19.277
20.65000 18.263
20.66000 21.157
20.67000 27.240
20.68000 18.279
20.69000 19.392
20.70000 22.346
20.71000 13.051
20.72000 16.197
20.73000 24.149
20.74000 17.134
20.75000 20.274
20.76000 20.306
20.77000 20.277
20.78000 18.152
20.79000 22.442
20.80000 22.356
20.81000 18.107
20.82000 17.138
20.83000 12.058
20.84000 21.414
20.85000 21.169
20.86000 20.343
20.87000 16.022
20.88000 21.524
20.89000 13.149
20.90000 22.166
20.91000 22.139
20.92000 21.382
20.93000 19.264
20.94000 21.261
20.95000 24.362
20.96000 22.296
20.97000 29.431
20.98000 22.098
20.99000 20.188
21.00000 18.340
21.01000 19.338
21.02000 23.323
21.03000 21.199
21.04000 17.311
21.05000 17.227
21.06000 22.175
21.07000 19.225
21.08000 22.598
21.09000 19.187
21.10000 20.267
21.11000 19.134
21.12000 19.276
21.13000 16.103
21.14000 15.285
21.15000 14.166
21.16000 20.153
21.17000 24.319
21.18000 14.107
21.19000 23.219
21.20000 20.194
21.21000 19.228
21.22000 22.462
21.23000 17.214
21.24000 22.134
21.25000 17.037
21.26000 22.376
21.27000 31.596
21.28000 18.242
21.29000 19.430
21.30000 25.374
21.31000 15.072
21.32000 27.442
21.33000 15.129
21.34000 14.119
21.35000 15.069
21.36000 29.778
21.37000 19.311
21.38000 18.142
21.39000 17.264
21.40000 19.114
21.41000 21.204
21.42000 20.236
21.43000 17.317
21.44000 23.347
21.45000 18.208
21.46000 21.436
21.47000 28.320
21.48000 26.363
21.49000 25.208
21.50000 22.091
21.51000 19.505
21.52000 17.351
21.53000 24.233
21.54000 12.123
21.55000 11.172
21.56000 20.229
21.57000 20.257
21.58000 27.463
21.59000 27.453
21.60000 23.406
21.61000 25.147
21.62000 24.425
21.63000 27.486
21.64000 20.263
21.65000 26.078
21.66000 16.134
21.67000 22.155
21.68000 16.174
21.69000 17.393
21.70000 25.514
21.71000 21.204
21.72000 24.519
21.73000 19.244
21.74000 26.162
21.75000 28.423
21.76000 20.076
21.77000 17.216
21.78000 29.462
21.79000 31.740
21.80000 15.054
21.81000 23.358
21.82000 20.411
21.83000 18.201
21.84000 17.188
21.85000 22.264
21.86000 17.285
21.87000 24.353
21.88000 22.228
21.89000 28.375
21.90000 20.302
21.91000 18.392
21.92000 20.293
21.93000 15.251
21.94000 23.406
21.95000 20.180
21.96000 25.424
21.97000 18.310
21.98000 14.137
21.99000 25.330
22.00000 19.398
22.01000 17.101
22.02000 16.164
22.03000 22.119
22.04000 18.146
22.05000 17.022
22.06000 18.200
22.07000 21.489
22.08000 23.026
22.09000 23.321
22.10000 22.489
22.11000 26.182
22.12000 18.125
22.13000 22.235
22.14000 21.160
22.15000 15.290
22.16000 23.288
22.17000 23.410
22.18000 21.278
22.19000 15.133
22.20000 16.282
22.21000 19.276
22.22000 19.230
22.23000 23.227
22.24000 15.315
22.25000 27.377
22.26000 18.369
22.27000 17.089
22.28000 19.225
22.29000 30.651
22.30000 22.343
22.31000 10.021
22.32000 19.142
22.33000 18.275
22.34000 16.129
22.35000 21.209
22.36000 27.536
22.37000 23.201
22.38000 22.280
22.39000 18.148
22.40000 28.435
22.41000 19.230
22.42000 16.241
22.43000 21.315
22.44000 28.417
22.45000 28.404
22.46000 20.223
22.47000 16.286
22.48000 25.210
22.49000 30.543
22.50000 17.162
22.51000 31.467
22.52000 28.342
22.53000 21.472
22.54000 18.194
22.55000 16.063
22.56000 24.262
22.57000 27.121
22.58000 17.254
22.59000 29.395
22.60000 17.151
22.61000 27.364
22.62000 24.288
22.63000 25.283
22.64000 24.084
22.65000 20.270
22.66000 29.422
22.67000 23.123
22.68000 30.424
22.69000 30.413
22.70000 22.378
22.71000 26.310
22.72000 24.263
22.73000 23.348
22.74000 19.071
22.75000 20.207
22.76000 23.380
22.77000 19.195
22.78000 19.162
22.79000 27.144
22.80000 19.201
22.81000 27.438
22.82000 25.141
22.83000 26.209
22.84000 31.368
22.85000 22.246
22.86000 36.347
22.87000 27.469
22.88000 20.261
22.89000 20.336
22.90000 29.262
22.91000 28.138
22.92000 28.312
22.93000 18.139
22.94000 21.361
22.95000 19.473
22.96000 25.429
22.97000 20.290
22.98000 24.330
22.99000 24.361
23.00000 20.319
23.01000 21.974
23.02000 37.567
23.03000 18.298
23.04000 19.161
23.05000 18.120
23.06000 26.186
23.07000 20.101
23.08000 24.129
23.09000 23.360
23.10000 22.241
23.11000 20.425
23.12000 30.294
23.13000 17.369
23.14000 25.362
23.15000 24.283
23.16000 26.251
23.17000 28.476
23.18000 24.318
23.19000 29.328
23.20000 17.349
23.21000 22.282
23.22000 25.284
23.23000 23.149
23.24000 20.178
23.25000 31.349
23.26000 17.283
23.27000 18.202
23.28000 19.359
23.29000 26.356
23.30000 26.206
23.31000 24.314
23.32000 21.290
23.33000 26.246
23.34000 21.114
23.35000 21.251
23.36000 26.421
23.37000 25.310
23.38000 25.316
23.39000 24.416
23.40000 16.279
23.41000 30.270
23.42000 16.155
23.43000 29.274
23.44000 23.318
23.45000 33.433
23.46000 24.241
23.47000 26.216
23.48000 21.170
23.49000 26.384
23.50000 24.303
23.51000 22.305
23.52000 30.324
23.53000 26.478
23.54000 20.180
23.55000 30.498
23.56000 14.118
23.57000 20.069
23.58000 29.248
23.59000 26.399
23.60000 24.259
23.61000 22.229
23.62000 30.131
23.63000 26.240
23.64000 20.349
23.65000 27.328
23.66000 26.294
23.67000 18.151
23.68000 26.273
23.69000 19.082
23.70000 26.053
23.71000 26.446
23.72000 27.389
23.73000 21.363
23.74000 31.434
23.75000 25.254
23.76000 23.364
23.77000 23.383
23.78000 18.225
23.79000 18.066
23.80000 23.426
23.81000 23.250
23.82000 23.303
23.83000 24.259
23.84000 31.356
23.85000 23.182
23.86000 21.097
23.87000 19.377
23.88000 27.256
23.89000 26.365
23.90000 25.437
23.91000 31.423
23.92000 24.309
23.93000 12.094
23.94000 28.221
23.95000 23.309
23.96000 28.605
23.97000 29.397
23.98000 32.268
23.99000 22.332
24.00000 25.403
24.01000 20.235
24.02000 32.364
24.03000 33.484
24.04000 28.342
24.05000 25.394
24.06000 23.167
24.07000 27.255
24.08000 26.416
24.09000 36.482
24.10000 38.732
24.11000 32.424
24.12000 22.446
24.13000 25.197
24.14000 26.119
24.15000 21.111
24.16000 26.537
24.17000 35.470
24.18000 35.373
24.19000 36.259
24.20000 27.296
24.21000 24.394
24.22000 28.349
24.23000 29.594
24.24000 15.200
24.25000 27.283
24.26000 31.674
24.27000 22.548
24.28000 27.346
24.29000 33.516
24.30000 24.216
24.31000 27.249
24.32000 26.278
24.33000 35.361
24.34000 27.334
24.35000 22.299
24.36000 27.035
24.37000 32.323
24.38000 38.372
24.39000 36.640
24.40000 35.650
24.41000 28.359
24.42000 24.191
24.43000 24.346
24.44000 17.235
24.45000 38.517
24.46000 35.380
24.47000 32.556
24.48000 25.332
24.49000 28.507
24.50000 35.619
24.51000 34.631
24.52000 23.267
24.53000 30.366
24.54000 28.202
24.55000 31.465
24.56000 29.371
24.57000 29.446
24.58000 28.517
24.59000 35.346
24.60000 37.523
24.61000 26.150
24.62000 26.265
24.63000 18.209
24.64000 35.506
24.65000 30.461
24.66000 35.434
24.67000 30.235
24.68000 33.525
24.69000 36.410
24.70000 27.249
24.71000 33.434
24.72000 28.368
24.73000 40.543
24.74000 26.455
24.75000 35.413
24.76000 28.364
24.77000 32.318
24.78000 33.566
24.79000 23.490
24.80000 42.635
24.81000 31.517
24.82000 33.555
24.83000 35.411
24.84000 41.531
24.85000 30.389
24.86000 21.147
24.87000 29.506
24.88000 33.274
24.89000 26.320
24.90000 23.167
24.91000 35.334
24.92000 31.574
24.93000 24.499
24.94000 31.205
24.95000 26.239
24.96000 34.595
24.97000 24.082
24.98000 44.384
24.99000 34.271
25.00000 32.389
25.01000 31.222
25.02000 27.301
25.03000 30.610
25.04000 23.184
25.05000 39.472
25.06000 37.440
25.07000 32.478
25.08000 25.191
25.09000 34.454
25.10000 32.625
25.11000 36.479
25.12000 41.505
25.13000 31.174
25.14000 29.328
25.15000 37.441
25.16000 26.190
25.17000 23.293
25.18000 37.498
25.19000 34.087
25.20000 31.256
25.21000 30.270
25.22000 27.483
25.23000 35.320
25.24000 38.305
25.25000 30.529
25.26000 30.473
25.27000 33.516
25.28000 34.567
25.29000 32.243
25.30000 31.391
25.31000 28.503
25.32000 38.642
25.33000 26.410
25.34000 26.378
25.35000 37.472
25.36000 41.703
25.37000 45.522
25.38000 26.131
25.39000 34.267
25.40000 35.624
25.41000 31.557
25.42000 34.563
25.43000 31.319
25.44000 38.581
25.45000 19.354
25.46000 33.571
25.47000 39.659
25.48000 28.508
25.49000 38.261
25.50000 34.415
25.51000 28.193
25.52000 36.411
25.53000 26.463
25.54000 38.375
25.55000 22.268
25.56000 34.529
25.57000 34.478
25.58000 37.554
25.59000 37.340
25.60000 28.198
25.61000 38.586
25.62000 39.400
25.63000 43.871
25.64000 33.421
25.65000 33.378
25.66000 39.409
25.67000 36.582
25.68000 33.436
25.69000 30.174
25.70000 54.048
25.71000 33.128
25.72000 34.451
25.73000 47.540
25.74000 38.472
25.75000 35.509
25.76000 40.517
25.77000 52.558
25.78000 34.368
25.79000 36.381
25.80000 33.477
25.81000 38.526
25.82000 37.488
25.83000 35.312
25.84000 36.472
25.85000 41.254
25.86000 38.256
25.87000 37.552
25.88000 31.259
25.89000 31.230
25.90000 31.339
25.91000 33.078
25.92000 49.401
25.93000 31.344
25.94000 30.342
25.95000 34.613
25.96000 46.710
25.97000 38.443
25.98000 41.522
25.99000 40.707
26.00000 43.683
26.01000 48.646
26.02000 45.138
26.03000 40.475
26.04000 47.828
26.05000 39.678
26.06000 40.710
26.07000 42.499
26.08000 43.495
26.09000 50.777
26.10000 35.745
26.11000 33.483
26.12000 44.518
26.13000 43.665
26.14000 30.371
26.15000 45.825
26.16000 31.224
26.17000 33.566
26.18000 41.705
26.19000 33.472
26.20000 48.545
26.21000 40.555
26.22000 42.592
26.23000 43.572
26.24000 50.340
26.25000 34.591
26.26000 37.270
26.27000 47.817
26.28000 41.540
26.29000 40.386
26.30000 35.477
26.31000 44.436
26.32000 47.455
26.33000 42.481
26.34000 35.542
26.35000 29.466
26.36000 35.367
26.37000 33.740
26.38000 49.470
26.39000 37.622
26.40000 30.499
26.41000 33.438
26.42000 37.691
26.43000 40.530
26.44000 41.453
26.45000 39.692
26.46000 37.319
26.47000 43.591
26.48000 38.479
26.49000 40.531
26.50000 42.549
26.51000 35.411
26.52000 40.305
26.53000 36.417
26.54000 55.861
26.55000 42.259
26.56000 33.523
26.57000 41.345
26.58000 33.624
26.59000 39.466
26.60000 39.605
26.61000 41.430
26.62000 47.448
26.63000 52.576
26.64000 44.732
26.65000 39.426
26.66000 38.385
26.67000 36.710
26.68000 53.693
26.69000 32.438
26.70000 40.336
26.71000 47.716
26.72000 31.422
26.73000 33.605
26.74000 56.010
26.75000 37.588
26.76000 44.393
26.77000 34.405
26.78000 47.902
26.79000 46.754
26.80000 43.245
26.81000 52.397
26.82000 48.388
26.83000 41.477
26.84000 40.637
26.85000 47.460
26.86000 41.384
26.87000 54.908
26.88000 65.886
26.89000 45.767
26.90000 46.509
26.91000 51.715
26.92000 46.545
26.93000 48.581
26.94000 47.838
26.95000 60.720
26.96000 41.573
26.97000 38.744
26.98000 43.421
26.99000 43.492
27.00000 43.563
27.01000 59.793
27.02000 46.928
27.03000 45.707
27.04000 50.460
27.05000 40.548
27.06000 48.580
27.07000 36.442
27.08000 40.488
27.09000 52.942
27.10000 40.497
27.11000 43.785
27.12000 50.584
27.13000 37.495
27.14000 43.374
27.15000 55.634
27.16000 46.458
27.17000 46.688
27.18000 45.525
27.19000 45.774
27.20000 50.590
27.21000 47.794
27.22000 39.355
27.23000 42.591
27.24000 25.283
27.25000 37.307
27.26000 46.526
27.27000 48.578
27.28000 54.535
27.29000 63.009
27.30000 41.855
27.31000 56.592
27.32000 46.336
27.33000 37.272
27.34000 52.500
27.35000 48.356
27.36000 47.664
27.37000 48.476
27.38000 47.643
27.39000 55.438
27.40000 47.704
27.41000 45.475
27.42000 48.502
27.43000 58.678
27.44000 45.517
27.45000 52.254
27.46000 43.594
27.47000 36.287
27.48000 45.659
27.49000 40.305
27.50000 41.385
27.51000 40.951
27.52000 46.498
27.53000 56.574
27.54000 38.655
27.55000 47.883
27.56000 46.447
27.57000 52.648
27.58000 37.518
27.59000 45.699
27.60000 36.376
27.61000 46.574
27.62000 40.132
27.63000 41.523
27.64000 37.501
27.65000 50.562
27.66000 45.506
27.67000 49.682
27.68000 43.563
27.69000 43.877
27.70000 54.827
27.71000 49.518
27.72000 50.484
27.73000 44.434
27.74000 39.542
27.75000 49.641
27.76000 52.918
27.77000 38.558
27.78000 57.070
27.79000 47.522
27.80000 48.605
27.81000 49.011
27.82000 50.593
27.83000 42.539
27.84000 51.993
27.85000 51.371
27.86000 49.256
27.87000 35.367
27.88000 42.390
27.89000 45.591
27.90000 40.725
27.91000 61.746
27.92000 50.745
27.93000 48.702
27.94000 43.441
27.95000 40.303
27.96000 52.758
27.97000 33.518
27.98000 36.640
27.99000 52.392
28.00000 39.553
28.01000 52.625
28.02000 49.660
28.03000 40.620
28.04000 33.541
28.05000 35.463
28.06000 49.448
28.07000 42.561
28.08000 39.443
28.09000 50.883
28.10000 38.504
28.11000 43.620
28.12000 46.079
28.13000 51.792
28.14000 43.900
28.15000 41.712
28.16000 31.508
28.17000 45.557
28.18000 36.529
28.19000 51.022
28.20000 54.675
28.21000 32.358
28.22000 47.673
28.23000 41.504
28.24000 46.578
28.25000 57.466
28.26000 41.670
28.27000 42.480
28.28000 42.529
28.29000 44.609
28.30000 50.689
28.31000 41.380
28.32000 43.475
28.33000 35.514
28.34000 42.533
28.35000 56.692
28.36000 44.715
28.37000 53.347
28.38000 42.459
28.39000 42.553
28.40000 44.323
28.41000 45.649
28.42000 49.379
28.43000 47.442
28.44000 49.692
28.45000 42.337
28.46000 35.510
28.47000 47.612
28.48000 44.726
28.49000 40.682
28.50000 44.689
28.51000 37.342
28.52000 34.737
28.53000 42.580
28.54000 48.687
28.55000 44.443
28.56000 56.676
28.57000 38.361
28.58000 45.487
28.59000 41.674
28.60000 51.623
28.61000 45.821
28.62000 50.321
28.63000 38.503
28.64000 40.489
28.65000 43.401
28.66000 51.579
28.67000 31.571
28.68000 45.449
28.69000 34.132
28.70000 31.519
28.71000 33.492
28.72000 46.709
28.73000 53.611
28.74000 41.198
28.75000 30.478
28.76000 41.410
28.77000 38.713
28.78000 48.787
28.79000 38.527
28.80000 45.622
28.81000 41.441
28.82000 47.831
28.83000 39.821
28.84000 34.542
28.85000 33.601
28.86000 47.485
28.87000 39.297
28.88000 37.690
28.89000 45.292
28.90000 38.519
28.91000 39.553
28.92000 44.643
28.93000 48.665
28.94000 38.532
28.95000 38.555
28.96000 44.675
28.97000 33.540
28.98000 31.626
28.99000 40.582
29.00000 39.516
29.01000 35.483
29.02000 38.232
29.03000 37.577
29.04000 36.602
29.05000 42.499
29.06000 46.588
29.07000 41.268
29.08000 37.728
29.09000 48.468
29.10000 35.506
29.11000 38.367
29.12000 47.554
29.13000 42.248
29.14000 42.851
29.15000 37.369
29.16000 43.678
29.17000 29.255
29.18000 39.392
29.19000 42.759
29.20000 42.636
29.21000 49.278
29.22000 27.502
29.23000 35.574
29.24000 41.605
29.25000 39.554
29.26000 31.322
29.27000 40.527
29.28000 36.191
29.29000 45.534
29.30000 41.403
29.31000 41.315
29.32000 34.384
29.33000 34.552
29.34000 33.319
29.35000 49.420
29.36000 32.399
29.37000 46.690
29.38000 30.170
29.39000 46.657
29.40000 46.562
29.41000 37.669
29.42000 42.431
29.43000 46.573
29.44000 46.784
29.45000 39.561
29.46000 30.145
29.47000 45.538
29.48000 26.414
29.49000 37.161
29.50000 36.549
29.51000 34.292
29.52000 37.800
29.53000 27.196
29.54000 39.523
29.55000 25.310
29.56000 30.309
29.57000 39.629
29.58000 24.085
29.59000 31.592
29.60000 34.495
29.61000 29.383
29.62000 29.346
29.63000 35.450
29.64000 40.401
29.65000 42.546
29.66000 43.462
29.67000 37.590
29.68000 34.417
29.69000 37.452
29.70000 33.133
29.71000 40.362
29.72000 33.726
29.73000 25.271
29.74000 44.569
29.75000 37.237
29.76000 36.332
29.77000 34.459
29.78000 37.721
29.79000 33.341
29.80000 41.694
29.81000 34.514
29.82000 34.512
29.83000 28.393
29.84000 37.539
29.85000 31.394
29.86000 36.498
29.87000 36.330
29.88000 35.466
29.89000 36.551
29.90000 26.359
29.91000 36.759
29.92000 34.447
29.93000 53.753
29.94000 27.301
29.95000 31.346
29.96000 31.457
29.97000 40.656
29.98000 40.441
29.99000 33.361
30.00000 38.424
30.01000 35.423
30.02000 35.975
30.03000 35.750
30.04000 37.387
30.05000 30.230
30.06000 38.506
30.07000 26.270
30.08000 29.142
30.09000 34.273
30.10000 31.528
30.11000 43.580
30.12000 31.362
30.13000 26.442
30.14000 35.511
30.15000 33.440
30.16000 40.352
30.17000 37.692
30.18000 28.201
30.19000 34.582
30.20000 29.389
30.21000 36.413
30.22000 31.268
30.23000 37.360
30.24000 33.388
30.25000 42.496
30.26000 24.135
30.27000 32.475
30.28000 33.512
30.29000 42.537
30.30000 30.373
30.31000 28.318
30.32000 22.425
30.33000 37.366
30.34000 31.407
30.35000 27.355
30.36000 37.555
30.37000 31.471
30.38000 29.388
30.39000 39.694
30.40000 31.425
30.41000 36.363
30.42000 33.665
30.43000 30.654
30.44000 28.343
30.45000 26.278
30.46000 29.235
30.47000 24.254
30.48000 33.435
30.49000 25.073
30.50000 22.232
30.51000 23.284
30.52000 28.189
30.53000 23.155
30.54000 34.634
30.55000 23.486
30.56000 41.595
30.57000 31.411
30.58000 23.488
30.59000 38.335
30.60000 26.193
30.61000 37.564
30.62000 29.316
30.63000 21.367
30.64000 35.496
30.65000 25.200
30.66000 21.082
30.67000 23.295
30.68000 27.356
30.69000 25.551
30.70000 33.318
30.71000 29.339
30.72000 24.322
30.73000 16.879
30.74000 22.363
30.75000 36.182
30.76000 26.291
30.77000 32.334
30.78000 29.221
30.79000 22.259
30.80000 23.214
30.81000 29.381
30.82000 21.220
30.83000 33.311
30.84000 24.538
30.85000 41.411
30.86000 32.483
30.87000 27.339
30.88000 36.509
30.89000 25.475
30.90000 33.378
30.91000 24.368
30.92000 31.436
30.93000 31.542
30.94000 22.484
30.95000 26.131
30.96000 26.384
30.97000 36.573
30.98000 19.286
30.99000 19.388
31.00000 34.481
31.01000 25.529
31.02000 20.300
31.03000 29.456
31.04000 32.390
31.05000 28.344
31.06000 32.390
31.07000 32.299
31.08000 23.173
31.09000 30.257
31.10000 29.136
31.11000 27.207
31.12000 32.425
31.13000 24.371
31.14000 24.399
31.15000 20.202
31.16000 21.250
31.17000 30.336
31.18000 31.406
31.19000 19.231
31.20000 29.486
31.21000 27.527
31.22000 23.266
31.23000 21.080
31.24000 25.398
31.25000 30.155
31.26000 31.402
31.27000 36.488
31.28000 22.188
31.29000 24.340
31.30000 20.383
31.31000 26.282
31.32000 33.795
31.33000 24.091
31.34000 23.498
31.35000 26.279
31.36000 27.343
31.37000 24.222
31.38000 26.593
31.39000 21.220
31.40000 26.486
31.41000 22.446
31.42000 22.117
31.43000 27.118
31.44000 24.297
31.45000 29.572
31.46000 35.466
31.47000 19.309
31.48000 22.150
31.49000 27.191
31.50000 31.573
31.51000 23.154
31.52000 28.238
31.53000 24.251
31.54000 20.175
31.55000 25.331
31.56000 22.316
31.57000 22.250
31.58000 31.467
31.59000 22.181
31.60000 24.397
31.61000 31.286
31.62000 23.373
31.63000 18.132
31.64000 20.328
31.65000 26.269
31.66000 18.240
31.67000 16.161
31.68000 29.362
31.69000 24.427
31.70000 25.517
31.71000 20.196
31.72000 28.415
31.73000 22.260
31.74000 35.272
31.75000 23.372
31.76000 25.147
31.77000 25.626
31.78000 25.173
31.79000 19.069
31.80000 32.406
31.81000 22.284
31.82000 26.238
31.83000 32.293
31.84000 21.136
31.85000 27.386
31.86000 19.282
31.87000 19.262
31.88000 23.236
31.89000 22.295
31.90000 18.165
31.91000 21.121
31.92000 19.205
31.93000 26.431
31.94000 20.236
31.95000 25.217
31.96000 29.402
31.97000 22.287
31.98000 26.122
31.99000 27.511
32.00000 31.340
32.01000 25.242
32.02000 27.392
32.03000 22.241
32.04000 29.495
32.05000 24.434
32.06000 37.802
32.07000 19.360
32.08000 27.326
32.09000 24.235
32.10000 21.429
32.11000 18.063
32.12000 40.427
32.13000 35.428
32.14000 32.465
32.15000 25.170
32.16000 16.295
32.17000 21.511
32.18000 25.176
32.19000 30.298
32.20000 24.270
32.21000 20.288
32.22000 32.421
32.23000 23.259
32.24000 29.222
32.25000 28.398
32.26000 20.312
32.27000 18.303
32.28000 28.554
32.29000 16.082
32.30000 25.475
32.31000 23.185
32.32000 23.268
32.33000 25.207
32.34000 30.421
32.35000 30.193
32.36000 45.485
32.37000 30.260
32.38000 27.305
32.39000 22.074
32.40000 26.291
32.41000 23.336
32.42000 19.253
32.43000 18.194
32.44000 20.410
32.45000 31.485
32.46000 29.368
32.47000 25.247
32.48000 22.205
32.49000 24.361
32.50000 25.288
32.51000 16.125
32.52000 27.320
32.53000 29.371
32.54000 28.576
32.55000 23.223
32.56000 25.207
32.57000 27.179
32.58000 28.487
32.59000 32.375
32.60000 23.374
32.61000 27.387
32.62000 26.234
32.63000 27.476
32.64000 26.476
32.65000 7.120
32.66000 24.358
32.67000 24.234
32.68000 26.309
32.69000 22.339
32.70000 23.414
32.71000 23.248
32.72000 13.197
32.73000 26.499
32.74000 25.211
32.75000 17.404
32.76000 25.179
32.77000 23.416
32.78000 26.245
32.79000 22.227
32.80000 18.184
32.81000 22.449
32.82000 25.401
32.83000 18.218
32.84000 21.318
32.85000 15.183
32.86000 26.316
32.87000 18.199
32.88000 10.054
32.89000 18.302
32.90000 19.201
32.91000 21.119
32.92000 15.254
32.93000 12.232
32.94000 14.360
32.95000 19.248
32.96000 28.400
32.97000 20.293
32.98000 20.220
32.99000 22.415
33.00000 17.198
33.01000 24.172
33.02000 20.158
33.03000 10.195
33.04000 17.216
33.05000 18.198
33.06000 22.145
33.07000 17.156
33.08000 18.183
33.09000 22.511
33.10000 20.097
33.11000 20.286
33.12000 18.255
33.13000 10.053
33.14000 18.251
33.15000 17.263
33.16000 19.413
33.17000 21.351
33.18000 19.272
33.19000 13.153
33.20000 17.234
33.21000 16.419
33.22000 21.297
33.23000 12.139
33.24000 16.234
33.25000 19.129
33.26000 22.301
33.27000 19.196
33.28000 11.165
33.29000 15.308
33.30000 9.980
33.31000 20.422
33.32000 19.164
33.33000 17.116
33.34000 22.254
33.35000 15.012
33.36000 24.405
33.37000 19.353
33.38000 14.205
33.39000 17.326
33.40000 12.116
33.41000 13.207
33.42000 20.295
33.43000 16.197
33.44000 15.166
33.45000 24.124
33.46000 15.204
33.47000 18.183
33.48000 26.195
33.49000 23.216
33.50000 16.101
33.51000 10.932
33.52000 27.400
33.53000 19.190
33.54000 22.284
33.55000 15.277
33.56000 17.096
33.57000 18.258
33.58000 9.159
33.59000 21.051
33.60000 16.197
33.61000 12.955
33.62000 12.166
33.63000 16.196
33.64000 12.106
33.65000 23.245
33.66000 15.094
33.67000 11.077
33.68000 17.193
33.69000 16.182
33.70000 14.134
33.71000 18.202
33.72000 16.326
33.73000 14.092
33.74000 13.349
33.75000 18.315
33.76000 13.122
33.77000 15.377
33.78000 11.305
33.79000 12.292
33.80000 17.370
33.81000 24.467
33.82000 17.275
33.83000 18.280
33.84000 6.115
33.85000 13.114
33.86000 26.442
33.87000 10.087
33.88000 16.348
33.89000 20.264
33.90000 19.074
33.91000 25.274
33.92000 16.179
33.93000 9.102
33.94000 12.204
33.95000 8.990
33.96000 21.094
33.97000 25.528
33.98000 13.356
33.99000 20.249
34.00000 19.167
34.01000 14.163
34.02000 17.345
34.03000 16.417
34.04000 18.256
34.05000 7.069
34.06000 18.196
34.07000 11.049
34.08000 15.318
34.09000 13.235
34.10000 12.217
34.11000 11.186
34.12000 11.141
34.13000 17.080
34.14000 11.110
34.15000 14.253
34.16000 17.194
34.17000 9.327
34.18000 15.142
34.19000 18.137
34.20000 11.069
34.21000 17.302
34.22000 13.126
34.23000 15.022
34.24000 17.970
34.25000 17.357
34.26000 20.243
34.27000 17.218
34.28000 15.246
34.29000 16.328
34.30000 11.229
34.31000 16.105
34.32000 21.362
34.33000 13.121
34.34000 18.306
34.35000 19.419
34.36000 10.203
34.37000 16.240
34.38000 14.279
34.39000 22.265
34.40000 11.284
34.41000 11.252
34.42000 19.187
34.43000 9.199
34.44000 15.267
34.45000 11.118
34.46000 21.375
34.47000 11.112
34.48000 12.071
34.49000 12.038
34.50000 20.279
34.51000 13.234
34.52000 14.053
34.53000 10.265
34.54000 12.348
34.55000 18.110
34.56000 12.060
34.57000 13.118
34.58000 13.198
34.59000 20.200
34.60000 14.241
34.61000 11.153
34.62000 10.111
34.63000 12.137
34.64000 15.434
34.65000 14.160
34.66000 15.226
34.67000 15.146
34.68000 13.229
34.69000 15.085
34.70000 16.204
34.71000 20.468
34.72000 13.271
34.73000 17.042
34.74000 15.129
34.75000 12.096
34.76000 21.263
34.77000 17.438
34.78000 19.115
34.79000 16.096
34.80000 14.216
34.81000 14.095
34.82000 16.152
34.83000 20.138
34.84000 12.059
34.85000 19.318
34.86000 15.403
34.87000 10.082
34.88000 14.123
34.89000 13.282
34.90000 14.189
34.91000 22.254
34.92000 16.157
34.93000 15.141
34.94000 15.258
34.95000 18.236
34.96000 8.033
34.97000 10.966
34.98000 12.152
34.99000 10.132
35.00000 16.066
35.01000 12.011
35.02000 16.397
35.03000 16.214
35.04000 17.404
35.05000 13.059
35.06000 19.233
35.07000 14.111
35.08000 10.156
35.09000 19.348
35.10000 16.279
35.11000 18.222
35.12000 17.190
35.13000 19.444
35.14000 19.207
35.15000 16.334
35.16000 17.366
35.17000 10.223
35.18000 20.118
35.19000 15.231
35.20000 22.450
35.21000 7.110
35.22000 15.128
35.23000 21.522
35.24000 9.157
35.25000 13.162
35.26000 15.148
35.27000 13.200
35.28000 15.111
35.29000 11.176
35.30000 18.186
35.31000 15.114
35.32000 14.172
35.33000 11.223
35.34000 12.188
35.35000 15.308
35.36000 10.166
35.37000 20.311
35.38000 12.332
35.39000 17.266
35.40000 14.306
35.41000 19.517
35.42000 12.178
35.43000 13.233
35.44000 9.140
35.45000 14.077
35.46000 16.105
35.47000 21.256
35.48000 15.154
35.49000 12.175
35.50000 11.134
35.51000 11.105
35.52000 21.374
35.53000 15.258
35.54000 12.047
35.55000 14.262
35.56000 16.197
35.57000 16.002
35.58000 18.275
35.59000 10.259
35.60000 18.189
35.61000 12.295
35.62000 21.293
35.63000 11.043
35.64000 16.377
35.65000 12.339
35.66000 13.269
35.67000 9.140
35.68000 10.131
35.69000 12.117
35.70000 17.334
35.71000 7.112
35.72000 23.239
35.73000 17.303
35.74000 12.038
35.75000 10.205
35.76000 17.331
35.77000 15.141
35.78000 17.176
35.79000 25.498
35.80000 12.135
35.81000 21.383
35.82000 19.316
35.83000 10.022
35.84000 21.337
35.85000 10.100
35.86000 22.121
35.87000 16.132
35.88000 10.093
35.89000 16.306
35.90000 9.071
35.91000 11.241
35.92000 9.059
35.93000 14.194
35.94000 14.129
35.95000 16.092
35.96000 8.219
35.97000 9.205
35.98000 17.263
35.99000 13.290
36.00000 5.030
36.01000 17.178
36.02000 11.224
36.03000 15.348
36.04000 22.233
36.05000 11.132
36.06000 12.094
36.07000 14.138
36.08000 6.074
36.09000 15.085
36.10000 18.299
36.11000 20.210
36.12000 17.114
36.13000 10.069
36.14000 17.222
36.15000 11.130
36.16000 16.222
36.17000 16.297
36.18000 17.122
36.19000 14.293
36.20000 17.285
36.21000 19.286
36.22000 12.084
36.23000 15.336
36.24000 16.219
36.25000 13.140
36.26000 8.036
36.27000 23.364
36.28000 14.125
36.29000 11.266
36.30000 21.340
36.31000 18.356
36.32000 18.168
36.33000 20.298
36.34000 17.127
36.35000 13.267
36.36000 15.081
36.37000 13.216
36.38000 10.101
36.39000 12.068
36.40000 8.219
36.41000 15.163
36.42000 15.239
36.43000 10.292
36.44000 25.220
36.45000 11.246
36.46000 12.151
36.47000 9.091
36.48000 11.102
36.49000 11.079
36.50000 13.232
36.51000 11.318
36.52000 16.040
36.53000 14.163
36.54000 19.389
36.55000 24.205
36.56000 10.146
36.57000 11.137
36.58000 14.087
36.59000 13.128
36.60000 14.141
36.61000 15.055
36.62000 13.084
36.63000 9.988
36.64000 14.160
36.65000 18.399
36.66000 12.219
36.67000 17.262
36.68000 19.216
36.69000 15.184
36.70000 22.377
36.71000 12.981
36.72000 14.220
36.73000 18.288
36.74000 12.191
36.75000 11.100
36.76000 16.032
36.77000 14.098
36.78000 25.478
36.79000 21.350
36.80000 18.270
36.81000 21.230
36.82000 21.316
36.83000 12.181
36.84000 13.194
36.85000 13.194
36.86000 26.240
36.87000 18.380
36.88000 13.273
36.89000 12.133
36.90000 11.157
36.91000 14.291
36.92000 14.189
36.93000 18.282
36.94000 13.963
36.95000 20.164
36.96000 20.247
36.97000 15.128
36.98000 14.224
36.99000 8.296
37.00000 14.290
37.01000 15.219
37.02000 18.218
37.03000 13.267
37.04000 7.063
37.05000 13.290
37.06000 20.296
37.07000 9.174
37.08000 15.211
37.09000 21.207
37.10000 18.171
37.11000 19.329
37.12000 13.007
37.13000 20.304
37.14000 7.058
37.15000 19.263
37.16000 20.206
37.17000 11.048
37.18000 20.520
37.19000 14.163
37.20000 15.170
37.21000 6.086
37.22000 13.181
37.23000 15.178
37.24000 11.122
37.25000 13.166
37.26000 20.222
37.27000 13.177
37.28000 19.300
37.29000 7.119
37.30000 11.154
37.31000 17.321
37.32000 17.209
37.33000 15.096
37.34000 19.177
37.35000 6.060
37.36000 13.147
37.37000 18.152
37.38000 12.231
37.39000 16.236
37.40000 14.336
37.41000 11.210
37.42000 18.256
37.43000 19.086
37.44000 11.201
37.45000 22.259
37.46000 21.189
37.47000 18.194
37.48000 21.110
37.49000 20.312
37.50000 12.027
37.51000 22.233
37.52000 11.195
37.53000 15.111
37.54000 21.200
37.55000 14.174
37.56000 24.177
37.57000 17.342
37.58000 21.327
37.59000 12.170
37.60000 26.387
37.61000 18.168
37.62000 17.253
37.63000 17.002
37.64000 21.211
37.65000 9.133
37.66000 13.075
37.67000 15.286
37.68000 15.309
37.69000 17.382
37.70000 18.338
37.71000 14.208
37.72000 20.380
37.73000 12.127
37.74000 19.162
37.75000 18.299
37.76000 13.179
37.77000 14.076
37.78000 20.286
37.79000 17.171
37.80000 14.160
37.81000 17.197
37.82000 11.154
37.83000 12.029
37.84000 29.557
37.85000 15.064
37.86000 21.294
37.87000 17.137
37.88000 16.256
37.89000 21.139
37.90000 18.164
37.91000 16.142
37.92000 14.132
37.93000 17.398
37.94000 13.171
37.95000 14.116
37.96000 11.240
37.97000 20.188
37.98000 12.202
37.99000 18.293
38.00000 14.339
38.01000 12.166
38.02000 13.131
38.03000 22.245
38.04000 18.239
38.05000 11.306
38.06000 15.267
38.07000 10.118
38.08000 18.141
38.09000 14.147
38.10000 12.038
38.11000 15.312
38.12000 14.200
38.13000 15.298
38.14000 10.031
38.15000 13.247
38.16000 8.072
38.17000 20.301
38.18000 11.119
38.19000 12.205
38.20000 9.048
38.21000 14.266
38.22000 20.342
38.23000 18.243
38.24000 15.105
38.25000 15.249
38.26000 15.286
38.27000 11.104
38.28000 14.042
38.29000 12.214
38.30000 14.235
38.31000 11.144
38.32000 19.233
38.33000 17.183
38.34000 13.054
38.35000 15.209
38.36000 23.381
38.37000 11.093
38.38000 12.080
38.39000 13.178
38.40000 24.394
38.41000 11.205
38.42000 20.336
38.43000 17.282
38.44000 17.326
38.45000 18.235
38.46000 17.117
38.47000 19.136
38.48000 15.166
38.49000 12.051
38.50000 4.082
38.51000 16.179
38.52000 18.183
38.53000 22.341
38.54000 23.207
38.55000 20.303
38.56000 21.450
38.57000 15.188
38.58000 10.094
38.59000 17.127
38.60000 15.177
38.61000 19.224
38.62000 14.113
38.63000 19.197
38.64000 22.412
38.65000 20.226
38.66000 23.556
38.67000 18.363
38.68000 14.026
38.69000 18.256
38.70000 12.148
38.71000 10.239
38.72000 19.145
38.73000 19.234
38.74000 17.204
38.75000 22.267
38.76000 13.287
38.77000 15.279
38.78000 16.140
38.79000 19.367
38.80000 19.194
38.81000 16.120
38.82000 18.218
38.83000 22.384
38.84000 21.356
38.85000 16.367
38.86000 14.372
38.87000 15.329
38.88000 14.164
38.89000 20.090
38.90000 15.098
38.91000 14.085
38.92000 19.375
38.93000 18.175
38.94000 18.254
38.95000 22.289
38.96000 19.328
38.97000 16.084
38.98000 17.217
38.99000 16.154
39.00000 13.175
39.01000 20.392
39.02000 18.061
39.03000 17.231
39.04000 16.125
39.05000 17.347
39.06000 20.247
39.07000 17.119
39.08000 26.405
39.09000 22.303
39.10000 15.196
39.11000 17.199
39.12000 15.286
39.13000 20.432
39.14000 17.247
39.15000 13.151
39.16000 22.346
39.17000 17.191
39.18000 19.300
39.19000 23.264
39.20000 16.279
39.21000 13.168
39.22000 12.232
39.23000 21.301
39.24000 18.274
39.25000 21.305
39.26000 15.227
39.27000 22.126
39.28000 12.217
39.29000 23.341
39.30000 23.287
39.31000 18.144
39.32000 20.136
39.33000 20.315
39.34000 9.246
39.35000 13.075
39.36000 22.331
39.37000 16.353
39.38000 16.192
39.39000 15.351
39.40000 18.254
39.41000 22.287
39.42000 19.084
39.43000 13.322
39.44000 17.103
39.45000 18.313
39.46000 18.198
39.47000 18.284
39.48000 18.235
39.49000 13.097
39.50000 19.107
39.51000 26.588
39.52000 22.343
39.53000 14.334
39.54000 22.256
39.55000 19.209
39.56000 20.231
39.57000 18.167
39.58000 21.177
39.59000 24.356
39.60000 21.249
39.61000 10.082
39.62000 18.270
39.63000 11.225
39.64000 14.245
39.65000 17.160
39.66000 27.397
39.67000 16.302
39.68000 17.259
39.69000 31.580
39.70000 12.998
39.71000 25.285
39.72000 15.259
39.73000 15.195
39.74000 21.414
39.75000 15.131
39.76000 23.261
39.77000 15.071
39.78000 19.497
39.79000 25.440
39.80000 22.133
39.81000 24.140
39.82000 22.186
39.83000 21.304
39.84000 20.249
39.85000 18.297
39.86000 17.218
39.87000 18.201
39.88000 15.218
39.89000 17.235
39.90000 11.062
39.91000 17.183
39.92000 19.125
39.93000 21.223
39.94000 23.145
39.95000 23.234
39.96000 22.433
39.97000 18.202
39.98000 18.143
39.99000 11.049
40.00000 19.161
40.01000 21.125
40.02000 19.252
40.03000 18.341
40.04000 17.228
40.05000 12.214
40.06000 23.168
40.07000 10.104
40.08000 20.365
40.09000 14.174
40.10000 12.304
40.11000 15.272
40.12000 15.092
40.13000 21.229
40.14000 18.281
40.15000 14.051
40.16000 21.018
40.17000 20.310
40.18000 19.309
40.19000 14.212
40.20000 22.119
40.21000 21.511
40.22000 23.471
40.23000 17.091
40.24000 14.281
40.25000 18.201
40.26000 13.276
40.27000 16.371
40.28000 19.082
40.29000 16.034
40.30000 24.319
40.31000 17.101
40.32000 19.141
40.33000 19.251
40.34000 22.166
40.35000 19.328
40.36000 22.233
40.37000 16.171
40.38000 16.179
40.39000 20.228
40.40000 14.234
40.41000 10.213
40.42000 15.251
40.43000 23.309
40.44000 17.376
40.45000 16.227
40.46000 22.121
40.47000 27.445
40.48000 20.432
40.49000 18.227
40.50000 17.234
40.51000 21.331
40.52000 16.212
40.53000 13.963
40.54000 21.167
40.55000 10.202
40.56000 21.354
40.57000 19.302
40.58000 20.129
40.59000 20.280
40.60000 18.282
40.61000 14.131
40.62000 19.235
40.63000 14.093
40.64000 14.034
40.65000 19.326
40.66000 20.358
40.67000 16.312
40.68000 21.420
40.69000 18.295
40.70000 14.153
40.71000 24.618
40.72000 13.104
40.73000 14.080
40.74000 12.142
40.75000 20.130
40.76000 10.128
40.77000 16.176
40.78000 14.429
40.79000 25.046
40.80000 16.383
40.81000 18.220
40.82000 14.368
40.83000 11.149
40.84000 12.995
40.85000 23.289
40.86000 16.237
40.87000 19.188
40.88000 15.203
40.89000 18.278
40.90000 15.378
40.91000 17.087
40.92000 16.072
40.93000 21.247
40.94000 21.277
40.95000 23.403
40.96000 21.323
40.97000 16.270
40.98000 20.352
40.99000 18.320
41.00000 20.262
41.01000 20.500
41.02000 15.074
41.03000 21.395
41.04000 20.160
41.05000 25.298
41.06000 20.274
41.07000 12.096
41.08000 20.463
41.09000 22.343
41.10000 22.253
41.11000 15.107
41.12000 24.349
41.13000 14.256
41.14000 13.232
41.15000 19.183
41.16000 12.160
41.17000 15.283
41.18000 15.136
41.19000 12.180
41.20000 14.256
41.21000 23.350
41.22000 20.329
41.23000 13.122
41.24000 9.117
41.25000 10.014
41.26000 18.458
41.27000 22.258
41.28000 20.324
41.29000 20.431
41.30000 15.226
41.31000 17.283
41.32000 17.218
41.33000 19.198
41.34000 18.268
41.35000 18.278
41.36000 19.306
41.37000 19.255
41.38000 24.349
41.39000 19.001
41.40000 27.333
41.41000 13.171
41.42000 18.354
41.43000 17.332
41.44000 26.319
41.45000 12.225
41.46000 17.181
41.47000 22.231
41.48000 21.291
41.49000 26.599
41.50000 16.359
41.51000 12.240
41.52000 15.168
41.53000 16.331
41.54000 18.329
41.55000 25.341
41.56000 15.173
41.57000 19.257
41.58000 19.353
41.59000 24.298
41.60000 22.355
41.61000 22.290
41.62000 18.172
41.63000 26.519
41.64000 15.264
41.65000 17.181
41.66000 21.357
41.67000 19.364
41.68000 16.075
41.69000 19.420
41.70000 23.515
41.71000 19.307
41.72000 17.334
41.73000 21.178
41.74000 9.083
41.75000 11.236
41.76000 16.255
41.77000 15.233
41.78000 18.298
41.79000 19.381
41.80000 14.142
41.81000 17.266
41.82000 18.168
41.83000 13.203
41.84000 11.096
41.85000 17.264
41.86000 21.203
41.87000 13.142
41.88000 18.164
41.89000 15.107
41.90000 16.082
41.91000 19.290
41.92000 16.203
41.93000 19.212
41.94000 17.137
41.95000 16.247
41.96000 21.152
41.97000 10.125
41.98000 18.234
41.99000 14.143
42.00000 19.370
42.01000 17.203
42.02000 16.122
42.03000 10.177
42.04000 20.188
42.05000 20.346
42.06000 15.113
42.07000 22.161
42.08000 23.306
42.09000 19.020
42.10000 21.077
42.11000 17.246
42.12000 15.303
42.13000 13.237
42.14000 17.128
42.15000 10.153
42.16000 24.425
42.17000 14.181
42.18000 21.263
42.19000 32.584
42.20000 17.140
42.21000 17.237
42.22000 15.227
42.23000 17.204
42.24000 20.464
42.25000 15.197
42.26000 14.111
42.27000 20.360
42.28000 20.408
42.29000 21.417
42.30000 13.079
42.31000 16.166
42.32000 24.541
42.33000 22.149
42.34000 20.272
42.35000 18.309
42.36000 15.313
42.37000 19.259
42.38000 8.147
42.39000 13.255
42.40000 18.169
42.41000 16.242
42.42000 18.214
42.43000 14.067
42.44000 18.084
42.45000 19.286
42.46000 18.251
42.47000 26.422
42.48000 9.071
42.49000 24.673
42.50000 22.305
42.51000 21.204
42.52000 21.326
42.53000 17.241
42.54000 20.433
42.55000 17.090
42.56000 15.266
42.57000 20.194
42.58000 24.269
42.59000 18.129
42.60000 9.098
42.61000 18.275
42.62000 17.258
42.63000 20.212
42.64000 18.190
42.65000 20.340
42.66000 19.250
42.67000 17.239
42.68000 14.308
42.69000 12.183
42.70000 18.315
42.71000 21.265
42.72000 17.297
42.73000 17.494
42.74000 17.332
42.75000 13.312
42.76000 15.269
42.77000 9.155
42.78000 23.433
42.79000 20.288
42.80000 18.250
42.81000 12.062
42.82000 21.304
42.83000 14.083
42.84000 17.171
42.85000 9.176
42.86000 23.307
42.87000 20.374
42.88000 17.147
42.89000 27.277
42.90000 18.326
42.91000 17.319
42.92000 20.136
42.93000 8.137
42.94000 20.412
42.95000 19.144
42.96000 18.381
42.97000 26.338
42.98000 12.258
42.99000 9.048
43.00000 17.198
43.01000 20.544
43.02000 17.164
43.03000 22.232
43.04000 17.474
43.05000 22.196
43.06000 16.112
43.07000 18.497
43.08000 15.217
43.09000 19.299
43.10000 24.462
43.11000 12.158
43.12000 14.351
43.13000 18.294
43.14000 20.169
43.15000 12.229
43.16000 10.089
43.17000 12.228
43.18000 17.138
43.19000 12.168
43.20000 13.271
43.21000 19.189
43.22000 12.272
43.23000 18.202
43.24000 18.059
43.25000 16.155
43.26000 14.294
43.27000 16.113
43.28000 20.362
43.29000 14.264
43.30000 17.257
43.31000 24.511
43.32000 10.079
43.33000 19.350
43.34000 14.211
43.35000 22.244
43.36000 18.154
43.37000 21.366
43.38000 15.303
43.39000 23.574
43.40000 20.197
43.41000 16.175
43.42000 19.273
43.43000 18.166
43.44000 21.232
43.45000 21.364
43.46000 19.238
43.47000 23.158
43.48000 19.447
43.49000 17.468
43.50000 14.052
43.51000 21.386
43.52000 18.345
43.53000 23.474
43.54000 23.118
43.55000 14.220
43.56000 13.261
43.57000 14.228
43.58000 13.121
43.59000 17.243
43.60000 12.225
43.61000 13.250
43.62000 18.349
43.63000 12.073
43.64000 20.198
43.65000 11.133
43.66000 11.215
43.67000 22.381
43.68000 20.405
43.69000 17.158
43.70000 20.441
43.71000 23.314
43.72000 20.247
43.73000 22.246
43.74000 16.346
43.75000 18.995
43.76000 22.228
43.77000 20.030
43.78000 14.161
43.79000 13.165
43.80000 14.217
43.81000 8.135
43.82000 18.353
43.83000 12.121
43.84000 16.376
43.85000 12.218
43.86000 16.083
43.87000 12.235
43.88000 19.119
43.89000 23.371
43.90000 17.204
43.91000 8.144
43.92000 17.373
43.93000 22.493
43.94000 16.206
43.95000 19.427
43.96000 16.177
43.97000 24.478
43.98000 17.333
43.99000 16.162
44.00000 6.021
44.01000 22.306
44.02000 12.150
44.03000 20.327
44.04000 13.114
44.05000 9.144
44.06000 25.440
44.07000 16.415
44.08000 12.165
44.09000 17.353
44.10000 19.254
44.11000 17.259
44.12000 26.308
44.13000 16.255
44.14000 18.343
44.15000 25.238
44.16000 10.049
44.17000 16.101
44.18000 21.199
44.19000 22.296
44.20000 17.188
44.21000 24.321
44.22000 13.103
44.23000 13.327
44.24000 12.143
44.25000 16.141
44.26000 18.137
44.27000 14.172
44.28000 18.062
44.29000 19.298
44.30000 28.325
44.31000 19.173
44.32000 10.243
44.33000 12.129
44.34000 16.159
44.35000 20.273
44.36000 20.212
44.37000 18.221
44.38000 15.041
44.39000 22.225
44.40000 18.137
44.41000 13.265
44.42000 13.195
44.43000 17.087
44.44000 24.286
44.45000 19.124
44.46000 14.122
44.47000 18.363
44.48000 12.109
44.49000 16.232
44.50000 19.365
44.51000 17.218
44.52000 11.191
44.53000 20.344
44.54000 22.383
44.55000 22.298
44.56000 14.187
44.57000 15.323
44.58000 20.291
44.59000 17.354
44.60000 12.258
44.61000 15.151
44.62000 19.203
44.63000 26.348
44.64000 18.179
44.65000 16.129
44.66000 14.311
44.67000 17.165
44.68000 12.230
44.69000 17.249
44.70000 15.084
44.71000 15.162
44.72000 14.202
44.73000 17.346
44.74000 13.128
44.75000 30.314
44.76000 14.145
44.77000 19.174
44.78000 16.179
44.79000 14.215
44.80000 18.184
44.81000 23.253
44.82000 12.238
44.83000 18.127
44.84000 28.655
44.85000 18.389
44.86000 17.124
44.87000 21.452
44.88000 12.241
44.89000 22.488
44.90000 19.212
44.91000 22.307
44.92000 17.202
44.93000 14.075
44.94000 15.117
44.95000 18.046
44.96000 14.139
44.97000 18.128
44.98000 19.128
44.99000 14.372
45.00000 21.443
45.01000 22.348
45.02000 16.390
45.03000 21.106
45.04000 24.160
45.05000 15.079
45.06000 20.362
45.07000 19.168
45.08000 18.153
45.09000 12.028
45.10000 20.292
45.11000 19.333
45.12000 16.247
45.13000 9.013
45.14000 14.132
45.15000 20.266
45.16000 11.241
45.17000 13.262
45.18000 15.254
45.19000 18.087
45.20000 11.090
45.21000 21.297
45.22000 13.069
45.23000 15.223
45.24000 20.185
45.25000 14.231
45.26000 16.267
45.27000 27.407
45.28000 12.094
45.29000 14.358
45.30000 12.075
45.31000 16.220
45.32000 23.312
45.33000 20.171
45.34000 14.260
45.35000 14.247
45.36000 18.280
45.37000 26.269
45.38000 19.356
45.39000 26.342
45.40000 15.256
45.41000 20.015
45.42000 16.224
45.43000 8.145
45.44000 13.195
45.45000 17.272
45.46000 11.208
45.47000 21.462
45.48000 22.347
45.49000 20.127
45.50000 20.295
45.51000 17.331
45.52000 18.222
45.53000 28.304
45.54000 11.081
45.55000 22.223
45.56000 13.973
45.57000 16.181
45.58000 18.132
45.59000 23.392
45.60000 14.077
45.61000 23.314
45.62000 13.257
45.63000 18.152
45.64000 16.975
45.65000 14.254
45.66000 23.300
45.67000 22.236
45.68000 21.547
45.69000 23.340
45.70000 25.277
45.71000 16.479
45.72000 19.236
45.73000 13.145
45.74000 17.075
45.75000 21.325
45.76000 14.151
45.77000 13.265
45.78000 11.094
45.79000 20.344
45.80000 22.247
45.81000 15.160
45.82000 15.182
45.83000 15.160
45.84000 16.168
45.85000 10.004
45.86000 18.178
45.87000 19.417
45.88000 22.526
45.89000 14.100
45.90000 18.193
45.91000 19.238
45.92000 16.265
45.93000 12.054
45.94000 14.121
45.95000 21.378
45.96000 17.278
45.97000 14.252
45.98000 14.139
45.99000 17.261
46.00000 15.105
46.01000 15.414
46.02000 16.188
46.03000 14.041
46.04000 19.275
46.05000 17.325
46.06000 22.237
46.07000 12.170
46.08000 17.148
46.09000 17.183
46.10000 21.184
46.11000 17.455
46.12000 14.195
46.13000 21.351
46.14000 20.196
46.15000 14.037
46.16000 19.100
46.17000 18.215
46.18000 13.236
46.19000 12.019
46.20000 16.204
46.21000 20.353
46.22000 17.218
46.23000 15.175
46.24000 19.384
46.25000 17.180
46.26000 20.097
46.27000 18.082
46.28000 14.300
46.29000 16.274
46.30000 22.385
46.31000 15.166
46.32000 21.468
46.33000 14.162
46.34000 18.059
46.35000 15.124
46.36000 16.265
46.37000 22.287
46.38000 23.404
46.39000 19.256
46.40000 13.100
46.41000 18.202
46.42000 16.247
46.43000 16.170
46.44000 16.295
46.45000 12.090
46.46000 11.082
46.47000 23.279
46.48000 20.095
46.49000 11.300
46.50000 17.294
46.51000 17.128
46.52000 18.180
46.53000 16.114
46.54000 19.307
46.55000 15.112
46.56000 21.471
46.57000 16.036
46.58000 18.193
46.59000 23.262
46.60000 12.205
46.61000 16.321
46.62000 21.325
46.63000 17.215
46.64000 19.392
46.65000 18.421
46.66000 21.338
46.67000 19.266
46.68000 13.137
46.69000 17.156
46.70000 10.961
46.71000 21.331
46.72000 25.371
46.73000 22.288
46.74000 23.435
46.75000 21.268
46.76000 27.170
46.77000 15.033
46.78000 21.439
46.79000 19.221
46.80000 16.131
46.81000 19.202
46.82000 20.320
46.83000 13.346
46.84000 17.218
46.85000 14.151
46.86000 21.261
46.87000 16.273
46.88000 19.263
46.89000 16.126
46.90000 14.184
46.91000 17.111
46.92000 16.022
46.93000 21.381
46.94000 21.360
46.95000 21.273
46.96000 17.218
46.97000 17.439
46.98000 15.463
46.99000 22.198
47.00000 20.091
47.01000 14.136
47.02000 8.121
47.03000 12.008
47.04000 16.007
47.05000 12.995
47.06000 18.184
47.07000 13.243
47.08000 20.400
47.09000 16.148
47.10000 18.261
47.11000 16.202
47.12000 22.353
47.13000 17.225
47.14000 21.324
47.15000 18.173
47.16000 22.506
47.17000 18.179
47.18000 19.125
47.19000 23.246
47.20000 18.318
47.21000 12.227
47.22000 20.258
47.23000 14.106
47.24000 21.385
47.25000 13.195
47.26000 12.073
47.27000 14.147
47.28000 15.308
47.29000 7.081
47.30000 18.247
47.31000 24.473
47.32000 22.211
47.33000 12.185
47.34000 25.369
47.35000 19.229
47.36000 17.249
47.37000 19.248
47.38000 15.017
47.39000 14.283
47.40000 13.157
47.41000 21.139
47.42000 21.142
47.43000 16.162
47.44000 15.304
47.45000 22.238
47.46000 22.186
47.47000 13.178
47.48000 20.147
47.49000 19.426
47.50000 19.354
47.51000 11.149
47.52000 12.221
47.53000 14.047
47.54000 21.209
47.55000 11.199
47.56000 19.289
47.57000 16.183
47.58000 14.219
47.59000 17.350
47.60000 19.233
47.61000 20.338
47.62000 20.480
47.63000 22.270
47.64000 15.482
47.65000 17.118
47.66000 16.144
47.67000 21.232
47.68000 14.123
47.69000 18.103
47.70000 27.342
47.71000 21.342
47.72000 21.263
47.73000 18.123
47.74000 19.321
47.75000 25.116
47.76000 12.096
47.77000 12.192
47.78000 14.264
47.79000 17.278
47.80000 19.253
47.81000 8.048
47.82000 15.250
47.83000 15.141
47.84000 9.093
47.85000 12.172
47.86000 9.202
47.87000 11.101
47.88000 18.084
47.89000 10.233
47.90000 13.145
47.91000 15.247
47.92000 17.484
47.93000 15.128
47.94000 14.147
47.95000 19.192
47.96000 20.367
47.97000 15.161
47.98000 18.153
47.99000 14.152
48.00000 20.257
48.01000 19.325
48.02000 14.084
48.03000 9.232
48.04000 16.181
48.05000 14.046
48.06000 19.312
48.07000 18.141
48.08000 24.224
48.09000 13.299
48.10000 15.471
48.11000 18.142
48.12000 9.073
48.13000 18.212
48.14000 18.154
48.15000 12.279
48.16000 16.279
48.17000 15.232
48.18000 10.133
48.19000 20.374
48.20000 22.271
48.21000 14.085
48.22000 14.148
48.23000 13.046
48.24000 12.154
48.25000 16.160
48.26000 17.403
48.27000 15.138
48.28000 18.158
48.29000 21.272
48.30000 19.370
48.31000 16.253
48.32000 15.311
48.33000 14.142
48.34000 17.275
48.35000 22.242
48.36000 17.455
48.37000 13.133
48.38000 9.094
48.39000 20.190
48.40000 14.244
48.41000 21.283
48.42000 21.079
48.43000 18.006
48.44000 15.282
48.45000 21.251
48.46000 16.274
48.47000 13.289
48.48000 11.966
48.49000 11.191
48.50000 21.451
48.51000 17.293
48.52000 19.483
48.53000 13.163
48.54000 16.226
48.55000 11.000
48.56000 18.455
48.57000 13.093
48.58000 12.000
48.59000 13.242
48.60000 16.254
48.61000 17.117
48.62000 11.158
48.63000 16.248
48.64000 17.148
48.65000 18.060
48.66000 18.298
48.67000 12.183
48.68000 17.109
48.69000 20.124
48.70000 23.107
48.71000 18.355
48.72000 18.293
48.73000 12.150
48.74000 12.289
48.75000 11.180
48.76000 13.325
48.77000 16.087
48.78000 21.241
48.79000 8.978
48.80000 20.364
48.81000 15.994
48.82000 11.141
48.83000 17.262
48.84000 19.374
48.85000 17.162
48.86000 22.370
48.87000 9.075
48.88000 15.199
48.89000 16.146
48.90000 21.443
48.91000 11.149
48.92000 19.192
48.93000 14.128
48.94000 21.474
48.95000 15.076
48.96000 16.382
48.97000 14.044
48.98000 19.205
48.99000 16.270
49.00000 15.220
49.01000 17.391
49.02000 14.315
49.03000 16.295
49.04000 14.116
49.05000 17.196
49.06000 15.146
49.07000 14.279
49.08000 13.055
49.09000 12.085
49.10000 21.271
49.11000 11.951
49.12000 19.133
49.13000 19.317
49.14000 12.195
49.15000 15.273
49.16000 15.030
49.17000 13.224
49.18000 11.194
49.19000 14.142
49.20000 14.290
49.21000 16.253
49.22000 19.164
49.23000 16.195
49.24000 20.405
49.25000 16.173
49.26000 15.277
49.27000 17.307
49.28000 17.337
49.29000 22.175
49.30000 19.210
49.31000 27.268
49.32000 18.165
49.33000 15.107
49.34000 8.222
49.35000 18.512
49.36000 20.429
49.37000 17.330
49.38000 14.046
49.39000 15.091
49.40000 15.109
49.41000 18.355
49.42000 14.197
49.43000 16.419
49.44000 15.186
49.45000 17.130
49.46000 12.060
49.47000 14.243
49.48000 18.178
49.49000 10.186
49.50000 16.293
49.51000 14.048
49.52000 15.401
49.53000 9.088
49.54000 10.003
49.55000 14.266
49.56000 18.363
49.57000 20.104
49.58000 17.271
49.59000 11.258
49.60000 14.097
49.61000 10.297
49.62000 10.043
49.63000 12.325
49.64000 11.091
49.65000 12.189
49.66000 24.366
49.67000 22.415
49.68000 13.105
49.69000 10.109
49.70000 14.067
49.71000 15.146
49.72000 18.268
49.73000 15.086
49.74000 15.076
49.75000 16.270
49.76000 19.217
49.77000 19.344
49.78000 30.362
49.79000 10.087
49.80000 17.210
49.81000 14.255
49.82000 15.185
49.83000 14.202
49.84000 22.325
49.85000 10.109
49.86000 16.134
49.87000 15.308
49.88000 13.107
49.89000 13.182
49.90000 10.044
49.91000 15.288
49.92000 21.226
49.93000 14.236
49.94000 22.240
49.95000 9.088
49.96000 14.162
49.97000 18.171
49.98000 18.351
49.99000 23.332
50.00000 20.451
50.01000 16.262
50.02000 14.155
50.03000 13.173
50.04000 19.150
50.05000 8.111
50.06000 17.103
50.07000 15.101
50.08000 16.363
50.09000 16.346
50.10000 12.274
50.11000 15.289
50.12000 12.122
50.13000 16.331
50.14000 20.274
50.15000 22.277
50.16000 22.290
50.17000 19.152
50.18000 13.047
50.19000 23.300
50.20000 17.271
50.21000 21.323
50.22000 15.319
50.23000 16.969
50.24000 13.311
50.25000 15.143
50.26000 12.077
50.27000 18.290
50.28000 15.372
50.29000 14.164
50.30000 18.244
50.31000 14.330
50.32000 11.114
50.33000 10.140
50.34000 14.955
50.35000 18.299
50.36000 11.234
50.37000 17.253
50.38000 14.312
50.39000 18.185
50.40000 14.139
50.41000 5.161
50.42000 13.186
50.43000 17.141
50.44000 21.346
50.45000 15.163
50.46000 11.936
50.47000 16.283
50.48000 18.170
50.49000 16.187
50.50000 10.217
50.51000 10.196
50.52000 12.115
50.53000 14.154
50.54000 16.224
50.55000 22.387
50.56000 9.117
50.57000 4.028
50.58000 16.231
50.59000 12.116
50.60000 11.131
50.61000 17.138
50.62000 12.196
50.63000 14.095
50.64000 17.122
50.65000 23.471
50.66000 17.212
50.67000 11.114
50.68000 18.235
50.69000 17.276
50.70000 15.193
50.71000 16.124
50.72000 14.157
50.73000 20.190
50.74000 18.200
50.75000 13.169
50.76000 26.418
50.77000 9.245
50.78000 16.265
50.79000 14.194
50.80000 15.174
50.81000 16.240
50.82000 15.293
50.83000 10.092
50.84000 18.321
50.85000 23.497
50.86000 18.328
50.87000 22.026
50.88000 12.189
50.89000 15.286
50.90000 19.334
50.91000 14.197
50.92000 9.078
50.93000 11.251
50.94000 12.223
50.95000 17.195
50.96000 13.025
50.97000 20.134
50.98000 17.253
50.99000 20.348
51.00000 8.150
51.01000 7.057
51.02000 21.560
51.03000 8.164
51.04000 15.180
51.05000 17.155
51.06000 21.219
51.07000 15.251
51.08000 10.142
51.09000 19.260
51.10000 20.193
51.11000 15.391
51.12000 20.324
51.13000 15.072
51.14000 11.092
51.15000 17.336
51.16000 20.188
51.17000 18.306
51.18000 20.200
51.19000 12.139
51.20000 12.196
51.21000 7.152
51.22000 9.194
51.23000 16.295
51.24000 12.203
51.25000 18.491
51.26000 13.138
51.27000 19.199
51.28000 8.078
51.29000 22.401
51.30000 12.103
51.31000 22.311
51.32000 14.297
51.33000 11.253
51.34000 13.097
51.35000 14.305
51.36000 17.052
51.37000 13.115
51.38000 17.222
51.39000 14.262
51.40000 15.190
51.41000 18.371
51.42000 19.249
51.43000 22.451
51.44000 15.239
51.45000 10.049
51.46000 16.254
51.47000 15.196
51.48000 17.061
51.49000 12.150
51.50000 14.259
51.51000 17.235
51.52000 15.347
51.53000 10.177
51.54000 15.187
51.55000 11.127
51.56000 12.187
51.57000 13.106
51.58000 12.080
51.59000 13.023
51.60000 19.253
51.61000 19.162
51.62000 10.080
51.63000 13.081
51.64000 12.279
51.65000 12.090
51.66000 13.098
51.67000 13.029
51.68000 20.158
51.69000 12.138
51.70000 20.411
51.71000 16.078
51.72000 23.335
51.73000 15.253
51.74000 13.098
51.75000 12.227
51.76000 14.199
51.77000 20.174
51.78000 15.266
51.79000 18.324
51.80000 22.459
51.81000 12.315
51.82000 13.332
51.83000 18.278
51.84000 12.143
51.85000 16.157
51.86000 11.281
51.87000 14.277
51.88000 12.270
51.89000 21.367
51.90000 11.169
51.91000 11.127
51.92000 14.147
51.93000 15.217
51.94000 6.039
51.95000 12.242
51.96000 15.185
51.97000 7.981
51.98000 10.178
51.99000 14.253
52.00000 11.258
52.01000 10.076
52.02000 15.095
52.03000 25.353
52.04000 15.205
52.05000 20.302
52.06000 21.222
52.07000 12.105
52.08000 15.147
52.09000 18.242
52.10000 18.081
52.11000 10.992
52.12000 20.188
52.13000 26.303
52.14000 17.968
52.15000 6.029
52.16000 12.201
52.17000 17.263
52.18000 21.338
52.19000 18.303
52.20000 12.198
52.21000 14.186
52.22000 16.956
52.23000 14.169
52.24000 13.280
52.25000 17.259
52.26000 15.133
52.27000 9.069
52.28000 15.025
52.29000 16.099
52.30000 21.114
52.31000 8.036
52.32000 15.187
52.33000 12.222
52.34000 12.171
52.35000 16.163
52.36000 12.209
52.37000 16.251
52.38000 14.125
52.39000 7.228
52.40000 18.220
52.41000 13.069
52.42000 13.000
52.43000 9.087
52.44000 20.231
52.45000 19.336
52.46000 10.199
52.47000 13.074
52.48000 12.191
52.49000 8.222
52.50000 13.102
52.51000 11.139
52.52000 14.115
52.53000 15.253
52.54000 10.107
52.55000 17.340
52.56000 18.334
52.57000 18.138
52.58000 10.199
52.59000 18.177
52.60000 19.184
52.61000 15.146
52.62000 16.094
52.63000 13.230
52.64000 12.127
52.65000 13.218
52.66000 20.169
52.67000 8.135
52.68000 17.134
52.69000 14.267
52.70000 16.125
52.71000 12.157
52.72000 18.136
52.73000 17.242
52.74000 28.249
52.75000 13.059
52.76000 11.214
52.77000 23.297
52.78000 16.238
52.79000 19.219
52.80000 17.277
52.81000 11.258
52.82000 22.158
52.83000 16.214
52.84000 13.223
52.85000 18.087
52.86000 13.260
52.87000 7.230
52.88000 15.128
52.89000 10.192
52.90000 19.156
52.91000 9.016
52.92000 6.046
52.93000 15.087
52.94000 12.279
52.95000 9.069
52.96000 17.179
52.97000 12.067
52.98000 14.326
52.99000 14.161
53.00000 15.983
53.01000 13.241
53.02000 10.235
53.03000 15.265
53.04000 14.017
53.05000 6.992
53.06000 10.192
53.07000 15.270
53.08000 15.328
53.09000 16.196
53.10000 14.215
53.11000 14.198
53.12000 8.062
53.13000 11.105
53.14000 17.116
53.15000 10.022
53.16000 9.282
53.17000 17.239
53.18000 16.142
53.19000 17.314
53.20000 9.175
53.21000 15.260
53.22000 15.252
53.23000 9.162
53.24000 14.220
53.25000 14.294
53.26000 12.239
53.27000 19.229
53.28000 16.279
53.29000 10.089
53.30000 10.048
53.31000 9.141
53.32000 18.291
53.33000 12.117
53.34000 12.158
53.35000 6.037
53.36000 20.185
53.37000 9.166
53.38000 22.479
53.39000 10.122
53.40000 11.234
53.41000 18.391
53.42000 12.105
53.43000 15.181
53.44000 15.113
53.45000 16.164
53.46000 13.136
53.47000 9.194
53.48000 15.094
53.49000 11.122
53.50000 16.109
53.51000 10.092
53.52000 15.161
53.53000 24.308
53.54000 11.266
53.55000 16.305
53.56000 24.490
53.57000 15.089
53.58000 10.066
53.59000 14.239
53.60000 17.207
53.61000 12.140
53.62000 16.022
53.63000 12.137
53.64000 12.099
53.65000 10.250
53.66000 13.240
53.67000 18.387
53.68000 10.156
53.69000 9.152
53.70000 11.227
53.71000 17.163
53.72000 13.214
53.73000 18.150
53.74000 12.102
53.75000 16.204
53.76000 10.123
53.77000 10.137
53.78000 14.181
53.79000 16.266
53.80000 11.039
53.81000 14.140
53.82000 8.057
53.83000 12.320
53.84000 14.179
53.85000 13.213
53.86000 11.133
53.87000 14.102
53.88000 17.281
53.89000 7.031
53.90000 18.362
53.91000 12.173
53.92000 16.105
53.93000 12.116
53.94000 15.111
53.95000 16.237
53.96000 8.121
53.97000 12.145
53.98000 13.142
53.99000 12.190
54.00000 8.029
54.01000 13.347
54.02000 12.189
54.03000 8.049
54.04000 18.361
54.05000 15.182
54.06000 16.164
54.07000 14.298
54.08000 9.030
54.09000 18.410
54.10000 15.230
54.11000 10.116
54.12000 11.200
54.13000 12.216
54.14000 15.190
54.15000 12.118
54.16000 10.163
54.17000 16.192
54.18000 15.244
54.19000 17.407
54.20000 12.119
54.21000 15.173
54.22000 11.207
54.23000 12.244
54.24000 11.116
54.25000 9.025
54.26000 16.130
54.27000 10.022
54.28000 17.192
54.29000 10.090
54.30000 9.105
54.31000 17.277
54.32000 10.174
54.33000 16.327
54.34000 15.266
54.35000 11.050
54.36000 13.075
54.37000 16.195
54.38000 17.110
54.39000 13.215
54.40000 7.132
54.41000 11.194
54.42000 16.251
54.43000 9.154
54.44000 12.297
54.45000 11.145
54.46000 11.171
54.47000 13.041
54.48000 15.112
54.49000 17.095
54.50000 16.138
54.51000 18.341
54.52000 9.097
54.53000 9.077
54.54000 14.219
54.55000 13.176
54.56000 13.200
54.57000 11.142
54.58000 11.202
54.59000 12.136
54.60000 10.110
54.61000 11.099
54.62000 7.149
54.63000 14.201
54.64000 12.040
54.65000 13.216
54.66000 18.203
54.67000 14.211
54.68000 11.107
54.69000 15.349
54.70000 14.097
54.71000 9.144
54.72000 7.156
54.73000 11.196
54.74000 11.109
54.75000 15.163
54.76000 13.077
54.77000 16.212
54.78000 14.145
54.79000 12.124
54.80000 14.266
54.81000 13.230
54.82000 14.117
54.83000 19.492
54.84000 13.260
54.85000 18.226
54.86000 10.201
54.87000 18.326
54.88000 17.037
54.89000 15.169
54.90000 10.022
54.91000 15.405
54.92000 18.186
54.93000 12.234
54.94000 16.225
54.95000 10.219
54.96000 16.081
54.97000 15.216
54.98000 10.203
54.99000 18.058
55.00000 14.058
55.01000 12.173
55.02000 14.264
55.03000 10.081
55.04000 12.026
55.05000 14.200
55.06000 18.259
55.07000 18.316
55.08000 10.292
55.09000 9.118
55.10000 13.307
55.11000 18.284
55.12000 9.226
55.13000 14.226
55.14000 14.193
55.15000 10.184
55.16000 8.150
55.17000 13.328
55.18000 15.202
55.19000 16.176
55.20000 17.225
55.21000 10.209
55.22000 14.182
55.23000 11.091
55.24000 18.460
55.25000 9.099
55.26000 13.171
55.27000 11.212
55.28000 11.160
55.29000 4.100
55.30000 6.097
55.31000 13.119
55.32000 14.123
55.33000 13.159
55.34000 14.166
55.35000 12.104
55.36000 15.299
55.37000 19.140
55.38000 12.246
55.39000 4.054
55.40000 20.330
55.41000 10.096
55.42000 17.136
55.43000 8.152
55.44000 13.076
55.45000 13.158
55.46000 18.283
55.47000 14.306
55.48000 16.243
55.49000 15.348
55.50000 10.096
55.51000 9.253
55.52000 18.134
55.53000 16.199
55.54000 16.235
55.55000 9.141
55.56000 13.237
55.57000 13.236
55.58000 10.041
55.59000 16.214
55.60000 14.381
55.61000 9.995
55.62000 13.154
55.63000 14.197
55.64000 21.271
55.65000 11.225
55.66000 15.227
55.67000 12.217
55.68000 15.313
55.69000 10.163
55.70000 10.175
55.71000 14.193
55.72000 11.223
55.73000 12.075
55.74000 16.214
55.75000 10.057
55.76000 19.131
55.77000 16.057
55.78000 11.171
55.79000 12.063
55.80000 15.381
55.81000 8.111
55.82000 16.241
55.83000 10.020
55.84000 12.201
55.85000 12.190
55.86000 9.077
55.87000 16.302
55.88000 13.272
55.89000 9.139
55.90000 15.134
55.91000 8.030
55.92000 17.310
55.93000 13.165
55.94000 15.044
55.95000 10.150
55.96000 6.050
55.97000 12.157
55.98000 16.240
55.99000 14.118
56.00000 9.218
56.01000 15.238
56.02000 17.174
56.03000 10.086
56.04000 8.088
56.05000 11.202
56.06000 11.194
56.07000 11.156
56.08000 12.127
56.09000 23.396
56.10000 13.107
56.11000 12.165
56.12000 18.175
56.13000 10.080
56.14000 16.205
56.15000 8.129
56.16000 17.094
56.17000 12.125
56.18000 13.155
56.19000 11.111
56.20000 9.067
56.21000 12.072
56.22000 15.303
56.23000 16.199
56.24000 10.121
56.25000 14.370
56.26000 8.188
56.27000 5.011
56.28000 16.307
56.29000 11.051
56.30000 13.036
56.31000 10.048
56.32000 6.177
56.33000 13.996
56.34000 10.125
56.35000 7.110
56.36000 11.189
56.37000 8.178
56.38000 12.235
56.39000 10.112
56.40000 10.963
56.41000 11.237
56.42000 8.077
56.43000 12.161
56.44000 13.410
56.45000 10.207
56.46000 19.354
56.47000 9.185
56.48000 11.224
56.49000 5.049
56.50000 14.177
56.51000 12.143
56.52000 7.051
56.53000 9.981
56.54000 18.260
56.55000 18.235
56.56000 8.018
56.57000 8.074
56.58000 12.130
56.59000 14.205
56.60000 11.170
56.61000 13.095
56.62000 10.124
56.63000 13.071
56.64000 11.112
56.65000 8.112
56.66000 19.243
56.67000 12.057
56.68000 9.093
56.69000 7.165
56.70000 18.084
56.71000 12.177
56.72000 4.020
56.73000 11.013
56.74000 15.103
56.75000 9.144
56.76000 19.403
56.77000 6.230
56.78000 17.277
56.79000 5.097
56.80000 9.099
56.81000 10.102
56.82000 12.151
56.83000 16.141
56.84000 10.205
56.85000 16.286
56.86000 14.068
56.87000 10.116
56.88000 13.172
56.89000 16.156
56.90000 14.301
56.91000 13.002
56.92000 6.026
56.93000 16.272
56.94000 12.048
56.95000 12.068
56.96000 12.087
56.97000 7.023
56.98000 16.272
56.99000 10.109
57.00000 16.156
57.01000 12.092
57.02000 10.993
57.03000 21.361
57.04000 13.116
57.05000 15.289
57.06000 12.100
57.07000 9.080
57.08000 10.973
57.09000 14.169
57.10000 12.113
57.11000 8.100
57.12000 8.105
57.13000 11.194
57.14000 11.068
57.15000 12.194
57.16000 12.147
57.17000 14.231
57.18000 13.163
57.19000 4.087
57.20000 11.037
57.21000 15.144
57.22000 9.169
57.23000 21.106
57.24000 13.154
57.25000 13.110
57.26000 16.211
57.27000 12.070
57.28000 14.273
57.29000 10.178
57.30000 14.174
57.31000 8.105
57.32000 9.999
57.33000 8.246
57.34000 4.070
57.35000 14.063
57.36000 16.312
57.37000 10.153
57.38000 12.075
57.39000 19.296
57.40000 11.348
57.41000 12.108
57.42000 14.257
57.43000 13.220
57.44000 18.297
57.45000 14.359
57.46000 13.220
57.47000 16.242
57.48000 11.168
57.49000 16.051
57.50000 14.251
57.51000 18.304
57.52000 17.340
57.53000 13.148
57.54000 12.264
57.55000 22.175
57.56000 18.124
57.57000 12.248
57.58000 10.096
57.59000 16.311
57.60000 21.364
57.61000 11.097
57.62000 15.074
57.63000 17.341
57.64000 20.238
57.65000 20.182
57.66000 14.118
57.67000 12.996
57.68000 7.033
57.69000 11.232
57.70000 13.432
57.71000 8.077
57.72000 13.197
57.73000 19.459
57.74000 9.083
57.75000 14.156
57.76000 16.200
57.77000 15.190
57.78000 17.073
57.79000 19.404
57.80000 11.224
57.81000 12.030
57.82000 17.353
57.83000 10.102
57.84000 11.003
57.85000 7.091
57.86000 9.047
57.87000 12.102
57.88000 14.189
57.89000 9.138
57.90000 12.105
57.91000 10.126
57.92000 7.117
57.93000 16.167
57.94000 16.082
57.95000 21.332
57.96000 14.130
57.97000 14.207
57.98000 17.179
57.99000 15.187
58.00000 20.247
58.01000 9.131
58.02000 11.241
58.03000 16.217
58.04000 10.195
58.05000 14.067
58.06000 11.061
58.07000 6.048
58.08000 13.173
58.09000 8.009
58.10000 4.970
58.11000 11.221
58.12000 11.154
58.13000 6.037
58.14000 8.112
58.15000 11.155
58.16000 9.145
58.17000 5.038
58.18000 12.040
58.19000 7.175
58.20000 5.058
58.21000 10.099
58.22000 10.075
58.23000 14.183
58.24000 8.096
58.25000 10.114
58.26000 15.087
58.27000 13.254
58.28000 7.057
58.29000 14.169
58.30000 10.044
58.31000 20.257
58.32000 11.188
58.33000 15.271
58.34000 12.191
58.35000 12.184
58.36000 16.227
58.37000 17.165
58.38000 16.114
58.39000 9.200
58.40000 11.113
58.41000 13.007
58.42000 9.095
58.43000 9.134
58.44000 20.263
58.45000 15.292
58.46000 13.210
58.47000 8.118
58.48000 8.113
58.49000 10.121
58.50000 13.998
58.51000 7.212
58.52000 10.047
58.53000 9.158
58.54000 10.106
58.55000 8.155
58.56000 10.135
58.57000 16.327
58.58000 10.127
58.59000 17.309
58.60000 5.135
58.61000 13.209
58.62000 13.112
58.63000 13.238
58.64000 9.189
58.65000 10.190
58.66000 12.167
58.67000 8.169
58.68000 3.055
58.69000 6.160
58.70000 11.176
58.71000 12.212
58.72000 12.279
58.73000 11.050
58.74000 19.138
58.75000 17.241
58.76000 11.074
58.77000 10.133
58.78000 6.056
58.79000 9.053
58.80000 12.130
58.81000 9.102
58.82000 14.112
58.83000 10.103
58.84000 10.130
58.85000 5.087
58.86000 10.126
58.87000 9.200
58.88000 5.074
58.89000 12.131
58.90000 6.023
58.91000 9.130
58.92000 20.207
58.93000 17.124
58.94000 9.166
58.95000 17.274
58.96000 15.181
58.97000 8.071
58.98000 16.342
58.99000 13.299
59.00000 13.182
59.01000 5.120
59.02000 18.368
59.03000 7.041
59.04000 17.157
59.05000 13.264
59.06000 10.085
59.07000 11.240
59.08000 12.265
59.09000 11.189
59.10000 13.070
59.11000 5.101
59.12000 9.058
59.13000 14.407
59.14000 11.113
59.15000 17.395
59.16000 9.085
59.17000 8.046
59.18000 9.036
59.19000 11.236
59.20000 8.067
59.21000 13.132
59.22000 13.127
59.23000 9.162
59.24000 7.021
59.25000 10.049
59.26000 10.041
59.27000 12.142
59.28000 9.053
59.29000 10.060
59.30000 10.101
59.31000 8.090
59.32000 11.210
59.33000 11.319
59.34000 3.971
59.35000 14.123
59.36000 12.186
59.37000 10.249
59.38000 10.116
59.39000 9.044
59.40000 11.131
59.41000 19.339
59.42000 7.212
59.43000 12.165
59.44000 11.121
59.45000 7.150
59.46000 10.160
59.47000 7.027
59.48000 11.395
59.49000 12.071
59.50000 14.271
59.51000 9.027
59.52000 12.211
59.53000 9.141
59.54000 16.090
59.55000 4.030
59.56000 20.222
59.57000 12.091
59.58000 8.054
59.59000 15.127
59.60000 14.149
59.61000 11.015
59.62000 13.186
59.63000 5.214
59.64000 9.120
59.65000 8.139
59.66000 7.026
59.67000 11.087
59.68000 8.131
59.69000 6.993
59.70000 9.055
59.71000 14.140
59.72000 16.057
59.73000 14.139
59.74000 12.065
59.75000 9.130
59.76000 11.149
59.77000 12.179
59.78000 10.202
59.79000 11.116
59.80000 6.029
59.81000 8.126
59.82000 11.163
59.83000 15.178
59.84000 7.045
59.85000 5.056
59.86000 11.054
59.87000 6.075
59.88000 10.087
59.89000 12.149
59.90000 13.091
59.91000 16.211
59.92000 10.087
59.93000 9.140
59.94000 12.034
59.95000 11.142
59.96000 9.200
59.97000 6.088
59.98000 12.095
59.99000 12.213
60.00000 10.179
60.01000 13.102
60.02000 12.240
60.03000 9.207
60.04000 14.164
60.05000 10.241
60.06000 11.150
60.07000 7.142
60.08000 6.018
60.09000 4.128
60.10000 7.079
60.11000 11.230
60.12000 13.035
60.13000 16.223
60.14000 8.038
60.15000 9.047
60.16000 10.152
60.17000 14.283
60.18000 8.161
60.19000 10.056
60.20000 13.412
60.21000 9.122
60.22000 9.087
60.23000 13.010
60.24000 12.107
60.25000 15.275
60.26000 12.147
60.27000 10.125
60.28000 14.152
60.29000 12.047
60.30000 13.078
60.31000 11.072
60.32000 11.124
60.33000 12.038
60.34000 12.221
60.35000 12.145
60.36000 9.174
60.37000 12.245
60.38000 10.129
60.39000 8.063
60.40000 6.045
60.41000 11.221
60.42000 11.081
60.43000 6.099
60.44000 9.011
60.45000 9.156
60.46000 12.140
60.47000 5.110
60.48000 10.146
60.49000 8.085
60.50000 4.901
60.51000 12.160
60.52000 4.031
60.53000 20.374
60.54000 9.082
60.55000 12.173
60.56000 9.195
60.57000 9.054
60.58000 13.255
60.59000 12.984
60.60000 7.069
60.61000 13.241
60.62000 18.318
60.63000 7.035
60.64000 9.120
60.65000 10.239
60.66000 13.190
60.67000 5.057
60.68000 8.115
60.69000 8.228
60.70000 2.979
60.71000 7.019
60.72000 8.960
60.73000 11.162
60.74000 10.137
60.75000 12.213
60.76000 9.975
60.77000 8.113
60.78000 10.253
60.79000 4.940
60.80000 16.157
60.81000 10.026
60.82000 8.166
60.83000 13.170
60.84000 9.105
60.85000 9.123
60.86000 11.100
60.87000 8.020
60.88000 6.039
60.89000 10.156
60.90000 12.261
60.91000 7.165
60.92000 13.089
60.93000 8.064
60.94000 13.097
60.95000 14.024
60.96000 8.198
60.97000 14.166
60.98000 12.123
60.99000 5.092
61.00000 10.126
61.01000 10.157
61.02000 7.039
61.03000 16.308
61.04000 16.217
61.05000 12.006
61.06000 10.090
61.07000 7.093
61.08000 13.205
61.09000 6.198
61.10000 6.063
61.11000 14.351
61.12000 8.029
61.13000 9.985
61.14000 12.239
61.15000 13.113
61.16000 7.080
61.17000 9.103
61.18000 12.009
61.19000 8.081
61.20000 7.044
61.21000 6.086
61.22000 5.049
61.23000 8.085
61.24000 7.001
61.25000 11.121
61.26000 11.171
61.27000 13.111
61.28000 9.093
61.29000 4.086
61.30000 9.126
61.31000 12.107
61.32000 10.085
61.33000 6.097
61.34000 7.155
61.35000 12.040
61.36000 7.126
61.37000 12.176
61.38000 7.997
61.39000 18.222
61.40000 11.039
61.41000 10.139
61.42000 14.115
61.43000 12.197
61.44000 10.261
61.45000 6.133
61.46000 3.036
61.47000 9.197
61.48000 11.136
61.49000 6.061
61.50000 6.991
61.51000 9.098
61.52000 10.086
61.53000 14.104
61.54000 16.484
61.55000 16.185
61.56000 11.053
61.57000 8.129
61.58000 7.033
61.59000 11.253
61.60000 10.026
61.61000 6.180
61.62000 12.324
61.63000 13.141
61.64000 7.954
61.65000 9.020
61.66000 8.069
61.67000 9.142
61.68000 11.074
61.69000 9.116
61.70000 12.191
61.71000 11.105
61.72000 7.121
61.73000 8.122
61.74000 10.098
61.75000 8.122
61.76000 13.125
61.77000 12.082
61.78000 12.229
61.79000 9.123
61.80000 10.173
61.81000 9.036
61.82000 10.117
61.83000 11.192
61.84000 9.062
61.85000 7.079
61.86000 10.131
61.87000 10.156
61.88000 12.177
61.89000 10.134
61.90000 8.097
61.91000 6.039
61.92000 7.077
61.93000 8.143
61.94000 13.273
61.95000 10.167
61.96000 7.098
61.97000 16.237
61.98000 12.129
61.99000 7.086
62.00000 8.020
62.01000 7.070
62.02000 12.248
62.03000 12.196
62.04000 8.082
62.05000 4.040
62.06000 10.153
62.07000 16.230
62.08000 4.976
62.09000 11.137
62.10000 7.150
62.11000 7.023
62.12000 4.065
62.13000 9.022
62.14000 6.218
62.15000 9.105
62.16000 8.145
62.17000 11.115
62.18000 15.158
62.19000 6.116
62.20000 15.152
62.21000 11.085
62.22000 11.224
62.23000 5.045
62.24000 14.145
62.25000 15.133
62.26000 13.367
62.27000 6.028
62.28000 12.153
62.29000 5.994
62.30000 8.069
62.31000 10.005
62.32000 8.036
62.33000 5.076
62.34000 10.161
62.35000 12.229
62.36000 7.126
62.37000 14.186
62.38000 15.295
62.39000 7.070
62.40000 8.092
62.41000 4.069
62.42000 8.142
62.43000 9.108
62.44000 9.025
62.45000 10.069
62.46000 8.096
62.47000 7.060
62.48000 11.177
62.49000 6.031
62.50000 4.900
62.51000 3.980
62.52000 8.072
62.53000 12.306
62.54000 14.117
62.55000 7.141
62.56000 9.056
62.57000 11.162
62.58000 9.282
62.59000 13.225
62.60000 7.145
62.61000 5.152
62.62000 9.214
62.63000 11.196
62.64000 11.154
62.65000 9.109
62.66000 14.052
62.67000 11.084
62.68000 13.194
62.69000 8.157
62.70000 11.204
62.71000 8.951
62.72000 13.286
62.73000 10.039
62.74000 11.209
62.75000 9.087
62.76000 7.195
62.77000 8.178
62.78000 13.043
62.79000 10.207
62.80000 14.184
62.81000 5.955
62.82000 11.017
62.83000 10.118
62.84000 17.050
62.85000 7.178
62.86000 9.239
62.87000 13.197
62.88000 11.180
62.89000 8.047
62.90000 8.052
62.91000 7.172
62.92000 9.143
62.93000 7.103
62.94000 10.185
62.95000 12.113
62.96000 13.276
62.97000 6.993
62.98000 16.251
62.99000 4.045
63.00000 13.116
63.01000 15.082
63.02000 10.162
63.03000 14.213
63.04000 12.067
63.05000 9.065
63.06000 8.145
63.07000 5.050
63.08000 4.973
63.09000 9.102
63.10000 9.159
63.11000 6.050
63.12000 17.249
63.13000 8.023
63.14000 12.170
63.15000 11.197
63.16000 5.068
63.17000 10.094
63.18000 7.147
63.19000 11.132
63.20000 13.144
63.21000 7.144
63.22000 12.193
63.23000 10.129
63.24000 8.142
63.25000 10.112
63.26000 8.093
63.27000 10.259
63.28000 14.270
63.29000 8.096
63.30000 9.051
63.31000 10.130
63.32000 12.008
63.33000 6.019
63.34000 4.104
63.35000 5.139
63.36000 5.107
63.37000 6.145
63.38000 14.046
63.39000 12.157
63.40000 5.087
63.41000 9.166
63.42000 6.079
63.43000 9.157
63.44000 6.189
63.45000 9.115
63.46000 11.216
63.47000 9.212
63.48000 8.142
63.49000 15.006
63.50000 11.071
63.51000 10.290
63.52000 9.036
63.53000 7.084
63.54000 14.072
63.55000 7.238
63.56000 8.000
63.57000 3.988
63.58000 13.224
63.59000 10.206
63.60000 13.027
63.61000 5.172
63.62000 14.263
63.63000 9.219
63.64000 9.183
63.65000 7.975
63.66000 6.045
63.67000 10.143
63.68000 6.059
63.69000 11.096
63.70000 11.151
63.71000 4.969
63.72000 7.046
63.73000 11.090
63.74000 9.004
63.75000 10.076
63.76000 10.135
63.77000 9.280
63.78000 15.180
63.79000 12.260
63.80000 5.039
63.81000 3.001
63.82000 6.147
63.83000 8.064
63.84000 12.169
63.85000 6.078
63.86000 7.142
63.87000 10.277
63.88000 9.038
63.89000 11.257
63.90000 13.170
63.91000 6.094
63.92000 3.090
63.93000 8.986
63.94000 11.165
63.95000 6.139
63.96000 15.088
63.97000 8.120
63.98000 12.298
63.99000 11.175
64.00000 7.050
64.01000 7.095
64.02000 5.025
64.03000 14.339
64.04000 8.308
64.05000 18.209
64.06000 6.107
64.07000 8.187
64.08000 9.008
64.09000 11.120
64.10000 13.140
64.11000 8.150
64.12000 11.090
64.13000 8.066
64.14000 11.192
64.15000 8.280
64.16000 14.291
64.17000 10.119
64.18000 7.178
64.19000 9.068
64.20000 8.103
64.21000 6.113
64.22000 8.101
64.23000 11.103
64.24000 7.250
64.25000 12.084
64.26000 2.032
64.27000 8.132
64.28000 10.087
64.29000 10.131
64.30000 12.285
64.31000 7.202
64.32000 8.190
64.33000 7.039
64.34000 3.074
64.35000 10.122
64.36000 8.052
64.37000 17.265
64.38000 9.169
64.39000 12.236
64.40000 12.306
64.41000 8.092
64.42000 7.096
64.43000 10.077
64.44000 9.085
64.45000 14.194
64.46000 13.169
64.47000 7.104
64.48000 10.107
64.49000 8.109
64.50000 5.237
64.51000 11.253
64.52000 8.110
64.53000 8.196
64.54000 8.017
64.55000 9.072
64.56000 5.998
64.57000 6.098
64.58000 13.110
64.59000 5.111
64.60000 8.153
64.61000 8.105
64.62000 9.994
64.63000 15.320
64.64000 12.186
64.65000 2.970
64.66000 9.118
64.67000 16.187
64.68000 5.994
64.69000 7.017
64.70000 13.174
64.71000 11.114
64.72000 6.066
64.73000 9.068
64.74000 13.180
64.75000 11.079
64.76000 8.219
64.77000 10.146
64.78000 9.100
64.79000 8.110
64.80000 11.341
64.81000 13.046
64.82000 6.062
64.83000 15.153
64.84000 8.081
64.85000 16.311
64.86000 10.179
64.87000 11.105
64.88000 7.066
64.89000 14.162
64.90000 6.994
64.91000 9.319
64.92000 6.106
64.93000 9.067
64.94000 8.177
64.95000 14.993
64.96000 5.040
64.97000 10.112
64.98000 5.115
64.99000 4.035
65.00000 8.101
