20.00000 491.305
20.01000 494.593
20.02000 498.350
20.03000 499.900
20.04000 492.747
20.05000 484.705
20.06000 478.766
20.07000 482.039
20.08000 484.967
20.09000 486.271
20.10000 484.606
20.11000 482.877
20.12000 482.625
20.13000 484.187
20.14000 485.750
20.15000 484.802
20.16000 481.860
20.17000 479.059
20.18000 482.552
20.19000 489.426
20.20000 495.690
20.21000 491.147
20.22000 482.635
20.23000 474.781
20.24000 481.502
20.25000 490.778
20.26000 498.466
20.27000 496.817
20.28000 493.643
20.29000 489.012
20.30000 478.738
20.31000 467.901
20.32000 459.939
20.33000 466.053
20.34000 471.356
20.35000 474.572
20.36000 474.038
20.37000 473.428
20.38000 468.127
20.39000 457.174
20.40000 446.231
20.41000 447.695
20.42000 458.830
20.43000 469.839
20.44000 475.537
20.45000 478.432
20.46000 481.132
20.47000 480.499
20.48000 478.663
20.49000 476.972
20.50000 470.378
20.51000 463.408
20.52000 458.059
20.53000 462.059
20.54000 467.554
20.55000 472.870
20.56000 477.504
20.57000 482.071
20.58000 485.409
20.59000 489.952
20.60000 493.503
20.61000 494.320
20.62000 490.306
20.63000 486.201
20.64000 484.668
20.65000 486.180
20.66000 487.693
20.67000 486.400
20.68000 482.967
20.69000 479.495
20.70000 474.493
20.71000 468.695
20.72000 463.094
20.73000 460.745
20.74000 459.551
20.75000 458.454
20.76000 461.213
20.77000 464.503
20.78000 467.192
20.79000 466.490
20.80000 465.255
20.81000 464.921
20.82000 467.947
20.83000 471.292
20.84000 473.725
20.85000 472.203
20.86000 470.881
20.87000 468.157
20.88000 463.000
20.89000 457.798
20.90000 459.473
20.91000 469.125
20.92000 478.763
20.93000 483.869
20.94000 485.541
20.95000 487.110
20.96000 484.813
20.97000 480.542
20.98000 476.563
20.99000 477.269
21.00000 479.610
21.01000 481.756
21.02000 478.945
21.03000 475.400
21.04000 471.987
21.05000 469.304
21.06000 466.733
21.07000 464.007
21.08000 460.715
21.09000 457.370
21.10000 454.950
21.11000 456.578
21.12000 457.976
21.13000 459.918
21.14000 462.789
21.15000 465.674
21.16000 469.952
21.17000 475.814
21.18000 481.659
21.19000 482.866
21.20000 480.650
21.21000 478.390
21.22000 474.576
21.23000 469.983
21.24000 465.972
21.25000 471.047
21.26000 479.239
21.27000 486.729
21.28000 487.836
21.29000 487.506
21.30000 485.697
21.31000 475.858
21.32000 464.811
21.33000 457.994
21.34000 466.428
21.35000 476.238
21.36000 483.299
21.37000 475.527
21.38000 469.054
21.39000 465.292
21.40000 466.074
21.41000 466.928
21.42000 470.990
21.43000 478.633
21.44000 486.253
21.45000 483.643
21.46000 473.669
21.47000 463.891
21.48000 460.864
21.49000 461.164
21.50000 461.870
21.51000 468.731
21.52000 477.666
21.53000 485.819
21.54000 485.589
21.55000 483.695
21.56000 482.437
21.57000 484.567
21.58000 487.197
21.59000 488.012
21.60000 482.397
21.61000 476.217
21.62000 471.792
21.63000 466.913
21.64000 463.170
21.65000 462.687
21.66000 467.576
21.67000 472.544
21.68000 480.594
21.69000 492.019
21.70000 503.401
21.71000 504.714
21.72000 498.881
21.73000 493.173
21.74000 491.576
21.75000 491.970
21.76000 492.401
21.77000 493.355
21.78000 494.482
21.79000 495.508
21.80000 499.080
21.81000 502.743
21.82000 506.380
21.83000 509.877
21.84000 513.353
21.85000 515.212
21.86000 511.444
21.87000 507.195
21.88000 504.168
21.89000 508.511
21.90000 512.059
21.91000 515.985
21.92000 520.520
21.93000 525.064
21.94000 530.460
21.95000 536.770
21.96000 543.054
21.97000 535.947
21.98000 519.610
21.99000 503.689
22.00000 500.845
22.01000 504.227
22.02000 507.716
22.03000 512.741
22.04000 518.265
22.05000 523.282
22.06000 516.036
22.07000 507.261
22.08000 500.261
22.09000 502.357
22.10000 505.736
22.11000 508.181
22.12000 507.433
22.13000 506.419
22.14000 505.700
22.15000 504.717
22.16000 503.961
22.17000 503.366
22.18000 503.027
22.19000 502.691
22.20000 502.140
22.21000 501.364
22.22000 500.592
22.23000 499.472
22.24000 498.128
22.25000 496.660
22.26000 491.473
22.27000 484.545
22.28000 478.262
22.29000 480.917
22.30000 486.430
22.31000 491.426
22.32000 490.039
22.33000 487.607
22.34000 485.875
22.35000 487.667
22.36000 489.946
22.37000 490.049
22.38000 482.837
22.39000 475.032
22.40000 469.534
22.41000 471.983
22.42000 474.079
22.43000 476.314
22.44000 478.770
22.45000 481.228
22.46000 479.112
22.47000 472.276
22.48000 465.476
22.49000 464.050
22.50000 466.236
22.51000 468.298
22.52000 466.765
22.53000 463.577
22.54000 460.854
22.55000 464.376
22.56000 469.862
22.57000 474.820
22.58000 470.331
22.59000 464.630
22.60000 458.988
22.61000 453.637
22.62000 448.325
22.63000 444.194
22.64000 443.963
22.65000 444.040
22.66000 444.094
22.67000 440.809
22.68000 438.228
22.69000 441.770
22.70000 454.707
22.71000 467.747
22.72000 472.452
22.73000 468.725
22.74000 465.021
22.75000 462.267
22.76000 460.176
22.77000 458.166
22.78000 458.409
22.79000 459.672
22.80000 460.630
22.81000 457.608
22.82000 453.357
22.83000 449.523
22.84000 451.073
22.85000 453.411
22.86000 456.123
22.87000 460.641
22.88000 465.399
22.89000 467.637
22.90000 461.699
22.91000 455.134
22.92000 450.561
22.93000 450.282
22.94000 450.189
22.95000 449.629
22.96000 448.363
22.97000 447.091
22.98000 448.698
22.99000 453.161
23.00000 457.595
23.01000 456.464
23.02000 451.765
23.03000 447.228
23.04000 446.970
23.05000 448.615
23.06000 450.731
23.07000 458.844
23.08000 468.777
23.09000 477.710
23.10000 480.122
23.11000 481.075
23.12000 479.840
23.13000 468.214
23.14000 455.245
23.15000 446.814
23.16000 452.856
23.17000 459.979
23.18000 464.913
23.19000 460.340
23.20000 456.649
23.21000 453.208
23.22000 450.134
23.23000 447.064
23.24000 446.957
23.25000 449.728
23.26000 452.479
23.27000 452.262
23.28000 450.172
23.29000 448.029
23.30000 444.538
23.31000 440.456
23.32000 436.635
23.33000 436.046
23.34000 436.420
23.35000 436.756
23.36000 443.098
23.37000 449.688
23.38000 455.509
23.39000 457.743
23.40000 459.523
23.41000 460.121
23.42000 457.019
23.43000 453.649
23.44000 451.328
23.45000 461.088
23.46000 468.719
23.47000 469.018
23.48000 458.657
23.49000 448.208
23.50000 446.699
23.51000 453.706
23.52000 460.659
23.53000 463.436
23.54000 463.577
23.55000 463.774
23.56000 465.347
23.57000 467.512
23.58000 469.491
23.59000 469.221
23.60000 468.292
23.61000 467.461
23.62000 466.685
23.63000 466.018
23.64000 466.215
23.65000 470.362
23.66000 474.998
23.67000 479.883
23.68000 485.532
23.69000 491.235
23.70000 495.140
23.71000 493.026
23.72000 491.299
23.73000 494.211
23.74000 503.746
23.75000 513.330
23.76000 515.767
23.77000 511.529
23.78000 507.326
23.79000 510.965
23.80000 519.306
23.81000 527.410
23.82000 529.915
23.83000 530.055
23.84000 530.384
23.85000 532.923
23.86000 536.100
23.87000 538.934
23.88000 544.084
23.89000 548.954
23.90000 554.147
23.91000 560.793
23.92000 567.615
23.93000 572.788
23.94000 572.968
23.95000 572.806
23.96000 572.696
23.97000 577.669
23.98000 581.500
23.99000 583.227
24.00000 582.007
24.01000 580.764
24.02000 576.054
24.03000 568.167
24.04000 560.351
24.05000 560.836
24.06000 566.267
24.07000 571.061
24.08000 561.402
24.09000 545.742
24.10000 531.366
24.11000 531.651
24.12000 536.086
24.13000 540.033
24.14000 520.530
24.15000 499.758
24.16000 482.916
24.17000 483.406
24.18000 485.945
24.19000 487.461
24.20000 485.929
24.21000 484.195
24.22000 483.022
24.23000 482.862
24.24000 482.765
24.25000 481.334
24.26000 478.066
24.27000 474.787
24.28000 472.161
24.29000 470.122
24.30000 468.103
24.31000 464.330
24.32000 459.608
24.33000 455.072
24.34000 454.614
24.35000 455.820
24.36000 456.601
24.37000 452.659
24.38000 447.402
24.39000 442.737
24.40000 440.050
24.41000 438.039
24.42000 435.555
24.43000 431.032
24.44000 426.272
24.45000 423.650
24.46000 427.281
24.47000 431.315
24.48000 434.028
24.49000 426.868
24.50000 421.343
24.51000 420.015
24.52000 424.363
24.53000 428.737
24.54000 427.680
24.55000 421.838
24.56000 416.057
24.57000 416.199
24.58000 419.742
24.59000 423.133
24.60000 423.291
24.61000 422.153
24.62000 420.976
24.63000 419.384
24.64000 417.677
24.65000 416.167
24.66000 416.395
24.67000 416.865
24.68000 418.848
24.69000 427.269
24.70000 436.416
24.71000 440.630
24.72000 430.663
24.73000 419.812
24.74000 412.556
24.75000 418.279
24.76000 422.776
24.77000 424.338
24.78000 422.004
24.79000 419.649
24.80000 415.965
24.81000 411.132
24.82000 406.352
24.83000 408.115
24.84000 413.527
24.85000 418.606
24.86000 416.887
24.87000 412.489
24.88000 408.502
24.89000 408.880
24.90000 410.429
24.91000 411.797
24.92000 417.150
24.93000 422.381
24.94000 425.448
24.95000 419.486
24.96000 412.528
24.97000 407.935
24.98000 410.020
24.99000 412.509
25.00000 414.163
25.01000 413.034
25.02000 412.148
25.03000 412.503
25.04000 414.476
25.05000 416.452
25.06000 415.576
25.07000 412.284
25.08000 409.030
25.09000 406.413
25.10000 404.213
25.11000 402.209
25.12000 404.062
25.13000 407.411
25.14000 410.433
25.15000 410.087
25.16000 408.854
25.17000 407.769
25.18000 410.792
25.19000 414.010
25.20000 417.551
25.21000 422.415
25.22000 427.421
25.23000 430.704
25.24000 429.201
25.25000 427.418
25.26000 426.240
25.27000 413.990
25.28000 404.760
25.29000 401.304
25.30000 405.232
25.31000 409.181
25.32000 410.772
25.33000 410.401
25.34000 410.035
25.35000 412.409
25.36000 416.209
25.37000 419.530
25.38000 413.760
25.39000 404.525
25.40000 395.904
25.41000 393.461
25.42000 392.618
25.43000 391.878
25.44000 403.724
25.45000 415.749
25.46000 423.748
25.47000 415.550
25.48000 405.649
25.49000 399.356
25.50000 402.912
25.51000 407.026
25.52000 409.726
25.53000 408.703
25.54000 407.888
25.55000 404.542
25.56000 398.019
25.57000 391.499
25.58000 390.116
25.59000 392.926
25.60000 395.698
25.61000 394.674
25.62000 391.654
25.63000 388.993
25.64000 392.930
25.65000 399.338
25.66000 404.899
25.67000 402.138
25.68000 397.261
25.69000 392.991
25.70000 400.017
25.71000 407.660
25.72000 412.842
25.73000 408.293
25.74000 402.746
25.75000 399.682
25.76000 403.279
25.77000 407.243
25.78000 409.827
25.79000 415.070
25.80000 418.958
25.81000 422.079
25.82000 424.253
25.83000 426.413
25.84000 424.358
25.85000 418.927
25.86000 413.575
25.87000 414.666
25.88000 419.096
25.89000 422.851
25.90000 414.610
25.91000 401.951
25.92000 390.798
25.93000 394.074
25.94000 400.954
25.95000 406.959
25.96000 404.156
25.97000 400.524
25.98000 398.958
25.99000 405.414
26.00000 412.674
26.01000 415.558
26.02000 406.902
26.03000 397.634
26.04000 391.630
26.05000 394.994
26.06000 397.595
26.07000 399.897
26.08000 401.839
26.09000 403.767
26.10000 401.833
26.11000 396.864
26.12000 391.971
26.13000 393.358
26.14000 397.925
26.15000 401.815
26.16000 394.020
26.17000 381.996
26.18000 371.539
26.19000 375.730
26.20000 383.514
26.21000 390.288
26.22000 387.551
26.23000 383.911
26.24000 381.929
26.25000 386.273
26.26000 391.235
26.27000 395.243
26.28000 396.780
26.29000 398.189
26.30000 399.097
26.31000 395.001
26.32000 391.942
26.33000 391.935
26.34000 395.549
26.35000 399.161
26.36000 400.785
26.37000 400.873
26.38000 400.960
26.39000 394.469
26.40000 384.870
26.41000 375.497
26.42000 369.889
26.43000 365.621
26.44000 362.245
26.45000 367.012
26.46000 373.741
26.47000 379.579
26.48000 381.997
26.49000 383.599
26.50000 385.335
26.51000 387.575
26.52000 389.863
26.53000 391.060
26.54000 389.478
26.55000 387.758
26.56000 386.659
26.57000 385.702
26.58000 385.007
26.59000 384.156
26.60000 383.121
26.61000 382.083
26.62000 380.306
26.63000 377.969
26.64000 375.672
26.65000 374.281
26.66000 373.384
26.67000 372.429
26.68000 370.540
26.69000 368.324
26.70000 366.603
26.71000 369.294
26.72000 373.029
26.73000 376.259
26.74000 386.687
26.75000 396.492
26.76000 402.353
26.77000 393.695
26.78000 383.689
26.79000 377.248
26.80000 379.734
26.81000 382.648
26.82000 384.498
26.83000 384.758
26.84000 384.927
26.85000 385.735
26.86000 387.272
26.87000 388.790
26.88000 386.680
26.89000 381.870
26.90000 377.147
26.91000 381.065
26.92000 389.039
26.93000 396.337
26.94000 393.042
26.95000 386.105
26.96000 380.311
26.97000 384.477
26.98000 390.955
26.99000 396.543
27.00000 393.434
27.01000 389.685
27.02000 386.637
27.03000 386.126
27.04000 385.845
27.05000 385.174
27.06000 383.544
27.07000 381.869
27.08000 380.813
27.09000 383.861
27.10000 386.115
27.11000 388.412
27.12000 390.755
27.13000 393.064
27.14000 389.579
27.15000 381.862
27.16000 374.291
27.17000 371.206
27.18000 370.368
27.19000 369.721
27.20000 371.957
27.21000 375.168
27.22000 378.058
27.23000 378.218
27.24000 377.756
27.25000 377.358
27.26000 372.695
27.27000 368.215
27.28000 367.540
27.29000 380.378
27.30000 394.407
27.31000 401.931
27.32000 393.708
27.33000 384.784
27.34000 379.195
27.35000 385.378
27.36000 389.969
27.37000 392.935
27.38000 394.115
27.39000 395.240
27.40000 388.238
27.41000 375.407
27.42000 362.833
27.43000 362.684
27.44000 368.348
27.45000 373.869
27.46000 377.281
27.47000 379.992
27.48000 382.268
27.49000 380.914
27.50000 378.749
27.51000 376.892
27.52000 375.991
27.53000 375.347
27.54000 376.741
27.55000 385.249
27.56000 394.369
27.57000 400.224
27.58000 398.311
27.59000 396.065
27.60000 394.668
27.61000 388.635
27.62000 384.244
27.63000 380.368
27.64000 377.046
27.65000 373.728
27.66000 370.852
27.67000 368.287
27.68000 365.775
27.69000 364.674
27.70000 364.264
27.71000 364.281
27.72000 370.436
27.73000 378.593
27.74000 385.977
27.75000 387.070
27.76000 386.781
27.77000 386.533
27.78000 385.444
27.79000 384.425
27.80000 382.637
27.81000 378.210
27.82000 373.562
27.83000 371.621
27.84000 376.014
27.85000 380.667
27.86000 383.541
27.87000 377.841
27.88000 373.667
27.89000 372.249
27.90000 373.739
27.91000 375.217
27.92000 375.061
27.93000 373.775
27.94000 372.517
27.95000 375.735
27.96000 380.835
27.97000 385.724
27.98000 387.670
27.99000 388.672
28.00000 388.686
28.01000 380.837
28.02000 371.294
28.03000 363.165
28.04000 372.373
28.05000 382.134
28.06000 388.339
28.07000 382.565
28.08000 375.817
28.09000 370.069
28.10000 366.623
28.11000 363.268
28.12000 361.210
28.13000 366.532
28.14000 370.407
28.15000 372.683
28.16000 373.304
28.17000 373.920
28.18000 374.013
28.19000 373.751
28.20000 373.495
28.21000 374.998
28.22000 377.215
28.23000 379.291
28.24000 379.474
28.25000 379.061
28.26000 378.695
28.27000 378.698
28.28000 378.779
28.29000 378.848
28.30000 377.008
28.31000 375.248
28.32000 372.867
28.33000 368.432
28.34000 363.833
28.35000 360.243
28.36000 358.930
28.37000 357.703
28.38000 356.957
28.39000 360.099
28.40000 362.373
28.41000 362.962
28.42000 361.840
28.43000 360.729
28.44000 360.817
28.45000 361.703
28.46000 362.568
28.47000 365.286
28.48000 368.687
28.49000 371.736
28.50000 370.155
28.51000 367.140
28.52000 364.452
28.53000 364.254
28.54000 364.573
28.55000 364.843
28.56000 364.409
28.57000 363.968
28.58000 364.117
28.59000 366.182
28.60000 368.394
28.61000 370.540
28.62000 372.536
28.63000 374.527
28.64000 375.729
28.65000 366.703
28.66000 360.199
28.67000 355.897
28.68000 353.784
28.69000 351.712
28.70000 353.410
28.71000 357.578
28.72000 361.641
28.73000 364.526
28.74000 366.779
28.75000 368.961
28.76000 370.241
28.77000 371.247
28.78000 372.061
28.79000 371.451
28.80000 370.551
28.81000 369.792
28.82000 377.474
28.83000 384.805
28.84000 388.399
28.85000 380.044
28.86000 370.794
28.87000 362.844
28.88000 357.734
28.89000 352.724
28.90000 349.720
28.91000 361.036
28.92000 369.168
28.93000 374.262
28.94000 376.393
28.95000 378.449
28.96000 373.971
28.97000 365.287
28.98000 356.833
28.99000 359.738
29.00000 367.247
29.01000 374.220
29.02000 374.521
29.03000 372.827
29.04000 371.648
29.05000 374.230
29.06000 377.563
29.07000 380.365
29.08000 381.238
29.09000 381.761
29.10000 380.913
29.11000 375.756
29.12000 370.285
29.13000 367.441
29.14000 370.241
29.15000 373.230
29.16000 375.009
29.17000 376.620
29.18000 377.759
29.19000 375.354
29.20000 369.562
29.21000 363.866
29.22000 365.856
29.23000 372.704
29.24000 379.364
29.25000 379.521
29.26000 377.008
29.27000 374.325
29.28000 369.604
29.29000 364.282
29.30000 359.132
29.31000 355.203
29.32000 351.514
29.33000 348.423
29.34000 354.456
29.35000 360.415
29.36000 364.378
29.37000 362.182
29.38000 359.550
29.39000 357.046
29.40000 354.813
29.41000 352.588
29.42000 351.274
29.43000 357.158
29.44000 361.352
29.45000 360.193
29.46000 354.020
29.47000 347.952
29.48000 349.700
29.49000 356.303
29.50000 362.716
29.51000 360.405
29.52000 354.704
29.53000 349.698
29.54000 352.882
29.55000 358.431
29.56000 364.375
29.57000 373.071
29.58000 382.296
29.59000 389.997
29.60000 382.187
29.61000 374.147
29.62000 367.407
29.63000 364.615
29.64000 362.095
29.65000 363.591
29.66000 373.421
29.67000 383.508
29.68000 389.419
29.69000 385.058
29.70000 381.936
29.71000 378.786
29.72000 375.608
29.73000 372.473
29.74000 372.281
29.75000 373.886
29.76000 375.443
29.77000 372.073
29.78000 366.935
29.79000 362.163
29.80000 361.594
29.81000 362.217
29.82000 363.080
29.83000 365.584
29.84000 368.397
29.85000 370.737
29.86000 365.788
29.87000 360.976
29.88000 360.004
29.89000 370.486
29.90000 381.731
29.91000 391.438
29.92000 398.009
29.93000 404.488
29.94000 408.255
29.95000 401.522
29.96000 396.748
29.97000 392.649
29.98000 389.157
29.99000 385.698
30.00000 384.344
30.01000 384.252
30.02000 384.163
30.03000 384.447
30.04000 384.860
30.05000 385.592
30.06000 389.892
30.07000 395.185
30.08000 398.188
30.09000 385.863
30.10000 370.701
30.11000 358.134
30.12000 367.582
30.13000 377.494
30.14000 383.023
30.15000 375.705
30.16000 367.556
30.17000 363.224
30.18000 366.544
30.19000 370.077
30.20000 372.116
30.21000 374.056
30.22000 375.414
30.23000 376.701
30.24000 377.925
30.25000 379.078
30.26000 375.915
30.27000 370.210
30.28000 364.690
30.29000 369.421
30.30000 377.784
30.31000 385.033
30.32000 380.158
30.33000 371.962
30.34000 363.970
30.35000 357.318
30.36000 350.909
30.37000 345.616
30.38000 351.161
30.39000 356.742
30.40000 363.908
30.41000 375.641
30.42000 387.660
30.43000 392.696
30.44000 383.969
30.45000 374.875
30.46000 369.671
30.47000 376.254
30.48000 380.886
30.49000 381.602
30.50000 378.925
30.51000 376.315
30.52000 377.539
30.53000 380.984
30.54000 384.312
30.55000 384.580
30.56000 383.691
30.57000 382.511
30.58000 378.238
30.59000 373.133
30.60000 368.803
30.61000 369.441
30.62000 370.964
30.63000 372.218
30.64000 381.344
30.65000 389.564
30.66000 393.639
30.67000 385.974
30.68000 377.595
30.69000 375.381
30.70000 385.104
30.71000 395.130
30.72000 400.820
30.73000 398.860
30.74000 397.480
30.75000 400.779
30.76000 408.056
30.77000 415.175
30.78000 413.907
30.79000 407.866
30.80000 402.037
30.81000 400.555
30.82000 400.750
30.83000 401.306
30.84000 405.591
30.85000 410.862
30.86000 416.009
30.87000 420.382
30.88000 424.619
30.89000 428.093
30.90000 431.823
30.91000 434.905
30.92000 437.509
30.93000 438.778
30.94000 439.969
30.95000 445.228
30.96000 458.228
30.97000 471.416
30.98000 478.838
30.99000 492.250
31.00000 501.577
31.01000 510.784
31.02000 519.892
31.03000 529.007
31.04000 538.535
31.05000 548.292
31.06000 557.693
31.07000 573.763
31.08000 591.254
31.09000 608.721
31.10000 625.942
31.11000 643.099
31.12000 660.660
31.13000 680.706
31.14000 701.178
31.15000 717.901
31.16000 751.966
31.17000 781.347
31.18000 809.918
31.19000 836.274
31.20000 862.503
31.21000 885.248
31.22000 901.471
31.23000 917.545
31.24000 926.515
31.25000 965.301
31.26000 992.212
31.27000 1019.113
31.28000 1046.006
31.29000 1072.644
31.30000 1087.134
31.31000 1094.949
31.32000 1102.469
31.33000 1103.210
31.34000 1101.518
31.35000 1101.121
31.36000 1113.476
31.37000 1129.083
31.38000 1140.077
31.39000 1123.221
31.40000 1101.697
31.41000 1084.181
31.42000 1062.610
31.43000 1044.653
31.44000 1024.724
31.45000 999.486
31.46000 973.956
31.47000 946.980
31.48000 917.344
31.49000 887.650
31.50000 871.221
31.51000 848.215
31.52000 832.298
31.53000 806.348
31.54000 772.338
31.55000 738.564
31.56000 715.409
31.57000 697.987
31.58000 681.249
31.59000 662.065
31.60000 643.263
31.61000 624.384
31.62000 604.778
31.63000 584.990
31.64000 565.587
31.65000 548.461
31.66000 531.709
31.67000 518.128
31.68000 497.392
31.69000 479.911
31.70000 468.105
31.71000 471.303
31.72000 475.301
31.73000 473.315
31.74000 460.514
31.75000 447.491
31.76000 440.348
31.77000 446.159
31.78000 450.151
31.79000 446.818
31.80000 437.709
31.81000 428.637
31.82000 421.132
31.83000 414.457
31.84000 408.054
31.85000 401.573
31.86000 395.492
31.87000 389.942
31.88000 389.392
31.89000 390.072
31.90000 390.888
31.91000 392.496
31.92000 394.231
31.93000 395.633
31.94000 380.904
31.95000 367.645
31.96000 357.764
31.97000 356.661
31.98000 356.010
31.99000 356.634
32.00000 359.521
32.01000 362.452
32.02000 364.046
32.03000 363.013
32.04000 362.294
32.05000 359.674
32.06000 355.582
32.07000 351.474
32.08000 346.753
32.09000 341.713
32.10000 336.884
32.11000 341.061
32.12000 347.951
32.13000 354.522
32.14000 358.166
32.15000 361.103
32.16000 363.102
32.17000 359.772
32.18000 355.601
32.19000 352.246
32.20000 349.517
32.21000 347.351
32.22000 346.517
32.23000 349.084
32.24000 351.820
32.25000 352.500
32.26000 349.591
32.27000 346.617
32.28000 345.015
32.29000 343.537
32.30000 342.528
32.31000 341.798
32.32000 341.279
32.33000 340.912
32.34000 346.413
32.35000 354.921
32.36000 363.059
32.37000 353.830
32.38000 339.570
32.39000 327.472
32.40000 334.716
32.41000 346.547
32.42000 356.066
32.43000 352.702
32.44000 347.348
32.45000 343.057
32.46000 344.357
32.47000 345.830
32.48000 343.055
32.49000 329.613
32.50000 315.658
32.51000 310.694
32.52000 321.148
32.53000 331.866
32.54000 337.590
32.55000 332.064
32.56000 328.299
32.57000 326.658
32.58000 326.600
32.59000 326.498
32.60000 324.788
32.61000 322.268
32.62000 319.862
32.63000 321.878
32.64000 325.167
32.65000 327.969
32.66000 326.515
32.67000 324.071
32.68000 323.038
32.69000 329.716
32.70000 337.561
32.71000 343.822
32.72000 340.830
32.73000 337.735
32.74000 336.185
32.75000 338.446
32.76000 340.885
32.77000 340.010
32.78000 333.552
32.79000 327.004
32.80000 323.540
32.81000 324.831
32.82000 325.713
32.83000 327.023
32.84000 328.646
32.85000 330.253
32.86000 331.300
32.87000 332.071
32.88000 332.805
32.89000 330.116
32.90000 326.546
32.91000 323.157
32.92000 321.308
32.93000 319.811
32.94000 319.901
32.95000 328.491
32.96000 338.342
32.97000 346.172
32.98000 337.988
32.99000 330.253
33.00000 324.276
33.01000 322.565
33.02000 321.045
33.03000 320.307
33.04000 320.865
33.05000 321.442
33.06000 321.744
33.07000 312.347
33.08000 306.000
33.09000 302.943
33.10000 302.253
33.11000 301.418
33.12000 295.751
33.13000 287.733
33.14000 280.100
33.15000 287.554
33.16000 299.103
33.17000 309.846
33.18000 313.856
33.19000 316.355
33.20000 318.263
33.21000 317.056
33.22000 315.397
33.23000 314.084
33.24000 313.847
33.25000 313.731
33.26000 313.383
33.27000 312.477
33.28000 311.548
33.29000 308.543
33.30000 302.163
33.31000 295.734
33.32000 292.396
33.33000 288.834
33.34000 286.461
33.35000 288.496
33.36000 293.644
33.37000 298.735
33.38000 302.035
33.39000 304.477
33.40000 306.797
33.41000 309.830
33.42000 312.848
33.43000 315.564
33.44000 315.809
33.45000 315.511
33.46000 314.350
33.47000 308.737
33.48000 302.493
33.49000 297.569
33.50000 308.496
33.51000 318.325
33.52000 324.648
33.53000 322.752
33.54000 320.515
33.55000 314.722
33.56000 303.248
33.57000 291.699
33.58000 285.759
33.59000 287.425
33.60000 288.558
33.61000 291.045
33.62000 294.471
33.63000 297.851
33.64000 299.800
33.65000 301.075
33.66000 302.286
33.67000 304.076
33.68000 305.898
33.69000 307.626
33.70000 308.595
33.71000 309.401
33.72000 309.511
33.73000 306.100
33.74000 302.201
33.75000 299.139
33.76000 301.287
33.77000 303.346
33.78000 305.798
33.79000 309.154
33.80000 312.547
33.81000 311.819
33.82000 304.621
33.83000 297.345
33.84000 293.639
33.85000 295.285
33.86000 296.422
33.87000 301.339
33.88000 308.829
33.89000 316.040
33.90000 315.120
33.91000 310.439
33.92000 306.007
33.93000 310.569
33.94000 317.383
33.95000 323.357
33.96000 322.763
33.97000 320.776
33.98000 318.413
33.99000 314.181
34.00000 309.694
34.01000 306.186
34.02000 315.157
34.03000 323.109
34.04000 329.815
34.05000 333.698
34.06000 337.474
34.07000 337.708
34.08000 332.481
34.09000 327.193
34.10000 324.526
34.11000 327.801
34.12000 329.977
34.13000 330.785
34.14000 330.676
34.15000 330.531
34.16000 329.361
34.17000 327.724
34.18000 326.177
34.19000 318.899
34.20000 310.578
34.21000 304.398
34.22000 314.556
34.23000 328.116
34.24000 339.565
34.25000 340.728
34.26000 340.522
34.27000 340.362
34.28000 346.723
34.29000 352.190
34.30000 352.473
34.31000 341.205
34.32000 329.513
34.33000 322.026
34.34000 320.910
34.35000 319.859
34.36000 319.992
34.37000 321.304
34.38000 322.644
34.39000 326.665
34.40000 332.446
34.41000 338.013
34.42000 337.829
34.43000 335.074
34.44000 332.474
34.45000 329.192
34.46000 325.991
34.47000 323.100
34.48000 322.519
34.49000 322.410
34.50000 322.752
34.51000 325.249
34.52000 328.027
34.53000 330.180
34.54000 324.743
34.55000 319.971
34.56000 314.715
34.57000 308.400
34.58000 302.047
34.59000 299.996
34.60000 304.345
34.61000 308.755
34.62000 307.769
34.63000 301.511
34.64000 295.298
34.65000 293.081
34.66000 293.444
34.67000 293.930
34.68000 297.612
34.69000 302.699
34.70000 307.490
34.71000 306.453
34.72000 303.904
34.73000 301.276
34.74000 298.071
34.75000 294.751
34.76000 292.382
34.77000 294.478
34.78000 297.143
34.79000 299.199
34.80000 298.138
34.81000 297.117
34.82000 293.337
34.83000 283.618
34.84000 273.697
34.85000 271.110
34.86000 279.239
34.87000 287.461
34.88000 291.867
34.89000 292.618
34.90000 293.317
34.91000 289.749
34.92000 283.478
34.93000 277.591
34.94000 281.251
34.95000 289.033
34.96000 296.350
34.97000 290.489
34.98000 281.590
34.99000 273.645
35.00000 272.527
35.01000 272.751
35.02000 273.195
35.03000 274.646
35.04000 276.222
35.05000 277.434
35.06000 283.180
35.07000 287.978
35.08000 289.076
35.09000 282.342
35.10000 275.354
35.11000 271.805
35.12000 273.193
35.13000 274.620
35.14000 274.919
35.15000 274.161
35.16000 273.392
35.17000 271.881
35.18000 269.908
35.19000 267.999
35.20000 267.635
35.21000 267.928
35.22000 268.202
35.23000 274.640
35.24000 282.135
35.25000 288.254
35.26000 284.745
35.27000 279.377
35.28000 275.110
35.29000 275.813
35.30000 277.121
35.31000 278.122
35.32000 272.187
35.33000 267.127
35.34000 264.076
35.35000 265.204
35.36000 266.461
35.37000 267.693
35.38000 268.888
35.39000 270.083
35.40000 272.383
35.41000 275.699
35.42000 279.000
35.43000 281.241
35.44000 282.834
35.45000 284.005
35.46000 275.465
35.47000 262.873
35.48000 251.079
35.49000 260.395
35.50000 274.331
35.51000 285.772
35.52000 280.121
35.53000 271.235
35.54000 263.961
35.55000 263.835
35.56000 264.559
35.57000 265.110
35.58000 266.584
35.59000 267.792
35.60000 269.822
35.61000 273.531
35.62000 277.290
35.63000 276.269
35.64000 268.631
35.65000 260.954
35.66000 259.371
35.67000 263.289
35.68000 267.202
35.69000 270.785
35.70000 274.169
35.71000 277.311
35.72000 275.092
35.73000 270.673
35.74000 266.542
35.75000 266.958
35.76000 268.490
35.77000 269.901
35.78000 270.506
35.79000 270.960
35.80000 270.851
35.81000 268.285
35.82000 265.433
35.83000 263.271
35.84000 264.224
35.85000 265.130
35.86000 266.905
35.87000 270.425
35.88000 273.994
35.89000 273.065
35.90000 266.021
35.91000 258.946
35.92000 256.758
35.93000 258.896
35.94000 261.065
35.95000 265.135
35.96000 270.329
35.97000 274.971
35.98000 267.840
35.99000 255.961
36.00000 244.877
36.01000 250.431
36.02000 259.601
36.03000 267.424
36.04000 266.396
36.05000 263.756
36.06000 261.857
36.07000 263.125
36.08000 264.752
36.09000 265.980
36.10000 267.882
36.11000 269.405
36.12000 269.348
36.13000 266.168
36.14000 262.904
36.15000 262.171
36.16000 264.814
36.17000 267.473
36.18000 268.850
36.19000 269.114
36.20000 269.363
36.21000 268.779
36.22000 267.710
36.23000 266.842
36.24000 270.096
36.25000 274.983
36.26000 279.534
36.27000 272.286
36.28000 262.855
36.29000 254.866
36.30000 256.164
36.31000 259.120
36.32000 261.657
36.33000 262.439
36.34000 263.026
36.35000 263.467
36.36000 262.158
36.37000 261.052
36.38000 259.488
36.39000 257.038
36.40000 254.564
36.41000 252.562
36.42000 251.177
36.43000 249.796
36.44000 252.364
36.45000 258.286
36.46000 264.060
36.47000 261.897
36.48000 255.208
36.49000 249.169
36.50000 256.066
36.51000 268.004
36.52000 279.098
36.53000 280.252
36.54000 278.917
36.55000 276.404
36.56000 266.463
36.57000 255.222
36.58000 246.123
36.59000 245.850
36.60000 246.533
36.61000 247.043
36.62000 252.665
36.63000 257.283
36.64000 262.282
36.65000 268.008
36.66000 273.752
36.67000 273.711
36.68000 266.231
36.69000 258.731
36.70000 256.680
36.71000 259.180
36.72000 261.689
36.73000 264.687
36.74000 267.959
36.75000 270.857
36.76000 266.580
36.77000 259.555
36.78000 253.040
36.79000 256.431
36.80000 261.806
36.81000 266.200
36.82000 264.531
36.83000 261.823
36.84000 260.664
36.85000 265.780
36.86000 271.560
36.87000 275.858
36.88000 271.321
36.89000 267.399
36.90000 267.520
36.91000 275.224
36.92000 283.103
36.93000 285.876
36.94000 282.205
36.95000 278.518
36.96000 279.864
36.97000 285.320
36.98000 290.631
36.99000 288.927
37.00000 283.359
37.01000 277.924
37.02000 274.962
37.03000 272.931
37.04000 271.052
37.05000 272.944
37.06000 275.511
37.07000 277.530
37.08000 276.232
37.09000 274.376
37.10000 273.479
37.11000 276.393
37.12000 279.702
37.13000 282.150
37.14000 278.186
37.15000 274.835
37.16000 272.863
37.17000 273.433
37.18000 274.059
37.19000 272.803
37.20000 269.218
37.21000 265.631
37.22000 264.153
37.23000 264.372
37.24000 264.606
37.25000 265.473
37.26000 266.684
37.27000 267.725
37.28000 265.696
37.29000 262.532
37.30000 259.609
37.31000 257.929
37.32000 256.701
37.33000 255.183
37.34000 251.942
37.35000 248.418
37.36000 246.729
37.37000 252.209
37.38000 258.412
37.39000 262.980
37.40000 256.832
37.41000 251.630
37.42000 249.394
37.43000 252.534
37.44000 255.784
37.45000 257.478
37.46000 257.278
37.47000 257.074
37.48000 257.572
37.49000 258.620
37.50000 259.671
37.51000 260.897
37.52000 262.214
37.53000 263.379
37.54000 261.879
37.55000 259.410
37.56000 257.135
37.57000 255.909
37.58000 255.043
37.59000 253.751
37.60000 249.981
37.61000 245.811
37.62000 243.034
37.63000 245.593
37.64000 248.677
37.65000 250.936
37.66000 252.711
37.67000 254.063
37.68000 256.116
37.69000 259.418
37.70000 262.745
37.71000 265.676
37.72000 268.134
37.73000 270.586
37.74000 270.914
37.75000 269.602
37.76000 268.278
37.77000 266.421
37.78000 264.285
37.79000 262.057
37.80000 258.250
37.81000 253.880
37.82000 249.861
37.83000 255.308
37.84000 262.221
37.85000 267.824
37.86000 265.955
37.87000 262.904
37.88000 260.676
37.89000 261.551
37.90000 262.724
37.91000 263.579
37.92000 265.407
37.93000 266.853
37.94000 268.630
37.95000 270.986
37.96000 273.352
37.97000 272.777
37.98000 268.760
37.99000 264.748
38.00000 263.909
38.01000 265.479
38.02000 266.921
38.03000 263.407
38.04000 257.346
38.05000 251.836
38.06000 255.301
38.07000 261.921
38.08000 267.995
38.09000 265.386
38.10000 261.221
38.11000 258.361
38.12000 262.793
38.13000 268.354
38.14000 272.741
38.15000 272.782
38.16000 272.417
38.17000 272.151
38.18000 274.480
38.19000 276.367
38.20000 279.157
38.21000 283.501
38.22000 287.872
38.23000 289.838
38.24000 289.043
38.25000 288.248
38.26000 289.964
38.27000 293.532
38.28000 297.147
38.29000 302.495
38.30000 308.719
38.31000 314.628
38.32000 315.561
38.33000 314.775
38.34000 314.055
38.35000 323.335
38.36000 333.668
38.37000 343.279
38.38000 348.926
38.39000 353.973
38.40000 360.525
38.41000 372.551
38.42000 385.075
38.43000 394.112
38.44000 420.688
38.45000 441.689
38.46000 457.338
38.47000 463.948
38.48000 470.411
38.49000 489.627
38.50000 523.203
38.51000 556.680
38.52000 584.417
38.53000 607.751
38.54000 631.100
38.55000 654.996
38.56000 679.164
38.57000 702.797
38.58000 718.240
38.59000 730.902
38.60000 742.465
38.61000 757.960
38.62000 772.516
38.63000 787.989
38.64000 808.391
38.65000 829.525
38.66000 845.167
38.67000 841.201
38.68000 835.492
38.69000 831.396
38.70000 845.037
38.71000 856.080
38.72000 858.561
38.73000 846.833
38.74000 834.890
38.75000 816.895
38.76000 792.217
38.77000 767.627
38.78000 744.832
38.79000 723.523
38.80000 702.190
38.81000 680.011
38.82000 657.420
38.83000 634.973
38.84000 614.661
38.85000 595.063
38.86000 577.205
38.87000 551.752
38.88000 527.688
38.89000 504.577
38.90000 486.489
38.91000 469.132
38.92000 451.618
38.93000 433.550
38.94000 415.435
38.95000 402.502
38.96000 388.338
38.97000 377.493
38.98000 367.359
38.99000 358.386
39.00000 349.428
39.01000 337.076
39.02000 321.047
39.03000 305.083
39.04000 298.535
39.05000 298.650
39.06000 298.515
39.07000 290.338
39.08000 278.304
39.09000 266.846
39.10000 263.723
39.11000 263.334
39.12000 262.980
39.13000 264.107
39.14000 265.393
39.15000 266.581
39.16000 267.259
39.17000 267.864
39.18000 267.877
39.19000 265.851
39.20000 263.653
39.21000 262.092
39.22000 258.727
39.23000 256.109
39.24000 253.938
39.25000 252.482
39.26000 251.035
39.27000 250.037
39.28000 249.516
39.29000 248.997
39.30000 248.869
39.31000 249.012
39.32000 249.170
39.33000 249.778
39.34000 250.598
39.35000 251.170
39.36000 248.252
39.37000 244.209
39.38000 240.542
39.39000 238.629
39.40000 237.276
39.41000 235.966
39.42000 234.867
39.43000 233.799
39.44000 233.713
39.45000 236.952
39.46000 240.465
39.47000 242.945
39.48000 244.135
39.49000 244.999
39.50000 245.417
39.51000 245.134
39.52000 244.843
39.53000 243.592
39.54000 241.344
39.55000 239.107
39.56000 239.242
39.57000 240.976
39.58000 242.608
39.59000 241.231
39.60000 238.460
39.61000 235.888
39.62000 236.041
39.63000 237.057
39.64000 237.977
39.65000 237.210
39.66000 236.220
39.67000 235.042
39.68000 232.934
39.69000 230.699
39.70000 229.576
39.71000 232.155
39.72000 235.029
39.73000 237.048
39.74000 234.077
39.75000 231.682
39.76000 232.133
39.77000 236.986
39.78000 241.888
39.79000 242.005
39.80000 237.238
39.81000 232.498
39.82000 230.767
39.83000 231.049
39.84000 231.459
39.85000 235.491
39.86000 241.172
39.87000 246.168
39.88000 242.078
39.89000 235.160
39.90000 228.916
39.91000 229.996
39.92000 232.289
39.93000 233.946
39.94000 232.497
39.95000 230.634
39.96000 227.887
39.97000 222.252
39.98000 216.392
39.99000 212.299
40.00000 224.666
40.01000 234.467
40.02000 240.548
40.03000 240.977
40.04000 241.348
40.05000 239.619
40.06000 235.791
40.07000 231.987
40.08000 229.108
40.09000 226.870
40.10000 224.722
40.11000 224.985
40.12000 226.329
40.13000 227.602
40.14000 227.977
40.15000 228.077
40.16000 228.167
40.17000 230.195
40.18000 232.321
40.19000 232.997
40.20000 226.728
40.21000 219.552
40.22000 215.008
40.23000 218.923
40.24000 223.476
40.25000 226.639
40.26000 224.464
40.27000 222.683
40.28000 220.057
40.29000 216.172
40.30000 212.275
40.31000 214.304
40.32000 222.144
40.33000 229.931
40.34000 229.607
40.35000 224.121
40.36000 218.775
40.37000 217.050
40.38000 216.919
40.39000 216.848
40.40000 217.523
40.41000 218.422
40.42000 219.230
40.43000 218.556
40.44000 217.705
40.45000 218.085
40.46000 224.248
40.47000 231.151
40.48000 234.239
40.49000 225.276
40.50000 215.430
40.51000 208.630
40.52000 215.354
40.53000 220.754
40.54000 223.007
40.55000 220.649
40.56000 218.251
40.57000 218.941
40.58000 222.599
40.59000 226.229
40.60000 224.127
40.61000 218.478
40.62000 213.117
40.63000 214.932
40.64000 219.855
40.65000 224.430
40.66000 224.768
40.67000 223.853
40.68000 223.034
40.69000 224.648
40.70000 226.476
40.71000 228.014
40.72000 228.215
40.73000 228.250
40.74000 228.865
40.75000 231.279
40.76000 233.822
40.77000 235.567
40.78000 232.334
40.79000 229.788
40.80000 226.879
40.81000 223.446
40.82000 220.008
40.83000 217.182
40.84000 214.931
40.85000 212.698
40.86000 216.200
40.87000 223.158
40.88000 229.718
40.89000 226.779
40.90000 219.798
40.91000 213.392
40.92000 213.803
40.93000 216.194
40.94000 218.330
40.95000 217.725
40.96000 216.736
40.97000 215.831
40.98000 215.304
40.99000 214.823
41.00000 214.894
41.01000 216.652
41.02000 218.527
41.03000 219.807
41.04000 216.170
41.05000 213.336
41.06000 213.249
41.07000 217.043
41.08000 220.864
41.09000 221.422
41.10000 218.966
41.11000 216.531
41.12000 217.183
41.13000 219.679
41.14000 222.055
41.15000 221.648
41.16000 220.077
41.17000 218.268
41.18000 213.698
41.19000 208.340
41.20000 203.567
41.21000 205.730
41.22000 208.756
41.23000 211.556
41.24000 213.350
41.25000 215.025
41.26000 215.240
41.27000 211.076
41.28000 206.618
41.29000 203.593
41.30000 202.430
41.31000 201.603
41.32000 202.050
41.33000 204.262
41.34000 206.487
41.35000 208.621
41.36000 210.674
41.37000 212.708
41.38000 212.021
41.39000 209.741
41.40000 207.578
41.41000 208.019
41.42000 209.531
41.43000 210.703
41.44000 208.054
41.45000 204.334
41.46000 201.027
41.47000 202.317
41.48000 204.178
41.49000 206.436
41.50000 210.429
41.51000 214.623
41.52000 216.343
41.53000 210.772
41.54000 204.726
41.55000 200.648
41.56000 202.377
41.57000 203.787
41.58000 206.161
41.59000 209.849
41.60000 213.541
41.61000 213.173
41.62000 209.198
41.63000 205.263
41.64000 205.987
41.65000 209.396
41.66000 212.561
41.67000 210.514
41.68000 206.360
41.69000 203.050
41.70000 208.999
41.71000 217.496
41.72000 225.027
41.73000 223.237
41.74000 220.216
41.75000 217.557
41.76000 216.453
41.77000 215.527
41.78000 214.236
41.79000 211.888
41.80000 209.473
41.81000 207.854
41.82000 218.021
41.83000 225.803
41.84000 230.125
41.85000 229.817
41.86000 229.482
41.87000 226.171
41.88000 220.268
41.89000 214.428
41.90000 213.173
41.91000 214.555
41.92000 215.931
41.93000 217.214
41.94000 218.460
41.95000 219.779
41.96000 221.884
41.97000 224.201
41.98000 226.249
41.99000 221.256
42.00000 215.853
42.01000 210.776
42.02000 207.064
42.03000 203.504
42.04000 203.123
42.05000 211.789
42.06000 221.010
42.07000 227.154
42.08000 227.956
42.09000 228.447
42.10000 226.860
42.11000 222.543
42.12000 218.219
42.13000 217.403
42.14000 219.585
42.15000 221.742
42.16000 219.795
42.17000 215.606
42.18000 211.586
42.19000 210.952
42.20000 211.639
42.21000 212.265
42.22000 212.243
42.23000 212.050
42.24000 211.879
42.25000 214.489
42.26000 217.159
42.27000 219.528
42.28000 220.652
42.29000 221.640
42.30000 223.130
42.31000 226.022
42.32000 228.997
42.33000 230.967
42.34000 230.718
42.35000 230.493
42.36000 230.409
42.37000 230.505
42.38000 230.595
42.39000 226.929
42.40000 220.113
42.41000 213.380
42.42000 213.563
42.43000 217.526
42.44000 221.221
42.45000 219.718
42.46000 216.221
42.47000 213.367
42.48000 217.064
42.49000 222.470
42.50000 227.221
42.51000 226.662
42.52000 225.395
42.53000 224.093
42.54000 222.646
42.55000 221.184
42.56000 219.565
42.57000 217.515
42.58000 215.440
42.59000 214.075
42.60000 214.572
42.61000 214.971
42.62000 214.509
42.63000 212.959
42.64000 211.403
42.65000 209.196
42.66000 206.453
42.67000 203.745
42.68000 204.202
42.69000 206.347
42.70000 208.502
42.71000 210.857
42.72000 213.288
42.73000 215.891
42.74000 220.205
42.75000 224.957
42.76000 229.122
42.77000 225.519
42.78000 221.303
42.79000 218.370
42.80000 220.548
42.81000 223.256
42.82000 224.392
42.83000 221.280
42.84000 217.930
42.85000 215.740
42.86000 220.798
42.87000 224.630
42.88000 224.350
42.89000 218.961
42.90000 213.569
42.91000 212.209
42.92000 214.106
42.93000 215.976
42.94000 216.891
42.95000 217.276
42.96000 217.488
42.97000 214.567
42.98000 210.483
42.99000 206.870
43.00000 207.826
43.01000 209.931
43.02000 211.771
43.03000 207.837
43.04000 203.651
43.05000 201.342
43.06000 206.384
43.07000 212.169
43.08000 215.467
43.09000 212.157
43.10000 208.490
43.11000 206.109
43.12000 203.823
43.13000 202.149
43.14000 200.624
43.15000 199.280
43.16000 197.957
43.17000 203.004
43.18000 213.101
43.19000 223.048
43.20000 219.311
43.21000 208.603
43.22000 198.367
43.23000 196.379
43.24000 197.400
43.25000 198.708
43.26000 202.737
43.27000 207.438
43.28000 211.534
43.29000 211.970
43.30000 211.837
43.31000 211.084
43.32000 207.956
43.33000 204.592
43.34000 202.411
43.35000 203.319
43.36000 204.387
43.37000 205.076
43.38000 208.149
43.39000 210.428
43.40000 210.471
43.41000 207.838
43.42000 205.204
43.43000 203.735
43.44000 203.172
43.45000 202.617
43.46000 199.062
43.47000 194.093
43.48000 189.682
43.49000 194.708
43.50000 203.117
43.51000 210.435
43.52000 207.686
43.53000 202.493
43.54000 197.981
43.55000 198.801
43.56000 200.221
43.57000 200.945
43.58000 199.040
43.59000 196.882
43.60000 195.717
43.61000 197.106
43.62000 198.623
43.63000 199.595
43.64000 201.513
43.65000 202.924
43.66000 201.826
43.67000 197.784
43.68000 193.746
43.69000 191.462
43.70000 190.517
43.71000 189.589
43.72000 193.168
43.73000 198.878
43.74000 204.217
43.75000 203.472
43.76000 200.584
43.77000 197.944
43.78000 197.544
43.79000 197.677
43.80000 197.793
43.81000 197.971
43.82000 198.132
43.83000 197.596
43.84000 194.480
43.85000 191.122
43.86000 189.722
43.87000 193.261
43.88000 197.041
43.89000 199.448
43.90000 199.869
43.91000 200.150
43.92000 198.791
43.93000 195.545
43.94000 192.305
43.95000 190.754
43.96000 190.470
43.97000 190.191
43.98000 189.070
43.99000 187.575
44.00000 186.193
44.01000 186.612
44.02000 187.655
44.03000 188.926
44.04000 192.205
44.05000 195.953
44.06000 199.191
44.07000 197.198
44.08000 194.830
44.09000 192.265
44.10000 188.985
44.11000 185.639
44.12000 184.550
44.13000 189.063
44.14000 193.839
44.15000 196.859
44.16000 200.687
44.17000 203.472
44.18000 205.418
44.19000 206.419
44.20000 207.407
44.21000 206.311
44.22000 203.681
44.23000 201.099
44.24000 197.792
44.25000 194.255
44.26000 191.112
44.27000 194.047
44.28000 199.051
44.29000 203.737
44.30000 205.688
44.31000 207.010
44.32000 208.148
44.33000 213.210
44.34000 217.993
44.35000 220.521
44.36000 214.971
44.37000 208.702
44.38000 204.144
44.39000 203.760
44.40000 203.565
44.41000 203.442
44.42000 206.030
44.43000 207.930
44.44000 209.588
44.45000 210.978
44.46000 212.356
44.47000 211.939
44.48000 210.224
44.49000 208.542
44.50000 208.914
44.51000 210.240
44.52000 211.724
44.53000 215.561
44.54000 220.186
44.55000 224.623
44.56000 227.478
44.57000 229.977
44.58000 232.121
44.59000 232.002
44.60000 231.623
44.61000 231.276
44.62000 231.042
44.63000 230.818
44.64000 229.789
44.65000 226.828
44.66000 223.783
44.67000 221.883
44.68000 227.365
44.69000 231.393
44.70000 234.609
44.71000 236.943
44.72000 239.262
44.73000 239.602
44.74000 238.537
44.75000 237.494
44.76000 233.763
44.77000 228.935
44.78000 224.402
44.79000 224.162
44.80000 225.333
44.81000 226.923
44.82000 231.953
44.83000 237.746
44.84000 242.703
44.85000 235.626
44.86000 228.207
44.87000 223.602
44.88000 228.724
44.89000 234.668
44.90000 239.090
44.91000 239.925
44.92000 240.610
44.93000 241.034
44.94000 241.252
44.95000 241.407
44.96000 241.555
44.97000 241.696
44.98000 241.828
44.99000 240.774
45.00000 238.894
45.01000 237.054
45.02000 242.563
45.03000 251.185
45.04000 259.036
45.05000 256.024
45.06000 249.502
45.07000 243.814
45.08000 244.835
45.09000 247.313
45.10000 249.427
45.11000 247.050
45.12000 244.520
45.13000 241.495
45.14000 236.792
45.15000 231.949
45.16000 229.144
45.17000 231.058
45.18000 233.162
45.19000 234.456
45.20000 232.881
45.21000 231.727
45.22000 229.435
45.23000 225.955
45.24000 222.489
45.25000 220.635
45.26000 219.883
45.27000 219.148
45.28000 218.115
45.29000 216.992
45.30000 216.086
45.31000 218.134
45.32000 221.121
45.33000 223.716
45.34000 223.233
45.35000 222.093
45.36000 221.124
45.37000 216.154
45.38000 211.521
45.39000 208.132
45.40000 208.893
45.41000 209.987
45.42000 210.112
45.43000 208.030
45.44000 205.862
45.45000 204.538
45.46000 205.426
45.47000 206.080
45.48000 207.961
45.49000 211.098
45.50000 214.206
45.51000 214.280
45.52000 212.315
45.53000 210.396
45.54000 208.865
45.55000 207.570
45.56000 206.309
45.57000 205.501
45.58000 204.834
45.59000 204.134
45.60000 203.173
45.61000 202.156
45.62000 201.295
45.63000 200.033
45.64000 198.931
45.65000 196.807
45.66000 191.336
45.67000 185.603
45.68000 184.015
45.69000 191.706
45.70000 199.743
45.71000 204.615
45.72000 201.259
45.73000 198.804
45.74000 194.977
45.75000 189.773
45.76000 184.629
45.77000 185.399
45.78000 190.074
45.79000 194.633
45.80000 193.187
45.81000 189.230
45.82000 185.676
45.83000 187.324
45.84000 190.567
45.85000 193.349
45.86000 192.659
45.87000 191.255
45.88000 190.070
45.89000 190.564
45.90000 191.161
45.91000 191.199
45.92000 189.438
45.93000 187.540
45.94000 185.724
45.95000 184.087
45.96000 182.457
45.97000 181.476
45.98000 181.648
45.99000 181.779
46.00000 181.487
46.01000 180.781
46.02000 180.075
46.03000 179.360
46.04000 178.639
46.05000 177.936
46.06000 176.939
46.07000 175.863
46.08000 175.039
46.09000 177.381
46.10000 180.678
46.11000 183.769
46.12000 185.346
46.13000 186.618
46.14000 187.688
46.15000 189.614
46.16000 191.312
46.17000 192.435
46.18000 191.740
46.19000 190.910
46.20000 190.465
46.21000 190.850
46.22000 191.263
46.23000 191.511
46.24000 185.510
46.25000 181.216
46.26000 177.234
46.27000 173.554
46.28000 169.927
46.29000 170.795
46.30000 174.525
46.31000 178.155
46.32000 177.493
46.33000 175.090
46.34000 173.000
46.35000 174.734
46.36000 177.600
46.37000 179.984
46.38000 178.899
46.39000 177.127
46.40000 175.641
46.41000 179.079
46.42000 182.455
46.43000 184.670
46.44000 183.275
46.45000 181.621
46.46000 182.156
46.47000 187.345
46.48000 192.687
46.49000 195.852
46.50000 190.681
46.51000 186.976
46.52000 182.788
46.53000 178.142
46.54000 173.579
46.55000 175.355
46.56000 181.099
46.57000 186.680
46.58000 185.513
46.59000 181.668
46.60000 178.082
46.61000 177.576
46.62000 177.966
46.63000 178.195
46.64000 177.285
46.65000 176.155
46.66000 175.211
46.67000 172.803
46.68000 170.654
46.69000 169.763
46.70000 172.719
46.71000 175.943
46.72000 177.677
46.73000 176.297
46.74000 174.819
46.75000 173.950
46.76000 175.723
46.77000 176.986
46.78000 177.199
46.79000 176.438
46.80000 175.672
46.81000 174.486
46.82000 173.043
46.83000 171.641
46.84000 169.531
46.85000 167.247
46.86000 165.119
46.87000 164.800
46.88000 164.997
46.89000 165.484
46.90000 167.962
46.91000 170.819
46.92000 173.199
46.93000 174.021
46.94000 174.547
46.95000 174.868
46.96000 174.577
46.97000 174.244
46.98000 174.364
46.99000 175.413
47.00000 176.490
47.01000 177.118
47.02000 175.438
47.03000 174.245
47.04000 173.066
47.05000 171.899
47.06000 170.782
47.07000 173.071
47.08000 177.418
47.09000 181.631
47.10000 180.746
47.11000 177.918
47.12000 175.058
47.13000 171.839
47.14000 168.519
47.15000 166.075
47.16000 169.547
47.17000 174.123
47.18000 177.922
47.19000 176.318
47.20000 174.469
47.21000 171.863
47.22000 167.021
47.23000 162.033
47.24000 161.439
47.25000 169.719
47.26000 178.253
47.27000 183.192
47.28000 175.882
47.29000 170.708
47.30000 168.389
47.31000 168.614
47.32000 168.789
47.33000 165.860
47.34000 161.088
47.35000 156.468
47.36000 157.264
47.37000 160.091
47.38000 162.957
47.39000 166.245
47.40000 169.650
47.41000 172.353
47.42000 170.418
47.43000 167.634
47.44000 165.331
47.45000 168.102
47.46000 170.866
47.47000 172.356
47.48000 170.145
47.49000 167.699
47.50000 166.539
47.51000 167.933
47.52000 169.396
47.53000 170.237
47.54000 170.225
47.55000 170.214
47.56000 170.277
47.57000 170.405
47.58000 170.523
47.59000 170.020
47.60000 169.156
47.61000 168.320
47.62000 168.404
47.63000 168.829
47.64000 168.750
47.65000 163.268
47.66000 156.320
47.67000 150.826
47.68000 154.742
47.69000 160.348
47.70000 164.968
47.71000 168.060
47.72000 170.464
47.73000 171.420
47.74000 168.246
47.75000 164.818
47.76000 162.865
47.77000 163.793
47.78000 164.796
47.79000 165.367
47.80000 161.948
47.81000 159.556
47.82000 161.011
47.83000 165.762
47.84000 170.343
47.85000 165.587
47.86000 155.480
47.87000 145.721
47.88000 152.131
47.89000 164.132
47.90000 175.123
47.91000 175.536
47.92000 173.130
47.93000 170.962
47.94000 170.301
47.95000 169.906
47.96000 169.580
47.97000 166.002
47.98000 162.771
47.99000 161.259
48.00000 164.565
48.01000 168.159
48.02000 171.559
48.03000 174.585
48.04000 177.603
48.05000 179.307
48.06000 167.552
48.07000 159.359
48.08000 159.618
48.09000 166.987
48.10000 174.183
48.11000 172.413
48.12000 165.592
48.13000 159.016
48.14000 157.028
48.15000 156.820
48.16000 156.958
48.17000 160.633
48.18000 165.233
48.19000 169.047
48.20000 167.977
48.21000 166.065
48.22000 164.500
48.23000 163.180
48.24000 162.120
48.25000 162.072
48.26000 164.815
48.27000 167.720
48.28000 168.966
48.29000 167.088
48.30000 165.136
48.31000 164.043
48.32000 162.199
48.33000 160.924
48.34000 161.902
48.35000 164.741
48.36000 167.548
48.37000 168.825
48.38000 169.254
48.39000 169.667
48.40000 168.323
48.41000 166.438
48.42000 164.477
48.43000 161.757
48.44000 158.841
48.45000 156.624
48.46000 158.658
48.47000 161.412
48.48000 163.657
48.49000 158.735
48.50000 154.102
48.51000 152.454
48.52000 158.896
48.53000 165.792
48.54000 169.430
48.55000 167.033
48.56000 164.502
48.57000 163.096
48.58000 170.657
48.59000 175.889
48.60000 177.207
48.61000 175.355
48.62000 173.467
48.63000 169.889
48.64000 165.392
48.65000 161.069
48.66000 159.355
48.67000 158.659
48.68000 157.925
48.69000 156.824
48.70000 155.631
48.71000 154.504
48.72000 153.770
48.73000 153.101
48.74000 152.559
48.75000 163.664
48.76000 173.687
48.77000 179.505
48.78000 174.121
48.79000 168.129
48.80000 163.520
48.81000 161.430
48.82000 159.392
48.83000 158.270
48.84000 152.548
48.85000 148.610
48.86000 148.447
48.87000 151.283
48.88000 154.138
48.89000 157.791
48.90000 161.871
48.91000 165.787
48.92000 163.363
48.93000 158.927
48.94000 155.183
48.95000 157.993
48.96000 162.427
48.97000 165.794
48.98000 162.914
48.99000 159.018
49.00000 155.867
49.01000 157.167
49.02000 158.584
49.03000 159.264
49.04000 158.015
49.05000 156.664
49.06000 155.205
49.07000 153.554
49.08000 151.899
49.09000 150.996
49.10000 156.488
49.11000 160.257
49.12000 160.929
49.13000 159.185
49.14000 157.493
49.15000 157.930
49.16000 159.487
49.17000 160.979
49.18000 163.108
49.19000 165.310
49.20000 166.707
49.21000 160.649
49.22000 152.777
49.23000 146.390
49.24000 148.522
49.25000 152.010
49.26000 154.821
49.27000 158.005
49.28000 160.620
49.29000 162.200
49.30000 161.119
49.31000 159.903
49.32000 158.881
49.33000 158.200
49.34000 157.526
49.35000 157.161
49.36000 152.702
49.37000 149.663
49.38000 150.810
49.39000 155.163
49.40000 159.480
49.41000 162.411
49.42000 164.624
49.43000 166.742
49.44000 162.819
49.45000 157.176
49.46000 151.989
49.47000 150.929
49.48000 150.855
49.49000 150.738
49.50000 150.378
49.51000 149.980
49.52000 149.661
49.53000 155.921
49.54000 161.494
49.55000 164.054
49.56000 158.992
49.57000 153.557
49.58000 150.970
49.59000 153.306
49.60000 155.729
49.61000 157.027
49.62000 152.470
49.63000 149.374
49.64000 150.377
49.65000 154.461
49.66000 158.476
49.67000 159.922
49.68000 160.064
49.69000 160.199
49.70000 159.987
49.71000 159.679
49.72000 159.361
49.73000 158.963
49.74000 158.546
49.75000 158.191
49.76000 158.175
49.77000 158.211
49.78000 158.240
49.79000 155.691
49.80000 153.440
49.81000 152.316
49.82000 153.998
49.83000 155.812
49.84000 156.020
49.85000 153.502
49.86000 150.938
49.87000 149.577
49.88000 145.570
49.89000 142.876
49.90000 146.095
49.91000 153.681
49.92000 161.002
49.93000 158.882
49.94000 152.052
49.95000 145.536
49.96000 146.338
49.97000 149.402
49.98000 152.510
49.99000 156.001
50.00000 159.580
50.01000 162.198
50.02000 159.617
50.03000 156.259
50.04000 153.584
50.05000 158.035
50.06000 162.138
50.07000 164.001
50.08000 160.387
50.09000 156.524
50.10000 154.374
50.11000 155.082
50.12000 155.834
50.13000 156.230
50.14000 163.852
50.15000 168.994
50.16000 169.047
50.17000 165.412
50.18000 161.869
50.19000 161.440
50.20000 162.537
50.21000 163.583
50.22000 161.179
50.23000 157.881
50.24000 155.000
50.25000 155.630
50.26000 157.054
50.27000 158.574
50.28000 160.599
50.29000 162.699
50.30000 164.364
50.31000 164.080
50.32000 163.714
50.33000 164.670
50.34000 168.803
50.35000 173.074
50.36000 173.326
50.37000 166.989
50.38000 160.557
50.39000 157.202
50.40000 155.489
50.41000 154.340
50.42000 154.428
50.43000 155.396
50.44000 156.403
50.45000 158.679
50.46000 161.568
50.47000 164.315
50.48000 164.791
50.49000 164.539
50.50000 164.060
50.51000 161.717
50.52000 158.959
50.53000 157.567
50.54000 163.278
50.55000 170.008
50.56000 175.323
50.57000 172.875
50.58000 170.381
50.59000 168.755
50.60000 169.178
50.61000 169.688
50.62000 170.031
50.63000 170.106
50.64000 170.178
50.65000 170.215
50.66000 172.298
50.67000 173.675
50.68000 171.495
50.69000 166.828
50.70000 162.396
50.71000 165.243
50.72000 171.541
50.73000 177.520
50.74000 177.444
50.75000 175.564
50.76000 174.144
50.77000 176.431
50.78000 179.527
50.79000 182.396
50.80000 184.111
50.81000 185.665
50.82000 186.886
50.83000 176.959
50.84000 168.271
50.85000 162.773
50.86000 164.685
50.87000 166.898
50.88000 168.638
50.89000 169.631
50.90000 170.614
50.91000 171.118
50.92000 164.708
50.93000 160.420
50.94000 158.454
50.95000 158.081
50.96000 157.630
50.97000 154.870
50.98000 151.034
50.99000 147.398
51.00000 150.138
51.01000 154.532
51.02000 158.261
51.03000 156.749
51.04000 154.117
51.05000 152.327
51.06000 154.756
51.07000 157.765
51.08000 160.122
51.09000 154.427
51.10000 149.359
51.11000 147.088
51.12000 151.204
51.13000 155.570
51.14000 158.431
51.15000 158.954
51.16000 159.451
51.17000 159.702
51.18000 152.543
51.19000 147.789
51.20000 147.287
51.21000 149.650
51.22000 152.015
51.23000 154.443
51.24000 156.899
51.25000 159.223
51.26000 156.385
51.27000 152.292
51.28000 148.539
51.29000 147.421
51.30000 146.856
51.31000 145.912
51.32000 143.102
51.33000 140.042
51.34000 137.655
51.35000 137.156
51.36000 136.875
51.37000 137.777
51.38000 141.331
51.39000 144.985
51.40000 147.808
51.41000 149.363
51.42000 150.904
51.43000 151.677
51.44000 146.002
51.45000 142.253
51.46000 142.212
51.47000 144.625
51.48000 147.100
51.49000 151.237
51.50000 156.123
51.51000 160.737
51.52000 155.805
51.53000 148.586
51.54000 142.672
51.55000 146.595
51.56000 152.546
51.57000 156.137
51.58000 148.357
51.59000 139.082
51.60000 131.880
51.61000 134.475
51.62000 137.133
51.63000 139.274
51.64000 140.279
51.65000 141.242
51.66000 142.442
51.67000 143.999
51.68000 145.560
51.69000 145.674
51.70000 144.363
51.71000 143.064
51.72000 142.919
51.73000 143.523
51.74000 144.079
51.75000 143.384
51.76000 142.136
51.77000 140.959
51.78000 142.654
51.79000 145.000
51.80000 146.957
51.81000 146.040
51.82000 144.541
51.83000 143.519
51.84000 144.746
51.85000 146.263
51.86000 147.436
51.87000 143.561
51.88000 140.191
51.89000 138.802
51.90000 141.714
51.91000 144.773
51.92000 146.216
51.93000 145.276
51.94000 144.315
51.95000 144.043
51.96000 144.438
51.97000 144.824
51.98000 144.484
51.99000 143.680
52.00000 142.988
52.01000 145.131
52.02000 148.507
52.03000 151.684
52.04000 150.195
52.05000 147.568
52.06000 145.060
52.07000 143.410
52.08000 141.929
52.09000 140.881
52.10000 141.836
52.11000 143.044
52.12000 143.973
52.13000 147.381
52.14000 150.219
52.15000 151.045
52.16000 147.580
52.17000 143.973
52.18000 142.359
52.19000 143.628
52.20000 144.920
52.21000 144.470
52.22000 142.371
52.23000 140.332
52.24000 142.965
52.25000 148.529
52.26000 153.758
52.27000 150.855
52.28000 144.475
52.29000 138.483
52.30000 136.488
52.31000 135.732
52.32000 134.933
52.33000 133.829
52.34000 132.666
52.35000 132.425
52.36000 136.386
52.37000 140.863
52.38000 144.294
52.39000 143.478
52.40000 142.600
52.41000 141.412
52.42000 139.578
52.43000 137.722
52.44000 136.879
52.45000 137.473
52.46000 138.078
52.47000 138.441
52.48000 138.580
52.49000 138.741
52.50000 140.567
52.51000 143.420
52.52000 146.046
52.53000 143.382
52.54000 138.493
52.55000 133.909
52.56000 135.075
52.57000 137.636
52.58000 140.084
52.59000 141.750
52.60000 143.267
52.61000 143.721
52.62000 139.418
52.63000 134.544
52.64000 130.826
52.65000 134.510
52.66000 137.808
52.67000 139.888
52.68000 139.458
52.69000 138.953
52.70000 138.106
52.71000 136.782
52.72000 135.456
52.73000 138.516
52.74000 145.568
52.75000 152.486
52.76000 150.374
52.77000 142.792
52.78000 135.503
52.79000 134.808
52.80000 136.837
52.81000 138.735
52.82000 141.651
52.83000 144.561
52.84000 147.047
52.85000 146.661
52.86000 145.737
52.87000 144.653
52.88000 142.866
52.89000 140.996
52.90000 139.577
52.91000 138.433
52.92000 137.548
52.93000 137.083
52.94000 137.467
52.95000 137.875
52.96000 140.017
52.97000 144.534
52.98000 149.063
52.99000 149.286
53.00000 145.665
53.01000 142.128
53.02000 143.910
53.03000 148.858
53.04000 153.508
53.05000 151.672
53.06000 147.202
53.07000 143.027
53.08000 142.497
53.09000 142.931
53.10000 144.072
53.11000 149.904
53.12000 156.598
53.13000 160.706
53.14000 153.675
53.15000 145.365
53.16000 139.083
53.17000 143.928
53.18000 148.285
53.19000 150.278
53.20000 147.568
53.21000 144.728
53.22000 145.186
53.23000 150.080
53.24000 154.995
53.25000 158.820
53.26000 161.687
53.27000 164.460
53.28000 161.747
53.29000 155.826
53.30000 150.162
53.31000 149.901
53.32000 151.796
53.33000 153.562
53.34000 156.965
53.35000 160.446
53.36000 162.902
53.37000 158.693
53.38000 153.284
53.39000 149.123
53.40000 150.243
53.41000 151.956
53.42000 153.245
53.43000 151.251
53.44000 149.532
53.45000 146.816
53.46000 142.149
53.47000 137.431
53.48000 137.590
53.49000 144.190
53.50000 150.815
53.51000 152.290
53.52000 149.343
53.53000 146.483
53.54000 148.467
53.55000 153.235
53.56000 157.421
53.57000 149.854
53.58000 137.673
53.59000 126.344
53.60000 130.248
53.61000 137.448
53.62000 143.719
53.63000 144.077
53.64000 143.391
53.65000 143.101
53.66000 144.452
53.67000 145.983
53.68000 147.129
53.69000 147.025
53.70000 146.885
53.71000 147.262
53.72000 148.631
53.73000 150.025
53.74000 148.287
53.75000 142.489
53.76000 136.679
53.77000 137.048
53.78000 142.612
53.79000 148.053
53.80000 147.052
53.81000 142.412
53.82000 138.240
53.83000 143.199
53.84000 151.680
53.85000 159.553
53.86000 156.850
53.87000 151.913
53.88000 147.301
53.89000 144.711
53.90000 142.471
53.91000 140.474
53.92000 139.469
53.93000 138.570
53.94000 137.900
53.95000 140.508
53.96000 142.686
53.97000 144.846
53.98000 146.971
53.99000 149.095
54.00000 150.438
54.01000 150.786
54.02000 151.129
54.03000 150.706
54.04000 149.652
54.05000 148.613
54.06000 148.359
54.07000 148.541
54.08000 148.611
54.09000 146.580
54.10000 143.751
54.11000 141.131
54.12000 141.240
54.13000 141.971
54.14000 143.070
54.15000 146.413
54.16000 150.136
54.17000 152.361
54.18000 148.586
54.19000 144.185
54.20000 140.921
54.21000 145.287
54.22000 149.012
54.23000 150.733
54.24000 148.729
54.25000 146.641
54.26000 143.631
54.27000 139.469
54.28000 135.310
54.29000 135.716
54.30000 139.816
54.31000 143.852
54.32000 144.921
54.33000 144.370
54.34000 143.838
54.35000 143.634
54.36000 143.552
54.37000 143.477
54.38000 141.686
54.39000 139.688
54.40000 138.869
54.41000 145.103
54.42000 152.510
54.43000 157.884
54.44000 155.260
54.45000 151.822
54.46000 149.285
54.47000 144.933
54.48000 141.484
54.49000 139.736
54.50000 141.095
54.51000 142.519
54.52000 141.865
54.53000 138.665
54.54000 135.464
54.55000 134.539
54.56000 135.423
54.57000 136.350
54.58000 139.142
54.59000 142.934
54.60000 146.619
54.61000 148.413
54.62000 149.513
54.63000 150.529
54.64000 149.924
54.65000 149.022
54.66000 147.453
54.67000 141.978
54.68000 135.866
54.69000 131.452
54.70000 133.601
54.71000 136.401
54.72000 138.458
54.73000 141.672
54.74000 144.204
54.75000 144.854
54.76000 142.127
54.77000 139.333
54.78000 138.666
54.79000 140.557
54.80000 142.448
54.81000 144.230
54.82000 145.916
54.83000 147.542
54.84000 146.690
54.85000 144.533
54.86000 142.589
54.87000 144.308
54.88000 147.347
54.89000 150.143
54.90000 154.917
54.91000 159.617
54.92000 162.905
54.93000 158.083
54.94000 151.965
54.95000 147.150
54.96000 147.277
54.97000 147.882
54.98000 148.325
54.99000 145.581
55.00000 143.340
55.01000 143.086
55.02000 146.338
55.03000 149.656
55.04000 151.571
55.05000 151.831
55.06000 152.088
55.07000 151.560
55.08000 150.436
55.09000 149.438
55.10000 153.427
55.11000 159.999
55.12000 166.155
55.13000 165.415
55.14000 162.234
55.15000 159.312
55.16000 157.639
55.17000 156.414
55.18000 155.894
55.19000 159.356
55.20000 163.441
55.21000 166.038
55.22000 163.090
55.23000 159.618
55.24000 157.094
55.25000 161.232
55.26000 164.667
55.27000 168.024
55.28000 171.248
55.29000 174.469
55.30000 175.850
55.31000 175.103
55.32000 174.354
55.33000 173.383
55.34000 172.253
55.35000 171.250
55.36000 175.076
55.37000 181.360
55.38000 187.308
55.39000 187.865
55.40000 186.547
55.41000 185.339
55.42000 185.390
55.43000 185.700
55.44000 186.246
55.45000 188.096
55.46000 190.147
55.47000 192.165
55.48000 194.067
55.49000 195.958
55.50000 197.326
55.51000 205.828
55.52000 212.612
55.53000 218.395
55.54000 222.473
55.55000 226.522
55.56000 229.869
55.57000 232.420
55.58000 234.962
55.59000 235.076
55.60000 233.408
55.61000 231.916
55.62000 236.770
55.63000 244.799
55.64000 252.712
55.65000 258.818
55.66000 264.305
55.67000 269.321
55.68000 279.554
55.69000 289.718
55.70000 299.822
55.71000 309.604
55.72000 319.339
55.73000 327.598
55.74000 330.550
55.75000 333.024
55.76000 334.804
55.77000 344.226
55.78000 351.706
55.79000 360.190
55.80000 370.356
55.81000 380.548
55.82000 388.550
55.83000 394.112
55.84000 399.654
55.85000 405.662
55.86000 411.955
55.87000 418.016
55.88000 416.125
55.89000 410.323
55.90000 405.220
55.91000 410.634
55.92000 419.586
55.93000 427.751
55.94000 421.825
55.95000 413.735
55.96000 406.188
55.97000 401.527
55.98000 397.289
55.99000 394.580
56.00000 397.274
56.01000 400.441
56.02000 402.707
56.03000 386.848
56.04000 374.127
56.05000 365.057
56.06000 361.988
56.07000 359.007
56.08000 351.221
56.09000 338.186
56.10000 325.201
56.11000 318.603
56.12000 316.582
56.13000 314.381
56.14000 306.295
56.15000 295.364
56.16000 285.153
56.17000 285.472
56.18000 289.271
56.19000 292.728
56.20000 275.460
56.21000 256.096
56.22000 239.001
56.23000 233.737
56.24000 230.176
56.25000 227.234
56.26000 226.446
56.27000 225.841
56.28000 225.411
56.29000 216.254
56.30000 208.995
56.31000 203.387
56.32000 200.443
56.33000 197.534
56.34000 196.291
56.35000 196.831
56.36000 197.370
56.37000 192.144
56.38000 182.978
56.39000 174.122
56.40000 174.979
56.41000 180.451
56.42000 185.375
56.43000 182.518
56.44000 177.134
56.45000 172.246
56.46000 167.994
56.47000 164.361
56.48000 161.138
56.49000 160.008
56.50000 159.174
56.51000 158.816
56.52000 160.085
56.53000 161.490
56.54000 162.485
56.55000 157.738
56.56000 153.953
56.57000 152.348
56.58000 154.199
56.59000 156.095
56.60000 155.643
56.61000 152.725
56.62000 149.820
56.63000 149.566
56.64000 151.116
56.65000 152.567
56.66000 151.063
56.67000 148.179
56.68000 145.278
56.69000 142.144
56.70000 138.937
56.71000 136.031
56.72000 137.947
56.73000 140.547
56.74000 142.622
56.75000 142.063
56.76000 141.142
56.77000 139.516
56.78000 135.528
56.79000 131.349
56.80000 128.407
56.81000 130.212
56.82000 131.722
56.83000 133.811
56.84000 136.803
56.85000 139.804
56.86000 140.161
56.87000 137.794
56.88000 135.441
56.89000 136.856
56.90000 140.768
56.91000 144.466
56.92000 141.998
56.93000 136.700
56.94000 131.471
56.95000 127.167
56.96000 123.153
56.97000 119.527
56.98000 124.233
56.99000 129.915
57.00000 134.481
57.01000 133.555
57.02000 131.889
57.03000 130.745
57.04000 131.321
57.05000 132.032
57.06000 132.530
57.07000 126.554
57.08000 121.851
57.09000 121.292
57.10000 127.079
57.11000 132.934
57.12000 132.987
57.13000 127.187
57.14000 121.421
57.15000 121.131
57.16000 124.428
57.17000 127.733
57.18000 131.222
57.19000 134.794
57.20000 137.971
57.21000 135.988
57.22000 132.413
57.23000 129.192
57.24000 131.567
57.25000 134.666
57.26000 136.591
57.27000 132.846
57.28000 128.354
57.29000 125.414
57.30000 127.499
57.31000 129.968
57.32000 131.687
57.33000 130.136
57.34000 128.876
57.35000 129.523
57.36000 133.039
57.37000 136.584
57.38000 137.531
57.39000 135.911
57.40000 134.300
57.41000 133.216
57.42000 132.487
57.43000 131.693
57.44000 129.205
57.45000 125.967
57.46000 123.026
57.47000 123.862
57.48000 125.843
57.49000 127.624
57.50000 129.133
57.51000 130.406
57.52000 130.904
57.53000 127.722
57.54000 124.066
57.55000 121.747
57.56000 123.683
57.57000 125.935
57.58000 127.494
57.59000 127.575
57.60000 127.598
57.61000 128.750
57.62000 131.570
57.63000 134.404
57.64000 134.206
57.65000 131.066
57.66000 127.949
57.67000 128.947
57.68000 132.521
57.69000 135.938
57.70000 135.353
57.71000 133.022
57.72000 130.692
57.73000 128.374
57.74000 126.059
57.75000 123.983
57.76000 125.838
57.77000 128.142
57.78000 130.646
57.79000 134.082
57.80000 137.636
57.81000 139.229
57.82000 134.695
57.83000 129.718
57.84000 126.292
57.85000 127.894
57.86000 129.222
57.87000 130.550
57.88000 131.876
57.89000 133.202
57.90000 132.455
57.91000 129.740
57.92000 127.045
57.93000 126.030
57.94000 126.069
57.95000 126.205
57.96000 128.686
57.97000 132.172
57.98000 135.454
57.99000 136.295
58.00000 136.421
58.01000 136.533
58.02000 134.898
58.03000 133.175
58.04000 131.809
58.05000 132.074
58.06000 132.541
58.07000 131.952
58.08000 128.116
58.09000 124.052
58.10000 121.271
58.11000 122.649
58.12000 123.780
58.13000 124.357
58.14000 124.145
58.15000 123.927
58.16000 124.924
58.17000 127.054
58.18000 129.166
58.19000 126.553
58.20000 121.121
58.21000 116.000
58.22000 118.178
58.23000 123.432
58.24000 128.266
58.25000 128.177
58.26000 126.673
58.27000 125.331
58.28000 126.410
58.29000 127.752
58.30000 128.800
58.31000 128.532
58.32000 128.105
58.33000 128.669
58.34000 132.229
58.35000 135.992
58.36000 138.553
58.37000 128.732
58.38000 121.117
58.39000 118.001
58.40000 121.180
58.41000 124.399
58.42000 124.398
58.43000 121.455
58.44000 118.538
58.45000 117.996
58.46000 118.879
58.47000 119.716
58.48000 119.501
58.49000 118.851
58.50000 118.263
58.51000 118.378
58.52000 118.691
58.53000 118.969
58.54000 122.817
58.55000 126.739
58.56000 129.419
58.57000 126.633
58.58000 123.203
58.59000 121.070
58.60000 122.789
58.61000 124.762
58.62000 126.097
58.63000 126.916
58.64000 127.515
58.65000 126.506
58.66000 123.291
58.67000 120.064
58.68000 120.408
58.69000 123.951
58.70000 127.460
58.71000 126.503
58.72000 122.958
58.73000 119.569
58.74000 119.572
58.75000 120.957
58.76000 122.196
58.77000 121.812
58.78000 120.978
58.79000 120.237
58.80000 123.238
58.81000 126.434
58.82000 128.711
58.83000 127.014
58.84000 124.861
58.85000 122.781
58.86000 120.921
58.87000 119.074
58.88000 117.832
58.89000 119.035
58.90000 119.979
58.91000 120.272
58.92000 119.687
58.93000 119.098
58.94000 118.642
58.95000 118.305
58.96000 117.970
58.97000 118.684
58.98000 119.984
58.99000 121.201
59.00000 120.689
59.01000 119.484
59.02000 118.166
59.03000 115.619
59.04000 112.738
59.05000 110.188
59.06000 113.151
59.07000 116.574
59.08000 119.600
59.09000 120.943
59.10000 122.096
59.11000 123.081
59.12000 123.587
59.13000 124.064
59.14000 124.382
59.15000 127.579
59.16000 130.005
59.17000 130.602
59.18000 128.778
59.19000 126.942
59.20000 125.243
59.21000 123.662
59.22000 122.099
59.23000 124.615
59.24000 129.367
59.25000 133.793
59.26000 131.616
59.27000 126.841
59.28000 122.179
59.29000 118.705
59.30000 115.549
59.31000 112.764
59.32000 116.414
59.33000 120.546
59.34000 123.214
59.35000 119.789
59.36000 115.693
59.37000 112.264
59.38000 110.711
59.39000 109.272
59.40000 108.316
59.41000 114.543
59.42000 119.279
59.43000 122.991
59.44000 125.373
59.45000 127.744
59.46000 126.354
59.47000 121.782
59.48000 117.266
59.49000 117.047
59.50000 119.206
59.51000 121.184
59.52000 119.613
59.53000 116.669
59.54000 114.068
59.55000 114.993
59.56000 116.846
59.57000 118.477
59.58000 119.950
59.59000 121.194
59.60000 121.683
59.61000 119.079
59.62000 116.143
59.63000 114.297
59.64000 115.470
59.65000 116.820
59.66000 117.710
59.67000 119.278
59.68000 120.445
59.69000 120.500
59.70000 119.135
59.71000 117.769
59.72000 117.831
59.73000 119.080
59.74000 120.313
59.75000 120.963
59.76000 121.281
59.77000 121.627
59.78000 122.513
59.79000 123.605
59.80000 124.435
59.81000 122.636
59.82000 120.159
59.83000 117.985
59.84000 118.266
59.85000 118.867
59.86000 119.296
59.87000 119.037
59.88000 118.706
59.89000 118.077
59.90000 116.637
59.91000 115.151
59.92000 114.177
59.93000 116.577
59.94000 118.399
59.95000 119.015
59.96000 118.121
59.97000 117.227
59.98000 117.585
59.99000 118.964
60.00000 120.325
60.01000 123.043
60.02000 126.408
60.03000 129.495
60.04000 127.490
60.05000 123.583
60.06000 119.956
60.07000 119.086
60.08000 118.915
60.09000 118.766
60.10000 117.446
60.11000 116.147
60.12000 115.343
60.13000 116.490
60.14000 117.836
60.15000 118.078
60.16000 115.366
60.17000 112.492
60.18000 110.619
60.19000 113.774
60.20000 116.167
60.21000 119.649
60.22000 124.470
60.23000 129.282
60.24000 129.975
60.25000 127.377
60.26000 124.817
60.27000 121.868
60.28000 118.802
60.29000 115.924
60.30000 116.367
60.31000 118.030
60.32000 119.350
60.33000 117.387
60.34000 114.605
60.35000 112.178
60.36000 114.744
60.37000 117.637
60.38000 120.323
60.39000 122.206
60.40000 124.009
60.41000 125.116
60.42000 124.393
60.43000 123.572
60.44000 123.041
60.45000 121.603
60.46000 120.538
60.47000 119.289
60.48000 117.820
60.49000 116.360
60.50000 117.676
60.51000 121.170
60.52000 124.611
60.53000 126.764
60.54000 128.192
60.55000 129.237
60.56000 123.713
60.57000 115.817
60.58000 108.901
60.59000 111.130
60.60000 115.597
60.61000 119.483
60.62000 119.857
60.63000 119.697
60.64000 119.283
60.65000 117.903
60.66000 116.429
60.67000 116.485
60.68000 120.495
60.69000 124.708
60.70000 127.416
60.71000 117.144
60.72000 109.468
60.73000 107.723
60.74000 112.994
60.75000 118.279
60.76000 123.708
60.77000 129.249
60.78000 134.701
60.79000 133.088
60.80000 127.977
60.81000 123.239
60.82000 124.697
60.83000 128.354
60.84000 131.622
60.85000 131.349
60.86000 130.224
60.87000 129.249
60.88000 126.666
60.89000 124.251
60.90000 121.952
60.91000 120.091
60.92000 118.271
60.93000 116.994
60.94000 117.097
60.95000 117.269
60.96000 117.379
60.97000 119.807
60.98000 121.604
60.99000 124.058
61.00000 127.274
61.01000 130.472
61.02000 129.518
61.03000 125.426
61.04000 121.405
61.05000 120.568
61.06000 121.331
61.07000 122.046
61.08000 122.005
61.09000 121.699
61.10000 121.366
61.11000 120.800
61.12000 120.178
61.13000 119.641
61.14000 119.860
61.15000 120.145
61.16000 120.706
61.17000 122.279
61.18000 123.946
61.19000 125.553
61.20000 127.010
61.21000 128.460
61.22000 129.379
61.23000 126.339
61.24000 124.083
61.25000 124.358
61.26000 127.514
61.27000 130.653
61.28000 130.207
61.29000 127.101
61.30000 124.052
61.31000 125.742
61.32000 129.669
61.33000 133.390
61.34000 133.909
61.35000 133.330
61.36000 132.651
61.37000 131.099
61.38000 129.345
61.39000 127.832
61.40000 129.271
61.41000 130.867
61.42000 131.993
61.43000 131.423
61.44000 130.700
61.45000 131.076
61.46000 134.150
61.47000 137.348
61.48000 139.363
61.49000 149.640
61.50000 157.173
61.51000 165.873
61.52000 175.878
61.53000 185.884
61.54000 195.977
61.55000 206.133
61.56000 216.096
61.57000 230.501
61.58000 246.491
61.59000 262.164
61.60000 273.035
61.61000 282.287
61.62000 291.123
61.63000 296.429
61.64000 300.933
61.65000 304.804
61.66000 300.035
61.67000 294.923
61.68000 291.873
61.69000 296.130
61.70000 301.030
61.71000 302.394
61.72000 295.218
61.73000 287.665
61.74000 282.938
61.75000 263.743
61.76000 249.732
61.77000 236.752
61.78000 224.900
61.79000 213.062
61.80000 203.143
61.81000 194.597
61.82000 186.222
61.83000 177.548
61.84000 169.063
61.85000 160.790
61.86000 155.627
61.87000 151.494
61.88000 147.609
61.89000 145.778
61.90000 144.405
61.91000 143.229
61.92000 141.431
61.93000 139.837
61.94000 138.214
61.95000 136.492
61.96000 134.761
61.97000 134.139
61.98000 136.148
61.99000 138.269
62.00000 139.587
62.01000 138.844
62.02000 138.289
62.03000 138.121
62.04000 138.368
62.05000 138.607
62.06000 137.629
62.07000 135.797
62.08000 134.003
62.09000 134.346
62.10000 135.654
62.11000 136.724
62.12000 134.396
62.13000 130.962
62.14000 127.848
62.15000 127.330
62.16000 127.380
62.17000 127.423
62.18000 124.409
62.19000 121.505
62.20000 119.622
62.21000 121.227
62.22000 123.123
62.23000 123.729
62.24000 121.322
62.25000 118.791
62.26000 117.230
62.27000 122.991
62.28000 127.194
62.29000 127.853
62.30000 124.779
62.31000 121.720
62.32000 120.453
62.33000 120.423
62.34000 120.394
62.35000 122.321
62.36000 125.048
62.37000 127.662
62.38000 128.708
62.39000 129.252
62.40000 130.206
62.41000 134.402
62.42000 139.296
62.43000 143.463
62.44000 137.990
62.45000 132.271
62.46000 128.141
62.47000 129.353
62.48000 130.999
62.49000 131.947
62.50000 131.294
62.51000 130.579
62.52000 130.140
62.53000 134.942
62.54000 138.425
62.55000 137.954
62.56000 133.401
62.57000 128.874
62.58000 127.196
62.59000 127.450
62.60000 127.698
62.61000 127.726
62.62000 127.655
62.63000 127.703
62.64000 129.365
62.65000 131.534
62.66000 133.608
62.67000 134.941
62.68000 136.117
62.69000 137.116
62.70000 131.664
62.71000 126.361
62.72000 124.258
62.73000 132.728
62.74000 142.032
62.75000 147.446
62.76000 144.081
62.77000 140.384
62.78000 138.136
62.79000 138.225
62.80000 138.307
62.81000 136.588
62.82000 133.049
62.83000 129.545
62.84000 129.739
62.85000 132.392
62.86000 134.982
62.87000 134.457
62.88000 132.608
62.89000 130.982
62.90000 132.261
62.91000 134.438
62.92000 136.086
62.93000 133.721
62.94000 130.524
62.95000 127.820
62.96000 131.758
62.97000 135.788
62.98000 139.449
62.99000 141.909
63.00000 144.276
63.01000 145.993
63.02000 146.265
63.03000 146.484
63.04000 146.617
63.05000 141.550
63.06000 137.905
63.07000 135.181
63.08000 133.372
63.09000 131.548
63.10000 128.385
63.11000 124.346
63.12000 120.409
63.13000 121.692
63.14000 125.132
63.15000 128.609
63.16000 132.564
63.17000 136.663
63.18000 140.403
63.19000 141.470
63.20000 141.994
63.21000 142.436
63.22000 138.413
63.23000 134.572
63.24000 132.108
63.25000 134.035
63.26000 136.290
63.27000 137.628
63.28000 136.967
63.29000 136.236
63.30000 135.798
63.31000 134.224
63.32000 133.100
63.33000 132.237
63.34000 131.629
63.35000 131.043
63.36000 132.360
63.37000 134.899
63.38000 137.371
63.39000 138.343
63.40000 138.646
63.41000 139.127
63.42000 141.823
63.43000 145.181
63.44000 148.023
63.45000 147.127
63.46000 145.485
63.47000 144.106
63.48000 140.719
63.49000 137.686
63.50000 134.672
63.51000 131.722
63.52000 128.777
63.53000 127.780
63.54000 130.958
63.55000 134.275
63.56000 136.247
63.57000 136.956
63.58000 137.450
63.59000 138.236
63.60000 139.298
63.61000 140.337
63.62000 139.475
63.63000 137.415
63.64000 135.412
63.65000 132.978
63.66000 130.486
63.67000 128.462
63.68000 132.075
63.69000 137.341
63.70000 141.712
63.71000 139.716
63.72000 136.475
63.73000 133.761
63.74000 137.438
63.75000 141.152
63.76000 143.153
63.77000 139.878
63.78000 136.231
63.79000 135.561
63.80000 141.162
63.81000 146.964
63.82000 150.387
63.83000 145.506
63.84000 142.015
63.85000 138.791
63.86000 135.817
63.87000 132.937
63.88000 136.938
63.89000 145.204
63.90000 153.231
63.91000 152.044
63.92000 147.222
63.93000 142.908
63.94000 144.564
63.95000 147.940
63.96000 150.642
63.97000 148.655
63.98000 145.768
63.99000 143.359
64.00000 142.600
64.01000 142.136
64.02000 142.822
64.03000 146.993
64.04000 151.401
64.05000 153.519
64.06000 150.894
64.07000 148.124
64.08000 146.502
64.09000 151.828
64.10000 155.609
64.11000 154.597
64.12000 149.192
64.13000 143.864
64.14000 143.788
64.15000 146.910
64.16000 149.939
64.17000 146.404
64.18000 140.472
64.19000 135.170
64.20000 137.079
64.21000 141.030
64.22000 144.571
64.23000 145.311
64.24000 145.524
64.25000 145.702
64.26000 143.167
64.27000 140.804
64.28000 139.075
64.29000 139.236
64.30000 139.523
64.31000 142.569
64.32000 151.232
64.33000 160.060
64.34000 165.187
64.35000 158.840
64.36000 154.335
64.37000 151.763
64.38000 150.927
64.39000 150.135
64.40000 152.110
64.41000 155.742
64.42000 159.260
64.43000 160.464
64.44000 160.710
64.45000 160.652
64.46000 157.205
64.47000 152.817
64.48000 149.695
64.49000 155.023
64.50000 161.911
64.51000 167.618
64.52000 164.045
64.53000 160.209
64.54000 158.228
64.55000 161.677
64.56000 165.476
64.57000 167.743
64.58000 166.947
64.59000 166.065
64.60000 165.557
64.61000 162.701
64.62000 160.696
64.63000 161.684
64.64000 165.310
64.65000 168.941
64.66000 172.826
64.67000 176.859
64.68000 180.761
64.69000 179.244
64.70000 175.758
64.71000 172.683
64.72000 174.081
64.73000 176.701
64.74000 179.074
64.75000 179.834
64.76000 180.302
64.77000 180.688
64.78000 174.472
64.79000 168.737
64.80000 166.703
64.81000 175.310
64.82000 184.583
64.83000 190.162
64.84000 188.481
64.85000 186.606
64.86000 185.535
64.87000 186.885
64.88000 187.837
64.89000 189.804
64.90000 192.649
64.91000 195.378
64.92000 191.577
64.93000 184.003
64.94000 176.687
64.95000 180.340
64.96000 187.862
64.97000 194.583
64.98000 192.812
64.99000 188.762
65.00000 185.689
65.01000 188.865
65.02000 193.152
65.03000 196.678
65.04000 195.715
65.05000 194.518
65.06000 195.054
65.07000 200.491
65.08000 206.224
65.09000 209.911
65.10000 209.644
65.11000 209.276
65.12000 209.068
65.13000 210.087
65.14000 210.799
65.15000 210.353
65.16000 208.926
65.17000 207.607
65.18000 212.011
65.19000 219.664
65.20000 227.047
65.21000 226.868
65.22000 223.940
65.23000 221.365
65.24000 222.440
65.25000 224.479
65.26000 226.736
65.27000 230.366
65.28000 234.234
65.29000 237.404
65.30000 237.265
65.31000 236.859
65.32000 238.213
65.33000 244.459
65.34000 250.992
65.35000 253.539
65.36000 248.514
65.37000 243.307
65.38000 240.379
65.39000 242.812
65.40000 244.523
65.41000 250.256
65.42000 259.337
65.43000 268.336
65.44000 273.238
65.45000 275.854
65.46000 278.375
65.47000 277.896
65.48000 276.372
65.49000 275.289
65.50000 278.655
65.51000 283.174
65.52000 288.761
65.53000 300.920
65.54000 314.200
65.55000 325.043
65.56000 331.783
65.57000 336.945
65.58000 343.995
65.59000 356.200
65.60000 368.698
65.61000 384.105
65.62000 404.943
65.63000 425.905
65.64000 437.590
65.65000 483.640
65.66000 515.642
65.67000 573.581
65.68000 652.701
65.69000 732.313
65.70000 835.127
65.71000 950.661
65.72000 1061.802
65.73000 1178.637
65.74000 1290.184
65.75000 1400.698
65.76000 1501.062
65.77000 1598.844
65.78000 1691.428
65.79000 1752.722
65.80000 1808.783
65.81000 1854.385
65.82000 1863.864
65.83000 1868.575
65.84000 1875.337
65.85000 1887.606
65.86000 1900.177
65.87000 1904.254
65.88000 1892.745
65.89000 1880.901
65.90000 1874.354
65.91000 1802.942
65.92000 1753.445
65.93000 1664.948
65.94000 1545.195
65.95000 1425.428
65.96000 1304.986
65.97000 1184.181
65.98000 1068.140
65.99000 949.704
66.00000 838.033
66.01000 730.788
66.02000 665.962
66.03000 611.735
66.04000 559.519
66.05000 519.169
66.06000 480.763
66.07000 449.641
66.08000 430.174
66.09000 415.268
66.10000 401.367
66.11000 390.122
66.12000 379.017
66.13000 370.819
66.14000 367.862
66.15000 365.012
66.16000 363.450
66.17000 367.067
66.18000 369.552
66.19000 368.987
66.20000 366.022
66.21000 363.291
66.22000 370.470
66.23000 382.897
66.24000 394.816
66.25000 421.353
66.26000 451.087
66.27000 478.824
66.28000 487.862
66.29000 492.311
66.30000 499.565
66.31000 523.039
66.32000 549.118
66.33000 570.170
66.34000 592.565
66.35000 610.873
66.36000 624.304
66.37000 625.087
66.38000 625.221
66.39000 624.482
66.40000 622.194
66.41000 619.876
66.42000 618.618
66.43000 606.534
66.44000 598.267
66.45000 597.552
66.46000 602.667
66.47000 607.208
66.48000 588.621
66.49000 557.998
66.50000 528.671
66.51000 509.578
66.52000 495.172
66.53000 480.574
66.54000 464.216
66.55000 447.435
66.56000 430.643
66.57000 413.792
66.58000 396.931
66.59000 383.373
66.60000 376.644
66.61000 371.715
66.62000 367.308
66.63000 364.234
66.64000 361.225
66.65000 357.882
66.66000 353.956
66.67000 350.019
66.68000 347.900
66.69000 341.448
66.70000 337.058
66.71000 337.964
66.72000 342.884
66.73000 347.690
66.74000 348.135
66.75000 346.347
66.76000 344.639
66.77000 348.380
66.78000 353.638
66.79000 358.101
66.80000 355.482
66.81000 351.187
66.82000 347.406
66.83000 346.483
66.84000 346.000
66.85000 345.614
66.86000 364.403
66.87000 381.045
66.88000 390.466
66.89000 381.791
66.90000 372.248
66.91000 365.358
66.92000 363.007
66.93000 360.733
66.94000 359.520
66.95000 362.622
66.96000 364.717
66.97000 362.912
66.98000 358.203
66.99000 353.740
67.00000 358.247
67.01000 367.265
67.02000 375.874
67.03000 373.087
67.04000 366.856
67.05000 361.379
67.06000 362.466
67.07000 365.079
67.08000 367.410
67.09000 368.201
67.10000 368.761
67.11000 369.208
67.12000 373.851
67.13000 377.906
67.14000 380.222
67.15000 378.255
67.16000 376.090
67.17000 374.185
67.18000 372.720
67.19000 371.260
67.20000 370.489
67.21000 388.611
67.22000 400.830
67.23000 396.243
67.24000 379.379
67.25000 363.181
67.26000 370.165
67.27000 388.606
67.28000 406.183
67.29000 409.306
67.30000 407.672
67.31000 405.947
67.32000 403.447
67.33000 400.771
67.34000 399.147
67.35000 403.149
67.36000 407.982
67.37000 411.822
67.38000 409.662
67.39000 407.497
67.40000 405.059
67.41000 401.962
67.42000 398.835
67.43000 400.390
67.44000 409.680
67.45000 419.086
67.46000 424.011
67.47000 411.549
67.48000 403.151
67.49000 401.754
67.50000 405.378
67.51000 409.139
67.52000 417.463
67.53000 428.004
67.54000 438.034
67.55000 440.171
67.56000 439.721
67.57000 438.981
67.58000 435.827
67.59000 432.131
67.60000 428.384
67.61000 424.367
67.62000 420.311
67.63000 417.102
67.64000 434.170
67.65000 449.284
67.66000 460.312
67.67000 461.613
67.68000 462.497
67.69000 461.853
67.70000 458.731
67.71000 455.575
67.72000 453.938
67.73000 458.580
67.74000 461.718
67.75000 465.263
67.76000 469.095
67.77000 472.758
67.78000 471.057
67.79000 466.794
67.80000 462.744
67.81000 467.431
67.82000 474.395
67.83000 480.312
67.84000 477.706
67.85000 473.227
67.86000 469.805
67.87000 471.814
67.88000 474.593
67.89000 476.782
67.90000 479.627
67.91000 481.952
67.92000 486.966
67.93000 498.274
67.94000 509.841
67.95000 512.412
67.96000 500.638
67.97000 488.679
67.98000 482.535
67.99000 490.322
68.00000 495.537
68.01000 497.690
68.02000 497.723
68.03000 497.735
68.04000 497.075
68.05000 496.099
68.06000 495.173
68.07000 505.231
68.08000 517.752
68.09000 529.194
68.10000 532.053
68.11000 533.059
68.12000 534.873
68.13000 540.761
68.14000 547.214
68.15000 552.278
68.16000 544.914
68.17000 538.216
68.18000 536.478
68.19000 546.152
68.20000 556.280
68.21000 561.480
68.22000 558.962
68.23000 556.352
68.24000 555.024
68.25000 547.527
68.26000 542.588
68.27000 547.504
68.28000 559.115
68.29000 570.562
68.30000 577.234
68.31000 581.704
68.32000 585.936
68.33000 595.004
68.34000 604.750
68.35000 613.135
68.36000 610.926
68.37000 606.474
68.38000 603.366
68.39000 606.914
68.40000 611.365
68.41000 614.843
68.42000 634.579
68.43000 651.355
68.44000 662.936
68.45000 662.768
68.46000 662.151
68.47000 670.634
68.48000 693.122
68.49000 715.764
68.50000 727.170
68.51000 722.862
68.52000 720.067
68.53000 725.879
68.54000 737.435
68.55000 749.295
68.56000 769.616
68.57000 793.774
68.58000 816.607
68.59000 849.840
68.60000 883.322
68.61000 916.087
68.62000 943.406
68.63000 969.593
68.64000 999.647
68.65000 1048.480
68.66000 1099.807
68.67000 1139.741
68.68000 1200.991
68.69000 1251.057
68.70000 1290.131
68.71000 1304.771
68.72000 1318.515
68.73000 1347.676
68.74000 1400.143
68.75000 1452.847
68.76000 1505.390
68.77000 1557.772
68.78000 1610.052
68.79000 1652.739
68.80000 1689.138
68.81000 1726.179
68.82000 1780.400
68.83000 1842.280
68.84000 1900.661
68.85000 2013.929
68.86000 2133.070
68.87000 2271.689
68.88000 2555.360
68.89000 2868.604
68.90000 3267.895
68.91000 4077.300
68.92000 4939.971
68.93000 5608.246
68.94000 8119.365
68.95000 10223.401
68.96000 12674.375
68.97000 15883.524
68.98000 19119.320
68.99000 22382.586
69.00000 25686.639
69.01000 28991.006
69.02000 31866.850
69.03000 34324.715
69.04000 36772.523
69.05000 38348.129
69.06000 39362.160
69.07000 40366.328
69.08000 41117.348
69.09000 41757.418
69.10000 42360.195
69.11000 43128.762
69.12000 43877.227
69.13000 44610.809
69.14000 45235.922
69.15000 45839.336
69.16000 46287.777
69.17000 46011.309
69.18000 45642.758
69.19000 45358.512
69.20000 42555.668
69.21000 40189.461
69.22000 37627.070
69.23000 34643.234
69.24000 31645.211
69.25000 29141.057
69.26000 27357.102
69.27000 25579.395
69.28000 24182.846
69.29000 23150.814
69.30000 22124.262
69.31000 21537.643
69.32000 21229.285
69.33000 20918.354
69.34000 20543.947
69.35000 20142.191
69.36000 19764.541
69.37000 18815.475
69.38000 17795.564
69.39000 16687.420
69.40000 14949.998
69.41000 13089.082
69.42000 11258.492
69.43000 9567.127
69.44000 7893.057
69.45000 6607.646
69.46000 5285.021
69.47000 4237.405
69.48000 3355.322
69.49000 2822.784
69.50000 2301.513
69.51000 1909.287
69.52000 1701.874
69.53000 1495.918
69.54000 1354.346
69.55000 1273.142
69.56000 1192.224
69.57000 1132.609
69.58000 1086.231
69.59000 1039.990
69.60000 996.995
69.61000 955.375
69.62000 916.325
69.63000 881.611
69.64000 851.120
69.65000 822.949
69.66000 810.968
69.67000 802.105
69.68000 792.196
69.69000 777.575
69.70000 762.382
69.71000 750.769
69.72000 722.104
69.73000 698.573
69.74000 680.455
69.75000 673.572
69.76000 667.035
69.77000 655.927
69.78000 638.388
69.79000 620.808
69.80000 609.060
69.81000 602.674
69.82000 596.236
69.83000 586.211
69.84000 573.994
69.85000 562.135
69.86000 558.442
69.87000 558.149
69.88000 557.874
69.89000 550.794
69.90000 542.598
69.91000 534.426
69.92000 526.411
69.93000 518.426
69.94000 511.439
69.95000 508.869
69.96000 506.822
69.97000 505.265
69.98000 495.174
69.99000 486.787
70.00000 480.929
