20.00000 487.799
20.01000 475.839
20.02000 462.170
20.03000 453.682
20.04000 465.618
20.05000 479.642
20.06000 489.997
20.07000 473.996
20.08000 460.477
20.09000 454.030
20.10000 460.520
20.11000 467.286
20.12000 472.887
20.13000 477.058
20.14000 481.218
20.15000 481.455
20.16000 478.569
20.17000 475.722
20.18000 474.586
20.19000 474.369
20.20000 474.300
20.21000 476.849
20.22000 480.359
20.23000 483.598
20.24000 481.980
20.25000 479.445
20.26000 476.621
20.27000 472.088
20.28000 467.277
20.29000 464.323
20.30000 468.565
20.31000 473.525
20.32000 477.168
20.33000 484.043
20.34000 489.491
20.35000 490.511
20.36000 483.571
20.37000 476.471
20.38000 472.608
20.39000 472.650
20.40000 472.699
20.41000 467.948
20.42000 459.476
20.43000 451.287
20.44000 455.005
20.45000 465.009
20.46000 474.168
20.47000 468.829
20.48000 458.257
20.49000 448.523
20.50000 451.224
20.51000 456.361
20.52000 461.696
20.53000 468.180
20.54000 474.849
20.55000 478.307
20.56000 469.557
20.57000 459.619
20.58000 452.354
20.59000 460.846
20.60000 468.018
20.61000 472.680
20.62000 472.911
20.63000 473.056
20.64000 473.835
20.65000 475.363
20.66000 476.889
20.67000 472.886
20.68000 464.677
20.69000 456.655
20.70000 456.083
20.71000 459.377
20.72000 462.613
20.73000 464.877
20.74000 466.796
20.75000 468.559
20.76000 466.888
20.77000 464.660
20.78000 462.756
20.79000 462.684
20.80000 462.899
20.81000 464.851
20.82000 473.290
20.83000 482.345
20.84000 488.931
20.85000 481.218
20.86000 474.739
20.87000 471.698
20.88000 474.622
20.89000 477.654
20.90000 477.845
20.91000 474.740
20.92000 471.638
20.93000 465.674
20.94000 457.600
20.95000 449.850
20.96000 454.378
20.97000 465.169
20.98000 475.186
20.99000 472.769
21.00000 466.013
21.01000 459.821
21.02000 467.561
21.03000 477.382
21.04000 485.860
21.05000 486.898
21.06000 486.794
21.07000 485.649
21.08000 480.685
21.09000 475.366
21.10000 471.518
21.11000 458.346
21.12000 447.895
21.13000 444.412
21.14000 452.818
21.15000 461.423
21.16000 469.667
21.17000 477.499
21.18000 485.306
21.19000 483.815
21.20000 475.491
21.21000 467.350
21.22000 465.870
21.23000 467.729
21.24000 469.187
21.25000 464.398
21.26000 457.467
21.27000 451.129
21.28000 459.242
21.29000 469.427
21.30000 477.074
21.31000 470.926
21.32000 462.702
21.33000 457.972
21.34000 465.836
21.35000 474.836
21.36000 481.314
21.37000 484.492
21.38000 486.810
21.39000 486.158
21.40000 480.526
21.41000 474.816
21.42000 472.312
21.43000 473.386
21.44000 474.460
21.45000 477.450
21.46000 481.798
21.47000 485.796
21.48000 477.703
21.49000 463.653
21.50000 450.564
21.51000 452.010
21.52000 458.356
21.53000 464.146
21.54000 467.289
21.55000 469.544
21.56000 470.817
21.57000 466.865
21.58000 462.143
21.59000 458.191
21.60000 456.965
21.61000 455.978
21.62000 455.271
21.63000 456.935
21.64000 458.287
21.65000 463.324
21.66000 474.432
21.67000 485.630
21.68000 486.935
21.69000 477.409
21.70000 467.915
21.71000 466.072
21.72000 469.667
21.73000 473.363
21.74000 480.376
21.75000 488.997
21.76000 496.603
21.77000 489.322
21.78000 477.111
21.79000 465.994
21.80000 463.512
21.81000 463.020
21.82000 464.462
21.83000 476.012
21.84000 489.018
21.85000 498.113
21.86000 493.589
21.87000 487.900
21.88000 483.848
21.89000 493.320
21.90000 500.978
21.91000 507.229
21.92000 511.201
21.93000 515.142
21.94000 519.426
21.95000 524.077
21.96000 528.707
21.97000 533.879
21.98000 539.373
21.99000 544.728
22.00000 545.697
22.01000 544.579
22.02000 543.606
22.03000 544.712
22.04000 546.495
22.05000 548.114
22.06000 552.573
22.07000 557.061
22.08000 560.473
22.09000 558.370
22.10000 555.488
22.11000 551.911
22.12000 545.956
22.13000 539.803
22.14000 535.444
22.15000 540.697
22.16000 544.990
22.17000 549.223
22.18000 553.362
22.19000 557.498
22.20000 554.280
22.21000 543.317
22.22000 532.407
22.23000 526.169
22.24000 523.187
22.25000 520.249
22.26000 518.599
22.27000 517.552
22.28000 516.100
22.29000 509.037
22.30000 500.178
22.31000 492.152
22.32000 486.949
22.33000 482.898
22.34000 480.076
22.35000 483.441
22.36000 487.661
22.37000 488.192
22.38000 476.327
22.39000 463.456
22.40000 454.389
22.41000 452.780
22.42000 451.783
22.43000 455.120
22.44000 465.225
22.45000 475.411
22.46000 483.155
22.47000 488.379
22.48000 493.575
22.49000 486.707
22.50000 471.856
22.51000 457.453
22.52000 455.966
22.53000 460.421
22.54000 464.766
22.55000 467.623
22.56000 470.012
22.57000 472.172
22.58000 475.763
22.59000 479.187
22.60000 479.298
22.61000 463.057
22.62000 444.605
22.63000 431.312
22.64000 435.051
22.65000 440.135
22.66000 443.696
22.67000 447.421
22.68000 450.243
22.69000 452.389
22.70000 453.498
22.71000 454.595
22.72000 453.563
22.73000 450.379
22.74000 447.213
22.75000 436.654
22.76000 421.388
22.77000 407.052
22.78000 418.449
22.79000 441.484
22.80000 462.833
22.81000 462.131
22.82000 454.615
22.83000 447.839
22.84000 449.872
22.85000 453.258
22.86000 454.790
22.87000 447.353
22.88000 438.728
22.89000 432.256
22.90000 432.771
22.91000 433.821
22.92000 434.552
22.93000 440.621
22.94000 445.347
22.95000 447.770
22.96000 446.721
22.97000 445.638
22.98000 442.855
22.99000 438.385
23.00000 433.945
23.01000 434.219
23.02000 437.524
23.03000 440.825
23.04000 444.004
23.05000 447.129
23.06000 449.581
23.07000 443.474
23.08000 434.767
23.09000 426.937
23.10000 437.792
23.11000 450.627
23.12000 460.582
23.13000 456.853
23.14000 451.354
23.15000 446.598
23.16000 444.207
23.17000 441.992
23.18000 440.458
23.19000 437.738
23.20000 435.659
23.21000 436.974
23.22000 443.313
23.23000 449.698
23.24000 453.140
23.25000 453.722
23.26000 454.300
23.27000 451.916
23.28000 447.700
23.29000 443.550
23.30000 441.085
23.31000 439.356
23.32000 437.851
23.33000 439.106
23.34000 441.186
23.35000 443.051
23.36000 439.089
23.37000 434.611
23.38000 431.640
23.39000 435.691
23.40000 440.630
23.41000 444.111
23.42000 443.017
23.43000 441.592
23.44000 440.610
23.45000 439.989
23.46000 439.531
23.47000 437.272
23.48000 432.395
23.49000 427.498
23.50000 427.140
23.51000 431.109
23.52000 435.047
23.53000 435.202
23.54000 433.009
23.55000 430.930
23.56000 431.637
23.57000 433.542
23.58000 435.646
23.59000 440.146
23.60000 445.349
23.61000 450.004
23.62000 453.279
23.63000 455.899
23.64000 457.180
23.65000 452.331
23.66000 446.722
23.67000 444.551
23.68000 452.966
23.69000 462.127
23.70000 468.400
23.71000 462.407
23.72000 457.624
23.73000 457.647
23.74000 464.530
23.75000 471.465
23.76000 476.826
23.77000 480.717
23.78000 484.576
23.79000 486.576
23.80000 487.410
23.81000 488.194
23.82000 487.788
23.83000 486.881
23.84000 485.965
23.85000 484.939
23.86000 483.881
23.87000 482.938
23.88000 481.784
23.89000 480.745
23.90000 481.262
23.91000 488.769
23.92000 497.123
23.93000 504.056
23.94000 506.692
23.95000 509.033
23.96000 510.627
23.97000 503.537
23.98000 498.043
23.99000 498.817
24.00000 508.382
24.01000 518.002
24.02000 517.758
24.03000 508.480
24.04000 499.286
24.05000 500.189
24.06000 507.101
24.07000 513.695
24.08000 513.093
24.09000 509.501
24.10000 505.801
24.11000 500.861
24.12000 495.569
24.13000 490.859
24.14000 483.182
24.15000 476.029
24.16000 469.727
24.17000 467.177
24.18000 465.071
24.19000 462.356
24.20000 457.830
24.21000 453.184
24.22000 450.040
24.23000 457.053
24.24000 462.499
24.25000 460.466
24.26000 448.138
24.27000 435.754
24.28000 434.664
24.29000 443.716
24.30000 452.681
24.31000 455.491
24.32000 454.638
24.33000 453.519
24.34000 446.599
24.35000 437.310
24.36000 428.463
24.37000 424.520
24.38000 421.942
24.39000 419.653
24.40000 419.910
24.41000 420.539
24.42000 421.522
24.43000 424.039
24.44000 426.733
24.45000 428.024
24.46000 425.215
24.47000 422.142
24.48000 420.074
24.49000 432.700
24.50000 442.388
24.51000 443.741
24.52000 433.827
24.53000 423.853
24.54000 415.436
24.55000 408.392
24.56000 401.420
24.57000 405.368
24.58000 415.503
24.59000 425.148
24.60000 424.447
24.61000 419.594
24.62000 414.702
24.63000 409.375
24.64000 403.929
24.65000 399.108
24.66000 403.889
24.67000 409.526
24.68000 414.768
24.69000 418.328
24.70000 421.698
24.71000 422.119
24.72000 414.065
24.73000 405.482
24.74000 399.743
24.75000 404.841
24.76000 408.834
24.77000 412.361
24.78000 415.271
24.79000 418.173
24.80000 417.808
24.81000 414.618
24.82000 411.464
24.83000 410.017
24.84000 409.566
24.85000 409.256
24.86000 411.783
24.87000 415.429
24.88000 418.684
24.89000 417.795
24.90000 415.795
24.91000 414.028
24.92000 415.157
24.93000 416.573
24.94000 417.512
24.95000 416.452
24.96000 415.171
24.97000 413.132
24.98000 408.950
24.99000 404.639
25.00000 401.773
25.01000 394.012
25.02000 388.182
25.03000 389.572
25.04000 400.368
25.05000 411.187
25.06000 412.364
25.07000 405.365
25.08000 398.449
25.09000 393.258
25.10000 389.151
25.11000 385.522
25.12000 391.322
25.13000 400.776
25.14000 409.647
25.15000 412.496
25.16000 413.758
25.17000 414.868
25.18000 406.892
25.19000 398.661
25.20000 393.930
25.21000 403.538
25.22000 414.691
25.23000 420.903
25.24000 413.401
25.25000 405.094
25.26000 399.608
25.27000 394.648
25.28000 391.000
25.29000 390.145
25.30000 392.864
25.31000 395.587
25.32000 394.415
25.33000 390.001
25.34000 385.643
25.35000 389.366
25.36000 397.380
25.37000 404.996
25.38000 405.045
25.39000 402.210
25.40000 399.355
25.41000 396.299
25.42000 393.191
25.43000 390.463
25.44000 396.039
25.45000 402.049
25.46000 405.598
25.47000 399.249
25.48000 391.860
25.49000 385.697
25.50000 382.882
25.51000 380.257
25.52000 378.534
25.53000 391.133
25.54000 400.639
25.55000 405.931
25.56000 405.930
25.57000 405.911
25.58000 405.168
25.59000 403.834
25.60000 402.518
25.61000 402.832
25.62000 404.007
25.63000 405.200
25.64000 406.739
25.65000 408.407
25.66000 410.119
25.67000 412.251
25.68000 414.490
25.69000 416.450
25.70000 402.400
25.71000 388.058
25.72000 377.900
25.73000 384.284
25.74000 392.364
25.75000 397.313
25.76000 393.858
25.77000 389.942
25.78000 387.388
25.79000 393.554
25.80000 398.215
25.81000 399.283
25.82000 395.925
25.83000 392.568
25.84000 393.234
25.85000 397.122
25.86000 400.955
25.87000 404.389
25.88000 407.513
25.89000 410.238
25.90000 405.845
25.91000 398.831
25.92000 392.431
25.93000 391.921
25.94000 392.881
25.95000 393.719
25.96000 390.050
25.97000 386.278
25.98000 383.308
25.99000 383.446
26.00000 383.896
26.01000 384.182
26.02000 384.033
26.03000 383.862
26.04000 383.751
26.05000 390.764
26.06000 396.002
26.07000 397.604
26.08000 394.810
26.09000 392.013
26.10000 390.907
26.11000 391.132
26.12000 391.353
26.13000 390.984
26.14000 390.325
26.15000 389.906
26.16000 393.640
26.17000 398.876
26.18000 403.600
26.19000 403.524
26.20000 402.270
26.21000 401.179
26.22000 402.447
26.23000 403.853
26.24000 405.222
26.25000 406.450
26.26000 407.664
26.27000 406.616
26.28000 399.706
26.29000 392.494
26.30000 387.853
26.31000 399.515
26.32000 408.255
26.33000 408.777
26.34000 399.553
26.35000 390.335
26.36000 386.698
26.37000 387.368
26.38000 388.027
26.39000 391.123
26.40000 395.348
26.41000 399.178
26.42000 396.421
26.43000 391.321
26.44000 386.728
26.45000 386.765
26.46000 387.917
26.47000 388.916
26.48000 392.495
26.49000 395.888
26.50000 396.305
26.51000 385.573
26.52000 373.779
26.53000 366.945
26.54000 372.754
26.55000 379.189
26.56000 383.302
26.57000 372.311
26.58000 364.112
26.59000 366.268
26.60000 380.473
26.61000 394.630
26.62000 394.821
26.63000 384.431
26.64000 374.219
26.65000 373.676
26.66000 377.931
26.67000 381.781
26.68000 379.073
26.69000 374.071
26.70000 369.953
26.71000 373.720
26.72000 379.352
26.73000 384.223
26.74000 382.613
26.75000 380.396
26.76000 379.737
26.77000 384.809
26.78000 390.414
26.79000 395.653
26.80000 399.977
26.81000 404.256
26.82000 406.973
26.83000 395.283
26.84000 386.618
26.85000 385.049
26.86000 391.581
26.87000 398.077
26.88000 396.053
26.89000 387.694
26.90000 379.485
26.91000 380.179
26.92000 385.168
26.93000 389.829
26.94000 389.341
26.95000 387.082
26.96000 385.280
26.97000 387.458
26.98000 390.560
26.99000 393.235
27.00000 392.202
27.01000 390.852
27.02000 389.442
27.03000 387.821
27.04000 386.181
27.05000 384.093
27.06000 380.906
27.07000 377.668
27.08000 375.627
27.09000 376.942
27.10000 377.934
27.11000 381.509
27.12000 387.978
27.13000 394.419
27.14000 395.697
27.15000 393.207
27.16000 390.763
27.17000 387.340
27.18000 383.574
27.19000 380.026
27.20000 379.792
27.21000 380.678
27.22000 381.645
27.23000 383.300
27.24000 385.112
27.25000 386.670
27.26000 381.212
27.27000 375.715
27.28000 372.650
27.29000 378.220
27.30000 384.551
27.31000 388.092
27.32000 384.876
27.33000 381.360
27.34000 379.158
27.35000 378.612
27.36000 378.236
27.37000 382.833
27.38000 392.891
27.39000 402.875
27.40000 401.193
27.41000 391.147
27.42000 381.301
27.43000 377.762
27.44000 377.303
27.45000 376.704
27.46000 374.040
27.47000 370.689
27.48000 368.352
27.49000 374.448
27.50000 382.431
27.51000 389.274
27.52000 391.242
27.53000 392.309
27.54000 393.659
27.55000 395.996
27.56000 398.419
27.57000 394.892
27.58000 377.207
27.59000 358.915
27.60000 347.539
27.61000 371.225
27.62000 388.633
27.63000 395.995
27.64000 392.539
27.65000 389.069
27.66000 384.225
27.67000 378.415
27.68000 372.727
27.69000 369.898
27.70000 368.493
27.71000 367.448
27.72000 371.580
27.73000 377.401
27.74000 382.294
27.75000 379.642
27.76000 375.331
27.77000 371.648
27.78000 366.523
27.79000 362.032
27.80000 360.374
27.81000 368.425
27.82000 377.289
27.83000 382.972
27.84000 381.216
27.85000 379.153
27.86000 377.879
27.87000 371.460
27.88000 366.803
27.89000 362.552
27.90000 358.729
27.91000 354.932
27.92000 354.183
27.93000 355.543
27.94000 356.873
27.95000 358.471
27.96000 360.123
27.97000 362.106
27.98000 368.698
27.99000 376.768
28.00000 382.739
28.01000 372.010
28.02000 357.680
28.03000 345.476
28.04000 348.623
28.05000 353.058
28.06000 356.279
28.07000 355.409
28.08000 354.206
28.09000 354.052
28.10000 356.310
28.11000 358.663
28.12000 360.106
28.13000 358.098
28.14000 356.630
28.15000 359.194
28.16000 365.931
28.17000 372.624
28.18000 374.401
28.19000 372.840
28.20000 371.315
28.21000 370.535
28.22000 370.117
28.23000 369.518
28.24000 366.469
28.25000 362.647
28.26000 358.910
28.27000 355.838
28.28000 352.907
28.29000 350.418
28.30000 356.875
28.31000 363.310
28.32000 368.237
28.33000 368.178
28.34000 367.724
28.35000 368.547
28.36000 372.259
28.37000 376.081
28.38000 378.408
28.39000 373.984
28.40000 370.770
28.41000 368.225
28.42000 366.356
28.43000 364.499
28.44000 363.743
28.45000 363.722
28.46000 363.702
28.47000 361.334
28.48000 358.051
28.49000 355.045
28.50000 355.660
28.51000 357.398
28.52000 359.155
28.53000 361.066
28.54000 363.008
28.55000 364.651
28.56000 358.191
28.57000 351.883
28.58000 348.216
28.59000 353.141
28.60000 358.727
28.61000 360.600
28.62000 354.219
28.63000 347.535
28.64000 343.497
28.65000 344.621
28.66000 345.458
28.67000 345.330
28.68000 344.240
28.69000 343.187
28.70000 345.536
28.71000 350.115
28.72000 354.578
28.73000 354.228
28.74000 351.846
28.75000 349.616
28.76000 349.324
28.77000 349.622
28.78000 350.843
28.79000 358.928
28.80000 368.413
28.81000 376.411
28.82000 367.514
28.83000 358.252
28.84000 350.558
28.85000 347.875
28.86000 345.567
28.87000 345.339
28.88000 349.652
28.89000 354.124
28.90000 356.806
28.91000 357.426
28.92000 357.853
28.93000 362.206
28.94000 370.384
28.95000 378.418
28.96000 373.956
28.97000 361.452
28.98000 349.278
28.99000 352.379
29.00000 361.710
29.01000 370.077
29.02000 366.453
29.03000 359.242
29.04000 352.860
29.05000 352.519
29.06000 353.385
29.07000 354.113
29.08000 347.485
29.09000 341.182
29.10000 337.807
29.11000 343.629
29.12000 350.119
29.13000 353.369
29.14000 349.661
29.15000 345.718
29.16000 343.372
29.17000 345.839
29.18000 347.615
29.19000 349.475
29.20000 351.415
29.21000 353.364
29.22000 356.089
29.23000 359.306
29.24000 362.434
29.25000 359.859
29.26000 355.074
29.27000 350.496
29.28000 348.432
29.29000 347.108
29.30000 345.486
29.31000 341.747
29.32000 337.593
29.33000 334.113
29.34000 350.010
29.35000 365.228
29.36000 373.669
29.37000 361.185
29.38000 347.220
29.39000 337.820
29.40000 338.053
29.41000 338.597
29.42000 338.918
29.43000 341.210
29.44000 342.840
29.45000 346.735
29.46000 352.749
29.47000 358.684
29.48000 358.709
29.49000 355.062
29.50000 351.520
29.51000 350.590
29.52000 350.758
29.53000 351.033
29.54000 352.584
29.55000 354.503
29.56000 355.911
29.57000 353.755
29.58000 350.914
29.59000 348.542
29.60000 351.139
29.61000 353.795
29.62000 355.456
29.63000 354.098
29.64000 352.534
29.65000 354.194
29.66000 362.544
29.67000 371.101
29.68000 376.115
29.69000 362.070
29.70000 352.087
29.71000 350.719
29.72000 357.264
29.73000 363.755
29.74000 366.533
29.75000 367.045
29.76000 367.541
29.77000 362.025
29.78000 354.423
29.79000 347.509
29.80000 348.478
29.81000 351.685
29.82000 354.807
29.83000 357.361
29.84000 359.807
29.85000 361.842
29.86000 368.060
29.87000 373.619
29.88000 375.928
29.89000 368.550
29.90000 360.525
29.91000 357.159
29.92000 363.294
29.93000 369.708
29.94000 373.438
29.95000 387.296
29.96000 397.067
29.97000 396.526
29.98000 386.696
29.99000 376.932
30.00000 371.454
30.01000 368.545
30.02000 365.727
30.03000 367.977
30.04000 372.068
30.05000 376.257
30.06000 381.546
30.07000 387.143
30.08000 391.517
30.09000 387.722
30.10000 382.414
30.11000 378.015
30.12000 375.407
30.13000 373.425
30.14000 370.837
30.15000 366.470
30.16000 361.989
30.17000 360.777
30.18000 366.122
30.19000 371.650
30.20000 374.839
30.21000 369.354
30.22000 365.479
30.23000 360.851
30.24000 355.559
30.25000 350.316
30.26000 348.042
30.27000 347.516
30.28000 347.007
30.29000 350.779
30.30000 355.969
30.31000 360.881
30.32000 362.773
30.33000 363.838
30.34000 364.105
30.35000 359.140
30.36000 353.225
30.37000 348.339
30.38000 348.669
30.39000 349.428
30.40000 349.151
30.41000 345.889
30.42000 342.440
30.43000 340.491
30.44000 341.497
30.45000 342.583
30.46000 343.204
30.47000 342.156
30.48000 341.418
30.49000 340.165
30.50000 338.466
30.51000 336.847
30.52000 339.771
30.53000 345.324
30.54000 350.689
30.55000 352.373
30.56000 352.589
30.57000 353.069
30.58000 356.355
30.59000 360.397
30.60000 364.088
30.61000 365.535
30.62000 366.583
30.63000 367.445
30.64000 367.258
30.65000 367.009
30.66000 366.260
30.67000 364.100
30.68000 361.854
30.69000 362.609
30.70000 369.176
30.71000 375.890
30.72000 379.701
30.73000 372.246
30.74000 367.026
30.75000 364.540
30.76000 364.379
30.77000 364.174
30.78000 361.617
30.79000 357.722
30.80000 353.964
30.81000 361.597
30.82000 372.949
30.83000 382.919
30.84000 378.602
30.85000 370.507
30.86000 365.209
30.87000 377.492
30.88000 392.842
30.89000 405.428
30.90000 400.737
30.91000 395.358
30.92000 392.873
30.93000 398.441
30.94000 404.485
30.95000 409.149
30.96000 411.187
30.97000 413.163
30.98000 414.274
30.99000 429.527
31.00000 440.144
31.01000 446.778
31.02000 450.088
31.03000 453.521
31.04000 463.127
31.05000 476.184
31.06000 488.765
31.07000 504.884
31.08000 521.299
31.09000 537.439
31.10000 550.791
31.11000 563.419
31.12000 577.654
31.13000 601.778
31.14000 627.593
31.15000 648.682
31.16000 680.368
31.17000 707.219
31.18000 729.133
31.19000 737.539
31.20000 745.175
31.21000 759.210
31.22000 785.217
31.23000 811.499
31.24000 826.165
31.25000 897.521
31.26000 946.979
31.27000 972.940
31.28000 979.669
31.29000 986.633
31.30000 1004.776
31.31000 1029.060
31.32000 1052.425
31.33000 1074.126
31.34000 1093.892
31.35000 1112.833
31.36000 1123.650
31.37000 1132.396
31.38000 1138.500
31.39000 1128.664
31.40000 1116.156
31.41000 1105.977
31.42000 1096.481
31.43000 1088.783
31.44000 1078.929
31.45000 1063.275
31.46000 1047.301
31.47000 1028.112
31.48000 1003.014
31.49000 977.788
31.50000 963.830
31.51000 915.097
31.52000 881.406
31.53000 848.910
31.54000 817.375
31.55000 785.914
31.56000 757.820
31.57000 731.542
31.58000 706.297
31.59000 670.651
31.60000 633.688
31.61000 598.655
31.62000 582.185
31.63000 570.364
31.64000 557.993
31.65000 542.375
31.66000 526.222
31.67000 513.127
31.68000 498.402
31.69000 486.271
31.70000 475.544
31.71000 468.531
31.72000 461.717
31.73000 453.717
31.74000 443.574
31.75000 433.387
31.76000 427.800
31.77000 414.043
31.78000 404.579
31.79000 398.952
31.80000 396.350
31.81000 393.664
31.82000 387.415
31.83000 379.274
31.84000 371.465
31.85000 371.441
31.86000 374.058
31.87000 376.100
31.88000 372.750
31.89000 368.074
31.90000 363.578
31.91000 360.129
31.92000 356.848
31.93000 354.198
31.94000 350.396
31.95000 347.213
31.96000 345.766
31.97000 348.828
31.98000 352.124
31.99000 352.916
32.00000 349.263
32.01000 345.525
32.02000 343.492
32.03000 354.267
32.04000 361.622
32.05000 356.049
32.06000 340.472
32.07000 325.311
32.08000 327.003
32.09000 337.486
32.10000 347.526
32.11000 347.947
32.12000 345.139
32.13000 342.643
32.14000 343.006
32.15000 344.060
32.16000 344.210
32.17000 339.227
32.18000 333.434
32.19000 328.773
32.20000 333.703
32.21000 338.446
32.22000 343.661
32.23000 350.084
32.24000 356.567
32.25000 359.591
32.26000 356.579
32.27000 353.457
32.28000 351.775
32.29000 340.682
32.30000 333.106
32.31000 329.560
32.32000 329.074
32.33000 328.574
32.34000 327.496
32.35000 326.122
32.36000 324.807
32.37000 324.008
32.38000 323.432
32.39000 322.927
32.40000 323.051
32.41000 323.324
32.42000 324.034
32.43000 327.176
32.44000 330.694
32.45000 333.514
32.46000 329.278
32.47000 325.318
32.48000 323.415
32.49000 326.679
32.50000 330.191
32.51000 331.849
32.52000 330.325
32.53000 328.747
32.54000 327.905
32.55000 334.680
32.56000 339.274
32.57000 338.112
32.58000 332.659
32.59000 327.308
32.60000 325.734
32.61000 326.063
32.62000 326.376
32.63000 328.012
32.64000 329.955
32.65000 331.581
32.66000 330.439
32.67000 328.652
32.68000 326.355
32.69000 321.277
32.70000 315.777
32.71000 311.388
32.72000 319.743
32.73000 327.424
32.74000 331.824
32.75000 328.126
32.76000 324.051
32.77000 320.693
32.78000 318.543
32.79000 316.411
32.80000 315.283
32.81000 306.288
32.82000 300.204
32.83000 299.770
32.84000 303.474
32.85000 307.234
32.86000 312.971
32.87000 319.686
32.88000 326.088
32.89000 329.930
32.90000 332.689
32.91000 335.124
32.92000 334.799
32.93000 333.842
32.94000 330.754
32.95000 316.245
32.96000 300.044
32.97000 287.165
32.98000 293.479
32.99000 299.934
33.00000 306.886
33.01000 315.042
33.02000 323.253
33.03000 326.203
33.04000 320.444
33.05000 314.553
33.06000 311.465
33.07000 309.018
33.08000 307.365
33.09000 306.462
33.10000 306.099
33.11000 305.689
33.12000 303.698
33.13000 300.939
33.14000 298.312
33.15000 297.675
33.16000 297.699
33.17000 297.635
33.18000 296.838
33.19000 295.877
33.20000 295.206
33.21000 296.057
33.22000 297.130
33.23000 297.979
33.24000 291.322
33.25000 285.452
33.26000 284.067
33.27000 293.384
33.28000 303.163
33.29000 310.205
33.30000 312.799
33.31000 315.330
33.32000 316.645
33.33000 309.820
33.34000 305.243
33.35000 305.202
33.36000 308.364
33.37000 311.497
33.38000 313.697
33.39000 315.449
33.40000 317.115
33.41000 311.076
33.42000 303.167
33.43000 295.852
33.44000 293.383
33.45000 291.982
33.46000 291.516
33.47000 295.866
33.48000 300.899
33.49000 304.868
33.50000 303.128
33.51000 301.348
33.52000 298.291
33.53000 292.237
33.54000 286.059
33.55000 283.185
33.56000 285.592
33.57000 288.067
33.58000 289.340
33.59000 291.655
33.60000 293.207
33.61000 293.992
33.62000 294.246
33.63000 294.494
33.64000 294.583
33.65000 294.597
33.66000 294.611
33.67000 297.348
33.68000 300.680
33.69000 303.782
33.70000 305.059
33.71000 305.940
33.72000 306.439
33.73000 305.007
33.74000 303.307
33.75000 301.972
33.76000 306.768
33.77000 311.006
33.78000 312.353
33.79000 307.039
33.80000 301.458
33.81000 298.114
33.82000 298.283
33.83000 298.494
33.84000 298.602
33.85000 301.774
33.86000 303.916
33.87000 307.540
33.88000 312.174
33.89000 316.703
33.90000 318.154
33.91000 318.182
33.92000 318.208
33.93000 316.628
33.94000 314.706
33.95000 312.739
33.96000 310.412
33.97000 308.009
33.98000 307.718
33.99000 317.909
34.00000 329.526
34.01000 338.608
34.02000 330.979
34.03000 323.830
34.04000 319.345
34.05000 320.898
34.06000 322.683
34.07000 324.092
34.08000 324.921
34.09000 325.743
34.10000 326.158
34.11000 327.981
34.12000 329.191
34.13000 329.465
34.14000 329.113
34.15000 328.718
34.16000 327.106
34.17000 324.942
34.18000 322.896
34.19000 322.770
34.20000 323.203
34.21000 323.936
34.22000 326.961
34.23000 330.463
34.24000 334.039
34.25000 337.972
34.26000 341.954
34.27000 345.053
34.28000 356.719
34.29000 366.537
34.30000 371.367
34.31000 365.087
34.32000 358.397
34.33000 353.711
34.34000 352.061
34.35000 350.442
34.36000 349.130
34.37000 348.124
34.38000 347.133
34.39000 347.496
34.40000 348.748
34.41000 349.846
34.42000 346.802
34.43000 341.908
34.44000 337.290
34.45000 335.628
34.46000 334.932
34.47000 334.232
34.48000 333.499
34.49000 332.761
34.50000 334.038
34.51000 344.946
34.52000 357.109
34.53000 366.535
34.54000 357.922
34.55000 350.002
34.56000 344.792
34.57000 345.519
34.58000 346.456
34.59000 343.390
34.60000 334.364
34.61000 325.283
34.62000 321.856
34.63000 323.955
34.64000 326.003
34.65000 323.619
34.66000 318.375
34.67000 313.280
34.68000 312.008
34.69000 312.416
34.70000 312.800
34.71000 310.411
34.72000 307.463
34.73000 304.545
34.74000 301.844
34.75000 299.187
34.76000 296.981
34.77000 296.894
34.78000 297.077
34.79000 297.218
34.80000 283.871
34.81000 272.511
34.82000 268.716
34.83000 281.209
34.84000 294.253
34.85000 302.596
34.86000 304.067
34.87000 305.479
34.88000 301.543
34.89000 292.483
34.90000 283.496
34.91000 280.314
34.92000 280.813
34.93000 281.441
34.94000 285.272
34.95000 290.486
34.96000 295.389
34.97000 289.203
34.98000 280.569
34.99000 273.540
35.00000 277.986
35.01000 284.690
35.02000 289.850
35.03000 287.910
35.04000 285.086
35.05000 282.916
35.06000 274.769
35.07000 267.991
35.08000 266.511
35.09000 276.241
35.10000 286.333
35.11000 291.990
35.12000 291.280
35.13000 290.520
35.14000 288.643
35.15000 285.718
35.16000 282.810
35.17000 281.192
35.18000 280.375
35.19000 279.635
35.20000 280.712
35.21000 282.559
35.22000 284.293
35.23000 274.647
35.24000 262.853
35.25000 253.810
35.26000 264.025
35.27000 277.956
35.28000 288.886
35.29000 286.264
35.30000 281.992
35.31000 278.725
35.32000 270.331
35.33000 263.431
35.34000 257.882
35.35000 255.146
35.36000 252.496
35.37000 253.613
35.38000 260.038
35.39000 266.499
35.40000 269.897
35.41000 270.473
35.42000 271.025
35.43000 269.852
35.44000 267.623
35.45000 265.339
35.46000 261.788
35.47000 257.708
35.48000 253.887
35.49000 258.931
35.50000 265.812
35.51000 271.608
35.52000 269.959
35.53000 266.902
35.54000 264.758
35.55000 266.662
35.56000 269.048
35.57000 270.864
35.58000 272.911
35.59000 274.533
35.60000 273.852
35.61000 268.461
35.62000 262.929
35.63000 260.245
35.64000 261.502
35.65000 262.784
35.66000 260.325
35.67000 254.492
35.68000 248.804
35.69000 252.584
35.70000 262.056
35.71000 271.211
35.72000 273.357
35.73000 272.628
35.74000 271.946
35.75000 265.168
35.76000 257.468
35.77000 251.314
35.78000 255.540
35.79000 261.693
35.80000 266.565
35.81000 265.861
35.82000 264.509
35.83000 263.484
35.84000 261.066
35.85000 259.096
35.86000 256.022
35.87000 250.727
35.88000 245.369
35.89000 245.516
35.90000 253.147
35.91000 260.816
35.92000 263.085
35.93000 260.571
35.94000 258.151
35.95000 261.488
35.96000 268.224
35.97000 274.456
35.98000 269.929
35.99000 261.065
36.00000 252.794
36.01000 255.808
36.02000 261.346
36.03000 266.039
36.04000 265.183
36.05000 263.317
36.06000 261.787
36.07000 261.693
36.08000 261.763
36.09000 261.815
36.10000 261.524
36.11000 261.279
36.12000 261.155
36.13000 261.269
36.14000 261.389
36.15000 263.335
36.16000 267.716
36.17000 272.106
36.18000 269.869
36.19000 261.888
36.20000 254.011
36.21000 252.176
36.22000 253.846
36.23000 255.517
36.24000 257.185
36.25000 258.851
36.26000 260.403
36.27000 258.918
36.28000 256.835
36.29000 254.922
36.30000 254.103
36.31000 253.479
36.32000 252.714
36.33000 251.355
36.34000 249.930
36.35000 248.860
36.36000 253.075
36.37000 256.622
36.38000 258.908
36.39000 258.750
36.40000 258.528
36.41000 258.158
36.42000 257.593
36.43000 257.027
36.44000 258.753
36.45000 262.425
36.46000 266.052
36.47000 267.269
36.48000 267.111
36.49000 266.768
36.50000 262.765
36.51000 257.337
36.52000 252.292
36.53000 255.259
36.54000 259.853
36.55000 264.070
36.56000 265.905
36.57000 267.324
36.58000 267.990
36.59000 265.557
36.60000 262.789
36.61000 260.720
36.62000 265.862
36.63000 270.203
36.64000 271.893
36.65000 268.524
36.66000 265.031
36.67000 261.667
36.68000 258.468
36.69000 255.273
36.70000 254.606
36.71000 256.048
36.72000 257.465
36.73000 257.565
36.74000 256.928
36.75000 256.498
36.76000 260.024
36.77000 265.066
36.78000 269.742
36.79000 271.909
36.80000 273.272
36.81000 274.477
36.82000 274.699
36.83000 274.752
36.84000 274.626
36.85000 273.772
36.86000 272.840
36.87000 272.148
36.88000 281.902
36.89000 289.954
36.90000 294.385
36.91000 292.027
36.92000 289.511
36.93000 286.276
36.94000 282.132
36.95000 277.991
36.96000 278.733
36.97000 283.466
36.98000 288.156
36.99000 290.776
37.00000 292.257
37.01000 293.518
37.02000 290.691
37.03000 286.324
37.04000 282.283
37.05000 283.066
37.06000 284.877
37.07000 285.948
37.08000 282.538
37.09000 278.375
37.10000 275.828
37.11000 279.703
37.12000 284.242
37.13000 287.601
37.14000 287.216
37.15000 286.757
37.16000 285.541
37.17000 282.932
37.18000 280.292
37.19000 280.214
37.20000 283.310
37.21000 286.409
37.22000 284.523
37.23000 278.645
37.24000 272.797
37.25000 268.291
37.26000 264.510
37.27000 260.953
37.28000 261.413
37.29000 263.359
37.30000 265.157
37.31000 263.172
37.32000 260.539
37.33000 258.701
37.34000 261.572
37.35000 265.220
37.36000 267.616
37.37000 265.130
37.38000 262.152
37.39000 259.959
37.40000 264.570
37.41000 268.422
37.42000 270.757
37.43000 270.342
37.44000 269.870
37.45000 267.966
37.46000 264.320
37.47000 260.677
37.48000 257.216
37.49000 253.913
37.50000 250.712
37.51000 251.902
37.52000 255.427
37.53000 258.698
37.54000 257.529
37.55000 254.745
37.56000 252.180
37.57000 250.447
37.58000 249.080
37.59000 248.413
37.60000 251.813
37.61000 255.870
37.62000 259.364
37.63000 260.698
37.64000 261.819
37.65000 262.641
37.66000 258.594
37.67000 255.274
37.68000 254.768
37.69000 259.268
37.70000 263.867
37.71000 260.878
37.72000 248.840
37.73000 236.811
37.74000 233.694
37.75000 237.471
37.76000 241.388
37.77000 250.992
37.78000 263.571
37.79000 275.259
37.80000 271.952
37.81000 263.284
37.82000 255.313
37.83000 255.048
37.84000 256.477
37.85000 257.173
37.86000 253.697
37.87000 249.559
37.88000 246.437
37.89000 247.135
37.90000 248.199
37.91000 248.975
37.92000 246.478
37.93000 244.428
37.94000 245.619
37.95000 252.479
37.96000 259.443
37.97000 261.441
37.98000 257.630
37.99000 253.820
38.00000 252.850
38.01000 254.036
38.02000 255.293
38.03000 259.313
38.04000 264.753
38.05000 269.528
38.06000 263.460
38.07000 253.579
38.08000 244.514
38.09000 249.303
38.10000 256.508
38.11000 262.328
38.12000 260.403
38.13000 257.278
38.14000 255.655
38.15000 259.585
38.16000 264.035
38.17000 267.263
38.18000 271.651
38.19000 275.065
38.20000 279.307
38.21000 284.970
38.22000 290.657
38.23000 289.882
38.24000 281.690
38.25000 273.513
38.26000 273.760
38.27000 280.258
38.28000 286.764
38.29000 293.551
38.30000 300.480
38.31000 307.563
38.32000 317.088
38.33000 327.457
38.34000 336.948
38.35000 349.373
38.36000 361.034
38.37000 372.301
38.38000 381.402
38.39000 390.175
38.40000 401.435
38.41000 421.736
38.42000 442.861
38.43000 458.102
38.44000 484.113
38.45000 504.437
38.46000 525.721
38.47000 548.626
38.48000 571.558
38.49000 593.106
38.50000 613.094
38.51000 633.015
38.52000 662.849
38.53000 699.661
38.54000 736.444
38.55000 772.239
38.56000 807.542
38.57000 843.102
38.58000 882.607
38.59000 923.452
38.60000 960.756
38.61000 986.351
38.62000 1006.690
38.63000 1029.029
38.64000 1062.117
38.65000 1096.803
38.66000 1128.075
38.67000 1147.156
38.68000 1165.155
38.69000 1178.073
38.70000 1180.409
38.71000 1181.831
38.72000 1182.948
38.73000 1183.562
38.74000 1184.167
38.75000 1176.788
38.76000 1160.590
38.77000 1144.447
38.78000 1124.396
38.79000 1101.733
38.80000 1078.630
38.81000 1040.723
38.82000 995.591
38.83000 951.321
38.84000 919.889
38.85000 892.742
38.86000 868.005
38.87000 829.995
38.88000 793.676
38.89000 757.086
38.90000 719.069
38.91000 680.844
38.92000 643.829
38.93000 611.055
38.94000 578.648
38.95000 555.513
38.96000 511.457
38.97000 477.157
38.98000 451.589
38.99000 440.260
39.00000 429.133
39.01000 411.188
39.02000 385.858
39.03000 360.631
39.04000 339.996
39.05000 322.783
39.06000 305.865
39.07000 298.360
39.08000 295.371
39.09000 292.288
39.10000 287.839
39.11000 282.941
39.12000 278.488
39.13000 272.976
39.14000 267.896
39.15000 263.840
39.16000 265.074
39.17000 267.062
39.18000 266.608
39.19000 257.738
39.20000 248.160
39.21000 241.358
39.22000 233.848
39.23000 228.110
39.24000 229.857
39.25000 243.597
39.26000 257.495
39.27000 261.738
39.28000 255.729
39.29000 249.745
39.30000 242.037
39.31000 233.229
39.32000 224.735
39.33000 225.877
39.34000 231.563
39.35000 236.953
39.36000 238.186
39.37000 238.080
39.38000 237.983
39.39000 240.037
39.40000 242.260
39.41000 244.473
39.42000 246.637
39.43000 248.794
39.44000 249.975
39.45000 247.855
39.46000 245.464
39.47000 243.776
39.48000 244.053
39.49000 244.324
39.50000 244.028
39.51000 242.842
39.52000 241.645
39.53000 243.258
39.54000 247.797
39.55000 252.313
39.56000 252.063
39.57000 248.602
39.58000 245.139
39.59000 241.596
39.60000 238.016
39.61000 234.650
39.62000 234.208
39.63000 234.693
39.64000 235.131
39.65000 229.433
39.66000 223.267
39.67000 218.139
39.68000 218.176
39.69000 218.919
39.70000 220.633
39.71000 225.584
39.72000 230.793
39.73000 234.451
39.74000 236.783
39.75000 238.510
39.76000 236.088
39.77000 227.249
39.78000 218.338
39.79000 216.924
39.80000 223.159
39.81000 229.358
39.82000 233.417
39.83000 236.005
39.84000 238.480
39.85000 237.792
39.86000 235.661
39.87000 233.344
39.88000 228.560
39.89000 223.006
39.90000 217.994
39.91000 217.745
39.92000 218.400
39.93000 219.701
39.94000 224.159
39.95000 229.039
39.96000 232.374
39.97000 230.662
39.98000 228.557
39.99000 227.086
40.00000 225.411
40.01000 224.140
40.02000 223.822
40.03000 224.953
40.04000 226.098
40.05000 224.887
40.06000 221.318
40.07000 217.772
40.08000 218.856
40.09000 222.932
40.10000 226.828
40.11000 225.874
40.12000 222.748
40.13000 219.993
40.14000 222.031
40.15000 225.534
40.16000 228.688
40.17000 229.694
40.18000 230.189
40.19000 229.944
40.20000 226.155
40.21000 221.903
40.22000 219.442
40.23000 222.733
40.24000 226.460
40.25000 229.047
40.26000 228.194
40.27000 227.459
40.28000 226.678
40.29000 225.829
40.30000 224.979
40.31000 223.337
40.32000 220.917
40.33000 218.514
40.34000 216.345
40.35000 214.360
40.36000 212.349
40.37000 209.669
40.38000 206.695
40.39000 204.344
40.40000 209.787
40.41000 217.573
40.42000 224.566
40.43000 226.565
40.44000 227.434
40.45000 227.447
40.46000 223.428
40.47000 218.894
40.48000 214.920
40.49000 212.718
40.50000 210.646
40.51000 209.215
40.52000 209.799
40.53000 210.289
40.54000 211.815
40.55000 214.856
40.56000 217.911
40.57000 220.049
40.58000 221.305
40.59000 222.553
40.60000 221.565
40.61000 219.198
40.62000 216.779
40.63000 213.096
40.64000 208.865
40.65000 205.014
40.66000 205.801
40.67000 207.957
40.68000 209.888
40.69000 216.456
40.70000 222.988
40.71000 227.875
40.72000 225.173
40.73000 221.521
40.74000 218.926
40.75000 219.607
40.76000 220.522
40.77000 221.150
40.78000 211.495
40.79000 204.006
40.80000 200.815
40.81000 203.813
40.82000 206.859
40.83000 210.755
40.84000 215.451
40.85000 220.110
40.86000 220.614
40.87000 218.560
40.88000 216.431
40.89000 212.489
40.90000 207.777
40.91000 203.693
40.92000 207.068
40.93000 212.610
40.94000 217.560
40.95000 216.429
40.96000 214.419
40.97000 213.357
40.98000 216.595
40.99000 220.358
41.00000 222.236
41.01000 218.362
41.02000 214.090
41.03000 211.174
41.04000 217.397
41.05000 222.264
41.06000 224.187
41.07000 221.950
41.08000 219.681
41.09000 215.949
41.10000 210.863
41.11000 205.822
41.12000 205.112
41.13000 207.022
41.14000 208.918
41.15000 210.509
41.16000 211.971
41.17000 213.395
41.18000 214.369
41.19000 215.214
41.20000 215.967
41.21000 210.935
41.22000 205.606
41.23000 201.794
41.24000 204.730
41.25000 208.471
41.26000 211.341
41.27000 211.604
41.28000 211.691
41.29000 211.750
41.30000 222.801
41.31000 231.288
41.32000 233.105
41.33000 225.665
41.34000 218.168
41.35000 214.370
41.36000 213.924
41.37000 213.482
41.38000 213.707
41.39000 214.320
41.40000 214.847
41.41000 213.449
41.42000 211.258
41.43000 209.368
41.44000 210.856
41.45000 213.291
41.46000 215.455
41.47000 211.878
41.48000 207.848
41.49000 205.321
41.50000 209.350
41.51000 214.145
41.52000 215.396
41.53000 206.206
41.54000 196.335
41.55000 189.677
41.56000 197.390
41.57000 203.433
41.58000 207.452
41.59000 208.713
41.60000 209.960
41.61000 213.039
41.62000 217.747
41.63000 222.407
41.64000 222.075
41.65000 218.856
41.66000 215.474
41.67000 208.568
41.68000 200.239
41.69000 192.973
41.70000 197.375
41.71000 204.990
41.72000 211.739
41.73000 210.259
41.74000 207.677
41.75000 206.825
41.76000 213.389
41.77000 220.798
41.78000 226.348
41.79000 226.516
41.80000 226.343
41.81000 226.227
41.82000 221.390
41.83000 217.705
41.84000 214.543
41.85000 212.079
41.86000 209.621
41.87000 208.531
41.88000 208.632
41.89000 208.731
41.90000 209.529
41.91000 210.704
41.92000 211.754
41.93000 210.219
41.94000 207.657
41.95000 205.493
41.96000 207.595
41.97000 210.850
41.98000 213.727
41.99000 215.314
42.00000 216.485
42.01000 217.554
42.02000 218.197
42.03000 218.792
42.04000 219.104
42.05000 218.607
42.06000 218.061
42.07000 217.698
42.08000 216.576
42.09000 215.732
42.10000 215.978
42.11000 217.659
42.12000 219.343
42.13000 219.198
42.14000 217.489
42.15000 215.800
42.16000 218.894
42.17000 224.583
42.18000 229.911
42.19000 228.041
42.20000 223.358
42.21000 218.702
42.22000 214.326
42.23000 210.024
42.24000 206.232
42.25000 207.680
42.26000 209.721
42.27000 211.601
42.28000 212.819
42.29000 213.966
42.30000 213.718
42.31000 209.571
42.32000 205.191
42.33000 202.291
42.34000 205.115
42.35000 207.303
42.36000 210.069
42.37000 213.582
42.38000 217.090
42.39000 216.581
42.40000 212.702
42.41000 208.871
42.42000 207.681
42.43000 207.967
42.44000 208.390
42.45000 211.466
42.46000 215.559
42.47000 219.298
42.48000 219.427
42.49000 218.614
42.50000 217.899
42.51000 219.615
42.52000 221.450
42.53000 222.741
42.54000 221.817
42.55000 220.659
42.56000 219.225
42.57000 217.034
42.58000 214.799
42.59000 213.328
42.60000 216.349
42.61000 218.650
42.62000 218.383
42.63000 214.863
42.64000 211.342
42.65000 211.938
42.66000 215.922
42.67000 219.854
42.68000 219.215
42.69000 216.136
42.70000 213.263
42.71000 214.207
42.72000 216.591
42.73000 218.585
42.74000 216.698
42.75000 213.818
42.76000 211.293
42.77000 209.722
42.78000 208.512
42.79000 208.401
42.80000 212.666
42.81000 217.385
42.82000 219.133
42.83000 212.847
42.84000 206.113
42.85000 201.711
42.86000 200.483
42.87000 199.633
42.88000 197.047
42.89000 192.306
42.90000 187.578
42.91000 189.442
42.92000 196.632
42.93000 203.721
42.94000 205.931
42.95000 205.506
42.96000 204.996
42.97000 202.964
42.98000 200.367
42.99000 198.177
43.00000 199.928
43.01000 202.670
43.02000 205.067
43.03000 207.322
43.04000 209.233
43.05000 209.841
43.06000 205.346
43.07000 200.336
43.08000 197.452
43.09000 200.220
43.10000 203.293
43.11000 205.289
43.12000 204.661
43.13000 204.161
43.14000 204.594
43.15000 206.166
43.16000 207.739
43.17000 209.083
43.18000 210.245
43.19000 211.389
43.20000 208.611
43.21000 203.885
43.22000 199.507
43.23000 201.201
43.24000 205.108
43.25000 208.620
43.26000 208.394
43.27000 207.243
43.28000 206.240
43.29000 206.090
43.30000 206.079
43.31000 205.819
43.32000 204.599
43.33000 203.284
43.34000 201.580
43.35000 198.861
43.36000 196.089
43.37000 194.300
43.38000 199.652
43.39000 203.665
43.40000 204.321
43.41000 200.964
43.42000 197.607
43.43000 196.594
43.44000 197.405
43.45000 198.202
43.46000 199.260
43.47000 200.418
43.48000 201.424
43.49000 199.869
43.50000 197.396
43.51000 195.346
43.52000 197.205
43.53000 200.013
43.54000 202.452
43.55000 201.093
43.56000 199.420
43.57000 197.796
43.58000 196.357
43.59000 194.936
43.60000 194.784
43.61000 197.895
43.62000 201.171
43.63000 203.270
43.64000 201.617
43.65000 200.361
43.66000 199.874
43.67000 200.287
43.68000 200.696
43.69000 199.799
43.70000 197.905
43.71000 196.042
43.72000 193.183
43.73000 189.921
43.74000 186.741
43.75000 184.908
43.76000 183.550
43.77000 182.548
43.78000 184.748
43.79000 187.712
43.80000 190.279
43.81000 194.670
43.82000 198.646
43.83000 201.700
43.84000 201.327
43.85000 200.632
43.86000 200.919
43.87000 203.682
43.88000 206.565
43.89000 208.401
43.90000 200.212
43.91000 194.133
43.92000 191.608
43.93000 193.174
43.94000 194.740
43.95000 195.329
43.96000 195.184
43.97000 195.042
43.98000 191.442
43.99000 186.274
44.00000 181.607
44.01000 184.901
44.02000 190.953
44.03000 196.618
44.04000 198.870
44.05000 200.324
44.06000 201.580
44.07000 194.595
44.08000 187.600
44.09000 182.886
44.10000 186.481
44.11000 190.835
44.12000 195.370
44.13000 200.353
44.14000 205.356
44.15000 208.520
44.16000 202.460
44.17000 197.957
44.18000 194.178
44.19000 191.216
44.20000 188.269
44.21000 188.033
44.22000 189.792
44.23000 191.518
44.24000 192.564
44.25000 193.246
44.26000 193.925
44.27000 194.546
44.28000 195.148
44.29000 195.925
44.30000 198.218
44.31000 200.860
44.32000 203.134
44.33000 199.835
44.34000 196.336
44.35000 194.053
44.36000 196.123
44.37000 198.581
44.38000 203.125
44.39000 212.758
44.40000 222.621
44.41000 228.817
44.42000 220.527
44.43000 214.373
44.44000 212.657
44.45000 215.857
44.46000 219.030
44.47000 217.403
44.48000 212.306
44.49000 207.309
44.50000 207.941
44.51000 211.203
44.52000 214.178
44.53000 212.862
44.54000 210.112
44.55000 207.872
44.56000 209.925
44.57000 212.946
44.58000 215.540
44.59000 216.103
44.60000 216.328
44.61000 217.056
44.62000 219.548
44.63000 222.194
44.64000 224.892
44.65000 227.715
44.66000 230.543
44.67000 232.307
44.68000 227.620
44.69000 224.174
44.70000 220.920
44.71000 217.875
44.72000 214.884
44.73000 219.657
44.74000 229.940
44.75000 240.012
44.76000 240.288
44.77000 236.024
44.78000 232.100
44.79000 233.105
44.80000 235.732
44.81000 237.943
44.82000 236.738
44.83000 234.777
44.84000 233.098
44.85000 241.718
44.86000 250.229
44.87000 256.803
44.88000 256.685
44.89000 256.000
44.90000 254.514
44.91000 251.138
44.92000 247.682
44.93000 245.542
44.94000 252.702
44.95000 257.940
44.96000 260.197
44.97000 259.277
44.98000 258.364
44.99000 258.423
45.00000 259.159
45.01000 259.878
45.02000 265.693
45.03000 273.585
45.04000 280.819
45.05000 278.784
45.06000 273.755
45.07000 269.348
45.08000 269.950
45.09000 271.641
45.10000 273.083
45.11000 270.742
45.12000 268.326
45.13000 265.191
45.14000 259.620
45.15000 253.847
45.16000 249.170
45.17000 247.029
45.18000 244.992
45.19000 243.739
45.20000 246.866
45.21000 249.148
45.22000 248.513
45.23000 244.833
45.24000 241.171
45.25000 239.743
45.26000 239.844
45.27000 239.942
45.28000 240.354
45.29000 240.889
45.30000 241.002
45.31000 235.334
45.32000 227.831
45.33000 221.654
45.34000 225.892
45.35000 232.351
45.36000 237.843
45.37000 226.478
45.38000 214.998
45.39000 206.184
45.40000 206.262
45.41000 207.054
45.42000 208.455
45.43000 211.243
45.44000 214.085
45.45000 215.820
45.46000 216.974
45.47000 217.795
45.48000 219.061
45.49000 220.785
45.50000 222.458
45.51000 218.765
45.52000 211.464
45.53000 204.335
45.54000 201.943
45.55000 201.725
45.56000 201.719
45.57000 204.533
45.58000 208.227
45.59000 211.047
45.60000 207.152
45.61000 201.852
45.62000 197.360
45.63000 203.473
45.64000 209.786
45.65000 214.370
45.66000 213.290
45.67000 211.768
45.68000 209.726
45.69000 206.517
45.70000 203.264
45.71000 201.293
45.72000 195.559
45.73000 191.442
45.74000 191.002
45.75000 194.251
45.76000 197.464
45.77000 197.250
45.78000 194.773
45.79000 192.358
45.80000 194.455
45.81000 198.393
45.82000 202.047
45.83000 202.032
45.84000 200.892
45.85000 199.824
45.86000 199.304
45.87000 198.897
45.88000 198.554
45.89000 196.851
45.90000 195.278
45.91000 194.318
45.92000 195.328
45.93000 196.488
45.94000 196.474
45.95000 193.877
45.96000 191.187
45.97000 189.568
45.98000 187.707
45.99000 186.382
46.00000 183.577
46.01000 179.318
46.02000 175.119
46.03000 176.316
46.04000 181.013
46.05000 185.589
46.06000 185.145
46.07000 182.610
46.08000 180.068
46.09000 177.443
46.10000 174.792
46.11000 172.614
46.12000 173.912
46.13000 175.912
46.14000 177.594
46.15000 180.713
46.16000 183.468
46.17000 185.049
46.18000 182.913
46.19000 180.503
46.20000 178.129
46.21000 175.836
46.22000 173.544
46.23000 172.176
46.24000 170.779
46.25000 169.788
46.26000 171.850
46.27000 176.853
46.28000 181.799
46.29000 181.890
46.30000 178.888
46.31000 175.967
46.32000 178.760
46.33000 183.778
46.34000 188.314
46.35000 186.939
46.36000 183.815
46.37000 180.968
46.38000 180.124
46.39000 179.675
46.40000 179.299
46.41000 178.460
46.42000 177.712
46.43000 177.799
46.44000 180.477
46.45000 183.342
46.46000 184.776
46.47000 183.167
46.48000 181.459
46.49000 180.446
46.50000 177.720
46.51000 175.783
46.52000 176.518
46.53000 179.778
46.54000 182.976
46.55000 181.419
46.56000 176.885
46.57000 172.480
46.58000 172.758
46.59000 174.920
46.60000 176.952
46.61000 177.436
46.62000 177.468
46.63000 178.152
46.64000 183.421
46.65000 189.580
46.66000 194.729
46.67000 188.233
46.68000 181.653
46.69000 176.278
46.70000 174.588
46.71000 173.154
46.72000 173.440
46.73000 177.322
46.74000 181.317
46.75000 183.666
46.76000 173.497
46.77000 166.262
46.78000 162.657
46.79000 162.413
46.80000 162.224
46.81000 165.918
46.82000 172.000
46.83000 177.902
46.84000 182.653
46.85000 186.701
46.86000 189.838
46.87000 182.403
46.88000 171.945
46.89000 163.245
46.90000 166.669
46.91000 172.401
46.92000 177.176
46.93000 176.437
46.94000 175.276
46.95000 173.636
46.96000 170.556
46.97000 167.378
46.98000 164.973
46.99000 164.155
47.00000 163.384
47.01000 162.935
47.02000 169.427
47.03000 174.022
47.04000 173.316
47.05000 167.793
47.06000 162.337
47.07000 161.365
47.08000 163.102
47.09000 164.785
47.10000 167.742
47.11000 171.038
47.12000 174.082
47.13000 174.284
47.14000 173.687
47.15000 172.508
47.16000 167.395
47.17000 161.548
47.18000 156.694
47.19000 164.089
47.20000 171.389
47.21000 176.622
47.22000 175.747
47.23000 174.473
47.24000 173.343
47.25000 172.504
47.26000 171.673
47.27000 171.193
47.28000 169.828
47.29000 168.869
47.30000 169.260
47.31000 170.853
47.32000 172.416
47.33000 172.095
47.34000 170.656
47.35000 169.262
47.36000 165.180
47.37000 160.292
47.38000 156.045
47.39000 158.862
47.40000 163.628
47.41000 167.578
47.42000 166.131
47.43000 163.696
47.44000 161.682
47.45000 161.216
47.46000 160.977
47.47000 159.638
47.48000 155.100
47.49000 150.359
47.50000 147.471
47.51000 148.264
47.52000 149.157
47.53000 149.670
47.54000 149.207
47.55000 148.884
47.56000 153.268
47.57000 161.764
47.58000 170.160
47.59000 172.686
47.60000 171.787
47.61000 170.919
47.62000 169.046
47.63000 166.902
47.64000 165.016
47.65000 165.904
47.66000 167.545
47.67000 168.689
47.68000 166.618
47.69000 163.968
47.70000 161.784
47.71000 162.722
47.72000 163.781
47.73000 164.828
47.74000 165.839
47.75000 166.849
47.76000 167.246
47.77000 166.449
47.78000 165.621
47.79000 165.149
47.80000 164.989
47.81000 164.878
47.82000 164.505
47.83000 163.909
47.84000 163.282
47.85000 160.977
47.86000 157.710
47.87000 154.556
47.88000 155.259
47.89000 157.344
47.90000 159.225
47.91000 158.959
47.92000 158.121
47.93000 157.298
47.94000 156.568
47.95000 155.854
47.96000 155.267
47.97000 159.235
47.98000 162.902
47.99000 166.392
48.00000 169.383
48.01000 172.345
48.02000 172.389
48.03000 166.837
48.04000 161.146
48.05000 157.932
48.06000 168.086
48.07000 175.171
48.08000 176.499
48.09000 172.986
48.10000 169.460
48.11000 165.302
48.12000 160.788
48.13000 156.436
48.14000 157.178
48.15000 159.719
48.16000 162.034
48.17000 162.045
48.18000 161.452
48.19000 160.421
48.20000 156.662
48.21000 152.432
48.22000 148.972
48.23000 152.514
48.24000 156.029
48.25000 158.676
48.26000 158.934
48.27000 159.054
48.28000 158.944
48.29000 158.400
48.30000 157.846
48.31000 157.535
48.32000 157.012
48.33000 156.652
48.34000 157.671
48.35000 159.827
48.36000 161.937
48.37000 161.754
48.38000 160.303
48.39000 158.905
48.40000 159.657
48.41000 161.126
48.42000 162.401
48.43000 161.746
48.44000 160.596
48.45000 160.325
48.46000 165.409
48.47000 171.399
48.48000 176.283
48.49000 170.036
48.50000 163.983
48.51000 160.117
48.52000 162.182
48.53000 164.578
48.54000 166.517
48.55000 167.609
48.56000 168.682
48.57000 169.278
48.58000 162.738
48.59000 158.211
48.60000 156.157
48.61000 156.106
48.62000 156.033
48.63000 154.985
48.64000 153.406
48.65000 151.888
48.66000 154.693
48.67000 158.827
48.68000 162.651
48.69000 163.466
48.70000 163.520
48.71000 163.312
48.72000 161.532
48.73000 159.492
48.74000 157.836
48.75000 160.002
48.76000 162.086
48.77000 162.956
48.78000 160.592
48.79000 158.053
48.80000 156.085
48.81000 155.156
48.82000 154.250
48.83000 153.750
48.84000 156.756
48.85000 158.828
48.86000 159.604
48.87000 159.351
48.88000 159.125
48.89000 160.116
48.90000 161.758
48.91000 163.334
48.92000 161.991
48.93000 159.737
48.94000 157.636
48.95000 156.988
48.96000 156.700
48.97000 156.634
48.98000 157.866
48.99000 159.309
49.00000 160.477
49.01000 158.873
49.02000 157.344
49.03000 155.925
49.04000 154.793
49.05000 153.676
49.06000 153.579
49.07000 155.306
49.08000 157.070
49.09000 158.032
49.10000 153.622
49.11000 150.595
49.12000 149.805
49.13000 150.762
49.14000 151.748
49.15000 153.906
49.16000 156.680
49.17000 159.340
49.18000 161.236
49.19000 162.751
49.20000 163.561
49.21000 157.851
49.22000 150.553
49.23000 144.706
49.24000 147.183
49.25000 150.984
49.26000 154.048
49.27000 153.635
49.28000 153.026
49.29000 153.030
49.30000 154.609
49.31000 156.268
49.32000 156.578
49.33000 154.514
49.34000 152.407
49.35000 151.266
49.36000 150.089
49.37000 149.290
49.38000 150.230
49.39000 152.502
49.40000 154.759
49.41000 156.455
49.42000 157.860
49.43000 159.205
49.44000 157.582
49.45000 155.093
49.46000 152.544
49.47000 149.445
49.48000 146.215
49.49000 143.608
49.50000 144.499
49.51000 145.937
49.52000 147.090
49.53000 150.265
49.54000 152.991
49.55000 155.035
49.56000 155.356
49.57000 155.592
49.58000 155.193
49.59000 153.697
49.60000 152.181
49.61000 151.368
49.62000 151.591
49.63000 151.744
49.64000 151.992
49.65000 152.313
49.66000 152.672
49.67000 154.496
49.68000 157.063
49.69000 159.517
49.70000 157.052
49.71000 153.171
49.72000 149.934
49.73000 152.373
49.74000 156.146
49.75000 158.992
49.76000 156.734
49.77000 153.697
49.78000 151.268
49.79000 152.265
49.80000 153.325
49.81000 155.086
49.82000 158.591
49.83000 162.179
49.84000 163.692
49.85000 161.682
49.86000 159.614
49.87000 158.515
49.88000 161.180
49.89000 162.971
49.90000 160.411
49.91000 154.640
49.92000 148.939
49.93000 145.737
49.94000 143.784
49.95000 141.920
49.96000 141.765
49.97000 142.162
49.98000 142.600
49.99000 143.385
50.00000 144.251
50.01000 145.523
50.02000 148.997
50.03000 152.800
50.04000 155.828
50.05000 150.733
50.06000 146.037
50.07000 144.053
50.08000 148.696
50.09000 153.641
50.10000 157.540
50.11000 159.693
50.12000 161.820
50.13000 162.940
50.14000 157.607
50.15000 154.002
50.16000 152.843
50.17000 153.458
50.18000 154.071
50.19000 154.580
50.20000 155.040
50.21000 155.477
50.22000 157.173
50.23000 159.135
50.24000 161.175
50.25000 163.872
50.26000 166.718
50.27000 168.681
50.28000 165.959
50.29000 162.551
50.30000 159.848
50.31000 161.905
50.32000 163.894
50.33000 165.668
50.34000 166.925
50.35000 168.159
50.36000 167.084
50.37000 162.226
50.38000 157.312
50.39000 154.750
50.40000 154.088
50.41000 153.661
50.42000 156.014
50.43000 160.345
50.44000 164.589
50.45000 165.982
50.46000 166.002
50.47000 166.020
50.48000 164.451
50.49000 162.516
50.50000 160.728
50.51000 160.163
50.52000 159.868
50.53000 159.789
50.54000 160.828
50.55000 162.027
50.56000 162.974
50.57000 161.782
50.58000 160.679
50.59000 159.685
50.60000 158.946
50.61000 158.218
50.62000 157.867
50.63000 158.122
50.64000 158.386
50.65000 158.523
50.66000 164.726
50.67000 168.889
50.68000 170.460
50.69000 170.220
50.70000 170.012
50.71000 170.826
50.72000 172.123
50.73000 173.355
50.74000 169.449
50.75000 164.308
50.76000 159.750
50.77000 159.893
50.78000 161.061
50.79000 162.423
50.80000 164.776
50.81000 167.268
50.82000 169.228
50.83000 161.244
50.84000 154.191
50.85000 150.510
50.86000 154.661
50.87000 159.129
50.88000 160.837
50.89000 158.180
50.90000 155.469
50.91000 154.082
50.92000 150.370
50.93000 147.894
50.94000 147.438
50.95000 148.368
50.96000 149.362
50.97000 152.285
50.98000 156.106
50.99000 159.728
51.00000 158.363
51.01000 155.643
51.02000 152.955
51.03000 150.512
51.04000 148.123
51.05000 146.342
51.06000 147.611
51.07000 149.299
51.08000 150.621
51.09000 156.686
51.10000 161.836
51.11000 165.203
51.12000 164.499
51.13000 163.636
51.14000 161.210
51.15000 156.356
51.16000 151.474
51.17000 149.001
51.18000 153.264
51.19000 156.075
51.20000 154.153
51.21000 149.043
51.22000 144.181
51.23000 146.431
51.24000 151.937
51.25000 157.146
51.26000 156.067
51.27000 153.265
51.28000 150.363
51.29000 146.684
51.30000 142.841
51.31000 140.240
51.32000 143.740
51.33000 148.060
51.34000 151.429
51.35000 146.776
51.36000 142.567
51.37000 140.906
51.38000 144.964
51.39000 149.238
51.40000 151.457
51.41000 150.541
51.42000 149.591
51.43000 149.114
51.44000 145.246
51.45000 142.662
51.46000 139.882
51.47000 136.973
51.48000 134.130
51.49000 133.110
51.50000 132.910
51.51000 132.722
51.52000 137.061
51.53000 142.320
51.54000 146.893
51.55000 146.292
51.56000 144.624
51.57000 143.791
51.58000 146.976
51.59000 150.689
51.60000 153.572
51.61000 152.541
51.62000 151.483
51.63000 149.870
51.64000 147.030
51.65000 144.147
51.66000 142.659
51.67000 143.265
51.68000 143.890
51.69000 143.012
51.70000 140.651
51.71000 138.320
51.72000 138.742
51.73000 140.954
51.74000 143.121
51.75000 144.078
51.76000 144.501
51.77000 144.899
51.78000 145.003
51.79000 145.017
51.80000 144.808
51.81000 142.959
51.82000 140.778
51.83000 138.657
51.84000 136.820
51.85000 135.019
51.86000 133.626
51.87000 141.180
51.88000 147.698
51.89000 151.290
51.90000 148.536
51.91000 145.563
51.92000 143.129
51.93000 141.491
51.94000 139.860
51.95000 140.114
51.96000 142.189
51.97000 144.242
51.98000 144.446
51.99000 143.468
52.00000 142.492
52.01000 141.566
52.02000 140.663
52.03000 139.814
52.04000 139.575
52.05000 139.522
52.06000 139.453
52.07000 139.268
52.08000 139.061
52.09000 138.725
52.10000 137.794
52.11000 136.789
52.12000 136.015
52.13000 136.259
52.14000 136.511
52.15000 139.213
52.16000 147.140
52.17000 155.240
52.18000 155.986
52.19000 146.091
52.20000 136.110
52.21000 132.328
52.22000 134.419
52.23000 136.508
52.24000 138.449
52.25000 140.297
52.26000 142.084
52.27000 142.390
52.28000 142.063
52.29000 141.755
52.30000 142.968
52.31000 144.479
52.32000 145.093
52.33000 139.363
52.34000 132.398
52.35000 127.639
52.36000 132.923
52.37000 139.442
52.38000 144.438
52.39000 140.658
52.40000 137.189
52.41000 135.581
52.42000 137.875
52.43000 140.292
52.44000 142.481
52.45000 144.348
52.46000 146.212
52.47000 144.587
52.48000 139.724
52.49000 134.921
52.50000 134.461
52.51000 136.680
52.52000 138.861
52.53000 140.164
52.54000 141.100
52.55000 141.976
52.56000 141.324
52.57000 140.332
52.58000 139.462
52.59000 139.439
52.60000 139.577
52.61000 139.986
52.62000 141.603
52.63000 143.365
52.64000 144.709
52.65000 143.057
52.66000 141.596
52.67000 140.658
52.68000 140.797
52.69000 140.969
52.70000 141.044
52.71000 140.983
52.72000 140.922
52.73000 141.461
52.74000 142.546
52.75000 143.609
52.76000 143.170
52.77000 141.822
52.78000 140.471
52.79000 139.065
52.80000 137.637
52.81000 136.301
52.82000 139.497
52.83000 143.560
52.84000 147.064
52.85000 146.773
52.86000 145.772
52.87000 145.921
52.88000 151.119
52.89000 156.911
52.90000 161.308
52.91000 152.620
52.92000 145.114
52.93000 141.217
52.94000 144.625
52.95000 148.245
52.96000 149.425
52.97000 147.264
52.98000 145.084
52.99000 143.391
53.00000 142.135
53.01000 140.924
53.02000 142.580
53.03000 145.942
53.04000 149.117
53.05000 148.239
53.06000 145.715
53.07000 143.357
53.08000 145.995
53.09000 149.640
53.10000 152.756
53.11000 152.366
53.12000 151.332
53.13000 150.310
53.14000 149.336
53.15000 148.368
53.16000 147.636
53.17000 146.794
53.18000 146.129
53.19000 146.647
53.20000 149.519
53.21000 152.455
53.22000 153.765
53.23000 152.888
53.24000 152.000
53.25000 153.279
53.26000 156.452
53.27000 159.545
53.28000 157.858
53.29000 153.375
53.30000 149.267
53.31000 152.978
53.32000 159.812
53.33000 166.182
53.34000 166.987
53.35000 166.346
53.36000 165.436
53.37000 162.784
53.38000 159.817
53.39000 157.288
53.40000 156.609
53.41000 156.138
53.42000 155.783
53.43000 152.590
53.44000 149.955
53.45000 150.171
53.46000 155.965
53.47000 161.904
53.48000 165.117
53.49000 164.730
53.50000 164.325
53.51000 163.264
53.52000 161.640
53.53000 160.007
53.54000 157.788
53.55000 155.234
53.56000 152.757
53.57000 151.844
53.58000 151.546
53.59000 151.268
53.60000 151.790
53.61000 152.454
53.62000 152.831
53.63000 151.388
53.64000 149.623
53.65000 147.765
53.66000 145.519
53.67000 143.230
53.68000 141.517
53.69000 143.411
53.70000 145.058
53.71000 146.750
53.72000 148.529
53.73000 150.309
53.74000 150.439
53.75000 148.427
53.76000 146.408
53.77000 145.070
53.78000 144.308
53.79000 143.535
53.80000 142.198
53.81000 140.544
53.82000 138.971
53.83000 138.992
53.84000 139.628
53.85000 140.219
53.86000 143.506
53.87000 147.108
53.88000 149.896
53.89000 147.616
53.90000 144.459
53.91000 141.706
53.92000 140.600
53.93000 139.670
53.94000 138.978
53.95000 141.346
53.96000 143.328
53.97000 144.235
53.98000 143.108
53.99000 141.933
54.00000 140.332
54.01000 138.188
54.02000 136.044
54.03000 134.476
54.04000 133.388
54.05000 132.370
54.06000 134.861
54.07000 139.300
54.08000 143.569
54.09000 144.653
54.10000 144.530
54.11000 144.416
54.12000 143.044
54.13000 141.518
54.14000 140.009
54.15000 138.602
54.16000 137.212
54.17000 136.808
54.18000 140.351
54.19000 144.306
54.20000 147.240
54.21000 142.551
54.22000 138.576
54.23000 136.381
54.24000 137.494
54.25000 138.681
54.26000 137.105
54.27000 132.079
54.28000 127.049
54.29000 129.299
54.30000 137.431
54.31000 145.417
54.32000 146.644
54.33000 144.184
54.34000 141.607
54.35000 136.903
54.36000 131.406
54.37000 126.325
54.38000 128.507
54.39000 132.116
54.40000 135.547
54.41000 137.914
54.42000 140.104
54.43000 141.733
54.44000 141.155
54.45000 140.353
54.46000 139.760
54.47000 135.544
54.48000 132.124
54.49000 130.240
54.50000 131.160
54.51000 132.140
54.52000 136.618
54.53000 145.384
54.54000 154.145
54.55000 155.772
54.56000 151.731
54.57000 147.744
54.58000 146.110
54.59000 145.739
54.60000 145.358
54.61000 144.814
54.62000 144.210
54.63000 143.653
54.64000 146.765
54.65000 150.370
54.66000 152.788
54.67000 148.237
54.68000 142.550
54.69000 137.674
54.70000 135.927
54.71000 134.491
54.72000 133.437
54.73000 135.903
54.74000 137.953
54.75000 138.791
54.76000 137.456
54.77000 136.078
54.78000 136.639
54.79000 139.531
54.80000 142.422
54.81000 143.549
54.82000 143.295
54.83000 143.049
54.84000 143.088
54.85000 143.279
54.86000 143.372
54.87000 141.816
54.88000 139.665
54.89000 137.685
54.90000 143.230
54.91000 149.830
54.92000 155.422
54.93000 155.216
54.94000 154.084
54.95000 152.012
54.96000 146.374
54.97000 140.391
54.98000 136.019
54.99000 145.315
55.00000 153.020
55.01000 155.470
55.02000 148.655
55.03000 141.665
55.04000 140.864
55.05000 147.365
55.06000 153.864
55.07000 154.589
55.08000 150.903
55.09000 147.282
55.10000 146.224
55.11000 146.494
55.12000 146.850
55.13000 148.623
55.14000 150.899
55.15000 152.989
55.16000 154.664
55.17000 156.070
55.18000 157.643
55.19000 160.155
55.20000 162.814
55.21000 164.889
55.22000 164.791
55.23000 164.486
55.24000 164.265
55.25000 167.614
55.26000 170.325
55.27000 170.824
55.28000 167.490
55.29000 164.087
55.30000 164.825
55.31000 170.355
55.32000 175.876
55.33000 178.541
55.34000 179.049
55.35000 179.583
55.36000 181.081
55.37000 183.071
55.38000 184.976
55.39000 185.531
55.40000 185.617
55.41000 185.695
55.42000 195.747
55.43000 206.787
55.44000 215.443
55.45000 210.918
55.46000 204.373
55.47000 200.603
55.48000 206.993
55.49000 214.321
55.50000 219.619
55.51000 227.605
55.52000 233.831
55.53000 241.440
55.54000 251.406
55.55000 261.411
55.56000 267.904
55.57000 270.411
55.58000 272.905
55.59000 284.694
55.60000 303.218
55.61000 321.440
55.62000 328.840
55.63000 330.824
55.64000 333.257
55.65000 342.652
55.66000 354.429
55.67000 365.196
55.68000 384.450
55.69000 403.301
55.70000 422.292
55.71000 442.042
55.72000 461.905
55.73000 480.118
55.74000 492.390
55.75000 504.128
55.76000 512.573
55.77000 535.893
55.78000 554.266
55.79000 567.082
55.80000 570.604
55.81000 573.982
55.82000 588.063
55.83000 614.065
55.84000 639.984
55.85000 658.764
55.86000 672.240
55.87000 685.428
55.88000 688.727
55.89000 687.163
55.90000 685.795
55.91000 687.383
55.92000 689.965
55.93000 692.321
55.94000 694.363
55.95000 696.112
55.96000 696.492
55.97000 689.601
55.98000 681.641
55.99000 675.860
56.00000 677.783
56.01000 680.379
56.02000 682.238
56.03000 648.648
56.04000 621.803
56.05000 602.743
56.06000 596.473
56.07000 590.391
56.08000 579.874
56.09000 564.514
56.10000 549.212
56.11000 529.791
56.12000 507.645
56.13000 485.728
56.14000 471.300
56.15000 460.490
56.16000 449.537
56.17000 436.482
56.18000 422.730
56.19000 410.217
56.20000 389.697
56.21000 369.961
56.22000 351.148
56.23000 337.143
56.24000 323.830
56.25000 309.544
56.26000 291.875
56.27000 273.918
56.28000 261.137
56.29000 266.607
56.30000 271.364
56.31000 267.242
56.32000 248.783
56.33000 230.129
56.34000 221.836
56.35000 224.641
56.36000 227.437
56.37000 225.470
56.38000 220.220
56.39000 214.923
56.40000 208.124
56.41000 200.612
56.42000 193.094
56.43000 185.498
56.44000 177.877
56.45000 170.958
56.46000 167.903
56.47000 165.952
56.48000 164.099
56.49000 162.751
56.50000 161.475
56.51000 159.880
56.52000 157.202
56.53000 154.434
56.54000 152.474
56.55000 145.130
56.56000 139.383
56.57000 138.879
56.58000 146.696
56.59000 154.618
56.60000 156.900
56.61000 153.260
56.62000 149.637
56.63000 149.524
56.64000 151.800
56.65000 153.990
56.66000 153.590
56.67000 151.981
56.68000 150.459
56.69000 150.140
56.70000 150.206
56.71000 150.266
56.72000 150.085
56.73000 149.880
56.74000 148.636
56.75000 142.182
56.76000 135.010
56.77000 130.499
56.78000 134.907
56.79000 140.036
56.80000 143.647
56.81000 136.233
56.82000 130.284
56.83000 129.263
56.84000 135.921
56.85000 142.669
56.86000 144.296
56.87000 140.651
56.88000 137.025
56.89000 134.738
56.90000 133.374
56.91000 132.096
56.92000 133.317
56.93000 135.686
56.94000 137.803
56.95000 136.546
56.96000 134.230
56.97000 132.138
56.98000 132.312
56.99000 132.884
57.00000 133.293
57.01000 132.896
57.02000 132.391
57.03000 131.551
57.04000 129.608
57.05000 127.578
57.06000 126.157
57.07000 135.805
57.08000 143.415
57.09000 145.407
57.10000 138.797
57.11000 132.093
57.12000 129.430
57.13000 130.844
57.14000 132.249
57.15000 131.144
57.16000 128.411
57.17000 125.790
57.18000 126.278
57.19000 128.167
57.20000 130.070
57.21000 132.139
57.22000 134.260
57.23000 136.171
57.24000 135.282
57.25000 133.993
57.26000 132.104
57.27000 127.308
57.28000 122.130
57.29000 118.603
57.30000 120.424
57.31000 122.655
57.32000 124.208
57.33000 126.925
57.34000 129.006
57.35000 128.662
57.36000 124.669
57.37000 120.640
57.38000 119.113
57.39000 120.061
57.40000 121.002
57.41000 124.535
57.42000 129.680
57.43000 134.482
57.44000 130.230
57.45000 121.960
57.46000 114.256
57.47000 113.724
57.48000 115.365
57.49000 116.840
57.50000 122.721
57.51000 128.653
57.52000 133.293
57.53000 131.805
57.54000 129.527
57.55000 127.690
57.56000 127.260
57.57000 126.933
57.58000 126.707
57.59000 128.553
57.60000 129.995
57.61000 130.124
57.62000 128.311
57.63000 126.480
57.64000 126.577
57.65000 128.541
57.66000 130.491
57.67000 126.263
57.68000 118.208
57.69000 110.599
57.70000 114.289
57.71000 122.908
57.72000 130.832
57.73000 130.189
57.74000 126.996
57.75000 124.133
57.76000 125.310
57.77000 127.040
57.78000 128.119
57.79000 126.169
57.80000 123.836
57.81000 122.880
57.82000 126.232
57.83000 129.895
57.84000 132.417
57.85000 131.947
57.86000 131.520
57.87000 130.188
57.88000 127.545
57.89000 124.892
57.90000 123.744
57.91000 124.028
57.92000 124.309
57.93000 123.754
57.94000 122.691
57.95000 121.660
57.96000 121.386
57.97000 121.437
57.98000 121.634
57.99000 123.587
58.00000 126.053
58.01000 128.260
58.02000 125.236
58.03000 121.710
58.04000 119.001
58.05000 120.021
58.06000 121.501
58.07000 122.818
58.08000 123.633
58.09000 124.413
58.10000 124.946
58.11000 125.375
58.12000 125.693
58.13000 126.156
58.14000 126.823
58.15000 127.491
58.16000 127.471
58.17000 126.808
58.18000 126.151
58.19000 126.221
58.20000 126.731
58.21000 127.073
58.22000 123.450
58.23000 118.156
58.24000 113.485
58.25000 116.101
58.26000 120.810
58.27000 125.011
58.28000 123.170
58.29000 120.562
58.30000 119.159
58.31000 123.159
58.32000 127.811
58.33000 130.514
58.34000 127.332
58.35000 123.750
58.36000 121.313
58.37000 120.956
58.38000 120.737
58.39000 120.140
58.40000 119.013
58.41000 117.882
58.42000 118.481
58.43000 120.659
58.44000 122.817
58.45000 122.686
58.46000 121.193
58.47000 119.770
58.48000 119.910
58.49000 120.696
58.50000 121.330
58.51000 120.217
58.52000 118.612
58.53000 117.183
58.54000 117.576
58.55000 118.214
58.56000 118.986
58.57000 120.349
58.58000 121.780
58.59000 124.162
58.60000 129.364
58.61000 134.752
58.62000 138.396
58.63000 130.974
58.64000 125.207
58.65000 121.061
58.66000 119.143
58.67000 117.238
58.68000 115.106
58.69000 112.771
58.70000 110.458
58.71000 111.596
58.72000 114.726
58.73000 117.710
58.74000 117.502
58.75000 115.994
58.76000 114.648
58.77000 115.104
58.78000 116.059
58.79000 116.906
58.80000 120.009
58.81000 123.056
58.82000 125.703
58.83000 126.621
58.84000 127.340
58.85000 127.671
58.86000 126.872
58.87000 126.001
58.88000 125.415
58.89000 116.588
58.90000 109.860
58.91000 108.092
58.92000 113.012
58.93000 117.966
58.94000 119.821
58.95000 118.953
58.96000 118.094
58.97000 121.717
58.98000 127.830
58.99000 133.647
59.00000 133.250
59.01000 130.365
59.02000 127.410
59.03000 123.690
59.04000 119.762
59.05000 116.285
59.06000 114.533
59.07000 113.287
59.08000 111.827
59.09000 109.460
59.10000 106.990
59.11000 105.359
59.12000 106.132
59.13000 107.054
59.14000 107.670
59.15000 111.584
59.16000 114.548
59.17000 118.074
59.18000 122.344
59.19000 126.612
59.20000 127.380
59.21000 125.129
59.22000 122.904
59.23000 121.754
59.24000 121.237
59.25000 120.627
59.26000 118.159
59.27000 114.960
59.28000 111.976
59.29000 111.256
59.30000 111.142
59.31000 111.042
59.32000 108.607
59.33000 106.151
59.34000 105.285
59.35000 111.041
59.36000 117.526
59.37000 122.548
59.38000 123.446
59.39000 124.096
59.40000 124.528
59.41000 117.663
59.42000 112.454
59.43000 110.734
59.44000 113.551
59.45000 116.386
59.46000 119.331
59.47000 122.369
59.48000 125.371
59.49000 124.255
59.50000 120.894
59.51000 117.702
59.52000 117.836
59.53000 119.256
59.54000 120.492
59.55000 119.831
59.56000 118.670
59.57000 117.649
59.58000 120.780
59.59000 124.097
59.60000 126.463
59.61000 124.941
59.62000 123.001
59.63000 120.791
59.64000 117.832
59.65000 114.828
59.66000 112.846
59.67000 118.975
59.68000 123.636
59.69000 125.734
59.70000 124.562
59.71000 123.380
59.72000 122.635
59.73000 122.254
59.74000 121.877
59.75000 119.241
59.76000 115.451
59.77000 111.995
59.78000 114.849
59.79000 120.104
59.80000 124.743
59.81000 123.209
59.82000 120.082
59.83000 117.337
59.84000 115.921
59.85000 114.900
59.86000 114.975
59.87000 119.455
59.88000 124.397
59.89000 126.490
59.90000 120.822
59.91000 114.715
59.92000 110.712
59.93000 109.799
59.94000 109.179
59.95000 110.843
59.96000 115.368
59.97000 119.890
59.98000 120.288
59.99000 117.327
60.00000 114.406
60.01000 115.406
60.02000 118.464
60.03000 121.229
60.04000 118.641
60.05000 114.052
60.06000 110.231
60.07000 113.934
60.08000 119.545
60.09000 124.455
60.10000 122.304
60.11000 119.452
60.12000 116.432
60.13000 112.756
60.14000 109.012
60.15000 106.850
60.16000 108.925
60.17000 111.232
60.18000 112.734
60.19000 113.983
60.20000 114.896
60.21000 114.777
60.22000 113.392
60.23000 112.013
60.24000 113.684
60.25000 117.792
60.26000 121.840
60.27000 119.638
60.28000 114.239
60.29000 109.207
60.30000 110.680
60.31000 114.542
60.32000 118.005
60.33000 117.659
60.34000 116.362
60.35000 115.231
60.36000 118.526
60.37000 121.963
60.38000 123.606
60.39000 118.303
60.40000 112.305
60.41000 108.044
60.42000 108.350
60.43000 108.897
60.44000 109.252
60.45000 109.810
60.46000 110.221
60.47000 110.337
60.48000 110.095
60.49000 109.850
60.50000 108.828
60.51000 107.197
60.52000 105.591
60.53000 105.885
60.54000 107.143
60.55000 108.467
60.56000 110.926
60.57000 113.794
60.58000 116.287
60.59000 115.288
60.60000 113.434
60.61000 111.821
60.62000 117.421
60.63000 123.186
60.64000 127.443
60.65000 125.967
60.66000 123.932
60.67000 122.167
60.68000 121.097
60.69000 120.064
60.70000 119.399
60.71000 116.132
60.72000 113.712
60.73000 113.546
60.74000 116.047
60.75000 118.550
60.76000 120.317
60.77000 121.517
60.78000 122.697
60.79000 118.785
60.80000 112.439
60.81000 106.530
60.82000 107.878
60.83000 111.803
60.84000 115.639
60.85000 118.658
60.86000 121.481
60.87000 123.930
60.88000 125.341
60.89000 126.404
60.90000 126.315
60.91000 121.917
60.92000 117.110
60.93000 113.742
60.94000 114.034
60.95000 114.506
60.96000 114.808
60.97000 119.221
60.98000 122.485
60.99000 124.575
61.00000 125.301
61.01000 126.014
61.02000 124.631
61.03000 121.663
61.04000 118.746
61.05000 121.010
61.06000 125.755
61.07000 130.309
61.08000 131.783
61.09000 132.182
61.10000 132.488
61.11000 131.965
61.12000 131.246
61.13000 130.625
61.14000 125.855
61.15000 121.261
61.16000 117.850
61.17000 118.788
61.18000 120.128
61.19000 121.591
61.20000 123.357
61.21000 125.139
61.22000 126.269
61.23000 124.914
61.24000 123.900
61.25000 123.631
61.26000 124.208
61.27000 124.787
61.28000 125.461
61.29000 126.206
61.30000 126.937
61.31000 127.328
61.32000 127.541
61.33000 127.612
61.34000 125.466
61.35000 122.559
61.36000 120.105
61.37000 121.590
61.38000 123.986
61.39000 126.053
61.40000 128.065
61.41000 129.764
61.42000 130.917
61.43000 130.101
61.44000 129.107
61.45000 127.799
61.46000 125.719
61.47000 123.603
61.48000 122.270
61.49000 130.941
61.50000 137.331
61.51000 146.142
61.52000 157.656
61.53000 169.162
61.54000 179.018
61.55000 187.671
61.56000 196.159
61.57000 204.793
61.58000 213.182
61.59000 221.592
61.60000 230.329
61.61000 239.176
61.62000 247.580
61.63000 252.226
61.64000 256.018
61.65000 259.277
61.66000 272.496
61.67000 284.922
61.68000 293.819
61.69000 290.212
61.70000 285.506
61.71000 281.400
61.72000 278.745
61.73000 276.153
61.74000 274.532
61.75000 268.438
61.76000 263.991
61.77000 255.584
61.78000 242.837
61.79000 230.070
61.80000 214.745
61.81000 197.590
61.82000 180.778
61.83000 173.525
61.84000 171.002
61.85000 168.126
61.86000 160.074
61.87000 150.306
61.88000 141.505
61.89000 140.727
61.90000 141.742
61.91000 142.611
61.92000 140.473
61.93000 138.302
61.94000 136.523
61.95000 136.109
61.96000 135.813
61.97000 135.257
61.98000 134.087
61.99000 132.890
62.00000 132.146
62.01000 126.498
62.02000 122.384
62.03000 120.950
62.04000 122.396
62.05000 123.840
62.06000 124.986
62.07000 125.922
62.08000 126.838
62.09000 128.758
62.10000 131.062
62.11000 133.037
62.12000 130.329
62.13000 126.095
62.14000 122.129
62.15000 120.330
62.16000 119.006
62.17000 117.876
62.18000 124.347
62.19000 130.702
62.20000 136.180
62.21000 138.657
62.22000 140.884
62.23000 141.281
62.24000 137.405
62.25000 133.353
62.26000 130.853
62.27000 127.276
62.28000 124.697
62.29000 124.952
62.30000 128.191
62.31000 131.412
62.32000 132.246
62.33000 131.434
62.34000 130.641
62.35000 128.257
62.36000 125.258
62.37000 122.549
62.38000 123.879
62.39000 126.500
62.40000 128.525
62.41000 125.817
62.42000 122.090
62.43000 118.918
62.44000 124.351
62.45000 129.917
62.46000 133.714
62.47000 131.561
62.48000 128.927
62.49000 127.280
62.50000 127.902
62.51000 128.613
62.52000 129.049
62.53000 129.237
62.54000 129.369
62.55000 128.819
62.56000 127.564
62.57000 126.307
62.58000 124.709
62.59000 122.881
62.60000 121.095
62.61000 121.809
62.62000 123.595
62.63000 125.354
62.64000 126.760
62.65000 128.055
62.66000 128.891
62.67000 126.165
62.68000 122.688
62.69000 119.737
62.70000 122.004
62.71000 124.496
62.72000 127.529
62.73000 132.346
62.74000 137.303
62.75000 139.279
62.76000 134.531
62.77000 129.528
62.78000 126.486
62.79000 129.286
62.80000 131.331
62.81000 131.055
62.82000 128.430
62.83000 125.826
62.84000 125.353
62.85000 126.298
62.86000 127.221
62.87000 126.071
62.88000 124.076
62.89000 122.262
62.90000 122.833
62.91000 124.140
62.92000 125.266
62.93000 125.016
62.94000 124.481
62.95000 124.029
62.96000 125.238
62.97000 126.434
62.98000 128.283
62.99000 132.251
63.00000 136.381
63.01000 136.797
63.02000 128.978
63.03000 120.860
63.04000 115.959
63.05000 130.438
63.06000 140.886
63.07000 142.733
63.08000 136.048
63.09000 129.419
63.10000 128.044
63.11000 130.104
63.12000 132.112
63.13000 130.457
63.14000 127.323
63.15000 124.544
63.16000 126.293
63.17000 129.417
63.18000 132.109
63.19000 131.593
63.20000 130.425
63.21000 129.440
63.22000 129.121
63.23000 128.926
63.24000 129.396
63.25000 131.985
63.26000 134.733
63.27000 136.787
63.28000 137.328
63.29000 137.815
63.30000 138.108
63.31000 133.918
63.32000 130.915
63.33000 131.245
63.34000 134.817
63.35000 138.337
63.36000 137.371
63.37000 133.526
63.38000 129.783
63.39000 128.450
63.40000 128.185
63.41000 128.122
63.42000 130.562
63.43000 133.749
63.44000 135.990
63.45000 131.358
63.46000 125.355
63.47000 120.312
63.48000 123.484
63.49000 126.995
63.50000 129.498
63.51000 128.844
63.52000 127.962
63.53000 129.027
63.54000 134.266
63.55000 139.643
63.56000 142.841
63.57000 143.348
63.58000 143.692
63.59000 143.499
63.60000 142.794
63.61000 142.093
63.62000 141.631
63.63000 141.320
63.64000 141.017
63.65000 138.824
63.66000 135.965
63.67000 133.510
63.68000 135.928
63.69000 139.775
63.70000 143.404
63.71000 145.477
63.72000 147.246
63.73000 148.727
63.74000 149.197
63.75000 149.485
63.76000 148.087
63.77000 141.499
63.78000 134.546
63.79000 131.247
63.80000 135.645
63.81000 140.289
63.82000 143.030
63.83000 140.657
63.84000 138.953
63.85000 137.392
63.86000 135.963
63.87000 134.551
63.88000 134.356
63.89000 134.915
63.90000 135.457
63.91000 137.722
63.92000 140.562
63.93000 142.985
63.94000 140.503
63.95000 136.607
63.96000 133.304
63.97000 134.133
63.98000 135.755
63.99000 137.109
64.00000 140.262
64.01000 143.057
64.02000 145.208
64.03000 145.406
64.04000 145.469
64.05000 143.957
64.06000 139.181
64.07000 134.305
64.08000 131.451
64.09000 143.056
64.10000 151.296
64.11000 154.326
64.12000 152.582
64.13000 150.850
64.14000 149.907
64.15000 149.446
64.16000 148.999
64.17000 146.651
64.18000 143.679
64.19000 140.977
64.20000 141.352
64.21000 142.600
64.22000 144.087
64.23000 147.207
64.24000 150.635
64.25000 153.485
64.26000 151.721
64.27000 149.810
64.28000 148.991
64.29000 151.418
64.30000 154.062
64.31000 155.577
64.32000 154.796
64.33000 153.947
64.34000 153.454
64.35000 150.142
64.36000 147.806
64.37000 149.215
64.38000 153.988
64.39000 158.650
64.40000 156.123
64.41000 149.296
64.42000 142.683
64.43000 143.640
64.44000 147.468
64.45000 151.201
64.46000 153.863
64.47000 156.228
64.48000 158.057
64.49000 156.305
64.50000 153.893
64.51000 151.894
64.52000 154.945
64.53000 157.947
64.54000 160.381
64.55000 161.153
64.56000 161.818
64.57000 160.824
64.58000 156.513
64.59000 152.109
64.60000 149.571
64.61000 157.624
64.62000 163.296
64.63000 163.448
64.64000 158.734
64.65000 154.074
64.66000 152.616
64.67000 153.041
64.68000 153.452
64.69000 157.820
64.70000 163.446
64.71000 168.582
64.72000 168.409
64.73000 166.785
64.74000 165.745
64.75000 168.524
64.76000 171.994
64.77000 174.859
64.78000 173.427
64.79000 171.848
64.80000 170.657
64.81000 170.582
64.82000 170.576
64.83000 170.865
64.84000 171.732
64.85000 172.614
64.86000 173.119
64.87000 174.924
64.88000 176.192
64.89000 180.702
64.90000 188.013
64.91000 195.144
64.92000 192.073
64.93000 183.109
64.94000 174.450
64.95000 175.209
64.96000 179.428
64.97000 183.421
64.98000 185.033
64.99000 186.005
65.00000 186.967
65.01000 187.855
65.02000 188.730
65.03000 189.450
65.04000 191.397
65.05000 193.109
65.06000 195.045
65.07000 197.614
65.08000 200.222
65.09000 202.268
65.10000 203.227
65.11000 204.159
65.12000 204.687
65.13000 199.548
65.14000 195.956
65.15000 193.507
65.16000 192.027
65.17000 190.610
65.18000 192.542
65.19000 196.377
65.20000 200.076
65.21000 203.462
65.22000 206.535
65.23000 209.740
65.24000 214.307
65.25000 219.234
65.26000 224.066
65.27000 228.305
65.28000 232.440
65.29000 235.828
65.30000 232.333
65.31000 228.858
65.32000 227.407
65.33000 231.581
65.34000 236.085
65.35000 241.310
65.36000 247.906
65.37000 254.534
65.38000 258.261
65.39000 252.138
65.40000 247.872
65.41000 247.417
65.42000 250.133
65.43000 252.848
65.44000 255.471
65.45000 258.043
65.46000 260.520
65.47000 267.907
65.48000 276.603
65.49000 285.024
65.50000 290.675
65.51000 295.609
65.52000 301.001
65.53000 309.212
65.54000 317.904
65.55000 325.001
65.56000 324.774
65.57000 323.959
65.58000 326.236
65.59000 336.959
65.60000 348.161
65.61000 360.756
65.62000 375.949
65.63000 391.202
65.64000 399.705
65.65000 435.373
65.66000 460.135
65.67000 494.634
65.68000 537.084
65.69000 580.128
65.70000 651.282
65.71000 737.846
65.72000 821.118
65.73000 926.862
65.74000 1033.905
65.75000 1143.591
65.76000 1279.230
65.77000 1421.471
65.78000 1555.212
65.79000 1637.776
65.80000 1711.781
65.81000 1771.980
65.82000 1808.831
65.83000 1836.960
65.84000 1856.657
65.85000 1853.719
65.86000 1849.538
65.87000 1843.896
65.88000 1835.575
65.89000 1827.196
65.90000 1822.565
65.91000 1775.332
65.92000 1742.621
65.93000 1692.817
65.94000 1629.315
65.95000 1565.032
65.96000 1465.786
65.97000 1347.703
65.98000 1234.277
65.99000 1115.829
66.00000 1003.243
66.01000 891.930
66.02000 792.818
66.03000 696.755
66.04000 607.505
66.05000 558.451
66.06000 515.985
66.07000 481.573
66.08000 444.540
66.09000 414.160
66.10000 389.317
66.11000 379.083
66.12000 369.627
66.13000 362.176
66.14000 358.344
66.15000 354.586
66.16000 352.527
66.17000 349.033
66.18000 346.631
66.19000 345.020
66.20000 344.031
66.21000 343.231
66.22000 350.398
66.23000 361.785
66.24000 372.707
66.25000 387.162
66.26000 401.860
66.27000 416.951
66.28000 435.705
66.29000 455.357
66.30000 474.679
66.31000 492.085
66.32000 509.182
66.33000 522.984
66.34000 535.471
66.35000 545.516
66.36000 555.741
66.37000 566.438
66.38000 577.159
66.39000 586.091
66.40000 591.852
66.41000 597.551
66.42000 600.647
66.43000 593.461
66.44000 588.541
66.45000 588.466
66.46000 592.130
66.47000 595.356
66.48000 580.906
66.49000 557.256
66.50000 534.608
66.51000 520.628
66.52000 510.469
66.53000 499.640
66.54000 482.684
66.55000 464.252
66.56000 446.240
66.57000 430.606
66.58000 415.346
66.59000 403.076
66.60000 391.228
66.61000 381.654
66.62000 370.187
66.63000 353.895
66.64000 337.363
66.65000 330.048
66.66000 338.781
66.67000 347.805
66.68000 352.662
66.69000 343.162
66.70000 336.685
66.71000 336.759
66.72000 341.798
66.73000 346.794
66.74000 350.157
66.75000 352.685
66.76000 355.103
66.77000 352.398
66.78000 348.212
66.79000 343.983
66.80000 339.361
66.81000 334.647
66.82000 330.945
66.83000 332.872
66.84000 335.666
66.85000 337.904
66.86000 345.473
66.87000 351.998
66.88000 355.935
66.89000 353.387
66.90000 350.530
66.91000 348.067
66.92000 346.281
66.93000 344.506
66.94000 343.559
66.95000 337.552
66.96000 333.482
66.97000 334.616
66.98000 339.620
66.99000 344.606
67.00000 348.900
67.01000 352.848
67.02000 356.616
67.03000 354.954
67.04000 351.675
67.05000 349.033
67.06000 351.940
67.07000 356.137
67.08000 361.278
67.09000 371.571
67.10000 382.641
67.11000 391.472
67.12000 388.831
67.13000 385.861
67.14000 383.060
67.15000 380.672
67.16000 378.304
67.17000 379.565
67.18000 386.928
67.19000 394.389
67.20000 398.332
67.21000 390.992
67.22000 386.029
67.23000 386.040
67.24000 389.683
67.25000 393.200
67.26000 392.307
67.27000 389.235
67.28000 386.307
67.29000 381.680
67.30000 376.857
67.31000 372.478
67.32000 371.876
67.33000 372.135
67.34000 372.505
67.35000 373.469
67.36000 374.521
67.37000 375.357
67.38000 387.806
67.39000 398.657
67.40000 405.313
67.41000 401.808
67.42000 397.851
67.43000 394.687
67.44000 392.833
67.45000 390.998
67.46000 390.037
67.47000 399.067
67.48000 405.165
67.49000 408.214
67.50000 409.076
67.51000 409.816
67.52000 406.520
67.53000 401.263
67.54000 396.261
67.55000 397.336
67.56000 400.199
67.57000 403.270
67.58000 408.075
67.59000 413.268
67.60000 417.593
67.61000 417.367
67.62000 416.482
67.63000 415.782
67.64000 417.354
67.65000 418.775
67.66000 419.344
67.67000 417.886
67.68000 416.342
67.69000 418.988
67.70000 428.434
67.71000 437.976
67.72000 442.925
67.73000 439.374
67.74000 437.006
67.75000 438.640
67.76000 443.095
67.77000 447.521
67.78000 451.055
67.79000 454.163
67.80000 457.115
67.81000 459.535
67.82000 461.610
67.83000 463.527
67.84000 464.164
67.85000 464.520
67.86000 464.183
67.87000 460.281
67.88000 455.875
67.89000 452.403
67.90000 460.969
67.91000 468.643
67.92000 473.045
67.93000 469.786
67.94000 466.211
67.95000 465.166
67.96000 468.155
67.97000 471.196
67.98000 472.758
67.99000 479.723
68.00000 484.369
68.01000 483.993
68.02000 480.143
68.03000 476.626
68.04000 483.184
68.05000 494.471
68.06000 505.176
68.07000 509.298
68.08000 511.151
68.09000 512.857
68.10000 513.401
68.11000 513.694
68.12000 514.720
68.13000 519.441
68.14000 524.675
68.15000 528.783
68.16000 527.904
68.17000 526.877
68.18000 524.862
68.19000 520.575
68.20000 516.198
68.21000 515.648
68.22000 521.092
68.23000 526.609
68.24000 529.415
68.25000 538.486
68.26000 544.522
68.27000 545.319
68.28000 542.557
68.29000 539.987
68.30000 542.985
68.31000 548.551
68.32000 553.822
68.33000 565.282
68.34000 577.623
68.35000 588.216
68.36000 585.203
68.37000 579.309
68.38000 574.992
68.39000 578.476
68.40000 583.019
68.41000 586.568
68.42000 600.514
68.43000 612.299
68.44000 623.167
68.45000 631.964
68.46000 640.682
68.47000 647.057
68.48000 649.826
68.49000 652.554
68.50000 653.929
68.51000 668.417
68.52000 678.107
68.53000 688.558
68.54000 699.518
68.55000 710.539
68.56000 723.292
68.57000 736.829
68.58000 749.624
68.59000 777.722
68.60000 807.881
68.61000 837.548
68.62000 863.463
68.63000 888.598
68.64000 915.232
68.65000 949.143
68.66000 984.021
68.67000 1011.157
68.68000 1066.479
68.69000 1112.248
68.70000 1158.498
68.71000 1205.816
68.72000 1253.174
68.73000 1297.553
68.74000 1337.430
68.75000 1377.261
68.76000 1406.513
68.77000 1425.241
68.78000 1444.267
68.79000 1491.210
68.80000 1556.453
68.81000 1621.356
68.82000 1677.203
68.83000 1729.012
68.84000 1777.891
68.85000 1857.910
68.86000 1939.948
68.87000 2029.813
68.88000 2177.969
68.89000 2338.010
68.90000 2550.225
68.91000 3011.114
68.92000 3504.302
68.93000 3886.354
68.94000 5448.696
68.95000 6759.772
68.96000 8476.960
68.97000 11081.637
68.98000 13717.505
68.99000 16654.410
69.00000 20038.285
69.01000 23426.262
69.02000 26568.527
69.03000 29471.039
69.04000 32365.805
69.05000 34588.695
69.06000 36379.000
69.07000 38140.324
69.08000 39157.902
69.09000 39849.508
69.10000 40500.816
69.11000 41050.953
69.12000 41526.523
69.13000 42044.336
69.14000 42869.988
69.15000 43757.219
69.16000 44546.547
69.17000 44877.906
69.18000 45151.090
69.19000 45361.785
69.20000 43886.836
69.21000 42620.867
69.22000 40853.359
69.23000 38008.457
69.24000 35127.273
69.25000 32457.807
69.26000 30097.074
69.27000 27739.125
69.28000 25841.141
69.29000 24383.080
69.30000 22931.682
69.31000 22015.023
69.32000 21436.592
69.33000 20866.492
69.34000 20501.906
69.35000 20225.867
69.36000 19966.389
69.37000 19415.422
69.38000 18834.129
69.39000 18158.094
69.40000 16806.354
69.41000 15322.009
69.42000 13777.979
69.43000 11959.942
69.44000 10107.869
69.45000 8685.780
69.46000 7063.641
69.47000 5770.151
69.48000 4638.072
69.49000 3846.836
69.50000 3066.586
69.51000 2464.571
69.52000 2117.815
69.53000 1773.080
69.54000 1545.017
69.55000 1426.333
69.56000 1307.971
69.57000 1213.579
69.58000 1134.081
69.59000 1055.915
69.60000 1009.377
69.61000 976.234
69.62000 945.137
69.63000 910.580
69.64000 878.180
69.65000 848.668
69.66000 839.318
69.67000 833.850
69.68000 824.034
69.69000 794.624
69.70000 762.834
69.71000 738.534
69.72000 710.737
69.73000 688.625
69.74000 670.592
69.75000 661.025
69.76000 651.719
69.77000 643.067
69.78000 635.336
69.79000 627.612
69.80000 621.163
69.81000 615.887
69.82000 610.534
69.83000 599.869
69.84000 585.960
69.85000 572.117
69.86000 559.764
69.87000 548.031
69.88000 537.044
69.89000 535.229
69.90000 535.945
69.91000 536.308
69.92000 534.259
69.93000 531.755
69.94000 528.316
69.95000 520.742
69.96000 512.677
69.97000 506.540
69.98000 503.073
69.99000 500.484
70.00000 496.782
