20.00000 483.066
20.01000 485.721
20.02000 488.756
20.03000 490.474
20.04000 487.004
20.05000 483.004
20.06000 480.050
20.07000 478.435
20.08000 477.241
20.09000 474.317
20.10000 468.229
20.11000 462.075
20.12000 458.714
20.13000 458.784
20.14000 458.862
20.15000 462.196
20.16000 468.104
20.17000 473.995
20.18000 479.145
20.19000 483.898
20.20000 488.186
20.21000 484.260
20.22000 477.317
20.23000 470.911
20.24000 474.645
20.25000 480.254
20.26000 484.957
20.27000 484.337
20.28000 482.847
20.29000 481.401
20.30000 480.126
20.31000 478.868
20.32000 477.944
20.33000 471.833
20.34000 466.895
20.35000 463.692
20.36000 463.605
20.37000 463.581
20.38000 468.817
20.39000 480.394
20.40000 491.962
20.41000 492.827
20.42000 485.339
20.43000 477.989
20.44000 476.440
20.45000 477.953
20.46000 479.122
20.47000 474.375
20.48000 467.491
20.49000 461.154
20.50000 469.063
20.51000 479.253
20.52000 487.985
20.53000 488.318
20.54000 487.307
20.55000 484.799
20.56000 476.599
20.57000 467.845
20.58000 461.446
20.59000 465.848
20.60000 469.669
20.61000 470.901
20.62000 467.557
20.63000 464.126
20.64000 465.613
20.65000 472.917
20.66000 480.213
20.67000 480.362
20.68000 475.042
20.69000 469.701
20.70000 463.506
20.71000 456.868
20.72000 450.983
20.73000 457.595
20.74000 468.642
20.75000 478.790
20.76000 478.557
20.77000 476.124
20.78000 473.956
20.79000 473.286
20.80000 472.852
20.81000 472.918
20.82000 474.857
20.83000 476.974
20.84000 478.514
20.85000 470.684
20.86000 464.304
20.87000 459.797
20.88000 458.543
20.89000 457.346
20.90000 455.718
20.91000 453.589
20.92000 451.465
20.93000 456.961
20.94000 468.140
20.95000 479.004
20.96000 477.944
20.97000 470.803
20.98000 464.011
20.99000 462.848
21.00000 463.648
21.01000 464.381
21.02000 462.592
21.03000 460.469
21.04000 459.362
21.05000 463.892
21.06000 469.286
21.07000 472.210
21.08000 466.065
21.09000 459.082
21.10000 454.028
21.11000 462.581
21.12000 469.643
21.13000 472.193
21.14000 467.043
21.15000 461.763
21.16000 463.426
21.17000 472.992
21.18000 482.535
21.19000 482.895
21.20000 476.492
21.21000 470.252
21.22000 469.928
21.23000 472.569
21.24000 474.879
21.25000 472.020
21.26000 467.389
21.27000 463.155
21.28000 465.977
21.29000 469.939
21.30000 473.198
21.31000 472.645
21.32000 471.519
21.33000 470.480
21.34000 469.756
21.35000 469.062
21.36000 468.562
21.37000 462.683
21.38000 457.992
21.39000 456.376
21.40000 459.913
21.41000 463.531
21.42000 466.385
21.43000 468.387
21.44000 470.380
21.45000 465.871
21.46000 456.703
21.47000 447.804
21.48000 448.161
21.49000 453.079
21.50000 458.069
21.51000 464.144
21.52000 470.584
21.53000 476.461
21.54000 469.753
21.55000 461.266
21.56000 454.993
21.57000 460.516
21.58000 467.777
21.59000 472.760
21.60000 469.676
21.61000 465.884
21.62000 463.168
21.63000 459.408
21.64000 456.500
21.65000 457.041
21.66000 463.265
21.67000 469.572
21.68000 475.105
21.69000 479.791
21.70000 484.458
21.71000 484.181
21.72000 480.404
21.73000 476.722
21.74000 476.154
21.75000 477.095
21.76000 477.821
21.77000 475.392
21.78000 471.919
21.79000 468.758
21.80000 476.737
21.81000 486.002
21.82000 493.355
21.83000 490.725
21.84000 486.656
21.85000 482.921
21.86000 480.351
21.87000 477.880
21.88000 476.120
21.89000 479.906
21.90000 482.971
21.91000 483.642
21.92000 480.440
21.93000 477.184
21.94000 482.848
21.95000 498.087
21.96000 513.264
21.97000 516.420
21.98000 511.190
21.99000 506.119
22.00000 506.078
22.01000 508.430
22.02000 510.794
22.03000 513.313
22.04000 515.883
22.05000 518.217
22.06000 518.763
22.07000 518.900
22.08000 518.213
22.09000 513.306
22.10000 507.803
22.11000 503.903
22.12000 505.483
22.13000 507.520
22.14000 508.963
22.15000 513.605
22.16000 517.234
22.17000 520.252
22.18000 522.300
22.19000 524.335
22.20000 518.164
22.21000 503.355
22.22000 488.616
22.23000 484.367
22.24000 487.318
22.25000 490.123
22.26000 488.530
22.27000 484.877
22.28000 481.376
22.29000 479.969
22.30000 479.232
22.31000 478.564
22.32000 476.608
22.33000 474.640
22.34000 473.264
22.35000 474.862
22.36000 476.872
22.37000 476.861
22.38000 470.060
22.39000 462.708
22.40000 457.529
22.41000 460.531
22.42000 463.053
22.43000 464.711
22.44000 465.020
22.45000 465.313
22.46000 465.236
22.47000 464.779
22.48000 464.324
22.49000 462.674
22.50000 460.247
22.51000 457.881
22.52000 457.309
22.53000 457.562
22.54000 458.039
22.55000 461.531
22.56000 465.971
22.57000 469.984
22.58000 462.508
22.59000 453.800
22.60000 446.814
22.61000 448.328
22.62000 450.991
22.63000 450.960
22.64000 442.034
22.65000 432.406
22.66000 425.660
22.67000 426.645
22.68000 427.612
22.69000 431.775
22.70000 440.842
22.71000 449.963
22.72000 453.824
22.73000 452.365
22.74000 450.915
22.75000 448.919
22.76000 446.591
22.77000 444.454
22.78000 447.627
22.79000 453.201
22.80000 457.887
22.81000 450.965
22.82000 440.455
22.83000 430.981
22.84000 430.545
22.85000 431.805
22.86000 433.016
22.87000 433.988
22.88000 434.928
22.89000 437.862
22.90000 447.263
22.91000 457.160
22.92000 464.056
22.93000 462.149
22.94000 460.469
22.95000 458.281
22.96000 455.329
22.97000 452.369
22.98000 449.839
22.99000 447.736
23.00000 445.645
23.01000 450.039
23.02000 458.543
23.03000 466.672
23.04000 464.844
23.05000 458.590
23.06000 452.181
23.07000 443.798
23.08000 434.815
23.09000 426.738
23.10000 429.736
23.11000 434.334
23.12000 438.536
23.13000 440.859
23.14000 442.940
23.15000 445.361
23.16000 448.872
23.17000 452.464
23.18000 454.953
23.19000 461.196
23.20000 465.993
23.21000 465.528
23.22000 457.274
23.23000 448.947
23.24000 446.188
23.25000 448.839
23.26000 451.471
23.27000 451.990
23.28000 451.167
23.29000 450.433
23.30000 451.982
23.31000 454.529
23.32000 456.960
23.33000 457.949
23.34000 458.507
23.35000 459.008
23.36000 454.703
23.37000 450.103
23.38000 446.006
23.39000 444.260
23.40000 442.810
23.41000 442.322
23.42000 444.845
23.43000 447.587
23.44000 449.476
23.45000 440.611
23.46000 433.686
23.47000 432.309
23.48000 438.998
23.49000 445.754
23.50000 448.814
23.51000 448.352
23.52000 447.894
23.53000 446.828
23.54000 445.403
23.55000 444.090
23.56000 445.535
23.57000 448.165
23.58000 450.526
23.59000 449.642
23.60000 447.807
23.61000 446.166
23.62000 446.396
23.63000 446.917
23.64000 449.026
23.65000 458.404
23.66000 468.683
23.67000 475.223
23.68000 470.252
23.69000 464.470
23.70000 460.510
23.71000 460.675
23.72000 460.896
23.73000 463.495
23.74000 469.487
23.75000 475.505
23.76000 480.978
23.77000 485.942
23.78000 490.865
23.79000 492.198
23.80000 491.324
23.81000 490.879
23.82000 500.558
23.83000 514.512
23.84000 527.891
23.85000 534.518
23.86000 539.199
23.87000 543.377
23.88000 535.773
23.89000 527.186
23.90000 520.439
23.91000 521.956
23.92000 524.474
23.93000 528.192
23.94000 535.544
23.95000 543.144
23.96000 548.319
23.97000 539.690
23.98000 532.929
23.99000 531.907
24.00000 538.931
24.01000 546.008
24.02000 548.176
24.03000 545.847
24.04000 543.539
24.05000 542.185
24.06000 541.429
24.07000 540.656
24.08000 539.512
24.09000 538.215
24.10000 536.313
24.11000 527.504
24.12000 516.739
24.13000 507.158
24.14000 503.932
24.15000 502.169
24.16000 500.090
24.17000 496.620
24.18000 492.986
24.19000 489.337
24.20000 485.644
24.21000 481.948
24.22000 479.447
24.23000 483.200
24.24000 486.133
24.25000 485.170
24.26000 478.842
24.27000 472.483
24.28000 467.070
24.29000 462.507
24.30000 457.989
24.31000 457.218
24.32000 458.658
24.33000 460.184
24.34000 463.598
24.35000 467.780
24.36000 471.310
24.37000 467.566
24.38000 461.799
24.39000 456.679
24.40000 442.647
24.41000 429.060
24.42000 418.527
24.43000 421.216
24.44000 425.433
24.45000 430.107
24.46000 436.117
24.47000 442.213
24.48000 446.314
24.49000 443.998
24.50000 442.143
24.51000 436.359
24.52000 425.265
24.53000 414.154
24.54000 415.713
24.55000 428.434
24.56000 441.022
24.57000 441.700
24.58000 435.518
24.59000 429.681
24.60000 431.116
24.61000 435.470
24.62000 439.055
24.63000 434.303
24.64000 427.273
24.65000 421.051
24.66000 420.308
24.67000 420.523
24.68000 418.992
24.69000 410.034
24.70000 400.238
24.71000 394.938
24.72000 402.559
24.73000 410.986
24.74000 416.621
24.75000 409.391
24.76000 403.778
24.77000 401.236
24.78000 402.771
24.79000 404.325
24.80000 405.613
24.81000 406.673
24.82000 407.721
24.83000 412.939
24.84000 420.388
24.85000 427.610
24.86000 430.220
24.87000 431.012
24.88000 431.211
24.89000 425.149
24.90000 417.407
24.91000 410.572
24.92000 404.704
24.93000 399.788
24.94000 396.324
24.95000 398.918
24.96000 402.179
24.97000 405.234
24.98000 407.703
24.99000 410.137
25.00000 411.755
25.01000 416.048
25.02000 419.272
25.03000 417.268
25.04000 408.452
25.05000 399.619
25.06000 398.234
25.07000 403.164
25.08000 408.036
25.09000 406.264
25.10000 400.860
25.11000 395.917
25.12000 400.069
25.13000 407.746
25.14000 414.634
25.15000 413.386
25.16000 409.995
25.17000 407.009
25.18000 409.555
25.19000 412.578
25.20000 414.787
25.21000 413.667
25.22000 412.189
25.23000 410.580
25.24000 408.608
25.25000 406.615
25.26000 405.299
25.27000 405.588
25.28000 405.829
25.29000 409.551
25.30000 417.723
25.31000 425.889
25.32000 422.885
25.33000 410.591
25.34000 398.452
25.35000 394.800
25.36000 395.851
25.37000 397.151
25.38000 403.163
25.39000 410.971
25.40000 417.674
25.41000 413.253
25.42000 405.952
25.43000 399.543
25.44000 401.757
25.45000 404.923
25.46000 405.959
25.47000 398.423
25.48000 389.986
25.49000 384.559
25.50000 387.350
25.51000 390.607
25.52000 392.744
25.53000 397.765
25.54000 401.507
25.55000 403.589
25.56000 403.587
25.57000 403.574
25.58000 401.806
25.59000 398.606
25.60000 395.450
25.61000 396.290
25.62000 399.237
25.63000 401.822
25.64000 397.754
25.65000 391.193
25.66000 385.381
25.67000 386.917
25.68000 390.321
25.69000 393.302
25.70000 392.870
25.71000 392.010
25.72000 391.991
25.73000 395.294
25.74000 398.937
25.75000 400.735
25.76000 397.581
25.77000 394.156
25.78000 391.923
25.79000 373.998
25.80000 360.599
25.81000 359.992
25.82000 375.140
25.83000 390.296
25.84000 393.936
25.85000 388.350
25.86000 382.844
25.87000 384.059
25.88000 388.755
25.89000 393.491
25.90000 398.955
25.91000 404.687
25.92000 409.415
25.93000 404.528
25.94000 397.240
25.95000 390.879
25.96000 385.921
25.97000 381.877
25.98000 378.626
25.99000 378.457
26.00000 378.597
26.01000 379.409
26.02000 381.993
26.03000 384.671
26.04000 386.405
26.05000 393.559
26.06000 398.874
26.07000 397.942
26.08000 389.458
26.09000 380.977
26.10000 378.073
26.11000 379.555
26.12000 381.014
26.13000 387.650
26.14000 396.741
26.15000 404.938
26.16000 397.742
26.17000 384.973
26.18000 373.732
26.19000 376.784
26.20000 383.341
26.21000 389.047
26.22000 394.553
26.23000 399.226
26.24000 402.745
26.25000 401.865
26.26000 400.556
26.27000 398.637
26.28000 395.136
26.29000 391.554
26.30000 389.249
26.31000 399.509
26.32000 407.174
26.33000 409.269
26.34000 404.757
26.35000 400.235
26.36000 396.311
26.37000 392.848
26.38000 389.441
26.39000 390.416
26.40000 393.567
26.41000 396.282
26.42000 391.710
26.43000 384.547
26.44000 378.685
26.45000 384.708
26.46000 393.593
26.47000 401.303
26.48000 393.287
26.49000 384.352
26.50000 377.958
26.51000 381.084
26.52000 385.117
26.53000 387.033
26.54000 383.554
26.55000 379.807
26.56000 377.412
26.57000 371.656
26.58000 367.422
26.59000 366.136
26.60000 368.281
26.61000 370.434
26.62000 373.525
26.63000 377.325
26.64000 381.061
26.65000 384.139
26.66000 386.790
26.67000 388.977
26.68000 383.673
26.69000 375.751
26.70000 369.197
26.71000 374.855
26.72000 383.401
26.73000 390.794
26.74000 385.214
26.75000 378.773
26.76000 374.563
26.77000 378.566
26.78000 383.332
26.79000 386.420
26.80000 385.305
26.81000 383.989
26.82000 383.154
26.83000 372.073
26.84000 363.902
26.85000 364.231
26.86000 374.262
26.87000 384.285
26.88000 390.756
26.89000 394.584
26.90000 398.345
26.91000 392.719
26.92000 382.736
26.93000 373.283
26.94000 372.135
26.95000 373.841
26.96000 375.482
26.97000 376.548
26.98000 377.480
26.99000 378.285
27.00000 380.205
27.01000 381.976
27.02000 384.214
27.03000 388.138
27.04000 392.215
27.05000 392.911
27.06000 385.283
27.07000 377.271
27.08000 372.218
27.09000 375.735
27.10000 378.381
27.11000 377.214
27.12000 371.777
27.13000 366.373
27.14000 367.130
27.15000 372.387
27.16000 377.543
27.17000 377.380
27.18000 374.689
27.19000 372.225
27.20000 373.196
27.21000 375.328
27.22000 376.731
27.23000 371.925
27.24000 365.704
27.25000 360.355
27.26000 367.865
27.27000 375.828
27.28000 381.853
27.29000 380.995
27.30000 379.530
27.31000 378.070
27.32000 376.621
27.33000 375.174
27.34000 374.267
27.35000 378.744
27.36000 382.034
27.37000 380.080
27.38000 372.368
27.39000 364.719
27.40000 367.100
27.41000 376.673
27.42000 386.055
27.43000 386.047
27.44000 381.651
27.45000 377.316
27.46000 373.879
27.47000 370.739
27.48000 368.407
27.49000 372.794
27.50000 378.685
27.51000 383.735
27.52000 387.548
27.53000 390.618
27.54000 391.247
27.55000 383.364
27.56000 374.750
27.57000 368.968
27.58000 369.925
27.59000 371.171
27.60000 371.946
27.61000 364.851
27.62000 359.663
27.63000 359.407
27.64000 364.460
27.65000 369.500
27.66000 372.628
27.67000 374.409
27.68000 376.152
27.69000 374.046
27.70000 370.258
27.71000 366.876
27.72000 369.321
27.73000 373.668
27.74000 376.591
27.75000 367.929
27.76000 356.721
27.77000 347.145
27.78000 354.010
27.79000 361.757
27.80000 368.915
27.81000 374.058
27.82000 379.032
27.83000 380.957
27.84000 375.748
27.85000 370.246
27.86000 366.848
27.87000 361.148
27.88000 357.033
27.89000 356.591
27.90000 360.025
27.91000 363.471
27.92000 368.305
27.93000 374.099
27.94000 379.765
27.95000 378.008
27.96000 372.982
27.97000 368.334
27.98000 368.923
27.99000 371.193
28.00000 372.758
28.01000 368.718
28.02000 363.470
28.03000 359.000
28.04000 367.004
28.05000 375.186
28.06000 380.026
28.07000 373.610
28.08000 366.277
28.09000 361.251
28.10000 361.528
28.11000 362.015
28.12000 362.314
28.13000 357.597
28.14000 354.175
28.15000 352.508
28.16000 352.656
28.17000 352.860
28.18000 359.273
28.19000 369.903
28.20000 380.288
28.21000 381.094
28.22000 377.635
28.23000 374.485
28.24000 375.504
28.25000 377.838
28.26000 379.643
28.27000 377.334
28.28000 374.156
28.29000 371.457
28.30000 373.369
28.31000 375.498
28.32000 377.395
28.33000 378.525
28.34000 379.593
28.35000 379.348
28.36000 376.131
28.37000 372.801
28.38000 370.774
28.39000 370.089
28.40000 369.611
28.41000 367.993
28.42000 365.221
28.43000 362.427
28.44000 357.400
28.45000 350.884
28.46000 344.525
28.47000 345.298
28.48000 349.128
28.49000 352.838
28.50000 354.977
28.51000 356.629
28.52000 358.339
28.53000 360.490
28.54000 362.732
28.55000 364.630
28.56000 365.608
28.57000 366.324
28.58000 365.939
28.59000 361.973
28.60000 357.730
28.61000 355.034
28.62000 355.774
28.63000 356.640
28.64000 357.163
28.65000 361.441
28.66000 364.515
28.67000 363.537
28.68000 358.528
28.69000 353.547
28.70000 351.141
28.71000 350.421
28.72000 349.720
28.73000 352.351
28.74000 356.281
28.75000 359.933
28.76000 360.040
28.77000 359.068
28.78000 357.760
28.79000 353.956
28.80000 349.643
28.81000 346.005
28.82000 352.568
28.83000 359.155
28.84000 362.717
28.85000 356.614
28.86000 349.786
28.87000 345.631
28.88000 347.313
28.89000 349.201
28.90000 350.333
28.91000 359.081
28.92000 365.346
28.93000 369.331
28.94000 371.093
28.95000 372.811
28.96000 370.785
28.97000 366.347
28.98000 362.027
28.99000 358.828
29.00000 356.249
29.01000 353.817
29.02000 353.206
29.03000 353.139
29.04000 353.738
29.05000 359.184
29.06000 365.599
29.07000 370.991
29.08000 373.925
29.09000 376.109
29.10000 376.209
29.11000 369.763
29.12000 362.840
29.13000 357.618
29.14000 356.048
29.15000 354.602
29.16000 353.741
29.17000 356.949
29.18000 359.246
29.19000 358.941
29.20000 356.151
29.21000 353.358
29.22000 350.429
29.23000 347.415
29.24000 344.483
29.25000 341.828
29.26000 339.417
29.27000 337.546
29.28000 342.226
29.29000 348.832
29.30000 354.760
29.31000 355.860
29.32000 356.012
29.33000 356.139
29.34000 353.766
29.35000 351.536
29.36000 349.552
29.37000 348.334
29.38000 347.169
29.39000 345.398
29.40000 342.347
29.41000 339.255
29.42000 337.429
29.43000 347.282
29.44000 354.304
29.45000 354.711
29.46000 348.921
29.47000 343.225
29.48000 344.531
29.49000 350.186
29.50000 355.679
29.51000 357.361
29.52000 357.427
29.53000 357.670
29.54000 359.998
29.55000 362.930
29.56000 364.610
29.57000 357.557
29.58000 348.824
29.59000 341.534
29.60000 352.870
29.61000 364.150
29.62000 371.183
29.63000 365.327
29.64000 358.585
29.65000 352.797
29.66000 348.986
29.67000 345.237
29.68000 343.039
29.69000 353.786
29.70000 361.418
29.71000 365.892
29.72000 367.465
29.73000 369.036
29.74000 370.489
29.75000 371.870
29.76000 373.209
29.77000 370.273
29.78000 365.804
29.79000 361.593
29.80000 360.351
29.81000 359.952
29.82000 359.954
29.83000 362.697
29.84000 365.957
29.85000 368.669
29.86000 369.569
29.87000 370.137
29.88000 369.359
29.89000 364.570
29.90000 359.513
29.91000 358.794
29.92000 366.922
29.93000 375.309
29.94000 380.186
29.95000 382.099
29.96000 383.429
29.97000 383.932
29.98000 383.689
29.99000 383.440
30.00000 382.773
30.01000 381.855
30.02000 380.966
30.03000 383.758
30.04000 387.826
30.05000 391.475
30.06000 390.436
30.07000 388.090
30.08000 386.885
30.09000 393.310
30.10000 401.148
30.11000 407.644
30.12000 402.074
30.13000 396.318
30.14000 390.356
30.15000 383.791
30.16000 377.188
30.17000 371.248
30.18000 366.640
30.19000 362.069
30.20000 359.433
30.21000 359.976
30.22000 360.371
30.23000 362.405
30.24000 365.888
30.25000 369.328
30.26000 370.173
30.27000 369.490
30.28000 368.829
30.29000 371.205
30.30000 374.603
30.31000 377.746
30.32000 378.120
30.33000 377.734
30.34000 377.533
30.35000 378.543
30.36000 379.773
30.37000 380.789
30.38000 371.849
30.39000 363.553
30.40000 357.423
30.41000 357.537
30.42000 358.043
30.43000 360.235
30.44000 365.753
30.45000 371.359
30.46000 374.566
30.47000 370.309
30.48000 367.310
30.49000 363.246
30.50000 358.261
30.51000 353.408
30.52000 356.143
30.53000 363.271
30.54000 370.157
30.55000 371.384
30.56000 370.430
30.57000 369.222
30.58000 365.303
30.59000 360.656
30.60000 357.280
30.61000 362.067
30.62000 368.306
30.63000 373.441
30.64000 378.629
30.65000 382.900
30.66000 384.021
30.67000 376.223
30.68000 367.883
30.69000 363.739
30.70000 367.724
30.71000 371.915
30.72000 374.293
30.73000 386.002
30.74000 394.171
30.75000 395.861
30.76000 392.042
30.77000 388.327
30.78000 390.231
30.79000 395.331
30.80000 400.252
30.81000 398.996
30.82000 395.553
30.83000 392.396
30.84000 392.190
30.85000 392.764
30.86000 393.175
30.87000 392.559
30.88000 391.764
30.89000 391.113
30.90000 402.713
30.91000 413.316
30.92000 421.653
30.93000 423.686
30.94000 425.348
30.95000 430.059
30.96000 440.577
30.97000 451.235
30.98000 457.233
30.99000 457.316
31.00000 457.365
31.01000 461.042
31.02000 467.746
31.03000 474.617
31.04000 489.882
31.05000 509.840
31.06000 529.071
31.07000 533.276
31.08000 531.835
31.09000 532.320
31.10000 552.266
31.11000 577.263
31.12000 600.446
31.13000 612.452
31.14000 622.546
31.15000 630.792
31.16000 658.847
31.17000 683.521
31.18000 707.211
31.19000 728.210
31.20000 749.057
31.21000 771.812
31.22000 798.138
31.23000 824.546
31.24000 839.283
31.25000 880.099
31.26000 908.385
31.27000 927.830
31.28000 940.038
31.29000 952.486
31.30000 976.414
31.31000 1006.650
31.32000 1035.740
31.33000 1059.835
31.34000 1080.673
31.35000 1098.979
31.36000 1092.351
31.37000 1079.365
31.38000 1069.516
31.39000 1078.596
31.40000 1090.851
31.41000 1100.824
31.42000 1092.495
31.43000 1084.154
31.44000 1069.830
31.45000 1039.414
31.46000 1008.110
31.47000 986.442
31.48000 982.492
31.49000 978.927
31.50000 976.954
31.51000 945.606
31.52000 923.890
31.53000 892.006
31.54000 851.954
31.55000 812.301
31.56000 790.586
31.57000 778.556
31.58000 766.999
31.59000 737.437
31.60000 703.543
31.61000 670.687
31.62000 647.823
31.63000 627.462
31.64000 607.321
31.65000 588.490
31.66000 569.873
31.67000 554.780
31.68000 527.862
31.69000 504.961
31.70000 488.850
31.71000 490.687
31.72000 493.482
31.73000 488.010
31.74000 467.598
31.75000 446.880
31.76000 435.516
31.77000 432.302
31.78000 430.106
31.79000 428.481
31.80000 427.306
31.81000 426.048
31.82000 421.290
31.83000 414.674
31.84000 408.327
31.85000 405.885
31.86000 404.927
31.87000 403.083
31.88000 392.917
31.89000 380.705
31.90000 369.843
31.91000 366.806
31.92000 365.029
31.93000 363.594
31.94000 363.006
31.95000 362.596
31.96000 361.925
31.97000 360.578
31.98000 359.195
31.99000 355.219
32.00000 346.635
32.01000 337.962
32.02000 333.247
32.03000 349.601
32.04000 360.817
32.05000 365.191
32.06000 364.268
32.07000 363.385
32.08000 364.119
32.09000 365.696
32.10000 367.206
32.11000 360.814
32.12000 352.224
32.13000 343.498
32.14000 333.532
32.15000 323.267
32.16000 316.675
32.17000 330.970
32.18000 348.559
32.19000 362.709
32.20000 354.301
32.21000 345.732
32.22000 340.961
32.23000 345.893
32.24000 351.309
32.25000 351.576
32.26000 342.859
32.27000 333.979
32.28000 329.193
32.29000 348.075
32.30000 360.933
32.31000 356.841
32.32000 339.873
32.33000 323.315
32.34000 322.512
32.35000 329.785
32.36000 336.742
32.37000 338.991
32.38000 339.549
32.39000 339.901
32.40000 338.418
32.41000 336.499
32.42000 334.709
32.43000 333.634
32.44000 332.669
32.45000 331.895
32.46000 327.011
32.47000 322.748
32.48000 320.727
32.49000 324.332
32.50000 328.209
32.51000 330.348
32.52000 329.510
32.53000 328.620
32.54000 328.145
32.55000 318.170
32.56000 311.390
32.57000 309.855
32.58000 312.231
32.59000 314.632
32.60000 317.949
32.61000 321.727
32.62000 325.334
32.63000 323.134
32.64000 319.230
32.65000 316.011
32.66000 318.775
32.67000 322.933
32.68000 326.602
32.69000 327.604
32.70000 328.202
32.71000 328.680
32.72000 337.238
32.73000 344.740
32.74000 347.226
32.75000 337.325
32.76000 326.849
32.77000 320.055
32.78000 319.468
32.79000 318.980
32.80000 318.721
32.81000 326.591
32.82000 331.904
32.83000 330.513
32.84000 324.212
32.85000 318.099
32.86000 318.531
32.87000 322.204
32.88000 325.706
32.89000 324.857
32.90000 322.702
32.91000 320.017
32.92000 312.806
32.93000 304.560
32.94000 298.701
32.95000 305.635
32.96000 314.465
32.97000 321.483
32.98000 315.335
32.99000 309.444
33.00000 305.279
33.01000 305.301
33.02000 305.512
33.03000 305.338
33.04000 304.529
33.05000 303.710
33.06000 303.281
33.07000 306.896
33.08000 309.338
33.09000 310.623
33.10000 311.076
33.11000 311.547
33.12000 312.618
33.13000 313.980
33.14000 315.277
33.15000 311.866
33.16000 307.259
33.17000 303.307
33.18000 304.831
33.19000 307.584
33.20000 309.947
33.21000 310.260
33.22000 310.276
33.23000 310.288
33.24000 306.572
33.25000 303.326
33.26000 299.507
33.27000 294.322
33.28000 289.077
33.29000 287.378
33.30000 291.449
33.31000 295.600
33.32000 297.756
33.33000 296.396
33.34000 295.491
33.35000 296.453
33.36000 298.734
33.37000 300.926
33.38000 300.253
33.39000 298.210
33.40000 296.268
33.41000 299.522
33.42000 304.099
33.43000 307.992
33.44000 306.306
33.45000 303.391
33.46000 299.758
33.47000 292.427
33.48000 284.571
33.49000 278.378
33.50000 281.940
33.51000 285.453
33.52000 290.576
33.53000 299.476
33.54000 308.533
33.55000 311.174
33.56000 303.560
33.57000 295.813
33.58000 291.828
33.59000 290.950
33.60000 290.407
33.61000 295.744
33.62000 305.158
33.63000 314.252
33.64000 313.610
33.65000 308.387
33.66000 303.433
33.67000 303.824
33.68000 305.769
33.69000 307.204
33.70000 304.575
33.71000 301.068
33.72000 297.767
33.73000 295.518
33.74000 293.414
33.75000 291.762
33.76000 297.619
33.77000 302.795
33.78000 306.240
33.79000 305.695
33.80000 304.991
33.81000 304.497
33.82000 304.335
33.83000 304.177
33.84000 304.097
33.85000 302.240
33.86000 301.045
33.87000 305.544
33.88000 313.920
33.89000 321.968
33.90000 320.417
33.91000 314.427
33.92000 308.754
33.93000 311.042
33.94000 315.462
33.95000 319.453
33.96000 320.087
33.97000 320.009
33.98000 319.900
33.99000 319.635
34.00000 319.349
34.01000 319.126
34.02000 319.653
34.03000 320.122
34.04000 319.892
34.05000 318.081
34.06000 316.209
34.07000 316.358
34.08000 319.624
34.09000 322.925
34.10000 324.589
34.11000 318.614
34.12000 314.652
34.13000 314.111
34.14000 315.858
34.15000 317.639
34.16000 320.395
34.17000 323.594
34.18000 326.618
34.19000 333.153
34.20000 340.156
34.21000 346.216
34.22000 345.066
34.23000 342.415
34.24000 340.290
34.25000 340.722
34.26000 341.495
34.27000 342.097
34.28000 341.670
34.29000 341.267
34.30000 341.637
34.31000 343.730
34.32000 345.887
34.33000 348.847
34.34000 353.024
34.35000 357.214
34.36000 354.106
34.37000 343.720
34.38000 333.441
34.39000 333.219
34.40000 339.603
34.41000 346.062
34.42000 354.517
34.43000 363.864
34.44000 372.684
34.45000 364.739
34.46000 352.765
34.47000 341.917
34.48000 339.484
34.49000 338.770
34.50000 336.757
34.51000 328.534
34.52000 319.504
34.53000 312.504
34.54000 319.005
34.55000 324.977
34.56000 328.970
34.57000 328.630
34.58000 328.137
34.59000 324.452
34.60000 316.020
34.61000 307.542
34.62000 306.585
34.63000 312.979
34.64000 319.288
34.65000 318.181
34.66000 312.288
34.67000 306.569
34.68000 305.306
34.69000 306.002
34.70000 306.657
34.71000 302.985
34.72000 298.439
34.73000 294.448
34.74000 294.513
34.75000 295.392
34.76000 295.394
34.77000 291.290
34.78000 286.661
34.79000 283.090
34.80000 283.666
34.81000 284.363
34.82000 283.781
34.83000 280.446
34.84000 277.017
34.85000 276.177
34.86000 279.121
34.87000 282.096
34.88000 281.444
34.89000 277.316
34.90000 273.284
34.91000 277.078
34.92000 285.833
34.93000 294.168
34.94000 292.119
34.95000 285.586
34.96000 279.444
34.97000 279.349
34.98000 280.890
34.99000 282.178
35.00000 281.657
35.01000 280.780
35.02000 279.763
35.03000 278.101
35.04000 276.358
35.05000 275.019
35.06000 277.908
35.07000 280.430
35.08000 281.778
35.09000 280.644
35.10000 279.429
35.11000 274.072
35.12000 262.769
35.13000 251.420
35.14000 250.062
35.15000 258.087
35.16000 266.063
35.17000 270.472
35.18000 272.658
35.19000 274.768
35.20000 275.046
35.21000 274.547
35.22000 274.078
35.23000 280.777
35.24000 288.776
35.25000 294.662
35.26000 285.771
35.27000 274.027
35.28000 265.151
35.29000 269.221
35.30000 274.869
35.31000 279.188
35.32000 277.592
35.33000 276.011
35.34000 274.421
35.35000 272.813
35.36000 271.204
35.37000 271.198
35.38000 273.453
35.39000 275.723
35.40000 273.500
35.41000 267.143
35.42000 260.844
35.43000 258.586
35.44000 258.799
35.45000 259.152
35.46000 262.697
35.47000 267.575
35.48000 272.143
35.49000 270.770
35.50000 267.984
35.51000 265.353
35.52000 263.784
35.53000 262.416
35.54000 261.738
35.55000 264.116
35.56000 266.859
35.57000 268.947
35.58000 270.565
35.59000 271.813
35.60000 273.177
35.61000 274.779
35.62000 276.388
35.63000 274.383
35.64000 267.375
35.65000 260.337
35.66000 254.756
35.67000 250.493
35.68000 246.351
35.69000 250.027
35.70000 258.405
35.71000 266.388
35.72000 265.634
35.73000 261.297
35.74000 257.243
35.75000 262.216
35.76000 269.021
35.77000 274.435
35.78000 270.516
35.79000 264.864
35.80000 259.764
35.81000 257.071
35.82000 254.658
35.83000 252.829
35.84000 255.573
35.85000 257.962
35.86000 259.284
35.87000 258.464
35.88000 257.583
35.89000 258.530
35.90000 261.960
35.91000 265.402
35.92000 269.696
35.93000 274.739
35.94000 279.664
35.95000 277.327
35.96000 270.702
35.97000 264.302
35.98000 262.689
35.99000 263.007
36.00000 263.304
36.01000 266.702
36.02000 270.552
36.03000 273.304
36.04000 268.836
36.05000 263.054
36.06000 257.759
36.07000 254.544
36.08000 251.564
36.09000 249.317
36.10000 252.079
36.11000 254.491
36.12000 256.749
36.13000 258.707
36.14000 260.657
36.15000 260.613
36.16000 257.909
36.17000 255.194
36.18000 255.401
36.19000 258.143
36.20000 260.813
36.21000 259.384
36.22000 255.576
36.23000 251.901
36.24000 250.957
36.25000 251.094
36.26000 251.223
36.27000 256.736
36.28000 263.033
36.29000 268.002
36.30000 264.419
36.31000 259.310
36.32000 255.573
36.33000 257.598
36.34000 260.262
36.35000 262.263
36.36000 259.175
36.37000 256.519
36.38000 256.885
36.39000 263.118
36.40000 269.502
36.41000 268.338
36.42000 257.288
36.43000 246.203
36.44000 241.099
36.45000 241.092
36.46000 241.242
36.47000 249.900
36.48000 263.411
36.49000 276.182
36.50000 274.270
36.51000 266.637
36.52000 259.544
36.53000 257.844
36.54000 257.598
36.55000 257.707
36.56000 260.047
36.57000 262.778
36.58000 265.052
36.59000 265.447
36.60000 265.639
36.61000 265.782
36.62000 258.841
36.63000 253.104
36.64000 250.740
36.65000 254.815
36.66000 259.046
36.67000 259.626
36.68000 255.511
36.69000 251.382
36.70000 249.599
36.71000 249.779
36.72000 249.963
36.73000 250.310
36.74000 250.750
36.75000 251.168
36.76000 251.175
36.77000 251.024
36.78000 250.885
36.79000 252.302
36.80000 253.943
36.81000 255.551
36.82000 256.956
36.83000 258.327
36.84000 260.149
36.85000 263.801
36.86000 267.646
36.87000 270.505
36.88000 271.149
36.89000 271.550
36.90000 270.222
36.91000 265.650
36.92000 261.002
36.93000 260.628
36.94000 265.646
36.95000 270.675
36.96000 271.781
36.97000 269.674
36.98000 267.643
36.99000 269.286
37.00000 272.952
37.01000 276.070
37.02000 268.994
37.03000 258.080
37.04000 247.980
37.05000 251.251
37.06000 257.262
37.07000 262.573
37.08000 263.644
37.09000 264.002
37.10000 264.406
37.11000 264.993
37.12000 265.600
37.13000 266.050
37.14000 270.514
37.15000 274.151
37.16000 275.314
37.17000 271.919
37.18000 268.425
37.19000 265.368
37.20000 262.855
37.21000 260.346
37.22000 259.620
37.23000 260.326
37.24000 261.022
37.25000 261.236
37.26000 261.190
37.27000 261.264
37.28000 263.514
37.29000 266.569
37.30000 269.390
37.31000 274.652
37.32000 279.921
37.33000 283.186
37.34000 274.560
37.35000 263.975
37.36000 256.280
37.37000 259.866
37.38000 264.589
37.39000 268.067
37.40000 264.368
37.41000 261.208
37.42000 259.075
37.43000 258.806
37.44000 258.575
37.45000 259.225
37.46000 260.946
37.47000 262.665
37.48000 259.745
37.49000 253.187
37.50000 246.725
37.51000 244.354
37.52000 244.160
37.53000 244.199
37.54000 248.293
37.55000 253.862
37.56000 258.994
37.57000 261.936
37.58000 264.085
37.59000 265.286
37.60000 260.975
37.61000 255.775
37.62000 251.638
37.63000 251.578
37.64000 251.919
37.65000 252.169
37.66000 247.942
37.67000 244.498
37.68000 243.994
37.69000 248.721
37.70000 253.550
37.71000 253.785
37.72000 248.540
37.73000 243.296
37.74000 243.033
37.75000 246.614
37.76000 250.221
37.77000 254.860
37.78000 260.040
37.79000 264.865
37.80000 263.707
37.81000 260.410
37.82000 257.378
37.83000 249.022
37.84000 240.405
37.85000 233.798
37.86000 238.645
37.87000 245.303
37.88000 251.377
37.89000 255.252
37.90000 258.915
37.91000 261.585
37.92000 262.968
37.93000 263.983
37.94000 263.989
37.95000 262.231
37.96000 260.440
37.97000 259.518
37.98000 259.612
37.99000 259.708
38.00000 259.605
38.01000 259.354
38.02000 259.139
38.03000 260.347
38.04000 262.287
38.05000 263.947
38.06000 261.064
38.07000 256.584
38.08000 252.474
38.09000 250.728
38.10000 249.672
38.11000 249.796
38.12000 256.519
38.13000 264.264
38.14000 270.213
38.15000 269.519
38.16000 268.204
38.17000 267.250
38.18000 266.950
38.19000 266.744
38.20000 265.434
38.21000 262.226
38.22000 258.985
38.23000 259.027
38.24000 262.840
38.25000 266.645
38.26000 274.665
38.27000 285.755
38.28000 296.550
38.29000 296.425
38.30000 290.783
38.31000 285.528
38.32000 286.381
38.33000 289.344
38.34000 292.056
38.35000 295.600
38.36000 298.924
38.37000 304.088
38.38000 319.330
38.39000 336.102
38.40000 349.221
38.41000 349.065
38.42000 347.699
38.43000 346.713
38.44000 353.638
38.45000 359.230
38.46000 367.195
38.47000 379.167
38.48000 391.204
38.49000 409.860
38.50000 435.969
38.51000 461.999
38.52000 480.300
38.53000 492.827
38.54000 505.646
38.55000 528.754
38.56000 556.972
38.57000 584.696
38.58000 604.849
38.59000 622.431
38.60000 638.489
38.61000 666.094
38.62000 692.950
38.63000 719.257
38.64000 742.619
38.65000 765.543
38.66000 783.557
38.67000 784.045
38.68000 782.976
38.69000 782.208
38.70000 786.977
38.71000 790.815
38.72000 792.690
38.73000 791.309
38.74000 789.878
38.75000 787.457
38.76000 783.942
38.77000 780.440
38.78000 771.196
38.79000 757.933
38.80000 744.544
38.81000 726.931
38.82000 707.257
38.83000 687.345
38.84000 663.896
38.85000 639.266
38.86000 616.823
38.87000 587.684
38.88000 560.535
38.89000 533.584
38.90000 507.676
38.91000 481.920
38.92000 458.186
38.93000 441.547
38.94000 425.521
38.95000 414.080
38.96000 401.037
38.97000 391.034
38.98000 379.239
38.99000 364.521
39.00000 349.762
39.01000 338.528
39.02000 331.112
39.03000 323.728
39.04000 310.565
39.05000 293.484
39.06000 276.862
39.07000 274.980
39.08000 280.168
39.09000 284.332
39.10000 273.691
39.11000 258.193
39.12000 244.105
39.13000 248.111
39.14000 255.186
39.15000 260.009
39.16000 253.183
39.17000 244.698
39.18000 239.383
39.19000 244.994
39.20000 251.526
39.21000 256.164
39.22000 246.812
39.23000 239.251
39.24000 236.693
39.25000 242.150
39.26000 247.713
39.27000 247.996
39.28000 242.671
39.29000 237.371
39.30000 235.045
39.31000 234.790
39.32000 234.602
39.33000 236.441
39.34000 239.236
39.35000 242.177
39.36000 247.156
39.37000 252.791
39.38000 257.902
39.39000 252.064
39.40000 244.818
39.41000 238.544
39.42000 237.198
39.43000 236.539
39.44000 236.117
39.45000 236.495
39.46000 236.938
39.47000 237.251
39.48000 242.591
39.49000 246.798
39.50000 246.928
39.51000 240.643
39.52000 234.279
39.53000 233.777
39.54000 239.378
39.55000 244.951
39.56000 248.208
39.57000 249.866
39.58000 251.414
39.59000 249.768
39.60000 246.641
39.61000 243.600
39.62000 241.732
39.63000 240.236
39.64000 238.882
39.65000 239.435
39.66000 240.279
39.67000 240.104
39.68000 234.860
39.69000 228.925
39.70000 224.253
39.71000 223.782
39.72000 223.647
39.73000 223.553
39.74000 233.408
39.75000 241.162
39.76000 245.169
39.77000 243.381
39.78000 241.528
39.79000 240.691
39.80000 240.890
39.81000 241.088
39.82000 238.291
39.83000 233.547
39.84000 229.015
39.85000 230.442
39.86000 234.584
39.87000 238.103
39.88000 233.370
39.89000 226.068
39.90000 219.477
39.91000 221.112
39.92000 224.058
39.93000 226.373
39.94000 225.614
39.95000 224.444
39.96000 222.943
39.97000 220.362
39.98000 217.698
39.99000 215.837
40.00000 223.507
40.01000 229.568
40.02000 234.199
40.03000 236.656
40.04000 239.090
40.05000 240.722
40.06000 241.550
40.07000 242.372
40.08000 241.998
40.09000 240.853
40.10000 239.528
40.11000 233.352
40.12000 225.002
40.13000 217.369
40.14000 218.963
40.15000 223.379
40.16000 227.355
40.17000 227.963
40.18000 227.892
40.19000 227.978
40.20000 228.821
40.21000 229.763
40.22000 229.426
40.23000 224.975
40.24000 220.214
40.25000 216.907
40.26000 221.728
40.27000 225.578
40.28000 228.148
40.29000 228.808
40.30000 229.450
40.31000 228.276
40.32000 225.322
40.33000 222.388
40.34000 223.025
40.35000 225.928
40.36000 228.709
40.37000 228.334
40.38000 226.569
40.39000 225.074
40.40000 226.969
40.41000 229.884
40.42000 232.501
40.43000 230.379
40.44000 227.690
40.45000 225.887
40.46000 228.252
40.47000 231.149
40.48000 231.848
40.49000 225.607
40.50000 218.856
40.51000 214.194
40.52000 212.506
40.53000 211.313
40.54000 211.337
40.55000 213.146
40.56000 214.970
40.57000 215.903
40.58000 215.978
40.59000 216.053
40.60000 214.203
40.61000 211.180
40.62000 208.516
40.63000 214.798
40.64000 224.953
40.65000 234.201
40.66000 232.380
40.67000 227.290
40.68000 222.731
40.69000 225.178
40.70000 228.522
40.71000 230.548
40.72000 226.500
40.73000 221.692
40.74000 218.754
40.75000 221.618
40.76000 224.896
40.77000 227.147
40.78000 225.804
40.79000 224.709
40.80000 222.310
40.81000 218.034
40.82000 213.743
40.83000 209.363
40.84000 204.901
40.85000 200.474
40.86000 201.992
40.87000 207.129
40.88000 212.104
40.89000 213.192
40.90000 212.626
40.91000 212.003
40.92000 210.691
40.93000 209.181
40.94000 207.831
40.95000 208.094
40.96000 208.596
40.97000 210.086
40.98000 216.053
40.99000 222.566
41.00000 225.290
41.01000 216.457
41.02000 206.823
41.03000 200.247
41.04000 207.113
41.05000 212.562
41.06000 215.885
41.07000 216.203
41.08000 216.500
41.09000 216.028
41.10000 214.845
41.11000 213.672
41.12000 214.254
41.13000 215.881
41.14000 217.271
41.15000 213.206
41.16000 206.858
41.17000 201.429
41.18000 206.624
41.19000 214.849
41.20000 222.178
41.21000 219.588
41.22000 215.699
41.23000 211.572
41.24000 206.384
41.25000 201.069
41.26000 197.015
41.27000 196.741
41.28000 196.721
41.29000 196.708
41.30000 204.503
41.31000 210.491
41.32000 215.954
41.33000 220.687
41.34000 225.410
41.35000 222.498
41.36000 212.668
41.37000 202.930
41.38000 203.314
41.39000 209.668
41.40000 215.679
41.41000 214.066
41.42000 209.317
41.43000 205.192
41.44000 208.079
41.45000 212.932
41.46000 217.244
41.47000 213.994
41.48000 209.952
41.49000 207.339
41.50000 210.958
41.51000 215.304
41.52000 217.167
41.53000 211.716
41.54000 205.787
41.55000 201.788
41.56000 206.587
41.57000 210.343
41.58000 211.471
41.59000 209.016
41.60000 206.541
41.61000 204.070
41.62000 201.603
41.63000 199.160
41.64000 198.285
41.65000 198.336
41.66000 198.448
41.67000 199.861
41.68000 201.798
41.69000 203.806
41.70000 206.586
41.71000 209.578
41.72000 212.230
41.73000 211.908
41.74000 211.159
41.75000 211.363
41.76000 215.652
41.77000 220.406
41.78000 222.118
41.79000 215.022
41.80000 207.369
41.81000 202.238
41.82000 209.914
41.83000 215.868
41.84000 219.507
41.85000 220.051
41.86000 220.575
41.87000 218.348
41.88000 213.722
41.89000 209.147
41.90000 207.908
41.91000 208.595
41.92000 209.378
41.93000 212.153
41.94000 215.719
41.95000 218.905
41.96000 218.027
41.97000 216.049
41.98000 214.301
41.99000 216.671
42.00000 219.355
42.01000 220.565
42.02000 215.574
42.03000 209.891
42.04000 208.400
42.05000 218.838
42.06000 230.008
42.07000 237.451
42.08000 230.557
42.09000 225.181
42.10000 224.116
42.11000 228.714
42.12000 233.329
42.13000 232.124
42.14000 225.941
42.15000 219.830
42.16000 220.726
42.17000 225.511
42.18000 230.152
42.19000 231.931
42.20000 232.592
42.21000 233.061
42.22000 231.524
42.23000 229.453
42.24000 227.628
42.25000 221.265
42.26000 215.095
42.27000 210.061
42.28000 209.727
42.29000 209.903
42.30000 210.991
42.31000 214.629
42.32000 218.419
42.33000 220.928
42.34000 220.733
42.35000 220.540
42.36000 219.532
42.37000 217.474
42.38000 215.415
42.39000 214.627
42.40000 214.907
42.41000 215.183
42.42000 216.886
42.43000 219.326
42.44000 221.488
42.45000 218.259
42.46000 212.960
42.47000 208.472
42.48000 212.232
42.49000 218.146
42.50000 223.343
42.51000 216.306
42.52000 208.444
42.53000 203.389
42.54000 209.726
42.55000 217.272
42.56000 223.322
42.57000 225.253
42.58000 226.947
42.59000 228.061
42.60000 219.484
42.61000 213.002
42.62000 209.704
42.63000 210.437
42.64000 211.182
42.65000 211.321
42.66000 210.962
42.67000 210.607
42.68000 206.811
42.69000 201.268
42.70000 196.095
42.71000 197.817
42.72000 202.142
42.73000 206.123
42.74000 206.693
42.75000 206.389
42.76000 206.122
42.77000 206.933
42.78000 207.785
42.79000 209.138
42.80000 212.485
42.81000 216.039
42.82000 217.466
42.83000 213.147
42.84000 208.508
42.85000 205.474
42.86000 207.227
42.87000 208.592
42.88000 207.422
42.89000 203.103
42.90000 198.786
42.91000 198.552
42.92000 201.618
42.93000 204.641
42.94000 206.594
42.95000 207.929
42.96000 209.008
42.97000 205.470
42.98000 200.219
42.99000 195.776
43.00000 199.157
43.01000 204.509
43.02000 209.185
43.03000 213.248
43.04000 216.641
43.05000 217.891
43.06000 210.762
43.07000 202.784
43.08000 198.280
43.09000 203.004
43.10000 208.226
43.11000 211.618
43.12000 211.865
43.13000 211.998
43.14000 211.648
43.15000 210.710
43.16000 209.763
43.17000 206.617
43.18000 201.730
43.19000 196.915
43.20000 195.187
43.21000 195.108
43.22000 195.137
43.23000 197.050
43.24000 199.649
43.25000 201.568
43.26000 197.047
43.27000 190.935
43.28000 185.609
43.29000 193.782
43.30000 202.634
43.31000 210.010
43.32000 211.715
43.33000 212.860
43.34000 212.197
43.35000 206.810
43.36000 201.178
43.37000 197.542
43.38000 197.107
43.39000 196.835
43.40000 197.554
43.41000 199.458
43.42000 201.365
43.43000 203.317
43.44000 205.306
43.45000 207.263
43.46000 207.728
43.47000 207.420
43.48000 206.868
43.49000 202.177
43.50000 196.003
43.51000 190.550
43.52000 191.756
43.53000 194.578
43.54000 197.031
43.55000 198.200
43.56000 199.024
43.57000 198.978
43.58000 195.652
43.59000 192.011
43.60000 190.531
43.61000 194.604
43.62000 198.957
43.63000 201.748
43.64000 200.675
43.65000 199.841
43.66000 197.440
43.67000 193.201
43.68000 188.983
43.69000 190.186
43.70000 195.529
43.71000 200.784
43.72000 201.357
43.73000 199.577
43.74000 197.781
43.75000 195.701
43.76000 193.522
43.77000 191.656
43.78000 192.612
43.79000 194.241
43.80000 195.653
43.81000 195.903
43.82000 195.963
43.83000 195.129
43.84000 190.982
43.85000 186.524
43.86000 184.385
43.87000 188.102
43.88000 192.104
43.89000 194.652
43.90000 194.286
43.91000 193.982
43.92000 192.994
43.93000 191.217
43.94000 189.435
43.95000 186.902
43.96000 183.806
43.97000 180.764
43.98000 179.887
43.99000 180.098
44.00000 180.644
44.01000 186.513
44.02000 194.225
44.03000 201.085
44.04000 200.436
44.05000 198.029
44.06000 195.951
44.07000 198.205
44.08000 200.678
44.09000 201.993
44.10000 199.088
44.11000 195.796
44.12000 194.028
44.13000 196.040
44.14000 198.230
44.15000 199.616
44.16000 204.961
44.17000 208.883
44.18000 204.835
44.19000 191.789
44.20000 178.803
44.21000 177.809
44.22000 185.642
44.23000 193.331
44.24000 191.770
44.25000 185.824
44.26000 180.596
44.27000 186.424
44.28000 196.014
44.29000 204.912
44.30000 207.849
44.31000 209.417
44.32000 210.766
44.33000 210.003
44.34000 209.089
44.35000 206.712
44.36000 199.091
44.37000 191.004
44.38000 185.827
44.39000 187.752
44.40000 189.997
44.41000 191.408
44.42000 194.271
44.43000 196.358
44.44000 199.709
44.45000 204.459
44.46000 209.185
44.47000 209.847
44.48000 207.573
44.49000 205.343
44.50000 206.205
44.51000 208.491
44.52000 210.536
44.53000 208.979
44.54000 206.217
44.55000 204.154
44.56000 207.958
44.57000 213.086
44.58000 217.487
44.59000 215.089
44.60000 212.222
44.61000 209.973
44.62000 209.894
44.63000 210.003
44.64000 209.275
44.65000 206.538
44.66000 203.714
44.67000 201.952
44.68000 206.884
44.69000 210.510
44.70000 210.640
44.71000 206.973
44.72000 203.341
44.73000 204.759
44.74000 209.762
44.75000 214.663
44.76000 216.314
44.77000 216.399
44.78000 216.499
44.79000 216.813
44.80000 217.197
44.81000 217.721
44.82000 219.396
44.83000 221.325
44.84000 222.975
44.85000 227.575
44.86000 231.811
44.87000 235.143
44.88000 235.356
44.89000 235.306
44.90000 234.692
44.91000 232.752
44.92000 230.757
44.93000 229.521
44.94000 228.375
44.95000 227.551
44.96000 227.328
44.97000 227.744
44.98000 228.157
44.99000 228.127
45.00000 227.789
45.01000 227.458
45.02000 231.460
45.03000 237.267
45.04000 242.706
45.05000 242.962
45.06000 241.544
45.07000 240.435
45.08000 241.810
45.09000 243.724
45.10000 245.357
45.11000 236.015
45.12000 226.862
45.13000 219.983
45.14000 220.825
45.15000 222.303
45.16000 225.083
45.17000 230.876
45.18000 236.791
45.19000 240.428
45.20000 237.364
45.21000 235.106
45.22000 231.829
45.23000 227.486
45.24000 223.167
45.25000 221.599
45.26000 221.913
45.27000 222.220
45.28000 221.927
45.29000 221.379
45.30000 221.198
45.31000 226.041
45.32000 232.479
45.33000 237.109
45.34000 227.535
45.35000 214.930
45.36000 204.214
45.37000 210.786
45.38000 218.293
45.39000 222.145
45.40000 213.811
45.41000 204.499
45.42000 199.424
45.43000 203.998
45.44000 208.947
45.45000 211.968
45.46000 207.023
45.47000 203.421
45.48000 201.778
45.49000 202.141
45.50000 202.494
45.51000 201.837
45.52000 200.502
45.53000 199.198
45.54000 199.094
45.55000 199.519
45.56000 199.823
45.57000 198.518
45.58000 196.711
45.59000 195.329
45.60000 197.211
45.61000 199.776
45.62000 201.950
45.63000 203.378
45.64000 204.491
45.65000 205.309
45.66000 205.162
45.67000 204.939
45.68000 203.983
45.69000 201.387
45.70000 198.730
45.71000 197.119
45.72000 190.425
45.73000 185.612
45.74000 180.245
45.75000 174.321
45.76000 168.475
45.77000 170.157
45.78000 176.811
45.79000 183.301
45.80000 185.403
45.81000 185.529
45.82000 185.747
45.83000 187.147
45.84000 188.909
45.85000 190.377
45.86000 189.635
45.87000 188.439
45.88000 187.429
45.89000 187.018
45.90000 186.740
45.91000 186.219
45.92000 184.913
45.93000 183.547
45.94000 181.648
45.95000 178.574
45.96000 175.458
45.97000 173.583
45.98000 170.308
45.99000 167.970
46.00000 169.607
46.01000 175.154
46.02000 180.641
46.03000 180.728
46.04000 177.313
46.05000 173.985
46.06000 175.034
46.07000 177.877
46.08000 180.385
46.09000 178.701
46.10000 175.752
46.11000 173.290
46.12000 174.411
46.13000 176.255
46.14000 177.808
46.15000 176.368
46.16000 174.847
46.17000 174.794
46.18000 179.389
46.19000 184.327
46.20000 188.913
46.21000 192.739
46.22000 196.539
46.23000 198.809
46.24000 192.209
46.25000 187.473
46.26000 182.934
46.27000 178.584
46.28000 174.275
46.29000 173.319
46.30000 174.499
46.31000 175.647
46.32000 175.285
46.33000 174.316
46.34000 173.632
46.35000 176.425
46.36000 180.249
46.37000 183.622
46.38000 183.759
46.39000 183.256
46.40000 182.834
46.41000 184.710
46.42000 186.511
46.43000 186.768
46.44000 182.219
46.45000 177.325
46.46000 173.477
46.47000 171.850
46.48000 170.297
46.49000 169.376
46.50000 169.751
46.51000 170.023
46.52000 169.894
46.53000 169.388
46.54000 168.877
46.55000 168.092
46.56000 167.135
46.57000 166.205
46.58000 169.079
46.59000 173.352
46.60000 177.053
46.61000 173.946
46.62000 168.856
46.63000 164.885
46.64000 168.790
46.65000 174.224
46.66000 178.767
46.67000 179.303
46.68000 179.340
46.69000 178.398
46.70000 174.461
46.71000 170.315
46.72000 167.952
46.73000 169.317
46.74000 170.799
46.75000 171.671
46.76000 172.654
46.77000 173.348
46.78000 175.234
46.79000 178.225
46.80000 181.179
46.81000 181.483
46.82000 180.157
46.83000 178.871
46.84000 176.975
46.85000 174.936
46.86000 172.993
46.87000 172.176
46.88000 171.682
46.89000 171.430
46.90000 172.854
46.91000 174.595
46.92000 176.047
46.93000 171.906
46.94000 167.920
46.95000 165.357
46.96000 167.068
46.97000 169.068
46.98000 171.382
46.99000 174.340
47.00000 177.318
47.01000 179.055
47.02000 180.003
47.03000 180.664
47.04000 178.265
47.05000 173.085
47.06000 167.962
47.07000 166.687
47.08000 167.736
47.09000 168.753
47.10000 169.910
47.11000 171.060
47.12000 172.265
47.13000 174.098
47.14000 176.107
47.15000 177.241
47.16000 172.466
47.17000 166.589
47.18000 161.709
47.19000 162.299
47.20000 163.316
47.21000 164.127
47.22000 164.332
47.23000 164.497
47.24000 164.739
47.25000 165.135
47.26000 165.536
47.27000 165.768
47.28000 168.923
47.29000 171.146
47.30000 171.347
47.31000 169.746
47.32000 168.134
47.33000 165.892
47.34000 163.276
47.35000 160.743
47.36000 161.336
47.37000 163.096
47.38000 164.641
47.39000 163.839
47.40000 162.389
47.41000 160.887
47.42000 159.044
47.43000 157.139
47.44000 155.563
47.45000 160.478
47.46000 165.145
47.47000 170.319
47.48000 176.965
47.49000 183.704
47.50000 185.881
47.51000 179.003
47.52000 171.877
47.53000 167.785
47.54000 166.443
47.55000 165.514
47.56000 164.708
47.57000 164.010
47.58000 163.281
47.59000 160.788
47.60000 157.265
47.61000 153.859
47.62000 155.908
47.63000 159.892
47.64000 163.510
47.65000 163.199
47.66000 161.823
47.67000 161.169
47.68000 165.197
47.69000 170.066
47.70000 174.078
47.71000 171.005
47.72000 167.823
47.73000 164.479
47.74000 160.676
47.75000 156.844
47.76000 154.427
47.77000 154.771
47.78000 155.187
47.79000 155.424
47.80000 154.766
47.81000 154.309
47.82000 156.283
47.83000 160.344
47.84000 164.336
47.85000 164.562
47.86000 162.629
47.87000 160.763
47.88000 161.320
47.89000 162.739
47.90000 164.052
47.91000 164.254
47.92000 164.159
47.93000 164.046
47.94000 163.815
47.95000 163.564
47.96000 163.357
47.97000 161.472
47.98000 159.774
47.99000 159.408
48.00000 162.780
48.01000 166.375
48.02000 168.131
48.03000 166.359
48.04000 164.501
48.05000 163.451
48.06000 163.205
48.07000 163.034
48.08000 161.915
48.09000 159.999
48.10000 158.100
48.11000 157.053
48.12000 156.486
48.13000 155.940
48.14000 156.464
48.15000 157.345
48.16000 158.400
48.17000 161.244
48.18000 164.556
48.19000 167.343
48.20000 166.865
48.21000 165.825
48.22000 164.973
48.23000 159.690
48.24000 154.974
48.25000 152.780
48.26000 157.541
48.27000 162.704
48.28000 165.302
48.29000 163.061
48.30000 160.708
48.31000 159.389
48.32000 160.274
48.33000 160.895
48.34000 162.784
48.35000 165.719
48.36000 168.546
48.37000 166.091
48.38000 160.712
48.39000 155.533
48.40000 154.781
48.41000 155.647
48.42000 156.972
48.43000 162.869
48.44000 169.940
48.45000 175.268
48.46000 169.976
48.47000 162.889
48.48000 157.111
48.49000 157.173
48.50000 157.720
48.51000 158.394
48.52000 159.410
48.53000 160.446
48.54000 160.414
48.55000 158.401
48.56000 156.345
48.57000 155.203
48.58000 159.797
48.59000 162.974
48.60000 162.489
48.61000 159.038
48.62000 155.689
48.63000 157.018
48.64000 160.891
48.65000 164.614
48.66000 160.889
48.67000 154.804
48.68000 149.184
48.69000 148.092
48.70000 148.144
48.71000 148.834
48.72000 153.341
48.73000 158.481
48.74000 162.655
48.75000 162.311
48.76000 161.655
48.77000 160.357
48.78000 157.348
48.79000 154.246
48.80000 153.440
48.81000 156.815
48.82000 160.279
48.83000 162.185
48.84000 156.757
48.85000 153.015
48.86000 152.550
48.87000 154.690
48.88000 156.764
48.89000 155.955
48.90000 153.605
48.91000 151.349
48.92000 150.081
48.93000 149.234
48.94000 148.323
48.95000 146.808
48.96000 145.142
48.97000 144.189
48.98000 147.400
48.99000 151.287
49.00000 154.432
49.01000 150.861
49.02000 147.414
49.03000 146.338
49.04000 151.472
49.05000 156.931
49.06000 160.507
49.07000 160.715
49.08000 160.855
49.09000 160.932
49.10000 151.897
49.11000 145.695
49.12000 143.678
49.13000 144.928
49.14000 146.220
49.15000 149.252
49.16000 153.199
49.17000 156.981
49.18000 156.050
49.19000 153.599
49.20000 151.389
49.21000 151.410
49.22000 151.973
49.23000 152.445
49.24000 152.386
49.25000 152.243
49.26000 152.127
49.27000 153.853
49.28000 155.399
49.29000 156.013
49.30000 154.231
49.31000 152.327
49.32000 151.378
49.33000 152.107
49.34000 152.868
49.35000 153.279
49.36000 153.819
49.37000 154.196
49.38000 156.072
49.39000 159.097
49.40000 162.014
49.41000 160.661
49.42000 157.102
49.43000 153.696
49.44000 156.047
49.45000 160.133
49.46000 163.806
49.47000 163.750
49.48000 162.803
49.49000 162.210
49.50000 163.610
49.51000 165.321
49.52000 166.694
49.53000 161.785
49.54000 157.329
49.55000 154.168
49.56000 154.285
49.57000 154.562
49.58000 155.075
49.59000 155.998
49.60000 156.929
49.61000 157.427
49.62000 159.993
49.63000 161.745
49.64000 163.264
49.65000 164.608
49.66000 165.816
49.67000 161.934
49.68000 155.468
49.69000 149.289
49.70000 149.194
49.71000 151.072
49.72000 152.213
49.73000 146.858
49.74000 139.978
49.75000 135.424
49.76000 143.693
49.77000 153.920
49.78000 162.097
49.79000 165.861
49.80000 168.576
49.81000 169.756
49.82000 167.121
49.83000 164.307
49.84000 160.271
49.85000 154.162
49.86000 148.018
49.87000 144.754
49.88000 149.970
49.89000 153.503
49.90000 153.059
49.91000 149.682
49.92000 146.370
49.93000 145.402
49.94000 145.605
49.95000 145.799
49.96000 145.487
49.97000 145.037
49.98000 144.728
49.99000 145.638
50.00000 146.829
50.01000 147.749
50.02000 147.206
50.03000 146.444
50.04000 145.836
50.05000 151.416
50.06000 156.362
50.07000 160.945
50.08000 164.642
50.09000 168.298
50.10000 169.119
50.11000 165.210
50.12000 161.228
50.13000 159.132
50.14000 159.015
50.15000 158.931
50.16000 158.066
50.17000 156.636
50.18000 155.242
50.19000 155.093
50.20000 155.556
50.21000 155.997
50.22000 156.447
50.23000 156.866
50.24000 156.772
50.25000 152.345
50.26000 146.939
50.27000 142.998
50.28000 146.824
50.29000 151.789
50.30000 155.726
50.31000 158.567
50.32000 160.776
50.33000 159.895
50.34000 151.589
50.35000 142.957
50.36000 140.941
50.37000 149.767
50.38000 158.751
50.39000 163.435
50.40000 163.264
50.41000 163.142
50.42000 162.443
50.43000 161.333
50.44000 160.150
50.45000 156.585
50.46000 151.873
50.47000 147.391
50.48000 147.277
50.49000 148.504
50.50000 149.495
50.51000 148.553
50.52000 147.182
50.53000 146.248
50.54000 147.587
50.55000 149.252
50.56000 150.567
50.57000 159.557
50.58000 167.297
50.59000 171.661
50.60000 168.051
50.61000 164.105
50.62000 161.206
50.63000 159.995
50.64000 158.806
50.65000 158.192
50.66000 167.948
50.67000 174.483
50.68000 175.475
50.69000 172.592
50.70000 169.764
50.71000 168.636
50.72000 168.314
50.73000 168.008
50.74000 165.648
50.75000 162.857
50.76000 160.432
50.77000 160.971
50.78000 162.156
50.79000 163.292
50.80000 164.177
50.81000 165.027
50.82000 165.695
50.83000 163.778
50.84000 162.072
50.85000 160.716
50.86000 160.175
50.87000 159.666
50.88000 160.627
50.89000 163.912
50.90000 167.227
50.91000 168.922
50.92000 159.580
50.93000 153.325
50.94000 149.684
50.95000 147.836
50.96000 146.009
50.97000 144.793
50.98000 143.860
50.99000 142.977
51.00000 143.895
51.01000 145.270
51.02000 146.996
51.03000 151.484
51.04000 156.563
51.05000 160.647
51.06000 159.750
51.07000 158.169
51.08000 156.931
51.09000 155.781
51.10000 154.868
51.11000 155.284
51.12000 158.734
51.13000 162.301
51.14000 162.410
51.15000 157.143
51.16000 151.813
51.17000 149.113
51.18000 150.655
51.19000 151.664
51.20000 150.187
51.21000 147.034
51.22000 143.999
51.23000 144.342
51.24000 146.233
51.25000 148.021
51.26000 149.087
51.27000 149.859
51.28000 150.196
51.29000 147.180
51.30000 143.460
51.31000 140.356
51.32000 140.283
51.33000 140.616
51.34000 140.877
51.35000 143.998
51.36000 146.666
51.37000 148.750
51.38000 149.528
51.39000 150.257
51.40000 148.860
51.41000 144.219
51.42000 139.543
51.43000 137.198
51.44000 141.546
51.45000 144.429
51.46000 145.478
51.47000 145.313
51.48000 145.031
51.49000 141.530
51.50000 136.581
51.51000 131.907
51.52000 136.034
51.53000 142.305
51.54000 147.542
51.55000 144.989
51.56000 140.830
51.57000 138.414
51.58000 144.390
51.59000 151.469
51.60000 156.966
51.61000 155.497
51.62000 153.907
51.63000 152.841
51.64000 152.932
51.65000 153.065
51.66000 151.173
51.67000 146.246
51.68000 141.288
51.69000 139.349
51.70000 140.387
51.71000 141.432
51.72000 143.143
51.73000 145.287
51.74000 147.412
51.75000 149.027
51.76000 150.416
51.77000 151.725
51.78000 151.859
51.79000 151.657
51.80000 151.315
51.81000 149.945
51.82000 148.367
51.83000 147.412
51.84000 149.400
51.85000 151.766
51.86000 153.595
51.87000 153.862
51.88000 153.982
51.89000 152.729
51.90000 148.495
51.91000 144.158
51.92000 141.629
51.93000 141.762
51.94000 141.918
51.95000 140.212
51.96000 136.705
51.97000 133.235
51.98000 132.890
51.99000 134.541
52.00000 136.175
52.01000 137.400
52.02000 138.446
52.03000 139.431
52.04000 141.512
52.05000 143.713
52.06000 145.487
52.07000 144.186
52.08000 142.274
52.09000 140.834
52.10000 141.580
52.11000 142.602
52.12000 143.388
52.13000 140.633
52.14000 138.252
52.15000 138.569
52.16000 144.643
52.17000 150.907
52.18000 151.203
52.19000 142.864
52.20000 134.455
52.21000 129.683
52.22000 128.357
52.23000 127.063
52.24000 128.261
52.25000 131.024
52.26000 133.838
52.27000 137.907
52.28000 142.512
52.29000 146.838
52.30000 146.811
52.31000 145.628
52.32000 144.610
52.33000 144.761
52.34000 145.139
52.35000 144.731
52.36000 140.744
52.37000 136.316
52.38000 132.923
52.39000 133.002
52.40000 133.256
52.41000 134.822
52.42000 139.139
52.43000 143.543
52.44000 145.167
52.45000 142.842
52.46000 140.488
52.47000 138.576
52.48000 137.073
52.49000 135.572
52.50000 134.142
52.51000 132.757
52.52000 131.408
52.53000 130.921
52.54000 130.796
52.55000 130.679
52.56000 135.696
52.57000 141.604
52.58000 146.872
52.59000 147.711
52.60000 147.705
52.61000 147.785
52.62000 148.251
52.63000 148.764
52.64000 149.155
52.65000 149.711
52.66000 150.158
52.67000 149.209
52.68000 145.382
52.69000 141.469
52.70000 138.781
52.71000 137.802
52.72000 136.835
52.73000 135.784
52.74000 134.659
52.75000 133.607
52.76000 137.490
52.77000 144.363
52.78000 150.932
52.79000 150.636
52.80000 147.505
52.81000 144.575
52.82000 144.512
52.83000 145.188
52.84000 144.998
52.85000 138.945
52.86000 131.795
52.87000 126.807
52.88000 131.311
52.89000 136.930
52.90000 141.197
52.91000 145.625
52.92000 149.114
52.93000 149.151
52.94000 142.200
52.95000 135.048
52.96000 132.722
52.97000 137.007
52.98000 141.330
52.99000 140.986
53.00000 136.476
53.01000 132.036
53.02000 132.010
53.03000 134.611
53.04000 137.136
53.05000 138.003
53.06000 138.197
53.07000 138.378
53.08000 140.512
53.09000 142.936
53.10000 144.823
53.11000 143.145
53.12000 140.812
53.13000 138.612
53.14000 136.985
53.15000 135.423
53.16000 134.243
53.17000 134.855
53.18000 135.424
53.19000 138.773
53.20000 147.655
53.21000 156.688
53.22000 158.445
53.23000 150.414
53.24000 142.336
53.25000 139.062
53.26000 139.997
53.27000 140.959
53.28000 143.471
53.29000 146.890
53.30000 149.956
53.31000 145.632
53.32000 138.357
53.33000 131.577
53.34000 136.710
53.35000 144.287
53.36000 150.884
53.37000 151.114
53.38000 150.198
53.39000 149.424
53.40000 149.247
53.41000 149.137
53.42000 149.055
53.43000 150.107
53.44000 150.985
53.45000 150.959
53.46000 149.164
53.47000 147.323
53.48000 146.294
53.49000 146.339
53.50000 146.388
53.51000 149.272
53.52000 154.582
53.53000 159.809
53.54000 160.415
53.55000 158.366
53.56000 156.320
53.57000 154.354
53.58000 152.420
53.59000 150.621
53.60000 148.186
53.61000 145.833
53.62000 143.414
53.63000 140.574
53.64000 137.660
53.65000 136.275
53.66000 141.236
53.67000 146.894
53.68000 151.130
53.69000 150.646
53.70000 150.048
53.71000 149.499
53.72000 149.046
53.73000 148.596
53.74000 149.216
53.75000 151.223
53.76000 153.235
53.77000 152.242
53.78000 148.724
53.79000 145.261
53.80000 144.657
53.81000 145.669
53.82000 146.639
53.83000 146.787
53.84000 146.619
53.85000 146.462
53.86000 145.602
53.87000 144.661
53.88000 143.801
53.89000 143.452
53.90000 143.191
53.91000 142.803
53.92000 141.893
53.93000 140.928
53.94000 140.208
53.95000 141.100
53.96000 141.867
53.97000 143.233
53.98000 145.732
53.99000 148.257
54.00000 147.185
54.01000 141.535
54.02000 135.875
54.03000 133.244
54.04000 133.119
54.05000 133.003
54.06000 133.301
54.07000 133.828
54.08000 134.407
54.09000 135.963
54.10000 137.888
54.11000 139.672
54.12000 139.905
54.13000 139.755
54.14000 139.681
54.15000 140.069
54.16000 140.535
54.17000 141.007
54.18000 141.502
54.19000 142.000
54.20000 142.369
54.21000 138.591
54.22000 135.474
54.23000 135.981
54.24000 143.217
54.25000 150.603
54.26000 151.457
54.27000 144.152
54.28000 136.834
54.29000 134.296
54.30000 135.635
54.31000 136.885
54.32000 134.047
54.33000 128.979
54.34000 124.244
54.35000 125.589
54.36000 129.201
54.37000 132.540
54.38000 136.465
54.39000 140.121
54.40000 143.337
54.41000 143.918
54.42000 144.060
54.43000 144.046
54.44000 143.414
54.45000 142.719
54.46000 142.206
54.47000 136.626
54.48000 132.089
54.49000 131.028
54.50000 136.315
54.51000 141.736
54.52000 141.892
54.53000 135.594
54.54000 129.291
54.55000 128.650
54.56000 132.502
54.57000 136.350
54.58000 139.999
54.59000 143.540
54.60000 146.789
54.61000 144.873
54.62000 141.063
54.63000 137.549
54.64000 137.768
54.65000 138.795
54.66000 139.488
54.67000 138.219
54.68000 136.630
54.69000 135.123
54.70000 133.932
54.71000 132.773
54.72000 131.921
54.73000 135.948
54.74000 139.259
54.75000 142.430
54.76000 145.348
54.77000 148.262
54.78000 149.866
54.79000 149.894
54.80000 149.919
54.81000 150.887
54.82000 152.584
54.83000 154.269
54.84000 155.449
54.85000 156.363
54.86000 156.981
54.87000 152.550
54.88000 146.300
54.89000 140.547
54.90000 142.889
54.91000 146.750
54.92000 149.772
54.93000 147.969
54.94000 145.396
54.95000 143.169
54.96000 142.256
54.97000 141.470
54.98000 140.895
54.99000 149.212
55.00000 155.974
55.01000 159.192
55.02000 156.163
55.03000 153.016
55.04000 152.227
55.05000 154.222
55.06000 156.216
55.07000 153.807
55.08000 148.050
55.09000 142.395
55.10000 140.771
55.11000 141.235
55.12000 141.681
55.13000 141.847
55.14000 141.913
55.15000 141.973
55.16000 140.946
55.17000 139.796
55.18000 139.478
55.19000 143.850
55.20000 148.954
55.21000 153.430
55.22000 155.559
55.23000 157.466
55.24000 158.853
55.25000 160.007
55.26000 160.887
55.27000 161.147
55.28000 160.335
55.29000 159.505
55.30000 159.313
55.31000 159.862
55.32000 160.411
55.33000 165.100
55.34000 172.858
55.35000 180.455
55.36000 181.965
55.37000 180.378
55.38000 178.717
55.39000 175.856
55.40000 172.578
55.41000 169.574
55.42000 172.748
55.43000 176.868
55.44000 180.504
55.45000 181.460
55.46000 182.005
55.47000 183.908
55.48000 190.786
55.49000 198.122
55.50000 203.427
55.51000 198.908
55.52000 195.083
55.53000 194.741
55.54000 200.328
55.55000 206.015
55.56000 210.789
55.57000 214.528
55.58000 218.253
55.59000 220.865
55.60000 222.639
55.61000 224.487
55.62000 229.022
55.63000 234.901
55.64000 240.894
55.65000 248.655
55.66000 257.021
55.67000 264.670
55.68000 268.416
55.69000 270.944
55.70000 272.827
55.71000 271.211
55.72000 269.070
55.73000 270.370
55.74000 284.049
55.75000 298.840
55.76000 309.480
55.77000 329.303
55.78000 344.800
55.79000 354.516
55.80000 354.563
55.81000 354.460
55.82000 360.294
55.83000 372.742
55.84000 385.151
55.85000 392.332
55.86000 395.685
55.87000 398.992
55.88000 400.716
55.89000 401.662
55.90000 402.884
55.91000 408.258
55.92000 415.029
55.93000 421.205
55.94000 423.044
55.95000 423.802
55.96000 422.668
55.97000 411.479
55.98000 398.812
55.99000 390.834
56.00000 399.427
56.01000 409.471
56.02000 416.659
56.03000 400.785
56.04000 387.887
56.05000 378.636
56.06000 375.378
56.07000 372.207
56.08000 369.221
56.09000 366.436
56.10000 363.663
56.11000 355.665
56.12000 344.052
56.13000 332.444
56.14000 321.012
56.15000 309.665
56.16000 298.731
56.17000 293.846
56.18000 290.961
56.19000 288.335
56.20000 276.733
56.21000 264.697
56.22000 254.618
56.23000 254.739
56.24000 256.326
56.25000 254.667
56.26000 241.733
56.27000 227.837
56.28000 217.946
56.29000 215.620
56.30000 214.092
56.31000 212.110
56.32000 209.394
56.33000 206.669
56.34000 204.791
56.35000 203.821
56.36000 202.856
56.37000 202.586
56.38000 202.801
56.39000 202.804
56.40000 196.177
56.41000 186.401
56.42000 176.920
56.43000 171.632
56.44000 167.706
56.45000 164.142
56.46000 163.787
56.47000 164.092
56.48000 164.217
56.49000 163.423
56.50000 162.498
56.51000 161.213
56.52000 158.696
56.53000 156.076
56.54000 154.222
56.55000 158.358
56.56000 161.687
56.57000 162.022
56.58000 157.608
56.59000 153.134
56.60000 150.664
56.61000 150.298
56.62000 149.935
56.63000 149.509
56.64000 149.046
56.65000 148.580
56.66000 148.033
56.67000 147.447
56.68000 146.858
56.69000 146.212
56.70000 145.548
56.71000 144.946
56.72000 139.645
56.73000 134.085
56.74000 129.201
56.75000 127.708
56.76000 126.683
56.77000 126.431
56.78000 128.776
56.79000 131.331
56.80000 133.130
56.81000 132.053
56.82000 131.152
56.83000 132.604
56.84000 137.722
56.85000 142.884
56.86000 143.721
56.87000 140.107
56.88000 136.512
56.89000 135.661
56.90000 136.653
56.91000 137.571
56.92000 136.376
56.93000 134.212
56.94000 131.988
56.95000 128.966
56.96000 125.694
56.97000 122.737
56.98000 124.790
56.99000 127.522
57.00000 130.543
57.01000 134.989
57.02000 139.626
57.03000 142.645
57.04000 140.335
57.05000 137.607
57.06000 135.696
57.07000 131.835
57.08000 128.860
57.09000 127.134
57.10000 127.318
57.11000 127.522
57.12000 126.656
57.13000 124.708
57.14000 122.771
57.15000 123.513
57.16000 125.997
57.17000 128.391
57.18000 128.278
57.19000 127.033
57.20000 126.080
57.21000 128.935
57.22000 132.963
57.23000 136.594
57.24000 134.709
57.25000 132.055
57.26000 130.079
57.27000 131.376
57.28000 133.106
57.29000 134.132
57.30000 132.877
57.31000 131.448
57.32000 130.454
57.33000 131.721
57.34000 132.739
57.35000 133.779
57.36000 134.851
57.37000 135.924
57.38000 135.605
57.39000 133.911
57.40000 132.228
57.41000 129.648
57.42000 126.531
57.43000 123.498
57.44000 122.702
57.45000 122.899
57.46000 123.010
57.47000 122.028
57.48000 120.716
57.49000 119.536
57.50000 122.825
57.51000 126.499
57.52000 129.788
57.53000 131.257
57.54000 132.490
57.55000 132.823
57.56000 130.292
57.57000 127.549
57.58000 125.650
57.59000 122.563
57.60000 120.209
57.61000 120.182
57.62000 123.592
57.63000 127.034
57.64000 130.482
57.65000 133.935
57.66000 137.365
57.67000 136.641
57.68000 133.312
57.69000 129.965
57.70000 126.190
57.71000 122.228
57.72000 118.777
57.73000 121.635
57.74000 126.371
57.75000 130.618
57.76000 129.807
57.77000 128.220
57.78000 127.366
57.79000 129.925
57.80000 132.916
57.81000 133.330
57.82000 125.685
57.83000 117.459
57.84000 111.796
57.85000 123.144
57.86000 132.085
57.87000 136.139
57.88000 133.104
57.89000 130.011
57.90000 130.614
57.91000 134.730
57.92000 138.815
57.93000 139.109
57.94000 137.054
57.95000 135.018
57.96000 133.441
57.97000 132.061
57.98000 130.839
57.99000 131.517
58.00000 132.750
58.01000 133.854
58.02000 129.046
58.03000 123.847
58.04000 120.552
58.05000 125.952
58.06000 132.424
58.07000 136.603
58.08000 133.732
58.09000 130.365
58.10000 128.062
58.11000 126.593
58.12000 125.513
58.13000 125.325
58.14000 126.408
58.15000 127.500
58.16000 127.324
58.17000 125.966
58.18000 124.619
58.19000 123.675
58.20000 122.993
58.21000 122.317
58.22000 121.798
58.23000 121.344
58.24000 120.717
58.25000 118.068
58.26000 114.838
58.27000 111.956
58.28000 112.556
58.29000 113.657
58.30000 114.403
58.31000 113.557
58.32000 112.519
58.33000 111.453
58.34000 110.304
58.35000 109.149
58.36000 108.363
58.37000 119.148
58.38000 127.464
58.39000 130.033
58.40000 124.563
58.41000 119.040
58.42000 117.210
58.43000 118.752
58.44000 120.281
58.45000 119.150
58.46000 116.457
58.47000 113.984
58.48000 116.466
58.49000 121.002
58.50000 125.247
58.51000 126.193
58.52000 126.206
58.53000 126.218
58.54000 121.717
58.55000 117.074
58.56000 113.378
58.57000 113.856
58.58000 114.826
58.59000 116.270
58.60000 119.126
58.61000 122.076
58.62000 124.070
58.63000 120.031
58.64000 116.892
58.65000 115.818
58.66000 117.580
58.67000 119.359
58.68000 120.158
58.69000 120.080
58.70000 120.003
58.71000 119.896
58.72000 119.774
58.73000 119.692
58.74000 120.483
58.75000 121.631
58.76000 122.644
58.77000 122.157
58.78000 121.255
58.79000 120.454
58.80000 118.714
58.81000 117.057
58.82000 116.217
58.83000 118.904
58.84000 121.997
58.85000 124.070
58.86000 123.168
58.87000 122.074
58.88000 121.339
58.89000 120.192
58.90000 119.332
58.91000 120.228
58.92000 123.491
58.93000 126.764
58.94000 126.207
58.95000 122.284
58.96000 118.402
58.97000 117.704
58.98000 118.847
58.99000 119.972
59.00000 120.740
59.01000 121.365
59.02000 121.860
59.03000 120.954
59.04000 119.665
59.05000 118.525
59.06000 116.329
59.07000 114.266
59.08000 113.660
59.09000 119.236
59.10000 125.509
59.11000 128.835
59.12000 123.710
59.13000 118.059
59.14000 114.284
59.15000 119.428
59.16000 123.415
59.17000 126.683
59.18000 129.001
59.19000 131.310
59.20000 130.986
59.21000 128.390
59.22000 125.823
59.23000 122.227
59.24000 118.137
59.25000 114.307
59.26000 115.762
59.27000 119.298
59.28000 122.445
59.29000 121.495
59.30000 119.447
59.31000 117.641
59.32000 116.890
59.33000 116.403
59.34000 116.165
59.35000 116.965
59.36000 117.878
59.37000 119.060
59.38000 120.997
59.39000 122.979
59.40000 124.296
59.41000 122.289
59.42000 120.743
59.43000 118.186
59.44000 114.314
59.45000 110.445
59.46000 111.418
59.47000 116.487
59.48000 121.495
59.49000 122.304
59.50000 120.775
59.51000 119.271
59.52000 118.274
59.53000 117.473
59.54000 117.126
59.55000 121.461
59.56000 127.026
59.57000 131.924
59.58000 128.950
59.59000 125.214
59.60000 121.768
59.61000 119.510
59.62000 117.381
59.63000 114.928
59.64000 111.583
59.65000 108.185
59.66000 105.943
59.67000 110.376
59.68000 113.762
59.69000 116.783
59.70000 119.337
59.71000 121.888
59.72000 123.248
59.73000 123.621
59.74000 123.989
59.75000 124.083
59.76000 124.025
59.77000 123.902
59.78000 122.537
59.79000 120.701
59.80000 119.087
59.81000 119.717
59.82000 120.926
59.83000 121.986
59.84000 122.421
59.85000 122.702
59.86000 122.430
59.87000 119.929
59.88000 117.195
59.89000 115.123
59.90000 114.854
59.91000 114.687
59.92000 114.578
59.93000 119.003
59.94000 122.332
59.95000 122.503
59.96000 118.720
59.97000 114.927
59.98000 112.371
59.99000 110.823
60.00000 109.295
60.01000 111.175
60.02000 114.817
60.03000 118.224
60.04000 117.341
60.05000 114.856
60.06000 112.842
60.07000 115.442
60.08000 119.213
60.09000 122.513
60.10000 121.779
60.11000 120.573
60.12000 119.250
60.13000 117.466
60.14000 115.635
60.15000 115.366
60.16000 119.276
60.17000 123.415
60.18000 126.112
60.19000 125.846
60.20000 125.605
60.21000 124.118
60.22000 121.100
60.23000 118.088
60.24000 118.433
60.25000 121.462
60.26000 124.448
60.27000 124.751
60.28000 123.647
60.29000 122.587
60.30000 122.314
60.31000 122.330
60.32000 122.546
60.33000 124.677
60.34000 127.284
60.35000 129.559
60.36000 126.516
60.37000 123.170
60.38000 120.848
60.39000 122.492
60.40000 124.532
60.41000 125.735
60.42000 124.733
60.43000 123.614
60.44000 122.891
60.45000 118.887
60.46000 115.910
60.47000 113.529
60.48000 111.866
60.49000 110.223
60.50000 113.426
60.51000 120.431
60.52000 127.328
60.53000 126.293
60.54000 121.228
60.55000 116.460
60.56000 116.798
60.57000 118.980
60.58000 121.069
60.59000 122.289
60.60000 123.295
60.61000 124.171
60.62000 121.096
60.63000 117.931
60.64000 116.236
60.65000 120.130
60.66000 124.568
60.67000 127.931
60.68000 128.511
60.69000 128.948
60.70000 129.230
60.71000 122.646
60.72000 117.747
60.73000 114.959
60.74000 114.669
60.75000 114.376
60.76000 112.235
60.77000 108.673
60.78000 105.167
60.79000 109.828
60.80000 118.444
60.81000 126.620
60.82000 127.511
60.83000 125.815
60.84000 124.185
60.85000 123.158
60.86000 122.277
60.87000 121.512
60.88000 122.590
60.89000 123.755
60.90000 124.137
60.91000 121.597
60.92000 118.780
60.93000 116.754
60.94000 116.739
60.95000 116.824
60.96000 116.878
60.97000 113.334
60.98000 110.708
60.99000 112.048
61.00000 117.991
61.01000 123.918
61.02000 125.261
61.03000 123.138
61.04000 121.052
61.05000 123.278
61.06000 127.557
61.07000 131.709
61.08000 133.820
61.09000 135.219
61.10000 136.108
61.11000 132.464
61.12000 127.750
61.13000 123.674
61.14000 125.779
61.15000 128.375
61.16000 129.667
61.17000 126.168
61.18000 122.226
61.19000 120.486
61.20000 124.251
61.21000 128.278
61.22000 130.833
61.23000 131.549
61.24000 132.047
61.25000 130.862
61.26000 127.761
61.27000 124.686
61.28000 126.940
61.29000 133.148
61.30000 139.243
61.31000 138.399
61.32000 134.225
61.33000 130.085
61.34000 126.470
61.35000 123.036
61.36000 120.277
61.37000 123.386
61.38000 127.854
61.39000 131.706
61.40000 130.826
61.41000 129.477
61.42000 129.608
61.43000 135.078
61.44000 141.030
61.45000 143.936
61.46000 139.358
61.47000 134.435
61.48000 131.333
61.49000 142.364
61.50000 150.511
61.51000 157.978
61.52000 164.688
61.53000 171.410
61.54000 180.241
61.55000 190.609
61.56000 200.779
61.57000 210.797
61.58000 220.377
61.59000 229.833
61.60000 237.408
61.61000 244.348
61.62000 251.417
61.63000 259.569
61.64000 267.969
61.65000 275.188
61.66000 283.303
61.67000 290.280
61.68000 295.599
61.69000 295.040
61.70000 293.964
61.71000 293.353
61.72000 293.862
61.73000 294.421
61.74000 294.771
61.75000 285.488
61.76000 278.685
61.77000 267.984
61.78000 253.012
61.79000 238.037
61.80000 222.792
61.81000 207.354
61.82000 192.225
61.83000 181.054
61.84000 172.152
61.85000 163.510
61.86000 158.686
61.87000 155.127
61.88000 151.413
61.89000 146.411
61.90000 141.122
61.91000 136.590
61.92000 133.945
61.93000 131.941
61.94000 130.692
61.95000 132.069
61.96000 133.671
61.97000 134.839
61.98000 134.979
61.99000 135.074
62.00000 135.133
62.01000 135.837
62.02000 136.350
62.03000 135.830
62.04000 134.199
62.05000 132.586
62.06000 133.460
62.07000 136.081
62.08000 138.647
62.09000 138.787
62.10000 137.811
62.11000 136.996
62.12000 138.487
62.13000 140.729
62.14000 142.452
62.15000 139.972
62.16000 136.571
62.17000 133.666
62.18000 132.105
62.19000 130.950
62.20000 129.580
62.21000 127.480
62.22000 125.319
62.23000 124.882
62.24000 128.470
62.25000 132.223
62.26000 134.539
62.27000 132.013
62.28000 130.156
62.29000 129.843
62.30000 131.157
62.31000 132.470
62.32000 133.552
62.33000 134.475
62.34000 135.377
62.35000 134.446
62.36000 132.729
62.37000 131.021
62.38000 129.425
62.39000 127.864
62.40000 126.522
62.41000 126.905
62.42000 127.660
62.43000 128.302
62.44000 126.052
62.45000 123.824
62.46000 122.198
62.47000 122.594
62.48000 123.154
62.49000 123.387
62.50000 122.871
62.51000 122.325
62.52000 121.991
62.53000 129.936
62.54000 135.696
62.55000 138.191
62.56000 137.314
62.57000 136.411
62.58000 132.624
62.59000 126.883
62.60000 121.274
62.61000 120.388
62.62000 121.620
62.63000 122.767
62.64000 122.753
62.65000 122.375
62.66000 122.604
62.67000 127.546
62.68000 133.483
62.69000 138.520
62.70000 135.194
62.71000 131.456
62.72000 128.647
62.73000 128.904
62.74000 129.404
62.75000 129.085
62.76000 126.919
62.77000 124.683
62.78000 123.323
62.79000 125.957
62.80000 127.869
62.81000 129.177
62.82000 129.872
62.83000 130.560
62.84000 130.531
62.85000 130.025
62.86000 129.532
62.87000 130.249
62.88000 131.457
62.89000 132.865
62.90000 136.881
62.91000 141.703
62.92000 145.511
62.93000 141.617
62.94000 136.128
62.95000 131.485
62.96000 130.386
62.97000 129.859
62.98000 130.296
62.99000 133.867
63.00000 137.677
63.01000 138.773
63.02000 133.848
63.03000 128.703
63.04000 125.597
63.05000 131.633
63.06000 135.997
63.07000 135.222
63.08000 129.350
63.09000 123.538
63.10000 123.358
63.11000 126.860
63.12000 130.272
63.13000 130.998
63.14000 130.550
63.15000 130.048
63.16000 128.859
63.17000 127.461
63.18000 126.290
63.19000 126.807
63.20000 127.666
63.21000 128.391
63.22000 132.248
63.23000 135.806
63.24000 138.750
63.25000 139.733
63.26000 140.569
63.27000 140.027
63.28000 136.479
63.29000 132.826
63.30000 130.637
63.31000 140.268
63.32000 147.183
63.33000 147.767
63.34000 142.194
63.35000 136.676
63.36000 135.841
63.37000 138.013
63.38000 140.127
63.39000 136.221
63.40000 129.993
63.41000 124.576
63.42000 129.210
63.43000 136.843
63.44000 143.470
63.45000 142.784
63.46000 140.639
63.47000 138.837
63.48000 135.191
63.49000 131.959
63.50000 130.431
63.51000 134.242
63.52000 138.440
63.53000 139.594
63.54000 134.226
63.55000 128.639
63.56000 125.317
63.57000 133.434
63.58000 139.249
63.59000 139.462
63.60000 134.335
63.61000 129.294
63.62000 131.006
63.63000 136.979
63.64000 142.786
63.65000 142.980
63.66000 140.872
63.67000 139.089
63.68000 141.229
63.69000 144.520
63.70000 147.304
63.71000 146.488
63.72000 144.967
63.73000 143.693
63.74000 143.759
63.75000 143.951
63.76000 143.246
63.77000 139.774
63.78000 136.106
63.79000 135.512
63.80000 141.391
63.81000 147.477
63.82000 151.067
63.83000 142.832
63.84000 136.954
63.85000 135.826
63.86000 139.136
63.87000 142.411
63.88000 143.074
63.89000 142.118
63.90000 141.190
63.91000 140.742
63.92000 140.508
63.93000 140.391
63.94000 141.641
63.95000 143.286
63.96000 144.701
63.97000 144.519
63.98000 144.030
63.99000 143.623
64.00000 141.048
64.01000 138.694
64.02000 138.595
64.03000 145.321
64.04000 152.514
64.05000 155.568
64.06000 150.051
64.07000 144.271
64.08000 140.888
64.09000 150.501
64.10000 157.329
64.11000 156.691
64.12000 149.212
64.13000 141.802
64.14000 139.145
64.15000 139.383
64.16000 139.614
64.17000 140.777
64.18000 142.247
64.19000 143.976
64.20000 148.665
64.21000 154.193
64.22000 158.548
64.23000 154.917
64.24000 149.782
64.25000 145.513
64.26000 148.701
64.27000 152.070
64.28000 154.546
64.29000 154.364
64.30000 154.006
64.31000 154.453
64.32000 156.540
64.33000 158.675
64.34000 159.915
64.35000 156.657
64.36000 154.351
64.37000 154.748
64.38000 157.573
64.39000 160.369
64.40000 161.255
64.41000 160.999
64.42000 160.751
64.43000 158.330
64.44000 155.200
64.45000 152.132
64.46000 149.753
64.47000 147.566
64.48000 146.164
64.49000 149.996
64.50000 154.796
64.51000 158.772
64.52000 163.021
64.53000 166.556
64.54000 168.360
64.55000 165.105
64.56000 161.523
64.57000 160.398
64.58000 164.187
64.59000 168.113
64.60000 170.376
64.61000 170.501
64.62000 170.578
64.63000 168.798
64.64000 165.381
64.65000 161.971
64.66000 158.989
64.67000 156.257
64.68000 153.615
64.69000 155.004
64.70000 157.845
64.71000 160.933
64.72000 166.712
64.73000 173.227
64.74000 178.605
64.75000 176.556
64.76000 173.163
64.77000 170.362
64.78000 169.312
64.79000 168.610
64.80000 170.425
64.81000 179.474
64.82000 188.975
64.83000 193.526
64.84000 188.340
64.85000 182.896
64.86000 179.785
64.87000 176.389
64.88000 174.022
64.89000 174.739
64.90000 178.123
64.91000 181.490
64.92000 183.932
64.93000 185.840
64.94000 187.684
64.95000 186.403
64.96000 184.035
64.97000 182.057
64.98000 184.223
64.99000 187.501
65.00000 190.304
65.01000 190.065
65.02000 189.285
65.03000 188.643
65.04000 188.113
65.05000 187.686
65.06000 188.678
65.07000 193.677
65.08000 198.919
65.09000 201.254
65.10000 197.973
65.11000 194.551
65.12000 192.610
65.13000 202.293
65.14000 209.054
65.15000 208.129
65.16000 200.686
65.17000 193.422
65.18000 195.714
65.19000 203.429
65.20000 210.872
65.21000 213.025
65.22000 213.120
65.23000 213.499
65.24000 216.818
65.25000 220.912
65.26000 224.597
65.27000 225.720
65.28000 226.397
65.29000 226.953
65.30000 225.865
65.31000 224.828
65.32000 224.305
65.33000 225.211
65.34000 226.200
65.35000 229.060
65.36000 235.473
65.37000 241.971
65.38000 245.624
65.39000 249.500
65.40000 252.194
65.41000 257.018
65.42000 263.614
65.43000 270.127
65.44000 272.488
65.45000 272.533
65.46000 272.576
65.47000 275.434
65.48000 279.126
65.49000 282.569
65.50000 283.509
65.51000 283.801
65.52000 285.314
65.53000 294.327
65.54000 304.620
65.55000 313.024
65.56000 313.314
65.57000 312.854
65.58000 317.724
65.59000 337.149
65.60000 357.401
65.61000 374.186
65.62000 384.497
65.63000 394.661
65.64000 400.327
65.65000 439.551
65.66000 466.804
65.67000 510.697
65.68000 568.178
65.69000 625.920
65.70000 695.954
65.71000 772.728
65.72000 846.581
65.73000 962.447
65.74000 1085.845
65.75000 1208.045
65.76000 1318.482
65.77000 1425.927
65.78000 1528.645
65.79000 1602.906
65.80000 1672.409
65.81000 1728.945
65.82000 1799.346
65.83000 1857.985
65.84000 1904.983
65.85000 1920.740
65.86000 1934.780
65.87000 1943.984
65.88000 1944.316
65.89000 1944.456
65.90000 1944.534
65.91000 1911.362
65.92000 1888.294
65.93000 1823.334
65.94000 1724.803
65.95000 1626.407
65.96000 1534.099
65.97000 1445.071
65.98000 1359.554
65.99000 1215.578
66.00000 1060.677
66.01000 910.886
66.02000 810.081
66.03000 721.517
66.04000 638.768
66.05000 590.335
66.06000 547.527
66.07000 512.837
66.08000 472.375
66.09000 438.945
66.10000 412.812
66.11000 405.929
66.12000 400.069
66.13000 392.505
66.14000 381.867
66.15000 371.167
66.16000 365.305
66.17000 367.321
66.18000 368.716
66.19000 369.119
66.20000 368.743
66.21000 368.448
66.22000 371.586
66.23000 376.542
66.24000 381.296
66.25000 389.000
66.26000 397.195
66.27000 407.295
66.28000 435.220
66.29000 467.520
66.30000 496.199
66.31000 503.934
66.32000 508.305
66.33000 511.833
66.34000 538.503
66.35000 562.015
66.36000 581.458
66.37000 590.348
66.38000 598.695
66.39000 604.688
66.40000 606.509
66.41000 608.250
66.42000 609.196
66.43000 614.601
66.44000 618.293
66.45000 617.340
66.46000 612.801
66.47000 608.026
66.48000 593.792
66.49000 574.635
66.50000 556.289
66.51000 539.911
66.52000 525.293
66.53000 510.633
66.54000 495.592
66.55000 480.460
66.56000 463.844
66.57000 438.818
66.58000 412.468
66.59000 391.281
66.60000 383.510
66.61000 378.245
66.62000 375.007
66.63000 376.937
66.64000 379.124
66.65000 380.109
66.66000 379.001
66.67000 377.856
66.68000 377.239
66.69000 367.389
66.70000 360.655
66.71000 355.354
66.72000 351.139
66.73000 346.999
66.74000 345.742
66.75000 345.959
66.76000 346.167
66.77000 353.699
66.78000 363.093
66.79000 370.954
66.80000 365.131
66.81000 356.070
66.82000 348.839
66.83000 351.781
66.84000 356.290
66.85000 359.901
66.86000 358.781
66.87000 357.519
66.88000 356.897
66.89000 357.878
66.90000 358.935
66.91000 359.525
66.92000 359.316
66.93000 359.093
66.94000 358.975
66.95000 362.235
66.96000 364.453
66.97000 365.701
66.98000 366.227
66.99000 366.931
67.00000 374.153
67.01000 384.653
67.02000 394.677
67.03000 387.653
67.04000 375.683
67.05000 365.181
67.06000 367.482
67.07000 372.757
67.08000 378.175
67.09000 384.374
67.10000 390.690
67.11000 395.729
67.12000 389.049
67.13000 382.800
67.14000 381.561
67.15000 392.661
67.16000 404.331
67.17000 407.323
67.18000 395.724
67.19000 383.893
67.20000 377.640
67.21000 386.398
67.22000 392.336
67.23000 395.143
67.24000 395.662
67.25000 396.069
67.26000 392.606
67.27000 387.231
67.28000 382.108
67.29000 384.938
67.30000 390.054
67.31000 394.665
67.32000 394.974
67.33000 394.301
67.34000 394.089
67.35000 396.339
67.36000 398.952
67.37000 401.028
67.38000 414.562
67.39000 426.275
67.40000 431.198
67.41000 419.679
67.42000 407.428
67.43000 401.757
67.44000 406.957
67.45000 412.320
67.46000 415.127
67.47000 408.414
67.48000 403.926
67.49000 408.520
67.50000 419.629
67.51000 430.555
67.52000 435.384
67.53000 437.251
67.54000 439.028
67.55000 433.149
67.56000 425.355
67.57000 418.812
67.58000 422.685
67.59000 428.890
67.60000 434.843
67.61000 439.474
67.62000 443.915
67.63000 447.429
67.64000 445.371
67.65000 443.333
67.66000 439.734
67.67000 432.418
67.68000 424.942
67.69000 425.198
67.70000 438.003
67.71000 450.982
67.72000 457.715
67.73000 465.456
67.74000 470.672
67.75000 474.587
67.76000 477.587
67.77000 480.399
67.78000 477.251
67.79000 471.258
67.80000 465.565
67.81000 468.024
67.82000 472.755
67.83000 476.171
67.84000 468.879
67.85000 459.235
67.86000 452.036
67.87000 457.411
67.88000 464.569
67.89000 470.209
67.90000 477.647
67.91000 483.731
67.92000 486.629
67.93000 482.073
67.94000 477.209
67.95000 477.773
67.96000 486.992
67.97000 496.323
67.98000 501.116
67.99000 510.917
68.00000 517.451
68.01000 516.715
68.02000 510.949
68.03000 505.547
68.04000 511.195
68.05000 522.031
68.06000 532.307
68.07000 533.241
68.08000 531.338
68.09000 529.730
68.10000 530.466
68.11000 531.708
68.12000 533.126
68.13000 535.430
68.14000 537.856
68.15000 539.761
68.16000 545.935
68.17000 551.151
68.18000 556.601
68.19000 562.586
68.20000 568.593
68.21000 571.370
68.22000 569.086
68.23000 566.742
68.24000 565.549
68.25000 564.431
68.26000 563.675
68.27000 562.201
68.28000 560.240
68.29000 558.419
68.30000 560.657
68.31000 564.769
68.32000 568.663
68.33000 585.498
68.34000 604.745
68.35000 621.735
68.36000 621.168
68.37000 616.883
68.38000 614.153
68.39000 619.122
68.40000 625.136
68.41000 629.835
68.42000 642.288
68.43000 652.714
68.44000 659.572
68.45000 658.359
68.46000 656.839
68.47000 661.405
68.48000 675.339
68.49000 689.376
68.50000 696.448
68.51000 702.615
68.52000 706.835
68.53000 721.153
68.54000 742.207
68.55000 762.688
68.56000 767.203
68.57000 764.477
68.58000 761.900
68.59000 793.690
68.60000 832.667
68.61000 871.243
68.62000 906.779
68.63000 941.684
68.64000 975.427
68.65000 1003.530
68.66000 1030.884
68.67000 1052.166
68.68000 1114.076
68.69000 1165.853
68.70000 1212.492
68.71000 1247.710
68.72000 1282.509
68.73000 1320.081
68.74000 1361.847
68.75000 1403.655
68.76000 1449.995
68.77000 1500.842
68.78000 1551.643
68.79000 1598.042
68.80000 1641.555
68.81000 1685.664
68.82000 1745.706
68.83000 1812.851
68.84000 1876.198
68.85000 1955.449
68.86000 2032.529
68.87000 2118.286
68.88000 2268.665
68.89000 2432.219
68.90000 2638.975
68.91000 3051.639
68.92000 3491.047
68.93000 3831.437
68.94000 5365.488
68.95000 6654.890
68.96000 8336.895
68.97000 10876.871
68.98000 13447.001
68.99000 16405.762
69.00000 19941.549
69.01000 23482.650
69.02000 26806.221
69.03000 29917.502
69.04000 33020.332
69.05000 35390.223
69.06000 37288.203
69.07000 39157.871
69.08000 40300.969
69.09000 41125.625
69.10000 41902.230
69.11000 42546.875
69.12000 43100.469
69.13000 43684.590
69.14000 44491.137
69.15000 45342.184
69.16000 46105.547
69.17000 46458.762
69.18000 46759.879
69.19000 46992.117
69.20000 45775.105
69.21000 44727.156
69.22000 43115.281
69.23000 40291.996
69.24000 37427.914
69.25000 34629.016
69.26000 31925.174
69.27000 29222.318
69.28000 27135.627
69.29000 25638.166
69.30000 24147.096
69.31000 23168.943
69.32000 22515.215
69.33000 21870.664
69.34000 21452.563
69.35000 21132.025
69.36000 20830.719
69.37000 20321.424
69.38000 19800.596
69.39000 19176.949
69.40000 17820.027
69.41000 16319.202
69.42000 14752.529
69.43000 12883.558
69.44000 10977.035
69.45000 9513.139
69.46000 7720.983
69.47000 6285.924
69.48000 5034.379
69.49000 4170.353
69.50000 3318.817
69.51000 2660.752
69.52000 2279.765
69.53000 1900.974
69.54000 1640.960
69.55000 1492.313
69.56000 1344.434
69.57000 1253.823
69.58000 1198.798
69.59000 1143.989
69.60000 1094.293
69.61000 1046.764
69.62000 1002.170
69.63000 963.164
69.64000 929.094
69.65000 896.554
69.66000 874.704
69.67000 854.912
69.68000 833.012
69.69000 801.620
69.70000 769.075
69.71000 744.198
69.72000 725.629
69.73000 711.327
69.74000 696.632
69.75000 681.123
69.76000 665.590
69.77000 654.264
69.78000 648.857
69.79000 643.492
69.80000 632.774
69.81000 617.148
69.82000 601.690
69.83000 597.883
69.84000 601.189
69.85000 603.949
69.86000 594.236
69.87000 579.329
69.88000 565.369
69.89000 559.049
69.90000 555.273
69.91000 551.065
69.92000 543.898
69.93000 536.173
69.94000 527.383
69.95000 513.886
69.96000 499.831
69.97000 489.136
69.98000 489.454
69.99000 490.283
70.00000 490.893
