20.00000 474.536
20.01000 472.343
20.02000 469.838
20.03000 468.194
20.04000 469.947
20.05000 472.047
20.06000 473.598
20.07000 468.141
20.08000 463.614
20.09000 462.532
20.10000 467.751
20.11000 473.105
20.12000 475.912
20.13000 475.592
20.14000 475.265
20.15000 475.240
20.16000 475.456
20.17000 475.601
20.18000 472.580
20.19000 467.859
20.20000 463.265
20.21000 460.921
20.22000 459.403
20.23000 458.003
20.24000 459.170
20.25000 460.788
20.26000 463.241
20.27000 470.605
20.28000 478.771
20.29000 486.021
20.30000 489.721
20.31000 493.067
20.32000 495.526
20.33000 493.524
20.34000 491.794
20.35000 489.006
20.36000 484.313
20.37000 479.582
20.38000 475.731
20.39000 472.943
20.40000 470.162
20.41000 469.652
20.42000 470.916
20.43000 472.184
20.44000 473.607
20.45000 475.112
20.46000 476.530
20.47000 476.456
20.48000 475.842
20.49000 475.278
20.50000 477.694
20.51000 480.508
20.52000 482.296
20.53000 478.178
20.54000 473.115
20.55000 467.893
20.56000 462.070
20.57000 456.187
20.58000 451.887
20.59000 462.084
20.60000 470.520
20.61000 474.356
20.62000 470.065
20.63000 465.619
20.64000 460.569
20.65000 454.804
20.66000 449.051
20.67000 454.383
20.68000 468.163
20.69000 481.571
20.70000 480.153
20.71000 471.041
20.72000 462.408
20.73000 461.737
20.74000 463.891
20.75000 465.870
20.76000 461.864
20.77000 457.006
20.78000 453.143
20.79000 454.904
20.80000 457.546
20.81000 458.810
20.82000 454.920
20.83000 450.542
20.84000 447.358
20.85000 449.150
20.86000 450.719
20.87000 453.157
20.88000 457.106
20.89000 461.083
20.90000 466.140
20.91000 472.453
20.92000 478.750
20.93000 479.974
20.94000 477.383
20.95000 474.874
20.96000 475.487
20.97000 477.692
20.98000 479.901
20.99000 482.188
21.00000 484.502
21.01000 486.623
21.02000 473.548
21.03000 458.712
21.04000 446.760
21.05000 450.796
21.06000 457.286
21.07000 463.714
21.08000 469.910
21.09000 476.086
21.10000 480.554
21.11000 470.321
21.12000 461.929
21.13000 457.456
21.14000 459.668
21.15000 461.993
21.16000 464.809
21.17000 468.184
21.18000 471.550
21.19000 474.219
21.20000 476.355
21.21000 478.293
21.22000 473.032
21.23000 464.164
21.24000 455.623
21.25000 452.193
21.26000 450.517
21.27000 448.983
21.28000 454.211
21.29000 460.249
21.30000 465.162
21.31000 463.961
21.32000 461.840
21.33000 461.157
21.34000 465.663
21.35000 470.635
21.36000 474.215
21.37000 467.553
21.38000 462.091
21.39000 458.446
21.40000 457.844
21.41000 457.290
21.42000 457.702
21.43000 459.192
21.44000 460.678
21.45000 465.251
21.46000 472.016
21.47000 478.479
21.48000 474.566
21.49000 465.539
21.50000 456.839
21.51000 453.094
21.52000 451.020
21.53000 449.127
21.54000 451.009
21.55000 453.440
21.56000 455.991
21.57000 459.182
21.58000 462.467
21.59000 464.311
21.60000 461.045
21.61000 457.330
21.62000 454.670
21.63000 448.753
21.64000 444.124
21.65000 443.987
21.66000 451.251
21.67000 458.623
21.68000 464.901
21.69000 469.979
21.70000 475.036
21.71000 476.019
21.72000 474.107
21.73000 472.301
21.74000 473.979
21.75000 477.345
21.76000 480.307
21.77000 477.342
21.78000 472.414
21.79000 467.927
21.80000 476.602
21.81000 486.879
21.82000 495.620
21.83000 496.327
21.84000 495.875
21.85000 495.929
21.86000 497.745
21.87000 499.712
21.88000 501.112
21.89000 518.334
21.90000 531.971
21.91000 542.629
21.92000 548.467
21.93000 554.238
21.94000 548.156
21.95000 529.346
21.96000 510.614
21.97000 505.772
21.98000 510.633
21.99000 515.544
22.00000 522.047
22.01000 529.307
22.02000 536.211
22.03000 538.019
22.04000 538.168
22.05000 538.303
22.06000 545.196
22.07000 552.592
22.08000 557.744
22.09000 551.396
22.10000 543.424
22.11000 536.843
22.12000 535.020
22.13000 533.594
22.14000 532.583
22.15000 534.647
22.16000 536.312
22.17000 539.448
22.18000 544.925
22.19000 550.431
22.20000 548.973
22.21000 540.183
22.22000 531.435
22.23000 524.880
22.24000 519.895
22.25000 514.908
22.26000 509.838
22.27000 504.730
22.28000 499.736
22.29000 496.333
22.30000 493.438
22.31000 490.815
22.32000 490.669
22.33000 491.010
22.34000 492.208
22.35000 497.715
22.36000 503.817
22.37000 505.527
22.38000 492.478
22.39000 478.233
22.40000 468.196
22.41000 474.936
22.42000 480.549
22.43000 482.319
22.44000 478.089
22.45000 473.787
22.46000 471.163
22.47000 470.270
22.48000 469.382
22.49000 465.649
22.50000 460.060
22.51000 454.637
22.52000 454.014
22.53000 455.600
22.54000 457.354
22.55000 461.365
22.56000 466.086
22.57000 470.353
22.58000 463.982
22.59000 456.403
22.60000 448.735
22.61000 440.626
22.62000 432.458
22.63000 426.330
22.64000 426.938
22.65000 428.077
22.66000 428.876
22.67000 433.473
22.68000 437.060
22.69000 437.916
22.70000 434.583
22.71000 431.204
22.72000 430.585
22.73000 432.758
22.74000 434.919
22.75000 434.871
22.76000 433.375
22.77000 432.051
22.78000 435.479
22.79000 441.057
22.80000 446.058
22.81000 443.513
22.82000 438.635
22.83000 434.239
22.84000 437.992
22.85000 442.768
22.86000 446.208
22.87000 443.176
22.88000 439.287
22.89000 436.849
22.90000 439.116
22.91000 441.743
22.92000 443.574
22.93000 426.869
22.94000 413.756
22.95000 412.495
22.96000 429.098
22.97000 445.879
22.98000 452.610
22.99000 449.375
23.00000 446.161
23.01000 445.197
23.02000 445.697
23.03000 445.882
23.04000 437.727
23.05000 425.865
23.06000 414.793
23.07000 413.775
23.08000 415.809
23.09000 417.638
23.10000 421.222
23.11000 424.674
23.12000 428.278
23.13000 432.599
23.14000 437.014
23.15000 440.244
23.16000 439.698
23.17000 438.870
23.18000 438.296
23.19000 436.484
23.20000 435.088
23.21000 435.090
23.22000 437.164
23.23000 439.257
23.24000 435.518
23.25000 426.114
23.26000 416.775
23.27000 417.596
23.28000 424.821
23.29000 431.534
23.30000 425.168
23.31000 413.087
23.32000 403.056
23.33000 418.407
23.34000 441.331
23.35000 461.894
23.36000 456.458
23.37000 447.175
23.38000 439.149
23.39000 436.984
23.40000 435.562
23.41000 434.394
23.42000 434.023
23.43000 433.710
23.44000 433.495
23.45000 434.612
23.46000 435.484
23.47000 435.636
23.48000 434.741
23.49000 433.837
23.50000 435.605
23.51000 439.920
23.52000 444.201
23.53000 445.460
23.54000 444.826
23.55000 444.020
23.56000 439.009
23.57000 432.191
23.58000 426.119
23.59000 429.027
23.60000 434.568
23.61000 439.526
23.62000 443.017
23.63000 445.812
23.64000 447.860
23.65000 446.493
23.66000 444.703
23.67000 441.474
23.68000 433.814
23.69000 425.843
23.70000 420.383
23.71000 432.063
23.72000 441.220
23.73000 444.351
23.74000 438.876
23.75000 433.338
23.76000 432.854
23.77000 437.093
23.78000 441.296
23.79000 442.275
23.80000 441.275
23.81000 440.494
23.82000 444.913
23.83000 451.527
23.84000 457.291
23.85000 453.090
23.86000 446.017
23.87000 439.706
23.88000 443.861
23.89000 449.226
23.90000 454.993
23.91000 462.567
23.92000 470.360
23.93000 474.661
23.94000 468.392
23.95000 461.400
23.96000 456.640
23.97000 467.136
23.98000 475.325
23.99000 477.587
24.00000 471.540
24.01000 465.438
24.02000 463.604
24.03000 465.680
24.04000 467.736
24.05000 462.405
24.06000 452.768
24.07000 443.647
24.08000 446.217
24.09000 453.641
24.10000 460.616
24.11000 462.464
24.12000 462.860
24.13000 463.213
24.14000 454.299
24.15000 445.042
24.16000 437.598
24.17000 438.149
24.18000 439.646
24.19000 440.520
24.20000 439.541
24.21000 438.439
24.22000 437.694
24.23000 434.664
24.24000 432.357
24.25000 432.214
24.26000 435.050
24.27000 437.901
24.28000 434.837
24.29000 426.463
24.30000 418.169
24.31000 418.912
24.32000 424.930
24.33000 430.607
24.34000 428.794
24.35000 423.925
24.36000 419.561
24.37000 420.815
24.38000 423.632
24.39000 426.132
24.40000 420.778
24.41000 414.882
24.42000 411.430
24.43000 418.561
24.44000 426.915
24.45000 430.062
24.46000 417.986
24.47000 404.930
24.48000 396.147
24.49000 405.704
24.50000 413.186
24.51000 417.498
24.52000 417.525
24.53000 417.524
24.54000 412.304
24.55000 402.487
24.56000 392.771
24.57000 387.284
24.58000 384.348
24.59000 381.805
24.60000 387.550
24.61000 396.620
24.62000 404.722
24.63000 402.316
24.64000 397.038
24.65000 392.366
24.66000 398.094
24.67000 404.676
24.68000 409.303
24.69000 405.622
24.70000 401.003
24.71000 398.210
24.72000 400.664
24.73000 403.446
24.74000 405.306
24.75000 407.920
24.76000 409.873
24.77000 412.860
24.78000 417.220
24.79000 421.580
24.80000 421.136
24.81000 416.541
24.82000 411.997
24.83000 406.067
24.84000 399.495
24.85000 393.279
24.86000 394.316
24.87000 398.213
24.88000 401.852
24.89000 402.758
24.90000 402.930
24.91000 403.083
24.92000 409.359
24.93000 415.713
24.94000 419.632
24.95000 413.387
24.96000 406.022
24.97000 400.556
24.98000 400.453
24.99000 400.675
25.00000 400.822
25.01000 402.509
25.02000 403.785
25.03000 402.504
25.04000 397.894
25.05000 393.281
25.06000 395.030
25.07000 402.174
25.08000 409.233
25.09000 409.928
25.10000 407.083
25.11000 404.165
25.12000 399.802
25.13000 394.880
25.14000 391.161
25.15000 399.847
25.16000 411.803
25.17000 422.328
25.18000 408.754
25.19000 393.454
25.20000 380.939
25.21000 379.839
25.22000 379.968
25.23000 380.698
25.24000 383.095
25.25000 385.591
25.26000 387.239
25.27000 393.745
25.28000 398.629
25.29000 399.920
25.30000 396.618
25.31000 393.308
25.32000 394.724
25.33000 400.071
25.34000 405.350
25.35000 401.425
25.36000 392.604
25.37000 383.892
25.38000 377.267
25.39000 371.436
25.40000 366.538
25.41000 371.034
25.42000 377.962
25.43000 384.044
25.44000 385.424
25.45000 385.920
25.46000 386.824
25.47000 389.367
25.48000 392.083
25.49000 393.806
25.50000 392.818
25.51000 391.676
25.52000 390.927
25.53000 393.207
25.54000 394.935
25.55000 393.962
25.56000 389.600
25.57000 385.236
25.58000 384.474
25.59000 386.650
25.60000 388.797
25.61000 394.025
25.62000 400.751
25.63000 407.235
25.64000 409.276
25.65000 409.651
25.66000 409.464
25.67000 403.764
25.68000 396.661
25.69000 390.443
25.70000 389.688
25.71000 389.823
25.72000 389.627
25.73000 388.128
25.74000 386.494
25.75000 386.884
25.76000 392.701
25.77000 398.817
25.78000 402.805
25.79000 398.682
25.80000 395.530
25.81000 392.421
25.82000 389.365
25.83000 386.317
25.84000 385.685
25.85000 386.988
25.86000 388.273
25.87000 390.327
25.88000 392.722
25.89000 394.815
25.90000 391.528
25.91000 386.258
25.92000 381.532
25.93000 382.002
25.94000 383.771
25.95000 385.316
25.96000 384.570
25.97000 383.612
25.98000 383.233
25.99000 385.105
26.00000 387.202
26.01000 388.082
26.02000 385.749
26.03000 383.246
26.04000 381.625
26.05000 383.706
26.06000 385.285
26.07000 386.125
26.08000 386.074
26.09000 386.013
26.10000 383.869
26.11000 380.086
26.12000 376.362
26.13000 380.793
26.14000 389.276
26.15000 397.056
26.16000 392.724
26.17000 384.009
26.18000 375.887
26.19000 373.320
26.20000 372.116
26.21000 371.068
26.22000 381.659
26.23000 392.294
26.24000 400.637
26.25000 400.234
26.26000 398.977
26.27000 395.135
26.28000 384.593
26.29000 373.707
26.30000 366.701
26.31000 369.102
26.32000 370.986
26.33000 370.677
26.34000 367.768
26.35000 364.883
26.36000 369.400
26.37000 379.629
26.38000 389.692
26.39000 390.502
26.40000 386.625
26.41000 383.069
26.42000 384.866
26.43000 388.569
26.44000 391.879
26.45000 391.611
26.46000 390.480
26.47000 389.500
26.48000 383.552
26.49000 377.820
26.50000 374.521
26.51000 380.331
26.52000 387.009
26.53000 390.443
26.54000 385.610
26.55000 380.366
26.56000 377.014
26.57000 375.772
26.58000 374.895
26.59000 374.511
26.60000 374.700
26.61000 374.912
26.62000 379.735
26.63000 388.051
26.64000 396.225
26.65000 398.858
26.66000 398.664
26.67000 398.341
26.68000 395.931
26.69000 392.790
26.70000 389.698
26.71000 387.040
26.72000 384.484
26.73000 382.273
26.74000 378.706
26.75000 375.496
26.76000 372.972
26.77000 372.972
26.78000 373.205
26.79000 373.194
26.80000 372.568
26.81000 371.912
26.82000 371.496
26.83000 379.189
26.84000 384.874
26.85000 389.102
26.86000 391.667
26.87000 394.200
26.88000 391.089
26.89000 383.779
26.90000 376.600
26.91000 374.749
26.92000 375.547
26.93000 375.864
26.94000 368.638
26.95000 358.820
26.96000 350.338
26.97000 353.502
26.98000 359.369
26.99000 364.430
27.00000 368.380
27.01000 371.588
27.02000 375.219
27.03000 380.376
27.04000 385.671
27.05000 386.703
27.06000 377.236
27.07000 367.285
27.08000 361.009
27.09000 368.920
27.10000 374.812
27.11000 376.394
27.12000 373.149
27.13000 369.888
27.14000 364.320
27.15000 357.067
27.16000 349.952
27.17000 354.668
27.18000 364.845
27.19000 374.813
27.20000 381.589
27.21000 387.287
27.22000 392.562
27.23000 394.231
27.24000 395.079
27.25000 395.807
27.26000 392.704
27.27000 389.599
27.28000 386.759
27.29000 384.861
27.30000 383.046
27.31000 380.724
27.32000 377.177
27.33000 373.575
27.34000 371.319
27.35000 371.807
27.36000 372.188
27.37000 369.378
27.38000 363.062
27.39000 356.810
27.40000 360.408
27.41000 371.068
27.42000 381.515
27.43000 378.503
27.44000 369.316
27.45000 360.917
27.46000 364.136
27.47000 371.213
27.48000 377.593
27.49000 378.175
27.50000 377.460
27.51000 376.847
27.52000 379.413
27.53000 381.968
27.54000 383.915
27.55000 383.740
27.56000 383.383
27.57000 381.830
27.58000 377.427
27.59000 372.903
27.60000 370.089
27.61000 375.875
27.62000 380.128
27.63000 377.539
27.64000 367.584
27.65000 357.707
27.66000 358.681
27.67000 367.296
27.68000 375.730
27.69000 378.122
27.70000 377.650
27.71000 376.973
27.72000 373.365
27.73000 368.801
27.74000 364.910
27.75000 366.500
27.76000 369.294
27.77000 371.680
27.78000 378.672
27.79000 385.113
27.80000 387.727
27.81000 377.217
27.82000 365.610
27.83000 360.422
27.84000 370.251
27.85000 380.700
27.86000 387.152
27.87000 374.099
27.88000 364.544
27.89000 362.191
27.90000 367.443
27.91000 372.652
27.92000 372.499
27.93000 368.639
27.94000 364.863
27.95000 366.154
27.96000 369.672
27.97000 372.510
27.98000 365.897
27.99000 356.253
28.00000 348.039
28.01000 351.205
28.02000 356.824
28.03000 361.610
28.04000 370.176
28.05000 377.818
28.06000 383.793
28.07000 384.155
28.08000 384.059
28.09000 381.509
28.10000 373.315
28.11000 364.896
28.12000 359.734
28.13000 368.167
28.14000 374.323
28.15000 377.598
28.16000 377.892
28.17000 378.136
28.18000 372.767
28.19000 363.588
28.20000 354.621
28.21000 351.594
28.22000 351.319
28.23000 351.548
28.24000 358.591
28.25000 367.782
28.26000 375.965
28.27000 376.305
28.28000 374.986
28.29000 373.866
28.30000 366.255
28.31000 359.132
28.32000 355.611
28.33000 364.009
28.34000 373.351
28.35000 377.891
28.36000 371.575
28.37000 364.846
28.38000 360.750
28.39000 362.846
28.40000 364.392
28.41000 367.190
28.42000 371.260
28.43000 375.250
28.44000 371.084
28.45000 361.478
28.46000 352.103
28.47000 350.638
28.48000 352.665
28.49000 354.693
28.50000 356.731
28.51000 358.773
28.52000 360.617
28.53000 360.952
28.54000 360.973
28.55000 360.991
28.56000 354.675
28.57000 348.684
28.58000 343.934
28.59000 343.221
28.60000 342.818
28.61000 341.814
28.62000 339.473
28.63000 337.082
28.64000 335.638
28.65000 342.606
28.66000 347.630
28.67000 351.501
28.68000 354.226
28.69000 356.870
28.70000 352.062
28.71000 342.371
28.72000 332.925
28.73000 335.684
28.74000 343.509
28.75000 351.130
28.76000 356.131
28.77000 360.334
28.78000 363.524
28.79000 359.163
28.80000 353.262
28.81000 348.287
28.82000 341.436
28.83000 335.510
28.84000 333.228
28.85000 342.588
28.86000 352.822
28.87000 357.209
28.88000 348.826
28.89000 339.995
28.90000 334.699
28.91000 342.831
28.92000 348.697
28.93000 351.675
28.94000 351.837
28.95000 351.954
28.96000 348.074
28.97000 341.622
28.98000 335.340
28.99000 340.254
29.00000 349.609
29.01000 358.321
29.02000 359.042
29.03000 357.373
29.04000 355.803
29.05000 354.956
29.06000 354.253
29.07000 353.663
29.08000 357.699
29.09000 361.551
29.10000 363.289
29.11000 358.383
29.12000 352.994
29.13000 348.403
29.14000 345.525
29.15000 342.705
29.16000 341.026
29.17000 347.911
29.18000 352.839
29.19000 355.518
29.20000 356.051
29.21000 356.560
29.22000 355.221
29.23000 352.714
29.24000 350.276
29.25000 350.069
29.26000 350.785
29.27000 351.073
29.28000 346.178
29.29000 339.759
29.30000 335.019
29.31000 342.244
29.32000 351.816
29.33000 359.834
29.34000 361.566
29.35000 362.358
29.36000 361.010
29.37000 353.052
29.38000 344.628
29.39000 341.186
29.40000 348.263
29.41000 355.678
29.42000 360.057
29.43000 353.157
29.44000 348.221
29.45000 343.924
29.46000 340.225
29.47000 336.644
29.48000 341.910
29.49000 352.670
29.50000 363.121
29.51000 358.616
29.52000 348.325
29.53000 338.515
29.54000 334.363
29.55000 331.844
29.56000 330.442
29.57000 336.826
29.58000 344.708
29.59000 351.287
29.60000 350.716
29.61000 349.523
29.62000 350.372
29.63000 357.419
29.64000 364.892
29.65000 368.052
29.66000 362.264
29.67000 356.201
29.68000 352.648
29.69000 364.433
29.70000 372.806
29.71000 373.532
29.72000 367.236
29.73000 361.041
29.74000 361.876
29.75000 367.001
29.76000 371.973
29.77000 370.352
29.78000 366.215
29.79000 362.185
29.80000 359.379
29.81000 356.922
29.82000 355.617
29.83000 362.191
29.84000 370.252
29.85000 376.957
29.86000 375.314
29.87000 373.133
29.88000 371.958
29.89000 373.781
29.90000 375.804
29.91000 376.880
29.92000 376.028
29.93000 375.118
29.94000 374.589
29.95000 383.213
29.96000 389.308
29.97000 393.796
29.98000 396.836
29.99000 399.869
30.00000 402.500
30.01000 404.890
30.02000 407.205
30.03000 401.544
30.04000 393.099
30.05000 385.010
30.06000 380.899
30.07000 377.896
30.08000 375.704
30.09000 378.936
30.10000 383.171
30.11000 386.682
30.12000 383.107
30.13000 379.477
30.14000 376.525
30.15000 375.564
30.16000 374.733
30.17000 373.871
30.18000 372.950
30.19000 372.026
30.20000 371.494
30.21000 366.962
30.22000 363.773
30.23000 361.461
30.24000 359.923
30.25000 358.399
30.26000 357.713
30.27000 357.521
30.28000 357.335
30.29000 362.714
30.30000 369.909
30.31000 376.569
30.32000 377.402
30.33000 376.638
30.34000 375.317
30.35000 370.340
30.36000 364.701
30.37000 360.042
30.38000 367.739
30.39000 375.235
30.40000 380.804
30.41000 380.825
30.42000 380.497
30.43000 376.432
30.44000 365.002
30.45000 353.375
30.46000 346.722
30.47000 349.255
30.48000 351.055
30.49000 352.165
30.50000 352.677
30.51000 353.243
30.52000 356.862
30.53000 362.249
30.54000 367.453
30.55000 358.089
30.56000 343.829
30.57000 331.883
30.58000 344.517
30.59000 363.764
30.60000 380.211
30.61000 378.696
30.62000 373.984
30.63000 370.106
30.64000 371.579
30.65000 373.278
30.66000 374.702
30.67000 375.350
30.68000 375.951
30.69000 374.415
30.70000 368.742
30.71000 362.963
30.72000 359.684
30.73000 363.404
30.74000 366.012
30.75000 366.608
30.76000 365.494
30.77000 364.392
30.78000 363.902
30.79000 363.760
30.80000 363.623
30.81000 367.772
30.82000 373.245
30.83000 378.082
30.84000 376.329
30.85000 372.834
30.86000 370.472
30.87000 375.224
30.88000 381.218
30.89000 386.133
30.90000 390.792
30.91000 394.591
30.92000 398.836
30.93000 404.324
30.94000 409.884
30.95000 415.395
30.96000 420.809
30.97000 426.220
30.98000 429.266
30.99000 455.115
31.00000 473.108
31.01000 485.730
31.02000 493.871
31.03000 502.052
31.04000 512.214
31.05000 523.485
31.06000 534.345
31.07000 560.344
31.08000 590.205
31.09000 619.451
31.10000 642.485
31.11000 663.906
31.12000 686.414
31.13000 715.613
31.14000 745.957
31.15000 770.745
31.16000 804.680
31.17000 833.245
31.18000 866.957
31.19000 914.753
31.20000 963.352
31.21000 1010.500
31.22000 1054.932
31.23000 1099.302
31.24000 1124.062
31.25000 1191.788
31.26000 1238.751
31.27000 1282.325
31.28000 1323.124
31.29000 1363.630
31.30000 1390.181
31.31000 1409.065
31.32000 1427.233
31.33000 1453.078
31.34000 1480.019
31.35000 1504.992
31.36000 1510.576
31.37000 1511.216
31.38000 1508.944
31.39000 1489.095
31.40000 1466.299
31.41000 1447.748
31.42000 1423.643
31.43000 1403.492
31.44000 1380.604
31.45000 1350.355
31.46000 1319.700
31.47000 1284.918
31.48000 1242.547
31.49000 1200.012
31.50000 1176.478
31.51000 1115.724
31.52000 1073.719
31.53000 1027.572
31.54000 978.098
31.55000 928.775
31.56000 886.264
31.57000 847.430
31.58000 810.121
31.59000 774.579
31.60000 741.917
31.61000 708.901
31.62000 672.481
31.63000 635.208
31.64000 600.316
31.65000 579.510
31.66000 561.017
31.67000 546.024
31.68000 511.888
31.69000 482.507
31.70000 461.220
31.71000 461.335
31.72000 462.591
31.73000 460.321
31.74000 451.679
31.75000 442.905
31.76000 438.093
31.77000 417.389
31.78000 403.147
31.79000 396.905
31.80000 396.970
31.81000 396.993
31.82000 395.219
31.83000 392.493
31.84000 389.877
31.85000 390.678
31.86000 392.584
31.87000 393.189
31.88000 381.584
31.89000 366.975
31.90000 353.801
31.91000 348.944
31.92000 345.426
31.93000 342.585
31.94000 347.143
31.95000 351.437
31.96000 351.758
31.97000 341.751
31.98000 331.212
31.99000 327.217
32.00000 334.843
32.01000 342.695
32.02000 346.964
32.03000 332.897
32.04000 323.278
32.05000 326.683
32.06000 340.165
32.07000 353.414
32.08000 357.219
32.09000 356.099
32.10000 355.025
32.11000 348.984
32.12000 341.698
32.13000 335.085
32.14000 334.642
32.15000 335.689
32.16000 336.948
32.17000 339.416
32.18000 342.075
32.19000 344.215
32.20000 331.756
32.21000 320.518
32.22000 314.626
32.23000 322.389
32.24000 330.833
32.25000 335.433
32.26000 333.326
32.27000 331.096
32.28000 329.895
32.29000 327.370
32.30000 325.646
32.31000 324.845
32.32000 324.744
32.33000 324.625
32.34000 323.795
32.35000 322.601
32.36000 321.459
32.37000 320.499
32.38000 319.664
32.39000 318.556
32.40000 314.999
32.41000 310.862
32.42000 307.796
32.43000 310.704
32.44000 314.534
32.45000 317.603
32.46000 320.230
32.47000 322.321
32.48000 322.315
32.49000 317.038
32.50000 311.509
32.51000 309.223
32.52000 312.502
32.53000 315.876
32.54000 317.678
32.55000 316.158
32.56000 315.109
32.57000 312.091
32.58000 307.602
32.59000 303.381
32.60000 308.957
32.61000 319.468
32.62000 329.505
32.63000 328.767
32.64000 324.631
32.65000 320.420
32.66000 315.559
32.67000 310.545
32.68000 306.531
32.69000 307.983
32.70000 310.261
32.71000 312.080
32.72000 305.767
32.73000 300.074
32.74000 298.467
32.75000 306.950
32.76000 315.902
32.77000 320.064
32.78000 316.156
32.79000 312.120
32.80000 309.984
32.81000 322.137
32.82000 330.363
32.83000 331.723
32.84000 328.055
32.85000 324.397
32.86000 321.113
32.87000 318.013
32.88000 315.058
32.89000 319.573
32.90000 326.108
32.91000 331.873
32.92000 331.067
32.93000 328.759
32.94000 327.041
32.95000 328.481
32.96000 330.389
32.97000 331.906
32.98000 320.458
32.99000 310.312
33.00000 302.690
33.01000 301.194
33.02000 299.973
33.03000 301.449
33.04000 307.391
33.05000 313.400
33.06000 316.551
33.07000 315.137
33.08000 314.158
33.09000 310.130
33.10000 303.912
33.11000 297.844
33.12000 296.796
33.13000 298.192
33.14000 299.521
33.15000 303.869
33.16000 308.823
33.17000 313.010
33.18000 310.779
33.19000 307.108
33.20000 304.303
33.21000 306.050
33.22000 308.458
33.23000 310.364
33.24000 303.942
33.25000 298.203
33.26000 295.156
33.27000 298.530
33.28000 302.180
33.29000 303.118
33.30000 299.646
33.31000 296.112
33.32000 294.277
33.33000 293.410
33.34000 292.839
33.35000 294.024
33.36000 296.450
33.37000 298.787
33.38000 298.313
33.39000 296.494
33.40000 294.766
33.41000 299.924
33.42000 306.773
33.43000 312.228
33.44000 306.320
33.45000 297.907
33.46000 290.659
33.47000 289.414
33.48000 289.021
33.49000 288.711
33.50000 292.425
33.51000 295.673
33.52000 297.670
33.53000 296.730
33.54000 295.669
33.55000 293.023
33.56000 287.846
33.57000 282.637
33.58000 279.957
33.59000 284.053
33.60000 286.814
33.61000 289.983
33.62000 293.434
33.63000 296.674
33.64000 293.457
33.65000 287.203
33.66000 281.271
33.67000 277.760
33.68000 275.240
33.69000 273.734
33.70000 280.322
33.71000 288.661
33.72000 296.034
33.73000 298.527
33.74000 300.341
33.75000 301.765
33.76000 300.575
33.77000 299.453
33.78000 298.184
33.79000 296.577
33.80000 294.957
33.81000 294.262
33.82000 295.021
33.83000 295.797
33.84000 296.192
33.85000 302.266
33.86000 306.301
33.87000 305.905
33.88000 302.491
33.89000 299.211
33.90000 299.846
33.91000 302.291
33.92000 304.606
33.93000 299.688
33.94000 293.059
33.95000 287.900
33.96000 294.220
33.97000 302.975
33.98000 310.392
33.99000 311.170
34.00000 311.044
34.01000 310.945
34.02000 315.986
34.03000 320.334
34.04000 324.291
34.05000 327.360
34.06000 330.394
34.07000 331.717
34.08000 330.400
34.09000 329.054
34.10000 328.375
34.11000 327.147
34.12000 326.336
34.13000 326.560
34.14000 327.477
34.15000 328.508
34.16000 332.732
34.17000 338.408
34.18000 343.773
34.19000 339.712
34.20000 333.294
34.21000 327.246
34.22000 324.033
34.23000 321.411
34.24000 319.255
34.25000 319.372
34.26000 319.791
34.27000 320.117
34.28000 326.174
34.29000 331.350
34.30000 335.687
34.31000 338.154
34.32000 340.552
34.33000 342.087
34.34000 342.318
34.35000 342.534
34.36000 341.722
34.37000 339.884
34.38000 338.037
34.39000 335.352
34.40000 332.115
34.41000 328.976
34.42000 328.426
34.43000 329.032
34.44000 329.605
34.45000 329.406
34.46000 329.008
34.47000 328.510
34.48000 327.269
34.49000 325.876
34.50000 324.711
34.51000 324.632
34.52000 324.694
34.53000 324.742
34.54000 324.879
34.55000 324.992
34.56000 323.886
34.57000 320.111
34.58000 316.242
34.59000 313.652
34.60000 312.966
34.61000 312.297
34.62000 312.162
34.63000 312.547
34.64000 312.904
34.65000 310.857
34.66000 307.257
34.67000 303.764
34.68000 303.013
34.69000 303.467
34.70000 303.895
34.71000 308.395
34.72000 313.629
34.73000 317.908
34.74000 315.201
34.75000 311.094
34.76000 306.594
34.77000 300.256
34.78000 293.684
34.79000 288.612
34.80000 288.149
34.81000 288.050
34.82000 287.054
34.83000 284.130
34.84000 281.139
34.85000 279.293
34.86000 279.118
34.87000 278.957
34.88000 282.223
34.89000 288.771
34.90000 295.258
34.91000 296.812
34.92000 295.239
34.93000 293.591
34.94000 290.058
34.95000 285.712
34.96000 281.626
34.97000 280.820
34.98000 280.966
34.99000 281.043
35.00000 280.624
35.01000 280.108
35.02000 280.014
35.03000 281.865
35.04000 283.958
35.05000 285.566
35.06000 282.731
35.07000 280.240
35.08000 276.895
35.09000 271.743
35.10000 266.533
35.11000 264.401
35.12000 266.686
35.13000 269.006
35.14000 270.146
35.15000 270.178
35.16000 270.208
35.17000 270.059
35.18000 269.800
35.19000 269.493
35.20000 268.038
35.21000 266.097
35.22000 264.274
35.23000 262.239
35.24000 260.328
35.25000 258.843
35.26000 260.343
35.27000 262.418
35.28000 264.670
35.29000 267.721
35.30000 270.868
35.31000 273.276
35.32000 277.376
35.33000 280.703
35.34000 281.828
35.35000 278.375
35.36000 274.781
35.37000 271.897
35.38000 270.014
35.39000 268.139
35.40000 266.903
35.41000 266.255
35.42000 265.613
35.43000 265.363
35.44000 265.353
35.45000 265.383
35.46000 266.329
35.47000 267.657
35.48000 268.901
35.49000 273.187
35.50000 277.874
35.51000 281.373
35.52000 276.737
35.53000 270.561
35.54000 264.982
35.55000 262.054
35.56000 259.441
35.57000 257.451
35.58000 256.413
35.59000 255.646
35.60000 256.320
35.61000 259.940
35.62000 263.648
35.63000 267.357
35.64000 271.067
35.65000 274.776
35.66000 272.299
35.67000 264.241
35.68000 256.341
35.69000 258.703
35.70000 267.235
35.71000 275.106
35.72000 268.370
35.73000 255.641
35.74000 243.742
35.75000 246.506
35.76000 252.736
35.77000 259.107
35.78000 266.425
35.79000 273.919
35.80000 279.093
35.81000 274.169
35.82000 268.070
35.83000 263.448
35.84000 263.909
35.85000 264.530
35.86000 265.075
35.87000 265.466
35.88000 265.853
35.89000 265.868
35.90000 265.376
35.91000 264.882
35.92000 263.874
35.93000 262.414
35.94000 261.028
35.95000 264.253
35.96000 270.202
35.97000 275.736
35.98000 272.432
35.99000 265.565
36.00000 259.158
36.01000 259.749
36.02000 262.026
36.03000 263.860
36.04000 262.781
36.05000 261.172
36.06000 259.722
36.07000 258.951
36.08000 258.257
36.09000 257.734
36.10000 261.767
36.11000 265.151
36.12000 267.577
36.13000 268.110
36.14000 268.593
36.15000 265.873
36.16000 258.882
36.17000 251.873
36.18000 250.058
36.19000 252.751
36.20000 255.405
36.21000 255.821
36.22000 254.937
36.23000 254.158
36.24000 255.539
36.25000 257.776
36.26000 259.858
36.27000 256.740
36.28000 252.652
36.29000 249.409
36.30000 251.598
36.31000 254.757
36.32000 256.958
36.33000 255.138
36.34000 252.870
36.35000 251.168
36.36000 256.842
36.37000 261.628
36.38000 263.785
36.39000 260.837
36.40000 257.758
36.41000 254.720
36.42000 251.736
36.43000 248.755
36.44000 250.194
36.45000 255.391
36.46000 260.504
36.47000 261.098
36.48000 259.114
36.49000 257.122
36.50000 254.970
36.51000 252.754
36.52000 250.696
36.53000 251.242
36.54000 252.358
36.55000 253.406
36.56000 254.022
36.57000 254.562
36.58000 254.946
36.59000 254.684
36.60000 254.352
36.61000 254.104
36.62000 253.780
36.63000 253.525
36.64000 253.237
36.65000 252.888
36.66000 252.537
36.67000 255.095
36.68000 261.394
36.69000 267.700
36.70000 268.820
36.71000 265.610
36.72000 262.382
36.73000 258.164
36.74000 253.393
36.75000 249.051
36.76000 252.955
36.77000 260.017
36.78000 266.566
36.79000 267.926
36.80000 267.933
36.81000 268.578
36.82000 273.153
36.83000 278.403
36.84000 281.659
36.85000 276.843
36.86000 271.173
36.87000 266.957
36.88000 275.829
36.89000 283.312
36.90000 286.700
36.91000 282.406
36.92000 277.936
36.93000 275.076
36.94000 274.251
36.95000 273.434
36.96000 277.585
36.97000 285.786
36.98000 293.847
36.99000 295.181
37.00000 292.809
37.01000 290.466
37.02000 288.673
37.03000 287.086
37.04000 285.618
37.05000 276.529
37.06000 266.610
37.07000 259.942
37.08000 272.957
37.09000 289.281
37.10000 300.560
37.11000 291.789
37.12000 280.945
37.13000 272.921
37.14000 276.448
37.15000 279.681
37.16000 279.853
37.17000 274.379
37.18000 268.782
37.19000 268.401
37.20000 274.480
37.21000 280.568
37.22000 281.062
37.23000 277.069
37.24000 273.075
37.25000 269.081
37.26000 265.087
37.27000 261.324
37.28000 261.709
37.29000 263.628
37.30000 265.401
37.31000 266.295
37.32000 266.899
37.33000 268.310
37.34000 274.513
37.35000 281.504
37.36000 285.035
37.37000 275.059
37.38000 263.721
37.39000 255.372
37.40000 245.009
37.41000 236.904
37.42000 235.548
37.43000 246.419
37.44000 257.543
37.45000 262.501
37.46000 259.964
37.47000 257.415
37.48000 257.655
37.49000 260.087
37.50000 262.425
37.51000 260.745
37.52000 256.928
37.53000 253.351
37.54000 253.956
37.55000 256.083
37.56000 258.044
37.57000 260.534
37.58000 262.879
37.59000 264.243
37.60000 259.901
37.61000 254.637
37.62000 250.856
37.63000 252.757
37.64000 255.217
37.65000 257.019
37.66000 262.289
37.67000 266.496
37.68000 267.229
37.69000 261.773
37.70000 256.197
37.71000 251.451
37.72000 247.696
37.73000 243.951
37.74000 245.311
37.75000 250.603
37.76000 255.837
37.77000 258.717
37.78000 260.368
37.79000 261.918
37.80000 261.784
37.81000 261.048
37.82000 260.371
37.83000 257.941
37.84000 255.391
37.85000 253.233
37.86000 253.308
37.87000 253.736
37.88000 254.134
37.89000 254.420
37.90000 254.694
37.91000 254.894
37.92000 259.013
37.93000 262.337
37.94000 261.800
37.95000 254.506
37.96000 247.088
37.97000 244.885
37.98000 248.782
37.99000 252.678
38.00000 256.935
38.01000 261.437
38.02000 265.808
38.03000 265.067
38.04000 261.698
38.05000 258.511
38.06000 258.276
38.07000 259.078
38.08000 259.814
38.09000 263.051
38.10000 266.465
38.11000 268.568
38.12000 263.338
38.13000 256.971
38.14000 254.066
38.15000 263.964
38.16000 275.061
38.17000 283.109
38.18000 271.359
38.19000 261.595
38.20000 260.939
38.21000 275.942
38.22000 291.215
38.23000 294.054
38.24000 282.620
38.25000 271.202
38.26000 271.136
38.27000 279.497
38.28000 287.856
38.29000 296.136
38.30000 304.376
38.31000 312.377
38.32000 316.589
38.33000 319.492
38.34000 322.149
38.35000 329.711
38.36000 337.457
38.37000 346.675
38.38000 363.956
38.39000 382.461
38.40000 400.910
38.41000 419.156
38.42000 437.383
38.43000 450.533
38.44000 486.059
38.45000 514.092
38.46000 538.270
38.47000 555.938
38.48000 573.500
38.49000 597.684
38.50000 629.324
38.51000 660.867
38.52000 688.811
38.53000 713.908
38.54000 739.417
38.55000 779.413
38.56000 826.603
38.57000 872.576
38.58000 899.883
38.59000 920.853
38.60000 940.006
38.61000 976.587
38.62000 1012.609
38.63000 1046.754
38.64000 1070.810
38.65000 1093.367
38.66000 1116.087
38.67000 1139.393
38.68000 1162.751
38.69000 1179.515
38.70000 1161.605
38.71000 1146.716
38.72000 1134.836
38.73000 1127.953
38.74000 1121.145
38.75000 1118.759
38.76000 1121.258
38.77000 1123.750
38.78000 1107.425
38.79000 1077.806
38.80000 1048.219
38.81000 1019.712
38.82000 991.731
38.83000 963.535
38.84000 932.147
38.85000 899.692
38.86000 870.120
38.87000 829.700
38.88000 791.729
38.89000 754.606
38.90000 721.949
38.91000 689.942
38.92000 654.879
38.93000 609.096
38.94000 562.385
38.95000 529.038
38.96000 510.312
38.97000 496.510
38.98000 478.584
38.99000 453.935
39.00000 429.190
39.01000 408.583
39.02000 392.456
39.03000 376.399
39.04000 355.909
39.05000 332.519
39.06000 309.614
39.07000 302.273
39.08000 302.397
39.09000 302.027
39.10000 294.508
39.11000 284.645
39.12000 275.678
39.13000 271.776
39.14000 269.315
39.15000 266.092
39.16000 258.931
39.17000 251.209
39.18000 245.580
39.19000 247.169
39.20000 249.366
39.21000 250.926
39.22000 247.976
39.23000 245.588
39.24000 243.321
39.25000 241.249
39.26000 239.180
39.27000 240.328
39.28000 244.893
39.29000 249.438
39.30000 248.440
39.31000 243.642
39.32000 238.961
39.33000 237.872
39.34000 238.476
39.35000 239.076
39.36000 239.618
39.37000 240.142
39.38000 240.617
39.39000 237.417
39.40000 233.890
39.41000 231.338
39.42000 233.725
39.43000 236.802
39.44000 239.082
39.45000 238.664
39.46000 238.025
39.47000 237.574
39.48000 239.719
39.49000 241.427
39.50000 245.215
39.51000 252.280
39.52000 259.385
39.53000 259.236
39.54000 251.536
39.55000 243.874
39.56000 237.929
39.57000 233.212
39.58000 228.552
39.59000 225.525
39.60000 223.257
39.61000 221.042
39.62000 219.567
39.63000 218.325
39.64000 217.201
39.65000 221.647
39.66000 226.604
39.67000 230.172
39.68000 226.826
39.69000 222.537
39.70000 220.731
39.71000 227.190
39.72000 234.309
39.73000 239.309
39.74000 234.090
39.75000 229.840
39.76000 226.432
39.77000 224.328
39.78000 222.238
39.79000 222.534
39.80000 225.264
39.81000 227.978
39.82000 227.317
39.83000 224.432
39.84000 221.762
39.85000 225.164
39.86000 231.332
39.87000 237.069
39.88000 237.088
39.89000 235.326
39.90000 233.736
39.91000 227.410
39.92000 220.982
39.93000 216.564
39.94000 221.951
39.95000 228.647
39.96000 232.343
39.97000 226.225
39.98000 219.345
39.99000 214.540
40.00000 225.074
40.01000 233.461
40.02000 235.852
40.03000 229.138
40.04000 222.329
40.05000 219.341
40.06000 220.174
40.07000 221.001
40.08000 219.642
40.09000 216.883
40.10000 214.243
40.11000 214.818
40.12000 216.834
40.13000 218.579
40.14000 216.847
40.15000 214.051
40.16000 211.534
40.17000 216.658
40.18000 222.524
40.19000 226.340
40.20000 220.336
40.21000 213.048
40.22000 207.538
40.23000 207.742
40.24000 208.376
40.25000 208.817
40.26000 212.479
40.27000 215.325
40.28000 218.270
40.29000 221.364
40.30000 224.458
40.31000 222.989
40.32000 217.047
40.33000 211.145
40.34000 211.599
40.35000 216.095
40.36000 220.480
40.37000 221.991
40.38000 222.236
40.39000 222.748
40.40000 226.596
40.41000 231.448
40.42000 235.805
40.43000 231.944
40.44000 227.121
40.45000 222.791
40.46000 220.781
40.47000 219.067
40.48000 217.814
40.49000 218.014
40.50000 218.322
40.51000 218.534
40.52000 217.040
40.53000 215.873
40.54000 214.211
40.55000 211.821
40.56000 209.426
40.57000 208.540
40.58000 209.105
40.59000 209.667
40.60000 210.901
40.61000 212.535
40.62000 214.199
40.63000 216.623
40.64000 219.375
40.65000 221.979
40.66000 222.779
40.67000 223.046
40.68000 223.285
40.69000 221.751
40.70000 220.107
40.71000 218.262
40.72000 215.494
40.73000 212.609
40.74000 210.363
40.75000 210.096
40.76000 209.971
40.77000 209.885
40.78000 214.816
40.79000 218.635
40.80000 217.712
40.81000 209.963
40.82000 202.161
40.83000 200.910
40.84000 205.830
40.85000 210.711
40.86000 214.780
40.87000 218.280
40.88000 221.651
40.89000 221.921
40.90000 220.871
40.91000 219.623
40.92000 216.020
40.93000 211.733
40.94000 207.904
40.95000 206.875
40.96000 206.452
40.97000 206.672
40.98000 209.807
40.99000 213.298
41.00000 216.455
41.01000 218.593
41.02000 220.660
41.03000 222.072
41.04000 222.452
41.05000 222.712
41.06000 219.606
41.07000 211.741
41.08000 203.843
41.09000 198.066
41.10000 194.249
41.11000 190.465
41.12000 192.660
41.13000 198.411
41.14000 204.081
41.15000 207.875
41.16000 210.884
41.17000 213.579
41.18000 212.647
41.19000 210.680
41.20000 208.927
41.21000 212.979
41.22000 217.460
41.23000 220.039
41.24000 214.163
41.25000 207.279
41.26000 202.365
41.27000 203.360
41.28000 204.752
41.29000 205.697
41.30000 205.062
41.31000 204.553
41.32000 205.940
41.33000 209.960
41.34000 213.993
41.35000 213.941
41.36000 210.186
41.37000 206.467
41.38000 203.509
41.39000 201.061
41.40000 198.802
41.41000 200.755
41.42000 204.439
41.43000 207.738
41.44000 206.703
41.45000 204.452
41.46000 202.453
41.47000 201.861
41.48000 201.574
41.49000 201.767
41.50000 204.046
41.51000 206.570
41.52000 208.443
41.53000 208.401
41.54000 208.234
41.55000 208.121
41.56000 208.113
41.57000 208.109
41.58000 209.207
41.59000 211.808
41.60000 214.415
41.61000 212.741
41.62000 207.266
41.63000 201.845
41.64000 200.567
41.65000 201.718
41.66000 202.668
41.67000 199.320
41.68000 194.235
41.69000 189.784
41.70000 192.296
41.71000 196.724
41.72000 200.649
41.73000 202.628
41.74000 204.033
41.75000 205.668
41.76000 208.287
41.77000 211.019
41.78000 212.558
41.79000 210.646
41.80000 208.515
41.81000 207.087
41.82000 208.615
41.83000 209.808
41.84000 209.067
41.85000 205.738
41.86000 202.395
41.87000 197.878
41.88000 192.339
41.89000 186.859
41.90000 191.752
41.91000 202.431
41.92000 212.650
41.93000 213.351
41.94000 210.270
41.95000 207.113
41.96000 203.138
41.97000 198.941
41.98000 195.232
41.99000 198.430
42.00000 202.260
42.01000 204.568
42.02000 200.470
42.03000 195.657
42.04000 192.834
42.05000 195.672
42.06000 198.857
42.07000 200.980
42.08000 208.026
42.09000 213.335
42.10000 216.690
42.11000 217.477
42.12000 218.247
42.13000 215.174
42.14000 208.815
42.15000 202.529
42.16000 203.836
42.17000 209.347
42.18000 214.438
42.19000 211.142
42.20000 204.571
42.21000 198.916
42.22000 202.818
42.23000 209.261
42.24000 214.939
42.25000 218.190
42.26000 220.626
42.27000 221.156
42.28000 213.819
42.29000 205.626
42.30000 200.752
42.31000 205.164
42.32000 210.129
42.33000 213.417
42.34000 209.514
42.35000 206.503
42.36000 205.044
42.37000 205.587
42.38000 206.134
42.39000 204.312
42.40000 200.504
42.41000 196.743
42.42000 195.418
42.43000 195.461
42.44000 195.501
42.45000 195.501
42.46000 195.484
42.47000 195.921
42.48000 200.969
42.49000 207.221
42.50000 212.716
42.51000 207.975
42.52000 202.383
42.53000 198.511
42.54000 201.621
42.55000 205.472
42.56000 206.685
42.57000 200.643
42.58000 194.183
42.59000 189.932
42.60000 200.285
42.61000 208.159
42.62000 210.733
42.63000 206.601
42.64000 202.457
42.65000 202.837
42.66000 206.941
42.67000 210.990
42.68000 211.595
42.69000 210.332
42.70000 208.960
42.71000 205.564
42.72000 201.402
42.73000 197.649
42.74000 197.945
42.75000 199.279
42.76000 200.448
42.77000 198.526
42.78000 196.428
42.79000 194.990
42.80000 196.177
42.81000 197.637
42.82000 198.691
42.83000 198.648
42.84000 198.544
42.85000 198.475
42.86000 204.788
42.87000 209.528
42.88000 210.629
42.89000 207.212
42.90000 203.780
42.91000 199.397
42.92000 194.246
42.93000 189.167
42.94000 189.740
42.95000 193.279
42.96000 196.736
42.97000 198.726
42.98000 200.172
42.99000 201.621
43.00000 203.101
43.01000 204.590
43.02000 205.891
43.03000 206.355
43.04000 206.634
43.05000 205.912
43.06000 201.275
43.07000 196.241
43.08000 193.020
43.09000 194.617
43.10000 196.474
43.11000 197.680
43.12000 202.555
43.13000 206.182
43.14000 205.032
43.15000 198.058
43.16000 191.087
43.17000 189.050
43.18000 190.924
43.19000 192.770
43.20000 191.388
43.21000 188.375
43.22000 185.844
43.23000 191.722
43.24000 200.665
43.25000 208.845
43.26000 209.803
43.27000 208.976
43.28000 208.255
43.29000 205.607
43.30000 203.077
43.31000 201.278
43.32000 202.288
43.33000 203.575
43.34000 205.460
43.35000 208.908
43.36000 212.438
43.37000 214.716
43.38000 207.048
43.39000 201.303
43.40000 196.465
43.41000 192.713
43.42000 188.976
43.43000 188.770
43.44000 191.312
43.45000 193.813
43.46000 198.449
43.47000 204.025
43.48000 209.275
43.49000 209.035
43.50000 206.825
43.51000 204.447
43.52000 200.509
43.53000 196.192
43.54000 192.441
43.55000 192.490
43.56000 193.045
43.57000 193.572
43.58000 193.992
43.59000 194.402
43.60000 195.155
43.61000 196.787
43.62000 198.462
43.63000 199.537
43.64000 199.865
43.65000 200.095
43.66000 199.585
43.67000 198.207
43.68000 196.826
43.69000 195.207
43.70000 193.406
43.71000 191.635
43.72000 192.138
43.73000 193.758
43.74000 195.162
43.75000 193.012
43.76000 189.610
43.77000 186.606
43.78000 187.188
43.79000 188.625
43.80000 189.869
43.81000 188.987
43.82000 187.955
43.83000 187.153
43.84000 187.204
43.85000 187.334
43.86000 187.703
43.87000 188.671
43.88000 189.669
43.89000 190.304
43.90000 187.558
43.91000 185.520
43.92000 185.644
43.93000 188.260
43.94000 190.875
43.95000 192.835
43.96000 194.304
43.97000 195.747
43.98000 192.610
43.99000 187.339
44.00000 182.429
44.01000 183.243
44.02000 186.040
44.03000 188.400
44.04000 186.915
44.05000 184.530
44.06000 182.470
44.07000 188.902
44.08000 195.460
44.09000 199.427
44.10000 193.955
44.11000 187.619
44.12000 184.794
44.13000 190.680
44.14000 196.975
44.15000 200.957
44.16000 197.607
44.17000 195.092
44.18000 193.035
44.19000 191.496
44.20000 189.951
44.21000 187.371
44.22000 184.030
44.23000 180.750
44.24000 185.563
44.25000 194.090
44.26000 202.209
44.27000 204.047
44.28000 203.747
44.29000 203.405
44.30000 202.706
44.31000 201.925
44.32000 201.253
44.33000 197.591
44.34000 194.111
44.35000 191.751
44.36000 193.397
44.37000 195.400
44.38000 196.879
44.39000 197.077
44.40000 197.218
44.41000 197.306
44.42000 198.592
44.43000 199.536
44.44000 198.338
44.45000 194.771
44.46000 191.243
44.47000 194.205
44.48000 201.857
44.49000 209.360
44.50000 210.386
44.51000 208.324
44.52000 206.149
44.53000 202.280
44.54000 197.844
44.55000 194.870
44.56000 204.181
44.57000 216.265
44.58000 226.636
44.59000 225.441
44.60000 223.004
44.61000 220.384
44.62000 217.126
44.63000 213.812
44.64000 212.233
44.65000 214.815
44.66000 217.578
44.67000 219.302
44.68000 218.867
44.69000 218.531
44.70000 220.748
44.71000 225.737
44.72000 230.700
44.73000 231.841
44.74000 230.270
44.75000 228.731
44.76000 227.075
44.77000 225.428
44.78000 224.018
44.79000 226.059
44.80000 229.235
44.81000 232.047
44.82000 231.868
44.83000 231.027
44.84000 230.308
44.85000 232.119
44.86000 233.952
44.87000 233.823
44.88000 226.912
44.89000 219.428
44.90000 217.399
44.91000 228.230
44.92000 239.600
44.93000 246.644
44.94000 254.696
44.95000 260.495
44.96000 262.568
44.97000 260.673
44.98000 258.781
44.99000 257.492
45.00000 256.622
45.01000 255.770
45.02000 258.278
45.03000 262.210
45.04000 266.096
45.05000 269.330
45.06000 272.354
45.07000 274.652
45.08000 271.125
45.09000 266.331
45.10000 262.242
45.11000 259.425
45.12000 257.204
45.13000 256.313
45.14000 259.941
45.15000 263.942
45.16000 265.827
45.17000 262.810
45.18000 259.595
45.19000 257.618
45.20000 259.767
45.21000 261.344
45.22000 259.610
45.23000 254.419
45.24000 249.241
45.25000 245.633
45.26000 243.100
45.27000 240.623
45.28000 240.493
45.29000 241.414
45.30000 242.101
45.31000 239.598
45.32000 236.081
45.33000 232.999
45.34000 233.338
45.35000 234.406
45.36000 235.315
45.37000 228.602
45.38000 222.089
45.39000 217.978
45.40000 221.882
45.41000 226.428
45.42000 229.748
45.43000 230.273
45.44000 230.690
45.45000 230.945
45.46000 226.908
45.47000 223.985
45.48000 222.563
45.49000 222.676
45.50000 222.802
45.51000 224.190
45.52000 226.428
45.53000 228.613
45.54000 229.032
45.55000 228.662
45.56000 227.940
45.57000 222.544
45.58000 215.689
45.59000 209.598
45.60000 209.381
45.61000 210.393
45.62000 211.251
45.63000 209.272
45.64000 207.295
45.65000 205.764
45.66000 205.692
45.67000 205.734
45.68000 206.529
45.69000 209.010
45.70000 211.553
45.71000 213.095
45.72000 206.817
45.73000 202.281
45.74000 202.738
45.75000 208.206
45.76000 213.611
45.77000 212.881
45.78000 208.100
45.79000 203.438
45.80000 198.054
45.81000 192.602
45.82000 187.580
45.83000 188.127
45.84000 190.382
45.85000 191.825
45.86000 187.173
45.87000 181.267
45.88000 176.280
45.89000 182.387
45.90000 188.708
45.91000 193.920
45.92000 195.560
45.93000 196.930
45.94000 196.422
45.95000 191.784
45.96000 186.999
45.97000 184.119
45.98000 186.417
45.99000 188.086
46.00000 187.980
46.01000 186.127
46.02000 184.302
46.03000 184.898
46.04000 187.063
46.05000 189.173
46.06000 190.635
46.07000 191.756
46.08000 192.339
46.09000 186.156
46.10000 177.933
46.11000 170.748
46.12000 171.196
46.13000 173.182
46.14000 174.855
46.15000 174.809
46.16000 174.587
46.17000 174.878
46.18000 176.792
46.19000 178.825
46.20000 180.750
46.21000 182.439
46.22000 184.121
46.23000 185.125
46.24000 188.106
46.25000 190.233
46.26000 191.301
46.27000 191.350
46.28000 191.340
46.29000 186.536
46.30000 178.676
46.31000 171.029
46.32000 172.129
46.33000 176.788
46.34000 181.043
46.35000 180.338
46.36000 178.164
46.37000 176.001
46.38000 173.910
46.39000 171.833
46.40000 170.091
46.41000 167.992
46.42000 166.207
46.43000 164.096
46.44000 160.971
46.45000 157.772
46.46000 158.854
46.47000 169.042
46.48000 179.528
46.49000 185.742
46.50000 180.372
46.51000 176.509
46.52000 171.055
46.53000 164.099
46.54000 157.220
46.55000 156.288
46.56000 159.078
46.57000 161.789
46.58000 165.325
46.59000 169.019
46.60000 172.683
46.61000 175.981
46.62000 179.172
46.63000 181.408
46.64000 176.918
46.65000 171.124
46.66000 166.280
46.67000 166.679
46.68000 167.544
46.69000 169.379
46.70000 174.179
46.71000 179.184
46.72000 182.393
46.73000 181.844
46.74000 181.177
46.75000 180.785
46.76000 183.136
46.77000 184.806
46.78000 180.321
46.79000 170.134
46.80000 160.124
46.81000 162.762
46.82000 173.178
46.83000 183.287
46.84000 186.001
46.85000 185.635
46.86000 184.779
46.87000 178.245
46.88000 170.089
46.89000 163.287
46.90000 165.834
46.91000 170.161
46.92000 173.765
46.93000 174.526
46.94000 174.874
46.95000 175.599
46.96000 177.456
46.97000 179.390
46.98000 180.768
46.99000 181.005
47.00000 181.207
47.01000 181.325
47.02000 174.643
47.03000 169.915
47.04000 168.482
47.05000 170.041
47.06000 171.557
47.07000 170.207
47.08000 167.124
47.09000 164.135
47.10000 164.300
47.11000 165.687
47.12000 166.893
47.13000 166.049
47.14000 164.630
47.15000 163.566
47.16000 164.905
47.17000 166.692
47.18000 168.176
47.19000 169.155
47.20000 169.915
47.21000 170.309
47.22000 169.618
47.23000 168.856
47.24000 168.247
47.25000 167.948
47.26000 167.657
47.27000 167.489
47.28000 161.523
47.29000 157.320
47.30000 157.671
47.31000 162.081
47.32000 166.426
47.33000 166.780
47.34000 164.764
47.35000 162.812
47.36000 165.937
47.37000 170.836
47.38000 175.094
47.39000 172.298
47.40000 167.555
47.41000 163.203
47.42000 161.437
47.43000 160.145
47.44000 159.076
47.45000 160.365
47.46000 161.652
47.47000 162.464
47.48000 161.897
47.49000 161.244
47.50000 160.684
47.51000 160.311
47.52000 159.943
47.53000 159.732
47.54000 164.973
47.55000 168.655
47.56000 169.530
47.57000 167.953
47.58000 166.406
47.59000 166.580
47.60000 167.759
47.61000 168.899
47.62000 168.675
47.63000 167.950
47.64000 167.051
47.65000 164.284
47.66000 161.010
47.67000 158.371
47.68000 159.842
47.69000 162.051
47.70000 163.872
47.71000 158.787
47.72000 153.967
47.73000 150.857
47.74000 152.628
47.75000 154.700
47.76000 156.456
47.77000 157.593
47.78000 158.715
47.79000 159.354
47.80000 154.714
47.81000 151.468
47.82000 152.201
47.83000 156.345
47.84000 160.437
47.85000 161.663
47.86000 161.246
47.87000 160.844
47.88000 160.898
47.89000 161.117
47.90000 161.424
47.91000 162.660
47.92000 164.144
47.93000 165.528
47.94000 166.285
47.95000 166.932
47.96000 167.463
47.97000 164.625
47.98000 161.992
47.99000 160.607
48.00000 162.723
48.01000 165.048
48.02000 164.183
48.03000 157.202
48.04000 150.070
48.05000 146.041
48.06000 154.543
48.07000 160.475
48.08000 159.774
48.09000 153.493
48.10000 147.335
48.11000 147.492
48.12000 151.206
48.13000 154.788
48.14000 155.835
48.15000 155.902
48.16000 156.346
48.17000 160.636
48.18000 165.932
48.19000 170.472
48.20000 170.315
48.21000 169.348
48.22000 168.556
48.23000 164.387
48.24000 160.676
48.25000 157.328
48.26000 154.986
48.27000 152.701
48.28000 152.074
48.29000 154.574
48.30000 157.146
48.31000 158.588
48.32000 158.679
48.33000 158.738
48.34000 158.401
48.35000 157.739
48.36000 157.075
48.37000 156.350
48.38000 155.592
48.39000 154.861
48.40000 160.894
48.41000 168.958
48.42000 175.954
48.43000 172.322
48.44000 165.959
48.45000 160.198
48.46000 158.105
48.47000 156.632
48.48000 155.431
48.49000 160.846
48.50000 165.835
48.51000 168.014
48.52000 162.574
48.53000 156.707
48.54000 153.144
48.55000 153.848
48.56000 154.648
48.57000 155.092
48.58000 157.613
48.59000 159.360
48.60000 161.549
48.61000 164.095
48.62000 166.574
48.63000 165.970
48.64000 163.689
48.65000 161.496
48.66000 162.685
48.67000 164.976
48.68000 166.660
48.69000 162.439
48.70000 156.727
48.71000 151.989
48.72000 153.060
48.73000 155.094
48.74000 156.745
48.75000 153.759
48.76000 150.940
48.77000 150.134
48.78000 154.692
48.79000 159.540
48.80000 161.002
48.81000 156.296
48.82000 151.460
48.83000 148.798
48.84000 153.255
48.85000 156.331
48.86000 157.347
48.87000 156.725
48.88000 156.097
48.89000 155.158
48.90000 154.053
48.91000 152.992
48.92000 151.541
48.93000 150.051
48.94000 148.638
48.95000 147.954
48.96000 147.450
48.97000 147.736
48.98000 152.638
48.99000 158.289
49.00000 162.862
49.01000 163.663
49.02000 164.011
49.03000 164.021
49.04000 163.148
49.05000 162.228
49.06000 159.766
49.07000 154.544
49.08000 149.267
49.09000 146.387
49.10000 155.373
49.11000 161.549
49.12000 164.180
49.13000 164.047
49.14000 163.865
49.15000 161.663
49.16000 158.400
49.17000 155.273
49.18000 154.375
49.19000 154.284
49.20000 154.355
49.21000 155.918
49.22000 157.845
49.23000 159.414
49.24000 158.934
49.25000 158.128
49.26000 157.479
49.27000 159.296
49.28000 160.964
49.29000 160.080
49.30000 152.625
49.31000 144.837
49.32000 142.968
49.33000 151.505
49.34000 160.238
49.35000 164.962
49.36000 168.876
49.37000 171.525
49.38000 167.149
49.39000 157.395
49.40000 147.808
49.41000 144.804
49.42000 145.201
49.43000 145.581
49.44000 144.812
49.45000 143.717
49.46000 143.161
49.47000 147.469
49.48000 152.939
49.49000 157.738
49.50000 158.758
49.51000 159.190
49.52000 159.536
49.53000 157.211
49.54000 155.123
49.55000 153.803
49.56000 154.426
49.57000 155.144
49.58000 156.299
49.59000 158.210
49.60000 160.134
49.61000 161.166
49.62000 161.035
49.63000 160.937
49.64000 159.109
49.65000 155.980
49.66000 152.895
49.67000 151.478
49.68000 150.907
49.69000 150.361
49.70000 145.601
49.71000 139.813
49.72000 134.706
49.73000 135.611
49.74000 137.927
49.75000 141.142
49.76000 149.306
49.77000 158.227
49.78000 165.359
49.79000 162.765
49.80000 159.945
49.81000 157.208
49.82000 154.675
49.83000 152.151
49.84000 152.102
49.85000 156.253
49.86000 160.473
49.87000 162.715
49.88000 159.207
49.89000 156.817
49.90000 154.550
49.91000 152.374
49.92000 150.338
49.93000 153.337
49.94000 158.847
49.95000 164.103
49.96000 160.790
49.97000 155.000
49.98000 149.980
49.99000 151.606
50.00000 154.765
50.01000 156.537
50.02000 150.815
50.03000 143.971
50.04000 138.522
50.05000 138.990
50.06000 139.795
50.07000 141.469
50.08000 145.270
50.09000 149.168
50.10000 153.172
50.11000 157.352
50.12000 161.536
50.13000 163.738
50.14000 162.207
50.15000 161.189
50.16000 163.676
50.17000 168.704
50.18000 173.565
50.19000 172.752
50.20000 169.156
50.21000 165.731
50.22000 163.828
50.23000 162.538
50.24000 160.838
50.25000 155.690
50.26000 149.761
50.27000 146.078
50.28000 154.303
50.29000 164.271
50.30000 172.177
50.31000 165.527
50.32000 159.155
50.33000 156.640
50.34000 163.395
50.35000 170.558
50.36000 174.094
50.37000 171.687
50.38000 169.195
50.39000 167.895
50.40000 163.669
50.41000 160.842
50.42000 162.443
50.43000 167.195
50.44000 171.806
50.45000 171.815
50.46000 169.606
50.47000 167.505
50.48000 172.261
50.49000 178.748
50.50000 184.855
50.51000 187.821
50.52000 190.091
50.53000 191.319
50.54000 187.132
50.55000 182.170
50.56000 178.251
50.57000 183.805
50.58000 188.909
50.59000 191.596
50.60000 188.569
50.61000 185.302
50.62000 184.338
50.63000 187.086
50.64000 189.884
50.65000 191.329
50.66000 190.656
50.67000 190.215
50.68000 191.349
50.69000 193.584
50.70000 195.722
50.71000 194.842
50.72000 192.531
50.73000 190.337
50.74000 188.529
50.75000 186.976
50.76000 184.994
50.77000 179.552
50.78000 173.355
50.79000 168.715
50.80000 172.014
50.81000 176.427
50.82000 179.897
50.83000 180.415
50.84000 180.635
50.85000 181.308
50.86000 183.039
50.87000 184.812
50.88000 184.224
50.89000 179.901
50.90000 175.531
50.91000 173.296
50.92000 164.804
50.93000 159.158
50.94000 160.486
50.95000 166.600
50.96000 172.443
50.97000 170.221
50.98000 164.243
50.99000 158.577
51.00000 162.347
51.01000 168.589
51.02000 173.723
51.03000 170.128
51.04000 164.666
51.05000 160.212
51.06000 160.802
51.07000 162.085
51.08000 163.090
51.09000 160.270
51.10000 157.771
51.11000 154.177
51.12000 148.085
51.13000 141.896
51.14000 140.052
51.15000 144.963
51.16000 149.953
51.17000 152.480
51.18000 156.896
51.19000 159.822
51.20000 159.503
51.21000 156.996
51.22000 154.525
51.23000 153.113
51.24000 152.185
51.25000 151.308
51.26000 154.338
51.27000 158.249
51.28000 160.947
51.29000 154.300
51.30000 145.691
51.31000 139.082
51.32000 142.295
51.33000 146.828
51.34000 150.364
51.35000 151.975
51.36000 153.140
51.37000 153.022
51.38000 150.022
51.39000 146.915
51.40000 144.957
51.41000 144.751
51.42000 144.564
51.43000 144.470
51.44000 147.918
51.45000 150.176
51.46000 148.316
51.47000 143.728
51.48000 139.429
51.49000 143.011
51.50000 150.142
51.51000 156.876
51.52000 154.587
51.53000 149.941
51.54000 145.649
51.55000 144.036
51.56000 142.975
51.57000 142.842
51.58000 147.174
51.59000 152.094
51.60000 155.914
51.61000 154.948
51.62000 153.889
51.63000 152.449
51.64000 150.167
51.65000 147.854
51.66000 145.556
51.67000 143.278
51.68000 141.000
51.69000 142.018
51.70000 146.286
51.71000 150.500
51.72000 149.824
51.73000 145.970
51.74000 142.297
51.75000 143.401
51.76000 146.620
51.77000 149.654
51.78000 150.475
51.79000 150.615
51.80000 150.044
51.81000 144.232
51.82000 137.361
51.83000 132.250
51.84000 135.459
51.85000 139.738
51.86000 143.047
51.87000 141.546
51.88000 140.073
51.89000 139.669
51.90000 141.586
51.91000 143.582
51.92000 143.427
51.93000 140.102
51.94000 136.749
51.95000 137.645
51.96000 142.648
51.97000 147.606
51.98000 148.767
51.99000 147.503
52.00000 146.221
52.01000 144.479
52.02000 142.536
52.03000 140.709
52.04000 140.990
52.05000 141.820
52.06000 142.805
52.07000 144.909
52.08000 147.234
52.09000 149.100
52.10000 148.833
52.11000 148.298
52.12000 147.885
52.13000 144.757
52.14000 142.127
52.15000 140.011
52.16000 138.993
52.17000 138.011
52.18000 137.350
52.19000 137.155
52.20000 136.964
52.21000 136.286
52.22000 135.148
52.23000 134.051
52.24000 136.107
52.25000 140.142
52.26000 143.953
52.27000 142.312
52.28000 138.340
52.29000 134.610
52.30000 137.968
52.31000 142.917
52.32000 147.154
52.33000 146.359
52.34000 144.584
52.35000 142.670
52.36000 140.125
52.37000 137.502
52.38000 135.492
52.39000 134.153
52.40000 133.133
52.41000 132.637
52.42000 133.240
52.43000 133.878
52.44000 133.954
52.45000 133.234
52.46000 132.508
52.47000 130.929
52.48000 128.559
52.49000 126.289
52.50000 131.284
52.51000 140.757
52.52000 149.719
52.53000 146.733
52.54000 138.724
52.55000 131.216
52.56000 134.525
52.57000 140.362
52.58000 145.222
52.59000 143.327
52.60000 140.144
52.61000 137.578
52.62000 137.774
52.63000 138.301
52.64000 138.703
52.65000 140.520
52.66000 142.027
52.67000 142.911
52.68000 142.513
52.69000 142.076
52.70000 140.817
52.71000 138.411
52.72000 135.997
52.73000 135.897
52.74000 137.902
52.75000 139.864
52.76000 138.919
52.77000 136.214
52.78000 133.610
52.79000 133.282
52.80000 133.894
52.81000 134.467
52.82000 135.384
52.83000 136.305
52.84000 137.059
52.85000 136.682
52.86000 136.092
52.87000 135.550
52.88000 135.212
52.89000 134.898
52.90000 134.659
52.91000 138.753
52.92000 142.194
52.93000 144.429
52.94000 144.220
52.95000 143.941
52.96000 143.655
52.97000 143.360
52.98000 143.066
52.99000 143.455
53.00000 144.456
53.01000 145.502
53.02000 149.408
53.03000 155.017
53.04000 160.385
53.05000 160.539
53.06000 158.574
53.07000 156.740
53.08000 153.451
53.09000 150.104
53.10000 147.047
53.11000 145.914
53.12000 145.133
53.13000 144.946
53.14000 147.312
53.15000 149.972
53.16000 151.982
53.17000 150.653
53.18000 149.444
53.19000 148.597
53.20000 148.472
53.21000 148.366
53.22000 148.339
53.23000 148.417
53.24000 148.495
53.25000 150.421
53.26000 153.962
53.27000 157.418
53.28000 155.901
53.29000 151.477
53.30000 147.453
53.31000 151.806
53.32000 159.505
53.33000 166.681
53.34000 166.769
53.35000 165.105
53.36000 163.678
53.37000 163.785
53.38000 164.168
53.39000 164.237
53.40000 162.977
53.41000 161.568
53.42000 160.508
53.43000 161.256
53.44000 161.929
53.45000 160.329
53.46000 154.283
53.47000 148.120
53.48000 146.187
53.49000 149.840
53.50000 153.516
53.51000 152.197
53.52000 146.597
53.53000 141.128
53.54000 142.993
53.55000 149.073
53.56000 154.778
53.57000 152.932
53.58000 148.122
53.59000 143.647
53.60000 145.805
53.61000 149.354
53.62000 152.244
53.63000 150.946
53.64000 148.909
53.65000 147.506
53.66000 148.735
53.67000 150.252
53.68000 151.388
53.69000 148.645
53.70000 146.322
53.71000 144.937
53.72000 145.357
53.73000 145.821
53.74000 144.048
53.75000 139.373
53.76000 134.691
53.77000 134.329
53.78000 137.602
53.79000 140.820
53.80000 141.139
53.81000 139.821
53.82000 138.612
53.83000 139.511
53.84000 141.223
53.85000 142.813
53.86000 141.878
53.87000 140.440
53.88000 139.055
53.89000 138.012
53.90000 137.027
53.91000 136.555
53.92000 138.175
53.93000 140.019
53.94000 141.393
53.95000 142.576
53.96000 143.489
53.97000 143.766
53.98000 142.842
53.99000 141.889
54.00000 142.075
54.01000 143.710
54.02000 145.348
54.03000 145.714
54.04000 145.031
54.05000 144.317
54.06000 142.093
54.07000 139.030
54.08000 136.093
54.09000 135.551
54.10000 135.917
54.11000 136.255
54.12000 135.413
54.13000 134.382
54.14000 133.068
54.15000 130.023
54.16000 126.684
54.17000 124.909
54.18000 129.393
54.19000 134.531
54.20000 138.342
54.21000 144.709
54.22000 149.765
54.23000 150.401
54.24000 142.826
54.25000 135.067
54.26000 132.190
54.27000 135.411
54.28000 138.644
54.29000 140.702
54.30000 141.801
54.31000 142.883
54.32000 143.236
54.33000 143.191
54.34000 143.001
54.35000 140.172
54.36000 136.358
54.37000 132.833
54.38000 133.573
54.39000 135.207
54.40000 137.003
54.41000 139.778
54.42000 142.715
54.43000 145.340
54.44000 146.741
54.45000 148.016
54.46000 148.957
54.47000 142.053
54.48000 136.372
54.49000 132.192
54.50000 130.754
54.51000 129.374
54.52000 129.922
54.53000 132.835
54.54000 135.749
54.55000 136.433
54.56000 135.344
54.57000 134.333
54.58000 136.708
54.59000 140.898
54.60000 144.977
54.61000 147.086
54.62000 148.474
54.63000 149.753
54.64000 152.485
54.65000 155.255
54.66000 157.054
54.67000 153.150
54.68000 148.318
54.69000 144.662
54.70000 145.553
54.71000 146.896
54.72000 147.882
54.73000 148.205
54.74000 148.428
54.75000 148.330
54.76000 147.659
54.77000 146.976
54.78000 147.784
54.79000 150.387
54.80000 152.988
54.81000 149.784
54.82000 142.078
54.83000 134.551
54.84000 134.467
54.85000 138.305
54.86000 142.012
54.87000 143.489
54.88000 144.163
54.89000 144.782
54.90000 148.588
54.91000 152.687
54.92000 156.206
54.93000 156.395
54.94000 156.052
54.95000 155.371
54.96000 153.406
54.97000 151.318
54.98000 149.792
54.99000 150.510
55.00000 151.151
55.01000 151.993
55.02000 153.190
55.03000 154.394
55.04000 153.945
55.05000 151.545
55.06000 149.148
55.07000 145.205
55.08000 140.107
55.09000 135.210
55.10000 138.270
55.11000 145.451
55.12000 152.237
55.13000 152.498
55.14000 150.449
55.15000 148.567
55.16000 150.005
55.17000 151.998
55.18000 153.226
55.19000 150.143
55.20000 146.387
55.21000 145.095
55.22000 152.990
55.23000 161.755
55.24000 168.125
55.25000 167.075
55.26000 165.986
55.27000 163.388
55.28000 158.178
55.29000 152.920
55.30000 153.880
55.31000 162.035
55.32000 170.177
55.33000 170.656
55.34000 165.394
55.35000 160.369
55.36000 164.309
55.37000 172.813
55.38000 181.022
55.39000 184.506
55.40000 186.346
55.41000 188.031
55.42000 189.840
55.43000 191.476
55.44000 193.987
55.45000 201.332
55.46000 209.417
55.47000 216.804
55.48000 221.634
55.49000 226.228
55.50000 229.550
55.51000 235.393
55.52000 239.968
55.53000 247.303
55.54000 259.335
55.55000 271.445
55.56000 282.638
55.57000 292.790
55.58000 302.908
55.59000 314.579
55.60000 327.299
55.61000 340.055
55.62000 354.081
55.63000 368.744
55.64000 383.042
55.65000 391.671
55.66000 398.360
55.67000 404.476
55.68000 419.986
55.69000 435.696
55.70000 452.730
55.71000 476.940
55.72000 502.227
55.73000 524.936
55.74000 538.373
55.75000 550.977
55.76000 560.043
55.77000 578.552
55.78000 593.051
55.79000 604.273
55.80000 610.013
55.81000 615.667
55.82000 627.900
55.83000 647.462
55.84000 666.959
55.85000 678.783
55.86000 684.978
55.87000 691.043
55.88000 692.623
55.89000 691.999
55.90000 691.508
55.91000 693.017
55.92000 695.199
55.93000 697.189
55.94000 687.389
55.95000 676.326
55.96000 667.398
55.97000 669.812
55.98000 673.891
55.99000 672.675
56.00000 652.738
56.01000 631.162
56.02000 615.723
56.03000 609.159
56.04000 604.445
56.05000 598.081
56.06000 589.005
56.07000 579.890
56.08000 568.377
56.09000 554.244
56.10000 540.166
56.11000 518.062
56.12000 490.497
56.13000 463.286
56.14000 447.626
56.15000 437.549
56.16000 427.005
56.17000 409.607
56.18000 389.944
56.19000 372.051
56.20000 357.258
56.21000 344.777
56.22000 331.647
56.23000 315.123
56.24000 298.112
56.25000 284.380
56.26000 282.037
56.27000 280.665
56.28000 279.688
56.29000 264.056
56.30000 251.674
56.31000 242.569
56.32000 238.757
56.33000 235.016
56.34000 231.756
56.35000 229.013
56.36000 226.281
56.37000 217.128
56.38000 203.621
56.39000 190.439
56.40000 187.459
56.41000 189.326
56.42000 190.806
56.43000 186.798
56.44000 181.006
56.45000 175.749
56.46000 170.392
56.47000 165.643
56.48000 161.916
56.49000 163.417
56.50000 165.653
56.51000 166.411
56.52000 162.121
56.53000 157.413
56.54000 154.079
56.55000 153.460
56.56000 153.074
56.57000 151.936
56.58000 149.603
56.59000 147.256
56.60000 145.068
56.61000 143.047
56.62000 141.036
56.63000 141.653
56.64000 144.049
56.65000 146.421
56.66000 148.093
56.67000 149.438
56.68000 150.466
56.69000 147.111
56.70000 142.356
56.71000 138.050
56.72000 138.299
56.73000 139.378
56.74000 139.860
56.75000 137.345
56.76000 134.416
56.77000 133.228
56.78000 137.875
56.79000 142.993
56.80000 146.597
56.81000 144.330
56.82000 142.436
56.83000 139.011
56.84000 133.197
56.85000 127.355
56.86000 125.426
56.87000 127.526
56.88000 129.614
56.89000 131.466
56.90000 133.137
56.91000 134.845
56.92000 137.616
56.93000 140.875
56.94000 143.828
56.95000 142.690
56.96000 140.268
56.97000 138.080
56.98000 135.500
56.99000 133.159
57.00000 131.513
57.01000 133.291
57.02000 135.530
57.03000 136.601
57.04000 133.824
57.05000 130.744
57.06000 128.588
57.07000 127.411
57.08000 126.548
57.09000 125.728
57.10000 124.973
57.11000 124.219
57.12000 126.765
57.13000 132.640
57.14000 138.481
57.15000 136.860
57.16000 130.377
57.17000 124.018
57.18000 121.081
57.19000 119.689
57.20000 118.551
57.21000 120.734
57.22000 123.942
57.23000 126.832
57.24000 123.794
57.25000 120.053
57.26000 117.926
57.27000 123.592
57.28000 130.286
57.29000 135.016
57.30000 133.384
57.31000 131.266
57.32000 129.792
57.33000 129.288
57.34000 128.935
57.35000 127.801
57.36000 125.494
57.37000 123.176
57.38000 122.015
57.39000 121.998
57.40000 121.982
57.41000 121.790
57.42000 121.488
57.43000 121.238
57.44000 122.331
57.45000 124.021
57.46000 125.620
57.47000 126.064
57.48000 126.158
57.49000 126.243
57.50000 128.540
57.51000 130.945
57.52000 132.374
57.53000 129.182
57.54000 125.394
57.55000 122.189
57.56000 120.841
57.57000 119.632
57.58000 118.795
57.59000 120.054
57.60000 121.057
57.61000 121.228
57.62000 120.170
57.63000 119.102
57.64000 118.626
57.65000 118.725
57.66000 118.824
57.67000 119.176
57.68000 119.683
57.69000 120.307
57.70000 123.877
57.71000 128.733
57.72000 132.964
57.73000 129.476
57.74000 123.690
57.75000 118.502
57.76000 120.690
57.77000 123.884
57.78000 126.629
57.79000 127.282
57.80000 127.672
57.81000 127.854
57.82000 127.389
57.83000 126.877
57.84000 126.524
57.85000 121.003
57.86000 116.730
57.87000 114.443
57.88000 115.038
57.89000 115.656
57.90000 115.321
57.91000 114.080
57.92000 112.848
57.93000 114.205
57.94000 117.139
57.95000 119.926
57.96000 119.118
57.97000 116.770
57.98000 114.716
57.99000 116.215
58.00000 118.752
58.01000 121.022
58.02000 120.340
58.03000 119.243
58.04000 118.506
58.05000 119.415
58.06000 120.527
58.07000 120.942
58.08000 119.217
58.09000 117.341
58.10000 116.058
58.11000 121.854
58.12000 126.361
58.13000 128.987
58.14000 128.934
58.15000 128.860
58.16000 126.893
58.17000 123.162
58.18000 119.461
58.19000 117.252
58.20000 115.989
58.21000 114.720
58.22000 113.345
58.23000 111.923
58.24000 110.718
58.25000 112.033
58.26000 114.072
58.27000 115.892
58.28000 118.465
58.29000 120.830
58.30000 122.237
58.31000 119.350
58.32000 115.946
58.33000 114.304
58.34000 117.980
58.35000 122.019
58.36000 124.767
58.37000 126.764
58.38000 128.238
58.39000 126.801
58.40000 121.291
58.41000 115.757
58.42000 115.597
58.43000 120.346
58.44000 125.053
58.45000 124.762
58.46000 121.501
58.47000 118.271
58.48000 115.722
58.49000 113.456
58.50000 111.540
58.51000 113.606
58.52000 116.797
58.53000 119.636
58.54000 119.516
58.55000 118.928
58.56000 118.158
58.57000 116.584
58.58000 114.915
58.59000 113.906
58.60000 114.855
58.61000 115.935
58.62000 116.664
58.63000 116.513
58.64000 116.381
58.65000 116.528
58.66000 117.059
58.67000 117.592
58.68000 117.694
58.69000 117.408
58.70000 117.125
58.71000 118.821
58.72000 121.638
58.73000 124.400
58.74000 125.987
58.75000 127.095
58.76000 128.053
58.77000 127.345
58.78000 126.176
58.79000 125.138
58.80000 124.717
58.81000 124.450
58.82000 124.246
58.83000 124.316
58.84000 124.417
58.85000 124.018
58.86000 122.161
58.87000 120.210
58.88000 118.899
58.89000 113.171
58.90000 108.826
58.91000 107.898
58.92000 111.579
58.93000 115.283
58.94000 115.800
58.95000 113.517
58.96000 111.257
58.97000 114.535
58.98000 120.914
58.99000 126.936
59.00000 125.452
59.01000 120.964
59.02000 117.034
59.03000 119.155
59.04000 122.925
59.05000 126.260
59.06000 123.009
59.07000 119.168
59.08000 116.673
59.09000 119.881
59.10000 123.731
59.11000 125.960
59.12000 123.539
59.13000 120.828
59.14000 119.017
59.15000 117.999
59.16000 117.259
59.17000 116.923
59.18000 117.121
59.19000 117.319
59.20000 116.545
59.21000 114.932
59.22000 113.338
59.23000 113.515
59.24000 114.686
59.25000 115.918
59.26000 118.390
59.27000 121.349
59.28000 124.043
59.29000 123.941
59.30000 123.091
59.31000 122.340
59.32000 120.844
59.33000 119.440
59.34000 118.088
59.35000 116.951
59.36000 115.837
59.37000 115.679
59.38000 118.216
59.39000 120.915
59.40000 122.708
59.41000 118.124
59.42000 114.617
59.43000 113.592
59.44000 115.794
59.45000 118.003
59.46000 117.033
59.47000 113.372
59.48000 109.756
59.49000 111.497
59.50000 116.154
59.51000 120.523
59.52000 119.251
59.53000 115.798
59.54000 112.984
59.55000 116.755
59.56000 122.257
59.57000 127.099
59.58000 124.412
59.59000 120.973
59.60000 116.711
59.61000 109.083
59.62000 101.094
59.63000 97.927
59.64000 108.123
59.65000 119.099
59.66000 126.341
59.67000 123.203
59.68000 120.708
59.69000 118.797
59.70000 117.632
59.71000 116.470
59.72000 115.767
59.73000 115.445
59.74000 115.127
59.75000 117.410
59.76000 121.044
59.77000 124.476
59.78000 124.091
59.79000 122.253
59.80000 120.423
59.81000 118.664
59.82000 116.923
59.83000 115.396
59.84000 115.741
59.85000 116.311
59.86000 116.659
59.87000 116.115
59.88000 115.477
59.89000 114.905
59.90000 114.513
59.91000 114.132
59.92000 113.883
59.93000 112.676
59.94000 111.773
59.95000 111.986
59.96000 113.594
59.97000 115.203
59.98000 115.220
59.99000 113.941
60.00000 112.679
60.01000 114.440
60.02000 117.760
60.03000 120.965
60.04000 122.067
60.05000 122.384
60.06000 122.757
60.07000 123.684
60.08000 124.752
60.09000 125.686
60.10000 124.926
60.11000 124.033
60.12000 122.965
60.13000 121.206
60.14000 119.377
60.15000 117.796
60.16000 116.879
60.17000 115.997
60.18000 115.423
60.19000 113.074
60.20000 111.323
60.21000 111.037
60.22000 112.552
60.23000 114.077
60.24000 117.013
60.25000 121.079
60.26000 125.085
60.27000 126.555
60.28000 126.658
60.29000 126.598
60.30000 123.666
60.31000 119.678
60.32000 116.009
60.33000 115.378
60.34000 115.504
60.35000 115.614
60.36000 115.277
60.37000 114.925
60.38000 114.329
60.39000 112.786
60.40000 111.147
60.41000 110.389
60.42000 111.948
60.43000 113.629
60.44000 114.717
60.45000 111.893
60.46000 109.769
60.47000 110.221
60.48000 113.779
60.49000 117.334
60.50000 118.403
60.51000 117.522
60.52000 116.654
60.53000 115.847
60.54000 115.096
60.55000 114.304
60.56000 112.829
60.57000 111.108
60.58000 110.011
60.59000 114.743
60.60000 120.902
60.61000 126.260
60.62000 122.594
60.63000 118.232
60.64000 114.948
60.65000 115.761
60.66000 116.973
60.67000 116.809
60.68000 113.083
60.69000 109.175
60.70000 106.662
60.71000 107.851
60.72000 108.770
60.73000 109.741
60.74000 110.772
60.75000 111.814
60.76000 115.302
60.77000 120.675
60.78000 125.961
60.79000 125.587
60.80000 122.380
60.81000 119.412
60.82000 120.401
60.83000 122.793
60.84000 124.843
60.85000 123.765
60.86000 121.935
60.87000 120.348
60.88000 114.772
60.89000 109.491
60.90000 106.264
60.91000 110.712
60.92000 115.889
60.93000 119.533
60.94000 119.280
60.95000 118.834
60.96000 118.549
60.97000 120.028
60.98000 121.128
60.99000 121.648
61.00000 121.498
61.01000 121.351
61.02000 122.240
61.03000 123.911
61.04000 125.553
61.05000 124.415
61.06000 121.944
61.07000 119.790
61.08000 122.726
61.09000 127.439
61.10000 131.964
61.11000 134.811
61.12000 137.262
61.13000 139.382
61.14000 134.886
61.15000 130.201
61.16000 125.937
61.17000 123.216
61.18000 120.639
61.19000 120.160
61.20000 124.929
61.21000 129.948
61.22000 133.133
61.23000 126.142
61.24000 120.944
61.25000 117.989
61.26000 117.589
61.27000 117.206
61.28000 119.568
61.29000 123.968
61.30000 128.288
61.31000 127.694
61.32000 124.742
61.33000 121.976
61.34000 122.110
61.35000 123.240
61.36000 124.362
61.37000 125.419
61.38000 126.460
61.39000 127.358
61.40000 126.132
61.41000 124.821
61.42000 123.030
61.43000 119.509
61.44000 115.832
61.45000 115.335
61.46000 122.652
61.47000 130.327
61.48000 135.164
61.49000 135.343
61.50000 135.419
61.51000 140.616
61.52000 151.533
61.53000 162.446
61.54000 172.020
61.55000 180.620
61.56000 189.056
61.57000 199.392
61.58000 210.254
61.59000 221.338
61.60000 235.785
61.61000 251.366
61.62000 266.371
61.63000 276.494
61.64000 285.505
61.65000 293.251
61.66000 297.186
61.67000 300.041
61.68000 302.203
61.69000 301.910
61.70000 301.401
61.71000 302.468
61.72000 307.341
61.73000 312.383
61.74000 315.538
61.75000 301.437
61.76000 291.073
61.77000 284.166
61.78000 281.045
61.79000 277.850
61.80000 263.427
61.81000 240.971
61.82000 218.965
61.83000 203.080
61.84000 190.652
61.85000 178.444
61.86000 169.477
61.87000 161.584
61.88000 154.019
61.89000 149.172
61.90000 144.932
61.91000 141.300
61.92000 137.375
61.93000 134.027
61.94000 131.587
61.95000 132.311
61.96000 133.306
61.97000 133.998
61.98000 133.970
61.99000 133.911
62.00000 133.875
62.01000 135.480
62.02000 136.652
62.03000 136.920
62.04000 136.217
62.05000 135.502
62.06000 133.210
62.07000 129.810
62.08000 126.482
62.09000 124.205
62.10000 122.499
62.11000 120.919
62.12000 121.138
62.13000 121.944
62.14000 123.050
62.15000 126.589
62.16000 130.662
62.17000 134.140
62.18000 133.896
62.19000 133.247
62.20000 131.944
62.21000 128.400
62.22000 124.670
62.23000 120.762
62.24000 116.440
62.25000 112.100
62.26000 109.423
62.27000 115.918
62.28000 120.665
62.29000 124.783
62.30000 128.240
62.31000 131.672
62.32000 132.207
62.33000 130.741
62.34000 129.308
62.35000 129.058
62.36000 129.350
62.37000 129.381
62.38000 125.797
62.39000 121.056
62.40000 117.267
62.41000 121.025
62.42000 126.407
62.43000 130.989
62.44000 129.326
62.45000 127.202
62.46000 125.209
62.47000 123.657
62.48000 122.141
62.49000 120.302
62.50000 117.722
62.51000 115.113
62.52000 113.515
62.53000 120.352
62.54000 125.319
62.55000 127.811
62.56000 127.747
62.57000 127.717
62.58000 131.412
62.59000 137.631
62.60000 143.706
62.61000 142.193
62.62000 137.402
62.63000 132.668
62.64000 128.713
62.65000 125.003
62.66000 121.936
62.67000 123.850
62.68000 126.815
62.69000 129.332
62.70000 128.106
62.71000 126.652
62.72000 125.386
62.73000 124.738
62.74000 124.138
62.75000 124.518
62.76000 127.108
62.77000 129.781
62.78000 131.406
62.79000 131.414
62.80000 131.408
62.81000 129.762
62.82000 126.458
62.83000 123.176
62.84000 122.101
62.85000 122.496
62.86000 122.881
62.87000 126.124
62.88000 130.459
62.89000 134.303
62.90000 131.705
62.91000 127.115
62.92000 122.620
62.93000 118.840
62.94000 115.209
62.95000 112.138
62.96000 114.791
62.97000 117.645
62.98000 120.947
62.99000 125.701
63.00000 130.568
63.01000 134.206
63.02000 135.122
63.03000 135.938
63.04000 136.431
63.05000 136.886
63.06000 137.211
63.07000 134.770
63.08000 129.587
63.09000 124.461
63.10000 124.641
63.11000 128.289
63.12000 131.845
63.13000 132.071
63.14000 130.875
63.15000 129.878
63.16000 131.425
63.17000 133.745
63.18000 136.201
63.19000 139.669
63.20000 143.343
63.21000 146.440
63.22000 140.792
63.23000 135.131
63.24000 131.006
63.25000 131.783
63.26000 132.926
63.27000 134.303
63.28000 136.189
63.29000 138.093
63.30000 139.233
63.31000 128.042
63.32000 120.014
63.33000 117.995
63.34000 121.818
63.35000 125.634
63.36000 128.917
63.37000 131.859
63.38000 134.722
63.39000 132.574
63.40000 128.440
63.41000 124.598
63.42000 124.359
63.43000 125.197
63.44000 126.043
63.45000 126.955
63.46000 127.880
63.47000 128.657
63.48000 130.032
63.49000 131.240
63.50000 132.082
63.51000 131.779
63.52000 131.393
63.53000 131.320
63.54000 131.921
63.55000 132.545
63.56000 132.916
63.57000 134.076
63.58000 134.902
63.59000 134.399
63.60000 132.630
63.61000 130.918
63.62000 133.783
63.63000 139.537
63.64000 145.131
63.65000 143.399
63.66000 138.759
63.67000 134.517
63.68000 135.086
63.69000 137.067
63.70000 138.737
63.71000 138.205
63.72000 137.241
63.73000 136.435
63.74000 140.023
63.75000 143.459
63.76000 145.990
63.77000 145.733
63.78000 145.279
63.79000 144.547
63.80000 143.228
63.81000 141.890
63.82000 141.101
63.83000 139.777
63.84000 138.839
63.85000 137.220
63.86000 134.965
63.87000 132.759
63.88000 134.163
63.89000 137.804
63.90000 141.340
63.91000 138.953
63.92000 134.311
63.93000 130.519
63.94000 136.710
63.95000 145.778
63.96000 153.479
63.97000 151.672
63.98000 148.040
63.99000 145.009
64.00000 143.697
64.01000 142.782
64.02000 142.389
64.03000 143.578
64.04000 144.875
64.05000 145.439
64.06000 144.486
64.07000 143.487
64.08000 142.902
64.09000 147.973
64.10000 151.569
64.11000 151.722
64.12000 148.719
64.13000 145.756
64.14000 145.546
64.15000 147.012
64.16000 148.433
64.17000 149.964
64.18000 151.457
64.19000 152.618
64.20000 149.978
64.21000 146.262
64.22000 143.353
64.23000 145.952
64.24000 149.587
64.25000 152.609
64.26000 159.253
64.27000 165.106
64.28000 168.582
64.29000 164.985
64.30000 160.919
64.31000 158.183
64.32000 158.154
64.33000 158.204
64.34000 158.233
64.35000 152.003
64.36000 147.604
64.37000 145.413
64.38000 145.207
64.39000 145.010
64.40000 145.434
64.41000 146.229
64.42000 146.999
64.43000 147.259
64.44000 147.307
64.45000 147.930
64.46000 154.955
64.47000 163.761
64.48000 170.638
64.49000 164.647
64.50000 156.279
64.51000 149.346
64.52000 151.241
64.53000 153.648
64.54000 156.036
64.55000 158.369
64.56000 160.698
64.57000 163.065
64.58000 165.511
64.59000 167.959
64.60000 169.369
64.61000 166.035
64.62000 163.685
64.63000 163.228
64.64000 164.440
64.65000 165.647
64.66000 166.592
64.67000 167.382
64.68000 168.146
64.69000 166.024
64.70000 162.925
64.71000 160.003
64.72000 159.002
64.73000 158.525
64.74000 158.221
64.75000 159.037
64.76000 160.057
64.77000 160.898
64.78000 164.899
64.79000 168.489
64.80000 171.004
64.81000 170.428
64.82000 169.659
64.83000 170.674
64.84000 175.197
64.85000 179.813
64.86000 182.451
64.87000 175.544
64.88000 170.697
64.89000 170.629
64.90000 174.694
64.91000 178.752
64.92000 182.409
64.93000 185.835
64.94000 189.144
64.95000 190.293
64.96000 190.573
64.97000 190.929
64.98000 192.089
64.99000 193.464
65.00000 194.976
65.01000 197.365
65.02000 199.909
65.03000 202.003
65.04000 203.759
65.05000 205.173
65.06000 205.101
65.07000 200.831
65.08000 196.306
65.09000 195.258
65.10000 200.930
65.11000 206.772
65.12000 210.083
65.13000 216.453
65.14000 220.888
65.15000 220.391
65.16000 215.712
65.17000 211.183
65.18000 214.665
65.19000 222.695
65.20000 230.441
65.21000 230.222
65.22000 227.109
65.23000 224.457
65.24000 226.571
65.25000 229.940
65.26000 233.846
65.27000 241.117
65.28000 248.973
65.29000 255.412
65.30000 259.649
65.31000 262.930
65.32000 264.700
65.33000 262.273
65.34000 259.600
65.35000 259.157
65.36000 262.951
65.37000 266.847
65.38000 269.037
65.39000 267.423
65.40000 266.300
65.41000 267.946
65.42000 271.897
65.43000 275.860
65.44000 280.445
65.45000 285.376
65.46000 290.127
65.47000 293.812
65.48000 296.891
65.49000 299.816
65.50000 301.182
65.51000 302.145
65.52000 304.249
65.53000 313.366
65.54000 323.680
65.55000 332.101
65.56000 333.715
65.57000 334.450
65.58000 338.193
65.59000 350.146
65.60000 362.565
65.61000 374.353
65.62000 384.961
65.63000 395.543
65.64000 401.441
65.65000 435.723
65.66000 459.523
65.67000 491.068
65.68000 528.938
65.69000 567.377
65.70000 632.700
65.71000 712.763
65.72000 789.780
65.73000 910.805
65.74000 1039.741
65.75000 1167.526
65.76000 1284.000
65.77000 1397.595
65.78000 1508.141
65.79000 1600.323
65.80000 1689.435
65.81000 1761.923
65.82000 1861.567
65.83000 1945.195
65.84000 2013.563
65.85000 2040.973
65.86000 2066.131
65.87000 2079.167
65.88000 2069.958
65.89000 2060.271
65.90000 2054.917
65.91000 2025.327
65.92000 2004.809
65.93000 1963.584
65.94000 1905.762
65.95000 1846.947
65.96000 1743.626
65.97000 1616.327
65.98000 1494.047
65.99000 1362.061
66.00000 1235.188
66.01000 1109.502
66.02000 995.185
66.03000 883.710
66.04000 777.613
66.05000 703.246
66.06000 634.079
66.07000 578.029
66.08000 529.209
66.09000 490.031
66.10000 457.546
66.11000 442.717
66.12000 428.826
66.13000 414.217
66.14000 398.312
66.15000 382.380
66.16000 373.650
66.17000 371.657
66.18000 370.303
66.19000 370.917
66.20000 373.077
66.21000 375.300
66.22000 380.227
66.23000 386.586
66.24000 392.685
66.25000 395.733
66.26000 397.550
66.27000 401.492
66.28000 425.327
66.29000 454.043
66.30000 481.747
66.31000 503.599
66.32000 524.511
66.33000 541.392
66.34000 565.322
66.35000 585.330
66.36000 601.985
66.37000 609.944
66.38000 617.457
66.39000 624.066
66.40000 629.072
66.41000 634.048
66.42000 636.750
66.43000 642.713
66.44000 646.811
66.45000 652.283
66.46000 658.816
66.47000 664.908
66.48000 653.184
66.49000 632.189
66.50000 612.083
66.51000 599.865
66.52000 591.090
66.53000 580.365
66.54000 551.816
66.55000 518.974
66.56000 487.586
66.57000 464.454
66.58000 442.620
66.59000 425.064
66.60000 407.785
66.61000 393.795
66.62000 382.111
66.63000 376.305
66.64000 370.790
66.65000 367.116
66.66000 366.648
66.67000 366.239
66.68000 366.018
66.69000 359.886
66.70000 355.678
66.71000 349.196
66.72000 340.989
66.73000 332.926
66.74000 330.357
66.75000 330.599
66.76000 330.830
66.77000 336.867
66.78000 344.376
66.79000 350.937
66.80000 349.036
66.81000 345.133
66.82000 341.878
66.83000 342.222
66.84000 343.121
66.85000 343.841
66.86000 349.950
66.87000 355.297
66.88000 360.422
66.89000 364.992
66.90000 369.534
66.91000 370.363
66.92000 364.838
66.93000 359.204
66.94000 356.199
66.95000 363.363
66.96000 368.234
66.97000 369.714
66.98000 368.671
66.99000 367.670
67.00000 368.221
67.01000 369.553
67.02000 370.824
67.03000 372.211
67.04000 373.537
67.05000 374.972
67.06000 377.354
67.07000 379.956
67.08000 381.955
67.09000 380.660
67.10000 378.868
67.11000 377.438
67.12000 382.829
67.13000 387.680
67.14000 391.195
67.15000 391.423
67.16000 391.499
67.17000 392.116
67.18000 393.642
67.19000 395.182
67.20000 395.996
67.21000 390.087
67.22000 386.108
67.23000 388.466
67.24000 395.455
67.25000 402.251
67.26000 402.357
67.27000 399.157
67.28000 396.107
67.29000 389.245
67.30000 381.688
67.31000 375.801
67.32000 384.144
67.33000 395.733
67.34000 406.022
67.35000 409.357
67.36000 411.665
67.37000 413.499
67.38000 405.765
67.39000 398.857
67.40000 393.890
67.41000 393.624
67.42000 393.568
67.43000 396.014
67.44000 402.593
67.45000 409.233
67.46000 412.710
67.47000 414.673
67.48000 416.002
67.49000 417.339
67.50000 418.682
67.51000 419.998
67.52000 420.416
67.53000 420.398
67.54000 420.382
67.55000 422.595
67.56000 425.328
67.57000 428.611
67.58000 436.465
67.59000 445.343
67.60000 452.141
67.61000 448.039
67.62000 442.360
67.63000 437.866
67.64000 431.211
67.65000 425.714
67.66000 421.588
67.67000 420.727
67.68000 420.006
67.69000 422.938
67.70000 431.801
67.71000 440.747
67.72000 445.387
67.73000 441.825
67.74000 439.495
67.75000 447.407
67.76000 462.533
67.77000 477.263
67.78000 479.410
67.79000 475.548
67.80000 471.880
67.81000 466.558
67.82000 461.145
67.83000 455.928
67.84000 452.321
67.85000 449.067
67.86000 448.288
67.87000 460.231
67.88000 473.977
67.89000 484.809
67.90000 490.490
67.91000 494.698
67.92000 498.540
67.93000 501.522
67.94000 504.469
67.95000 503.870
67.96000 497.617
67.97000 491.290
67.98000 488.040
67.99000 496.720
68.00000 502.464
68.01000 496.267
68.02000 481.811
68.03000 468.224
68.04000 481.016
68.05000 506.190
68.06000 530.065
68.07000 525.145
68.08000 512.091
68.09000 501.576
68.10000 511.273
68.11000 525.330
68.12000 535.661
68.13000 527.196
68.14000 516.125
68.15000 507.437
68.16000 511.324
68.17000 515.251
68.18000 519.997
68.19000 526.622
68.20000 533.322
68.21000 543.958
68.22000 560.761
68.23000 577.638
68.24000 586.224
68.25000 571.641
68.26000 561.890
68.27000 555.377
68.28000 551.064
68.29000 547.155
68.30000 554.982
68.31000 568.222
68.32000 580.758
68.33000 581.988
68.34000 579.838
68.35000 578.659
68.36000 585.032
68.37000 593.005
68.38000 600.221
68.39000 603.696
68.40000 606.664
68.41000 608.982
68.42000 619.407
68.43000 628.237
68.44000 635.819
68.45000 640.577
68.46000 645.227
68.47000 651.669
68.48000 660.869
68.49000 670.100
68.50000 674.750
68.51000 695.204
68.52000 708.828
68.53000 717.681
68.54000 723.352
68.55000 729.238
68.56000 741.116
68.57000 755.711
68.58000 769.506
68.59000 793.682
68.60000 818.840
68.61000 842.833
68.62000 857.966
68.63000 871.257
68.64000 889.571
68.65000 932.283
68.66000 978.235
68.67000 1013.986
68.68000 1062.254
68.69000 1101.445
68.70000 1146.969
68.71000 1206.571
68.72000 1266.689
68.73000 1321.156
68.74000 1367.081
68.75000 1412.918
68.76000 1447.865
68.77000 1471.977
68.78000 1496.144
68.79000 1525.455
68.80000 1558.138
68.81000 1591.968
68.82000 1656.454
68.83000 1734.609
68.84000 1808.344
68.85000 1893.775
68.86000 1975.346
68.87000 2063.412
68.88000 2199.849
68.89000 2346.148
68.90000 2518.516
68.91000 2815.129
68.92000 3127.881
68.93000 3370.156
68.94000 4466.429
68.95000 5387.927
68.96000 6711.361
68.97000 8913.159
68.98000 11145.827
68.99000 13898.728
69.00000 17424.047
69.01000 20956.504
69.02000 24529.025
69.03000 28140.396
69.04000 31744.158
69.05000 34687.789
69.06000 37206.391
69.07000 39694.336
69.08000 41395.605
69.09000 42752.086
69.10000 44029.535
69.11000 44741.070
69.12000 45237.063
69.13000 45771.488
69.14000 46585.992
69.15000 47456.520
69.16000 48292.383
69.17000 48966.098
69.18000 49619.215
69.19000 50122.934
69.20000 49601.012
69.21000 49128.266
69.22000 48026.906
69.23000 45575.172
69.24000 43077.961
69.25000 40394.105
69.26000 37438.074
69.27000 34479.918
69.28000 31923.945
69.29000 29752.805
69.30000 27589.814
69.31000 26080.971
69.32000 24985.883
69.33000 23911.115
69.34000 23337.617
69.35000 22980.090
69.36000 22644.014
69.37000 22232.754
69.38000 21837.088
69.39000 21354.316
69.40000 20250.318
69.41000 19024.404
69.42000 17678.756
69.43000 15783.403
69.44000 13819.767
69.45000 12312.017
69.46000 10162.143
69.47000 8426.748
69.48000 6870.502
69.49000 5692.554
69.50000 4526.799
69.51000 3601.285
69.52000 3019.832
69.53000 2441.119
69.54000 2044.355
69.55000 1818.188
69.56000 1593.102
69.57000 1448.692
69.58000 1354.413
69.59000 1260.815
69.60000 1183.405
69.61000 1112.851
69.62000 1046.654
69.63000 1003.575
69.64000 970.407
69.65000 938.642
69.66000 916.671
69.67000 896.586
69.68000 873.137
69.69000 834.533
69.70000 794.088
69.71000 763.172
69.72000 746.697
69.73000 734.487
69.74000 724.382
69.75000 718.646
69.76000 713.045
69.77000 702.272
69.78000 684.227
69.79000 666.135
69.80000 650.546
69.81000 637.265
69.82000 623.980
69.83000 610.454
69.84000 596.780
69.85000 583.496
69.86000 579.120
69.87000 578.453
69.88000 577.828
69.89000 575.126
69.90000 572.133
69.91000 569.246
69.92000 567.081
69.93000 565.052
69.94000 562.534
69.95000 557.854
69.96000 552.917
69.97000 549.161
69.98000 541.903
69.99000 536.009
70.00000 532.396
