20.00000 489.484
20.01000 482.555
20.02000 474.636
20.03000 467.098
20.04000 461.058
20.05000 455.172
20.06000 450.825
20.07000 474.093
20.08000 493.297
20.09000 503.591
20.10000 497.586
20.11000 491.233
20.12000 484.160
20.13000 476.201
20.14000 468.254
20.15000 466.386
20.16000 469.361
20.17000 472.326
20.18000 474.791
20.19000 476.988
20.20000 478.906
20.21000 475.892
20.22000 471.065
20.23000 466.612
20.24000 464.894
20.25000 463.965
20.26000 463.718
20.27000 467.480
20.28000 471.896
20.29000 476.868
20.30000 483.993
20.31000 491.333
20.32000 496.726
20.33000 488.336
20.34000 481.286
20.35000 478.788
20.36000 484.474
20.37000 490.326
20.38000 488.752
20.39000 478.227
20.40000 467.705
20.41000 460.145
20.42000 454.935
20.43000 449.865
20.44000 450.675
20.45000 454.591
20.46000 458.474
20.47000 461.805
20.48000 464.935
20.49000 467.817
20.50000 463.385
20.51000 457.822
20.52000 453.868
20.53000 459.189
20.54000 465.995
20.55000 471.801
20.56000 473.803
20.57000 475.435
20.58000 476.628
20.59000 471.719
20.60000 467.692
20.61000 465.297
20.62000 465.784
20.63000 466.326
20.64000 468.020
20.65000 471.075
20.66000 474.126
20.67000 473.455
20.68000 469.939
20.69000 466.390
20.70000 461.483
20.71000 455.872
20.72000 450.671
20.73000 452.286
20.74000 456.319
20.75000 460.024
20.76000 463.694
20.77000 466.962
20.78000 470.431
20.79000 475.027
20.80000 479.799
20.81000 483.047
20.82000 480.597
20.83000 477.606
20.84000 475.430
20.85000 474.506
20.86000 473.842
20.87000 472.375
20.88000 469.512
20.89000 466.624
20.90000 464.250
20.91000 462.473
20.92000 460.702
20.93000 457.329
20.94000 452.777
20.95000 448.281
20.96000 445.916
20.97000 444.638
20.98000 443.950
20.99000 452.751
21.00000 464.861
21.01000 475.962
21.02000 477.042
21.03000 475.900
21.04000 475.044
21.05000 475.776
21.06000 476.752
21.07000 477.166
21.08000 475.518
21.09000 473.679
21.10000 472.348
21.11000 464.019
21.12000 457.370
21.13000 454.996
21.14000 459.917
21.15000 464.960
21.16000 467.835
21.17000 468.243
21.18000 468.648
21.19000 464.926
21.20000 458.195
21.21000 451.703
21.22000 453.864
21.23000 460.362
21.24000 466.936
21.25000 474.693
21.26000 482.855
21.27000 490.319
21.28000 483.110
21.29000 473.682
21.30000 465.582
21.31000 464.694
21.32000 464.891
21.33000 463.668
21.34000 457.329
21.35000 450.529
21.36000 445.634
21.37000 458.337
21.38000 468.683
21.39000 473.685
21.40000 469.729
21.41000 465.632
21.42000 464.341
21.43000 466.183
21.44000 468.020
21.45000 467.171
21.46000 464.389
21.47000 461.726
21.48000 463.172
21.49000 466.643
21.50000 469.894
21.51000 469.810
21.52000 468.601
21.53000 467.499
21.54000 465.011
21.55000 462.526
21.56000 460.209
21.57000 458.786
21.58000 457.495
21.59000 458.031
21.60000 465.038
21.61000 472.614
21.62000 478.038
21.63000 468.300
21.64000 460.349
21.65000 461.241
21.66000 476.697
21.67000 492.369
21.68000 498.824
21.69000 495.190
21.70000 491.564
21.71000 492.453
21.72000 496.530
21.73000 500.574
21.74000 503.531
21.75000 505.960
21.76000 507.991
21.77000 504.185
21.78000 498.446
21.79000 493.222
21.80000 498.316
21.81000 504.864
21.82000 511.628
21.83000 519.522
21.84000 527.579
21.85000 534.404
21.86000 536.940
21.87000 539.108
21.88000 540.653
21.89000 561.551
21.90000 578.105
21.91000 591.075
21.92000 598.248
21.93000 605.341
21.94000 608.074
21.95000 606.124
21.96000 604.181
21.97000 608.682
21.98000 617.614
21.99000 626.346
22.00000 628.803
22.01000 628.272
22.02000 627.436
22.03000 622.260
22.04000 615.670
22.05000 609.686
22.06000 613.384
22.07000 618.525
22.08000 622.210
22.09000 618.433
22.10000 613.604
22.11000 607.518
22.12000 597.137
22.13000 586.398
22.14000 578.791
22.15000 592.922
22.16000 604.343
22.17000 605.881
22.18000 591.708
22.19000 577.335
22.20000 567.493
22.21000 562.419
22.22000 557.371
22.23000 558.136
22.24000 562.853
22.25000 567.122
22.26000 557.881
22.27000 542.317
22.28000 527.206
22.29000 518.369
22.30000 511.539
22.31000 505.351
22.32000 505.100
22.33000 506.003
22.34000 506.181
22.35000 502.709
22.36000 498.732
22.37000 493.870
22.38000 486.030
22.39000 477.948
22.40000 472.255
22.41000 466.762
22.42000 462.602
22.43000 461.757
22.44000 466.087
22.45000 470.478
22.46000 468.730
22.47000 460.645
22.48000 452.604
22.49000 454.872
22.50000 464.007
22.51000 472.924
22.52000 475.561
22.53000 475.309
22.54000 474.991
22.55000 473.790
22.56000 472.313
22.57000 470.977
22.58000 458.265
22.59000 444.970
22.60000 435.145
22.61000 442.436
22.62000 452.040
22.63000 458.809
22.64000 456.215
22.65000 452.882
22.66000 450.547
22.67000 437.169
22.68000 426.732
22.69000 423.908
22.70000 432.763
22.71000 441.746
22.72000 444.303
22.73000 440.361
22.74000 436.442
22.75000 434.401
22.76000 433.619
22.77000 432.852
22.78000 432.479
22.79000 432.285
22.80000 432.625
22.81000 439.959
22.82000 449.454
22.83000 458.014
22.84000 452.512
22.85000 445.126
22.86000 438.951
22.87000 438.640
22.88000 439.104
22.89000 440.573
22.90000 445.304
22.91000 450.285
22.92000 453.755
22.93000 449.060
22.94000 445.294
22.95000 443.161
22.96000 443.488
22.97000 443.841
22.98000 440.975
22.99000 434.920
23.00000 428.904
23.01000 424.867
23.02000 422.164
23.03000 419.483
23.04000 417.395
23.05000 415.571
23.06000 414.162
23.07000 418.028
23.08000 423.496
23.09000 428.413
23.10000 430.564
23.11000 431.955
23.12000 432.805
23.13000 431.084
23.14000 429.029
23.15000 428.036
23.16000 430.426
23.17000 433.069
23.18000 434.899
23.19000 428.441
23.20000 423.363
23.21000 422.981
23.22000 429.550
23.23000 436.182
23.24000 443.231
23.25000 450.683
23.26000 458.082
23.27000 452.915
23.28000 439.891
23.29000 427.073
23.30000 419.497
23.31000 414.212
23.32000 410.015
23.33000 419.280
23.34000 432.562
23.35000 444.476
23.36000 444.590
23.37000 442.634
23.38000 439.834
23.39000 433.102
23.40000 425.873
23.41000 420.814
23.42000 422.558
23.43000 424.794
23.44000 426.335
23.45000 431.027
23.46000 434.629
23.47000 436.970
23.48000 437.478
23.49000 437.970
23.50000 437.451
23.51000 435.968
23.52000 434.498
23.53000 435.886
23.54000 439.024
23.55000 442.034
23.56000 441.905
23.57000 440.428
23.58000 439.175
23.59000 440.628
23.60000 442.874
23.61000 444.884
23.62000 445.701
23.63000 446.210
23.64000 446.451
23.65000 445.464
23.66000 444.324
23.67000 443.740
23.68000 444.870
23.69000 446.120
23.70000 446.977
23.71000 443.667
23.72000 441.089
23.73000 436.591
23.74000 429.351
23.75000 422.092
23.76000 418.860
23.77000 419.390
23.78000 419.915
23.79000 427.383
23.80000 438.935
23.81000 450.089
23.82000 451.816
23.83000 449.563
23.84000 447.315
23.85000 445.125
23.86000 442.952
23.87000 441.013
23.88000 441.384
23.89000 442.092
23.90000 443.044
23.91000 445.087
23.92000 447.263
23.93000 446.578
23.94000 437.236
23.95000 427.301
23.96000 420.537
23.97000 434.191
23.98000 444.856
23.99000 451.450
24.00000 452.335
24.01000 453.182
24.02000 456.683
24.03000 462.614
24.04000 468.492
24.05000 466.221
24.06000 459.131
24.07000 452.338
24.08000 452.308
24.09000 455.084
24.10000 457.091
24.11000 450.294
24.12000 441.006
24.13000 432.740
24.14000 435.898
24.15000 440.507
24.16000 443.918
24.17000 442.036
24.18000 439.529
24.19000 437.081
24.20000 434.808
24.21000 432.547
24.22000 431.017
24.23000 428.058
24.24000 425.822
24.25000 427.446
24.26000 434.385
24.27000 441.351
24.28000 441.835
24.29000 436.496
24.30000 431.209
24.31000 424.845
24.32000 417.983
24.33000 411.192
24.34000 405.991
24.35000 401.439
24.36000 397.857
24.37000 405.080
24.38000 415.307
24.39000 424.385
24.40000 420.606
24.41000 415.274
24.42000 412.375
24.43000 420.006
24.44000 428.855
24.45000 433.502
24.46000 425.865
24.47000 417.438
24.48000 411.768
24.49000 417.934
24.50000 422.761
24.51000 426.402
24.52000 428.439
24.53000 430.459
24.54000 425.226
24.55000 413.602
24.56000 402.099
24.57000 404.794
24.58000 415.589
24.59000 425.835
24.60000 424.501
24.61000 418.522
24.62000 413.168
24.63000 414.606
24.64000 417.900
24.65000 420.815
24.66000 419.820
24.67000 418.348
24.68000 415.658
24.69000 407.795
24.70000 399.347
24.71000 394.426
24.72000 399.639
24.73000 405.486
24.74000 409.395
24.75000 409.400
24.76000 409.328
24.77000 409.754
24.78000 410.841
24.79000 411.931
24.80000 412.692
24.81000 413.169
24.82000 413.641
24.83000 407.285
24.84000 397.227
24.85000 387.759
24.86000 390.303
24.87000 397.583
24.88000 404.174
24.89000 403.476
24.90000 400.821
24.91000 398.477
24.92000 395.964
24.93000 393.769
24.94000 392.956
24.95000 397.908
24.96000 403.497
24.97000 407.481
24.98000 406.932
24.99000 406.109
25.00000 405.562
25.01000 403.626
25.02000 402.168
25.03000 402.900
25.04000 406.485
25.05000 410.075
25.06000 409.414
25.07000 405.151
25.08000 400.938
25.09000 402.607
25.10000 407.491
25.11000 412.109
25.12000 411.493
25.13000 408.848
25.14000 406.301
25.15000 404.766
25.16000 403.499
25.17000 402.383
25.18000 402.475
25.19000 402.736
25.20000 403.144
25.21000 404.156
25.22000 405.233
25.23000 405.960
25.24000 405.717
25.25000 405.416
25.26000 405.218
25.27000 404.201
25.28000 403.436
25.29000 402.028
25.30000 399.799
25.31000 397.574
25.32000 398.826
25.33000 402.970
25.34000 407.062
25.35000 402.167
25.36000 392.519
25.37000 383.154
25.38000 379.168
25.39000 377.233
25.40000 376.270
25.41000 385.092
25.42000 396.448
25.43000 406.417
25.44000 404.803
25.45000 401.719
25.46000 398.983
25.47000 397.649
25.48000 396.462
25.49000 395.500
25.50000 395.149
25.51000 394.833
25.52000 394.625
25.53000 395.157
25.54000 395.561
25.55000 398.594
25.56000 404.926
25.57000 411.256
25.58000 412.292
25.59000 409.009
25.60000 405.770
25.61000 400.124
25.62000 393.351
25.63000 387.186
25.64000 392.215
25.65000 401.436
25.66000 409.355
25.67000 404.484
25.68000 396.361
25.69000 389.250
25.70000 386.431
25.71000 384.630
25.72000 384.474
25.73000 390.821
25.74000 397.836
25.75000 402.506
25.76000 400.888
25.77000 398.925
25.78000 397.645
25.79000 396.380
25.80000 395.453
25.81000 393.344
25.82000 389.778
25.83000 386.235
25.84000 391.601
25.85000 404.104
25.86000 416.428
25.87000 416.356
25.88000 409.802
25.89000 403.312
25.90000 397.944
25.91000 392.990
25.92000 388.410
25.93000 387.412
25.94000 387.308
25.95000 387.218
25.96000 384.071
25.97000 380.949
25.98000 378.069
25.99000 376.127
26.00000 374.278
26.01000 374.535
26.02000 380.345
26.03000 386.451
26.04000 390.406
26.05000 384.020
26.06000 379.194
26.07000 377.598
26.08000 379.908
26.09000 382.227
26.10000 384.629
26.11000 387.095
26.12000 389.524
26.13000 391.103
26.14000 392.197
26.15000 392.894
26.16000 386.730
26.17000 378.083
26.18000 370.823
26.19000 376.526
26.20000 385.408
26.21000 393.138
26.22000 390.206
26.23000 386.242
26.24000 383.000
26.25000 382.514
26.26000 382.297
26.27000 382.520
26.28000 383.885
26.29000 385.309
26.30000 386.225
26.31000 387.864
26.32000 389.071
26.33000 388.406
26.34000 385.522
26.35000 382.643
26.36000 382.125
26.37000 383.429
26.38000 384.712
26.39000 383.053
26.40000 379.964
26.41000 377.049
26.42000 377.030
26.43000 378.042
26.44000 379.145
26.45000 381.085
26.46000 383.227
26.47000 385.085
26.48000 384.954
26.49000 384.576
26.50000 384.149
26.51000 383.536
26.52000 382.905
26.53000 383.656
26.54000 387.929
26.55000 392.376
26.56000 395.219
26.57000 395.847
26.58000 396.275
26.59000 393.205
26.60000 386.065
26.61000 378.936
26.62000 375.246
26.63000 374.161
26.64000 373.095
26.65000 374.216
26.66000 376.381
26.67000 378.718
26.68000 383.844
26.69000 389.944
26.70000 394.385
26.71000 384.027
26.72000 370.167
26.73000 358.178
26.74000 360.667
26.75000 364.679
26.76000 367.403
26.77000 365.389
26.78000 362.937
26.79000 363.421
26.80000 371.266
26.81000 379.462
26.82000 384.667
26.83000 374.636
26.84000 367.166
26.85000 365.461
26.86000 370.335
26.87000 375.223
26.88000 381.197
26.89000 387.978
26.90000 394.637
26.91000 387.374
26.92000 373.607
26.93000 360.702
26.94000 361.279
26.95000 366.492
26.96000 371.150
26.97000 370.979
26.98000 369.687
26.99000 368.573
27.00000 370.456
27.01000 372.437
27.02000 373.360
27.03000 370.457
27.04000 367.207
27.05000 366.257
27.06000 370.971
27.07000 375.946
27.08000 379.083
27.09000 375.993
27.10000 373.683
27.11000 369.463
27.12000 363.103
27.13000 356.785
27.14000 357.732
27.15000 363.984
27.16000 370.118
27.17000 377.153
27.18000 384.362
27.19000 391.000
27.20000 388.947
27.21000 383.958
27.22000 379.526
27.23000 379.838
27.24000 381.231
27.25000 382.429
27.26000 369.705
27.27000 357.195
27.28000 349.389
27.29000 358.287
27.30000 368.658
27.31000 374.248
27.32000 368.264
27.33000 361.766
27.34000 357.695
27.35000 369.559
27.36000 378.296
27.37000 384.375
27.38000 387.533
27.39000 390.653
27.40000 388.253
27.41000 381.896
27.42000 375.666
27.43000 370.100
27.44000 365.055
27.45000 360.670
27.46000 366.015
27.47000 374.590
27.48000 381.865
27.49000 378.323
27.50000 372.360
27.51000 367.249
27.52000 377.239
27.53000 387.520
27.54000 394.709
27.55000 391.113
27.56000 386.590
27.57000 385.004
27.58000 390.406
27.59000 396.108
27.60000 399.654
27.61000 372.602
27.62000 352.815
27.63000 347.901
27.64000 359.002
27.65000 370.052
27.66000 373.409
27.67000 371.352
27.68000 369.337
27.69000 371.242
27.70000 374.869
27.71000 378.408
27.72000 380.703
27.73000 382.590
27.74000 384.458
27.75000 386.165
27.76000 387.836
27.77000 389.264
27.78000 386.476
27.79000 383.623
27.80000 380.852
27.81000 378.363
27.82000 375.898
27.83000 372.502
27.84000 366.927
27.85000 361.263
27.86000 357.765
27.87000 363.203
27.88000 367.192
27.89000 369.317
27.90000 369.476
27.91000 369.650
27.92000 371.684
27.93000 375.006
27.94000 378.254
27.95000 374.100
27.96000 366.783
27.97000 360.277
27.98000 365.053
27.99000 373.448
28.00000 380.295
28.01000 374.833
28.02000 366.717
28.03000 359.804
28.04000 367.765
28.05000 376.192
28.06000 381.190
28.07000 374.637
28.08000 367.144
28.09000 362.921
28.10000 366.218
28.11000 369.813
28.12000 372.017
28.13000 376.479
28.14000 379.694
28.15000 379.078
28.16000 374.498
28.17000 369.937
28.18000 367.480
28.19000 366.452
28.20000 365.447
28.21000 365.744
28.22000 366.603
28.23000 367.505
28.24000 368.990
28.25000 370.659
28.26000 372.082
28.27000 371.595
28.28000 370.703
28.29000 369.947
28.30000 363.075
28.31000 356.614
28.32000 353.199
28.33000 359.864
28.34000 367.327
28.35000 371.260
28.36000 367.211
28.37000 362.858
28.38000 360.209
28.39000 354.131
28.40000 349.763
28.41000 353.638
28.42000 365.878
28.43000 378.011
28.44000 379.330
28.45000 373.435
28.46000 367.683
28.47000 368.162
28.48000 371.320
28.49000 373.848
28.50000 368.096
28.51000 359.778
28.52000 352.747
28.53000 355.498
28.54000 360.281
28.55000 364.328
28.56000 364.965
28.57000 365.119
28.58000 366.101
28.59000 369.776
28.60000 373.658
28.61000 376.834
28.62000 378.437
28.63000 379.983
28.64000 380.917
28.65000 372.179
28.66000 365.884
28.67000 359.313
28.68000 352.466
28.69000 345.697
28.70000 346.208
28.71000 351.489
28.72000 356.637
28.73000 357.959
28.74000 357.592
28.75000 356.941
28.76000 352.657
28.77000 347.266
28.78000 342.566
28.79000 343.002
28.80000 344.485
28.81000 345.735
28.82000 349.768
28.83000 353.439
28.84000 356.296
28.85000 356.555
28.86000 356.618
28.87000 356.470
28.88000 355.861
28.89000 355.235
28.90000 354.860
28.91000 351.393
28.92000 348.910
28.93000 348.188
28.94000 349.181
28.95000 350.183
28.96000 351.929
28.97000 354.154
28.98000 356.319
28.99000 363.833
29.00000 373.224
29.01000 381.225
29.02000 371.944
29.03000 357.494
29.04000 344.691
29.05000 343.883
29.06000 345.473
29.07000 346.810
29.08000 351.275
29.09000 355.327
29.10000 358.046
29.11000 356.574
29.12000 354.798
29.13000 354.313
29.14000 356.601
29.15000 358.982
29.16000 360.399
29.17000 359.279
29.18000 358.471
29.19000 362.144
29.20000 370.099
29.21000 377.905
29.22000 373.706
29.23000 361.919
29.24000 350.456
29.25000 352.109
29.26000 359.055
29.27000 365.225
29.28000 362.001
29.29000 356.017
29.30000 350.647
29.31000 349.654
29.32000 349.519
29.33000 349.407
29.34000 348.195
29.35000 347.074
29.36000 345.826
29.37000 344.190
29.38000 342.527
29.39000 343.441
29.40000 349.799
29.41000 356.332
29.42000 360.190
29.43000 355.696
29.44000 352.477
29.45000 351.223
29.46000 351.810
29.47000 352.384
29.48000 352.095
29.49000 351.267
29.50000 350.464
29.51000 352.745
29.52000 356.151
29.53000 358.895
29.54000 353.841
29.55000 346.535
29.56000 341.124
29.57000 348.932
29.58000 359.284
29.59000 367.925
29.60000 364.962
29.61000 361.336
29.62000 359.099
29.63000 361.074
29.64000 363.339
29.65000 364.212
29.66000 362.200
29.67000 360.098
29.68000 358.867
29.69000 364.962
29.70000 369.293
29.71000 376.629
29.72000 386.724
29.73000 396.687
29.74000 397.534
29.75000 392.816
29.76000 388.240
29.77000 389.531
29.78000 393.070
29.79000 396.326
29.80000 396.346
29.81000 395.448
29.82000 394.976
29.83000 397.422
29.84000 400.417
29.85000 402.909
29.86000 410.767
29.87000 417.797
29.88000 422.827
29.89000 421.888
29.90000 420.552
29.91000 419.188
29.92000 417.768
29.93000 416.346
29.94000 415.520
29.95000 409.261
29.96000 404.846
29.97000 407.183
29.98000 415.600
29.99000 423.927
30.00000 426.380
30.01000 425.312
30.02000 424.277
30.03000 420.573
30.04000 416.035
30.05000 411.944
30.06000 412.850
30.07000 415.148
30.08000 417.228
30.09000 417.846
30.10000 418.193
30.11000 418.480
30.12000 416.468
30.13000 414.586
30.14000 412.290
30.15000 408.781
30.16000 405.195
30.17000 403.823
30.18000 406.892
30.19000 410.086
30.20000 411.928
30.21000 406.333
30.22000 402.388
30.23000 399.859
30.24000 398.581
30.25000 397.304
30.26000 396.025
30.27000 394.746
30.28000 393.509
30.29000 394.636
30.30000 396.599
30.31000 397.783
30.32000 390.484
30.33000 380.862
30.34000 372.157
30.35000 369.453
30.36000 367.839
30.37000 366.505
30.38000 372.951
30.39000 378.990
30.40000 382.454
30.41000 378.502
30.42000 374.084
30.43000 373.987
30.44000 382.402
30.45000 391.045
30.46000 395.989
30.47000 390.300
30.48000 386.293
30.49000 384.134
30.50000 383.577
30.51000 383.050
30.52000 384.195
30.53000 386.309
30.54000 388.351
30.55000 384.928
30.56000 379.663
30.57000 375.178
30.58000 378.983
30.59000 385.018
30.60000 389.599
30.61000 384.849
30.62000 378.439
30.63000 373.163
30.64000 374.534
30.65000 376.267
30.66000 378.711
30.67000 383.173
30.68000 387.758
30.69000 389.478
30.70000 385.651
30.71000 381.684
30.72000 379.432
30.73000 387.059
30.74000 392.393
30.75000 393.617
30.76000 391.349
30.77000 389.083
30.78000 386.990
30.79000 384.995
30.80000 383.070
30.81000 391.649
30.82000 403.566
30.83000 414.150
30.84000 410.934
30.85000 404.070
30.86000 399.578
30.87000 409.991
30.88000 423.006
30.89000 433.677
30.90000 445.439
30.91000 455.185
30.92000 463.107
30.93000 465.952
30.94000 468.498
30.95000 476.449
30.96000 494.691
30.97000 513.181
30.98000 523.587
30.99000 559.707
31.00000 584.848
31.01000 609.909
31.02000 634.901
31.03000 660.109
31.04000 696.186
31.05000 738.339
31.06000 778.953
31.07000 820.473
31.08000 859.808
31.09000 900.030
31.10000 949.218
31.11000 1000.734
31.12000 1054.615
31.13000 1123.063
31.14000 1194.003
31.15000 1251.953
31.16000 1341.566
31.17000 1417.648
31.18000 1492.340
31.19000 1563.229
31.20000 1633.902
31.21000 1714.848
31.22000 1815.015
31.23000 1915.621
31.24000 1971.764
31.25000 2080.932
31.26000 2156.583
31.27000 2221.977
31.28000 2278.973
31.29000 2335.901
31.30000 2389.596
31.31000 2441.514
31.32000 2491.466
31.33000 2516.377
31.34000 2530.919
31.35000 2543.493
31.36000 2536.679
31.37000 2524.922
31.38000 2510.363
31.39000 2478.892
31.40000 2444.585
31.41000 2416.666
31.42000 2344.031
31.43000 2280.954
31.44000 2215.526
31.45000 2143.772
31.46000 2071.670
31.47000 1999.697
31.48000 1927.963
31.49000 1856.233
31.50000 1816.546
31.51000 1705.505
31.52000 1628.702
31.53000 1536.697
31.54000 1432.480
31.55000 1328.837
31.56000 1251.010
31.57000 1187.124
31.58000 1125.746
31.59000 1065.635
31.60000 1009.803
31.61000 952.661
31.62000 882.919
31.63000 810.023
31.64000 742.961
31.65000 710.417
31.66000 683.545
31.67000 661.758
31.68000 635.963
31.69000 614.616
31.70000 591.871
31.71000 565.426
31.72000 538.784
31.73000 513.852
31.74000 492.010
31.75000 470.231
31.76000 458.285
31.77000 449.529
31.78000 443.495
31.79000 433.136
31.80000 419.368
31.81000 405.787
31.82000 400.207
31.83000 398.873
31.84000 397.594
31.85000 393.655
31.86000 389.073
31.87000 384.829
31.88000 383.757
31.89000 383.465
31.90000 382.284
31.91000 375.943
31.92000 368.772
31.93000 362.980
31.94000 360.547
31.95000 358.836
31.96000 356.509
31.97000 352.579
31.98000 348.567
31.99000 345.864
32.00000 345.487
32.01000 345.155
32.02000 344.975
32.03000 344.730
32.04000 344.552
32.05000 341.715
32.06000 336.821
32.07000 332.055
32.08000 332.515
32.09000 335.700
32.10000 338.751
32.11000 343.187
32.12000 347.786
32.13000 352.118
32.14000 354.013
32.15000 355.319
32.16000 355.611
32.17000 350.139
32.18000 343.759
32.19000 338.626
32.20000 334.176
32.21000 330.619
32.22000 329.889
32.23000 336.379
32.24000 343.229
32.25000 345.815
32.26000 340.963
32.27000 335.975
32.28000 333.287
32.29000 332.882
32.30000 332.616
32.31000 334.322
32.32000 337.526
32.33000 340.526
32.34000 335.676
32.35000 326.801
32.36000 318.314
32.37000 316.550
32.38000 317.101
32.39000 318.186
32.40000 324.042
32.41000 331.029
32.42000 337.064
32.43000 337.796
32.44000 337.708
32.45000 337.638
32.46000 329.085
32.47000 321.524
32.48000 316.985
32.49000 320.034
32.50000 323.448
32.51000 324.172
32.52000 320.283
32.53000 316.315
32.54000 314.196
32.55000 320.869
32.56000 325.400
32.57000 325.103
32.58000 321.207
32.59000 317.462
32.60000 319.243
32.61000 323.810
32.62000 328.170
32.63000 329.326
32.64000 329.375
32.65000 329.366
32.66000 328.858
32.67000 328.235
32.68000 327.880
32.69000 328.995
32.70000 330.332
32.71000 331.400
32.72000 329.873
32.73000 328.451
32.74000 325.810
32.75000 320.161
32.76000 314.373
32.77000 312.299
32.78000 316.482
32.79000 320.767
32.80000 323.033
32.81000 324.030
32.82000 324.683
32.83000 321.353
32.84000 315.107
32.85000 309.019
32.86000 308.448
32.87000 310.610
32.88000 312.671
32.89000 317.384
32.90000 322.588
32.91000 327.196
32.92000 326.711
32.93000 325.060
32.94000 323.652
32.95000 323.538
32.96000 323.615
32.97000 323.676
32.98000 322.632
32.99000 321.712
33.00000 320.427
33.01000 318.257
33.02000 316.047
33.03000 315.195
33.04000 316.593
33.05000 318.025
33.06000 318.776
33.07000 312.107
33.08000 307.603
33.09000 305.532
33.10000 305.209
33.11000 304.896
33.12000 304.903
33.13000 305.065
33.14000 305.220
33.15000 301.550
33.16000 296.974
33.17000 293.055
33.18000 294.624
33.19000 297.425
33.20000 299.720
33.21000 299.362
33.22000 298.619
33.23000 298.030
33.24000 296.391
33.25000 295.000
33.26000 296.206
33.27000 303.604
33.28000 311.269
33.29000 314.091
33.30000 309.037
33.31000 303.873
33.32000 301.191
33.33000 297.238
33.34000 294.585
33.35000 294.218
33.36000 295.464
33.37000 296.834
33.38000 302.144
33.39000 309.339
33.40000 316.176
33.41000 313.737
33.42000 308.679
33.43000 303.980
33.44000 302.216
33.45000 301.098
33.46000 301.010
33.47000 306.233
33.48000 312.209
33.49000 316.921
33.50000 300.255
33.51000 285.453
33.52000 275.867
33.53000 278.516
33.54000 281.671
33.55000 286.349
33.56000 293.460
33.57000 300.602
33.58000 304.275
33.59000 300.788
33.60000 298.475
33.61000 300.357
33.62000 305.148
33.63000 309.726
33.64000 307.815
33.65000 302.852
33.66000 298.145
33.67000 295.280
33.68000 293.184
33.69000 291.436
33.70000 292.455
33.71000 294.074
33.72000 295.553
33.73000 296.327
33.74000 297.003
33.75000 297.534
33.76000 291.764
33.77000 286.736
33.78000 284.776
33.79000 289.888
33.80000 295.283
33.81000 299.856
33.82000 303.138
33.83000 306.405
33.84000 308.069
33.85000 310.210
33.86000 311.632
33.87000 311.452
33.88000 310.181
33.89000 308.887
33.90000 306.929
33.91000 304.664
33.92000 302.520
33.93000 304.150
33.94000 306.748
33.95000 309.207
33.96000 310.580
33.97000 311.722
33.98000 311.320
33.99000 303.255
34.00000 294.149
34.01000 287.029
34.02000 300.829
34.03000 313.171
34.04000 320.209
34.05000 315.225
34.06000 309.780
34.07000 306.293
34.08000 305.824
34.09000 305.390
34.10000 305.170
34.11000 309.491
34.12000 312.375
34.13000 314.641
34.14000 316.494
34.15000 318.384
34.16000 321.289
34.17000 324.654
34.18000 327.836
34.19000 325.128
34.20000 320.960
34.21000 317.548
34.22000 319.904
34.23000 323.461
34.24000 326.037
34.25000 323.832
34.26000 320.991
34.27000 318.780
34.28000 321.690
34.29000 324.322
34.30000 327.630
34.31000 332.443
34.32000 337.311
34.33000 338.122
34.34000 332.790
34.35000 327.393
34.36000 324.218
34.37000 323.257
34.38000 322.325
34.39000 324.210
34.40000 327.947
34.41000 331.420
34.42000 327.848
34.43000 321.127
34.44000 314.785
34.45000 311.741
34.46000 309.873
34.47000 308.828
34.48000 313.934
34.49000 320.297
34.50000 325.381
34.51000 324.352
34.52000 322.528
34.53000 321.115
34.54000 320.150
34.55000 319.411
34.56000 317.553
34.57000 313.246
34.58000 308.852
34.59000 305.357
34.60000 303.200
34.61000 301.056
34.62000 299.870
34.63000 299.622
34.64000 299.395
34.65000 301.108
34.66000 304.072
34.67000 306.935
34.68000 307.202
34.69000 306.328
34.70000 305.505
34.71000 304.014
34.72000 302.467
34.73000 300.913
34.74000 299.312
34.75000 297.702
34.76000 295.910
34.77000 293.265
34.78000 290.512
34.79000 288.387
34.80000 294.814
34.81000 300.403
34.82000 300.803
34.83000 290.035
34.84000 278.888
34.85000 274.132
34.86000 278.714
34.87000 283.377
34.88000 286.783
34.89000 288.983
34.90000 291.136
34.91000 289.401
34.92000 285.202
34.93000 281.173
34.94000 281.370
34.95000 283.390
34.96000 285.290
34.97000 283.167
34.98000 280.144
34.99000 277.198
35.00000 274.794
35.01000 272.497
35.02000 269.968
35.03000 266.372
35.04000 262.643
35.05000 259.779
35.06000 264.409
35.07000 268.491
35.08000 272.711
35.09000 277.221
35.10000 281.741
35.11000 283.221
35.12000 280.339
35.13000 277.423
35.14000 278.514
35.15000 283.368
35.16000 288.160
35.17000 288.343
35.18000 285.655
35.19000 282.896
35.20000 278.447
35.21000 273.281
35.22000 268.432
35.23000 268.493
35.24000 269.845
35.25000 270.597
35.26000 267.148
35.27000 262.889
35.28000 259.667
35.29000 261.132
35.30000 263.168
35.31000 264.726
35.32000 275.496
35.33000 284.494
35.34000 288.082
35.35000 280.414
35.36000 272.398
35.37000 266.818
35.38000 264.672
35.39000 262.551
35.40000 262.111
35.41000 263.219
35.42000 264.283
35.43000 262.259
35.44000 258.345
35.45000 254.657
35.46000 256.156
35.47000 259.819
35.48000 263.250
35.49000 265.081
35.50000 266.333
35.51000 267.459
35.52000 267.719
35.53000 267.815
35.54000 267.629
35.55000 266.189
35.56000 264.599
35.57000 263.389
35.58000 264.505
35.59000 265.506
35.60000 266.262
35.61000 266.516
35.62000 266.756
35.63000 267.982
35.64000 270.575
35.65000 273.175
35.66000 272.814
35.67000 269.779
35.68000 266.779
35.69000 266.047
35.70000 266.678
35.71000 267.174
35.72000 264.690
35.73000 260.985
35.74000 257.521
35.75000 261.116
35.76000 266.171
35.77000 270.211
35.78000 267.440
35.79000 263.406
35.80000 260.533
35.81000 262.715
35.82000 265.485
35.83000 267.585
35.84000 263.394
35.85000 259.783
35.86000 257.570
35.87000 258.165
35.88000 258.840
35.89000 260.155
35.90000 262.341
35.91000 264.531
35.92000 267.486
35.93000 271.115
35.94000 274.593
35.95000 268.914
35.96000 257.825
35.97000 247.333
35.98000 249.556
35.99000 256.906
36.00000 263.764
36.01000 263.880
36.02000 262.309
36.03000 260.744
36.04000 259.226
36.05000 257.716
36.06000 257.069
36.07000 260.109
36.08000 263.568
36.09000 266.177
36.10000 260.206
36.11000 255.106
36.12000 253.561
36.13000 259.043
36.14000 264.713
36.15000 265.485
36.16000 259.718
36.17000 253.923
36.18000 253.279
36.19000 257.104
36.20000 260.917
36.21000 264.111
36.22000 266.946
36.23000 269.618
36.24000 268.961
36.25000 266.984
36.26000 265.143
36.27000 267.659
36.28000 270.997
36.29000 273.853
36.30000 273.602
36.31000 272.797
36.32000 270.541
36.33000 262.196
36.34000 253.175
36.35000 246.402
36.36000 247.876
36.37000 249.422
36.38000 250.656
36.39000 251.282
36.40000 251.893
36.41000 252.707
36.42000 253.787
36.43000 254.868
36.44000 257.423
36.45000 261.228
36.46000 264.966
36.47000 265.060
36.48000 263.077
36.49000 260.949
36.50000 255.936
36.51000 249.799
36.52000 244.096
36.53000 246.535
36.54000 250.683
36.55000 254.576
36.56000 256.861
36.57000 258.865
36.58000 260.157
36.59000 258.515
36.60000 256.555
36.61000 255.090
36.62000 247.081
36.63000 240.536
36.64000 238.493
36.65000 245.044
36.66000 251.805
36.67000 252.589
36.68000 245.688
36.69000 238.766
36.70000 240.480
36.71000 249.394
36.72000 258.230
36.73000 263.097
36.74000 265.739
36.75000 268.217
36.76000 267.536
36.77000 265.646
36.78000 263.892
36.79000 259.134
36.80000 254.145
36.81000 251.982
36.82000 267.279
36.83000 285.571
36.84000 299.054
36.85000 293.074
36.86000 285.034
36.87000 279.056
36.88000 268.851
36.89000 260.725
36.90000 258.780
36.91000 268.425
36.92000 278.338
36.93000 282.889
36.94000 280.672
36.95000 278.435
36.96000 278.368
36.97000 280.076
36.98000 281.766
36.99000 282.608
37.00000 282.984
37.01000 283.229
37.02000 281.063
37.03000 277.988
37.04000 275.142
37.05000 272.928
37.06000 271.082
37.07000 270.292
37.08000 275.890
37.09000 282.561
37.10000 286.566
37.11000 279.972
37.12000 272.284
37.13000 266.594
37.14000 267.609
37.15000 268.684
37.16000 269.958
37.17000 271.596
37.18000 273.242
37.19000 272.183
37.20000 267.770
37.21000 263.356
37.22000 259.441
37.23000 255.944
37.24000 252.562
37.25000 254.418
37.26000 259.110
37.27000 263.398
37.28000 260.423
37.29000 254.762
37.30000 249.533
37.31000 247.474
37.32000 246.341
37.33000 246.139
37.34000 251.463
37.35000 257.698
37.36000 262.654
37.37000 262.623
37.38000 262.089
37.39000 261.696
37.40000 259.982
37.41000 258.600
37.42000 260.109
37.43000 266.854
37.44000 273.708
37.45000 273.145
37.46000 263.566
37.47000 253.985
37.48000 254.581
37.49000 263.181
37.50000 271.550
37.51000 269.960
37.52000 263.073
37.53000 256.355
37.54000 252.589
37.55000 249.897
37.56000 247.417
37.57000 253.875
37.58000 261.629
37.59000 268.254
37.60000 268.317
37.61000 267.321
37.62000 265.837
37.63000 262.482
37.64000 258.943
37.65000 256.350
37.66000 252.941
37.67000 250.276
37.68000 250.312
37.69000 255.156
37.70000 260.094
37.71000 259.436
37.72000 252.102
37.73000 244.772
37.74000 244.366
37.75000 249.304
37.76000 254.120
37.77000 253.952
37.78000 251.177
37.79000 248.811
37.80000 253.340
37.81000 260.335
37.82000 266.766
37.83000 262.902
37.84000 257.222
37.85000 252.064
37.86000 249.876
37.87000 248.157
37.88000 247.462
37.89000 250.620
37.90000 254.148
37.91000 256.720
37.92000 262.340
37.93000 266.786
37.94000 268.162
37.95000 264.166
37.96000 260.070
37.97000 256.599
37.98000 253.857
37.99000 251.123
38.00000 251.869
38.01000 255.244
38.02000 258.601
38.03000 261.240
38.04000 263.510
38.05000 265.537
38.06000 263.603
38.07000 260.276
38.08000 257.224
38.09000 264.973
38.10000 274.171
38.11000 280.774
38.12000 272.879
38.13000 262.738
38.14000 255.286
38.15000 257.783
38.16000 261.209
38.17000 263.694
38.18000 275.625
38.19000 285.144
38.20000 288.925
38.21000 282.840
38.22000 276.585
38.23000 277.266
38.24000 285.909
38.25000 294.537
38.26000 297.150
38.27000 295.281
38.28000 293.752
38.29000 304.814
38.30000 322.237
38.31000 339.189
38.32000 348.699
38.33000 355.638
38.34000 361.991
38.35000 365.403
38.36000 367.828
38.37000 372.757
38.38000 391.406
38.39000 412.137
38.40000 432.322
38.41000 450.520
38.42000 468.536
38.43000 481.535
38.44000 493.811
38.45000 503.195
38.46000 516.565
38.47000 536.668
38.48000 556.881
38.49000 575.445
38.50000 592.153
38.51000 608.804
38.52000 625.467
38.53000 642.003
38.54000 658.799
38.55000 684.711
38.56000 715.149
38.57000 744.542
38.58000 757.901
38.59000 765.814
38.60000 773.042
38.61000 781.274
38.62000 788.786
38.63000 798.168
38.64000 817.599
38.65000 838.523
38.66000 854.604
38.67000 853.394
38.68000 850.648
38.69000 848.676
38.70000 845.225
38.71000 842.534
38.72000 839.607
38.73000 836.287
38.74000 832.960
38.75000 827.028
38.76000 818.220
38.77000 809.443
38.78000 789.121
38.79000 760.736
38.80000 732.623
38.81000 713.640
38.82000 699.113
38.83000 684.044
38.84000 660.907
38.85000 635.077
38.86000 611.541
38.87000 584.371
38.88000 559.576
38.89000 536.289
38.90000 520.949
38.91000 506.766
38.92000 491.828
38.93000 474.241
38.94000 456.426
38.95000 443.707
38.96000 419.427
38.97000 400.524
38.98000 381.141
38.99000 360.975
39.00000 340.799
39.01000 327.406
39.02000 321.359
39.03000 315.341
39.04000 308.038
39.05000 299.909
39.06000 291.940
39.07000 289.115
39.08000 288.757
39.09000 287.917
39.10000 280.091
39.11000 269.975
39.12000 260.779
39.13000 260.913
39.14000 262.854
39.15000 263.118
39.16000 254.713
39.17000 245.072
39.18000 238.127
39.19000 240.472
39.20000 243.600
39.21000 245.821
39.22000 254.176
39.23000 260.729
39.24000 263.701
39.25000 260.934
39.26000 258.093
39.27000 256.244
39.28000 255.450
39.29000 254.660
39.30000 254.917
39.31000 255.891
39.32000 256.726
39.33000 253.306
39.34000 247.879
39.35000 242.748
39.36000 241.770
39.37000 242.132
39.38000 242.460
39.39000 238.775
39.40000 234.756
39.41000 230.949
39.42000 228.217
39.43000 225.635
39.44000 223.995
39.45000 225.547
39.46000 227.361
39.47000 228.642
39.48000 227.304
39.49000 226.209
39.50000 228.114
39.51000 234.744
39.52000 241.431
39.53000 241.808
39.54000 235.616
39.55000 229.456
39.56000 230.147
39.57000 235.452
39.58000 240.603
39.59000 241.227
39.60000 239.753
39.61000 238.130
39.62000 234.486
39.63000 230.201
39.64000 226.324
39.65000 226.934
39.66000 228.311
39.67000 228.891
39.68000 225.510
39.69000 221.588
39.70000 219.261
39.71000 222.242
39.72000 225.646
39.73000 228.037
39.74000 226.906
39.75000 225.946
39.76000 225.958
39.77000 227.474
39.78000 229.006
39.79000 229.166
39.80000 227.925
39.81000 226.692
39.82000 226.919
39.83000 228.110
39.84000 229.434
39.85000 234.514
39.86000 241.305
39.87000 247.049
39.88000 238.915
39.89000 226.461
39.90000 215.220
39.91000 214.984
39.92000 216.794
39.93000 218.899
39.94000 222.438
39.95000 226.168
39.96000 228.023
39.97000 223.745
39.98000 218.991
39.99000 215.671
40.00000 224.235
40.01000 231.037
40.02000 234.718
40.03000 233.656
40.04000 232.546
40.05000 233.069
40.06000 235.227
40.07000 237.371
40.08000 235.956
40.09000 232.250
40.10000 228.597
40.11000 226.387
40.12000 224.824
40.13000 223.586
40.14000 226.538
40.15000 230.772
40.16000 234.583
40.17000 228.348
40.18000 221.075
40.19000 216.064
40.20000 221.883
40.21000 229.117
40.22000 233.472
40.23000 228.579
40.24000 222.988
40.25000 219.105
40.26000 224.468
40.27000 228.757
40.28000 230.383
40.29000 228.036
40.30000 225.651
40.31000 224.087
40.32000 223.327
40.33000 222.573
40.34000 221.025
40.35000 218.996
40.36000 216.910
40.37000 213.384
40.38000 209.223
40.39000 205.690
40.40000 210.038
40.41000 216.754
40.42000 222.786
40.43000 224.327
40.44000 224.886
40.45000 224.669
40.46000 220.805
40.47000 216.475
40.48000 213.634
40.49000 215.493
40.50000 217.697
40.51000 219.219
40.52000 219.420
40.53000 219.538
40.54000 217.932
40.55000 213.803
40.56000 209.651
40.57000 212.279
40.58000 221.422
40.59000 230.497
40.60000 230.555
40.61000 224.977
40.62000 219.689
40.63000 221.642
40.64000 226.728
40.65000 231.074
40.66000 226.384
40.67000 219.024
40.68000 212.432
40.69000 212.419
40.70000 213.541
40.71000 215.450
40.72000 220.995
40.73000 226.994
40.74000 229.811
40.75000 222.755
40.76000 214.995
40.77000 209.667
40.78000 208.078
40.79000 206.979
40.80000 206.995
40.81000 208.617
40.82000 210.252
40.83000 212.992
40.84000 216.773
40.85000 220.524
40.86000 216.997
40.87000 209.069
40.88000 201.548
40.89000 203.788
40.90000 210.180
40.91000 216.146
40.92000 217.041
40.93000 216.464
40.94000 215.948
40.95000 213.613
40.96000 211.272
40.97000 208.753
40.98000 205.426
40.99000 202.001
41.00000 201.086
41.01000 207.825
41.02000 215.093
41.03000 220.055
41.04000 213.263
41.05000 207.910
41.06000 206.262
41.07000 209.848
41.08000 213.472
41.09000 215.488
41.10000 216.020
41.11000 216.548
41.12000 218.058
41.13000 220.132
41.14000 221.984
41.15000 218.698
41.16000 213.263
41.17000 208.383
41.18000 209.916
41.19000 213.279
41.20000 216.275
41.21000 217.312
41.22000 217.890
41.23000 218.745
41.24000 220.833
41.25000 223.068
41.26000 224.051
41.27000 221.280
41.28000 218.258
41.29000 216.207
41.30000 214.608
41.31000 213.426
41.32000 213.473
41.33000 215.224
41.34000 216.985
41.35000 215.286
41.36000 210.452
41.37000 205.664
41.38000 206.449
41.39000 210.508
41.40000 214.440
41.41000 215.545
41.42000 215.487
41.43000 215.718
41.44000 219.205
41.45000 223.604
41.46000 227.513
41.47000 220.976
41.48000 213.619
41.49000 206.951
41.50000 203.292
41.51000 199.985
41.52000 197.294
41.53000 196.421
41.54000 195.667
41.55000 195.158
41.56000 199.407
41.57000 202.670
41.58000 204.265
41.59000 203.589
41.60000 202.902
41.61000 204.616
41.62000 208.463
41.63000 212.271
41.64000 214.299
41.65000 215.252
41.66000 215.968
41.67000 211.604
41.68000 205.186
41.69000 199.435
41.70000 201.002
41.71000 204.584
41.72000 207.758
41.73000 207.257
41.74000 206.241
41.75000 205.037
41.76000 203.021
41.77000 200.913
41.78000 200.063
41.79000 202.859
41.80000 205.886
41.81000 207.915
41.82000 200.368
41.83000 194.574
41.84000 193.590
41.85000 199.042
41.86000 204.522
41.87000 205.657
41.88000 203.007
41.89000 200.384
41.90000 202.524
41.91000 207.321
41.92000 211.914
41.93000 212.266
41.94000 210.933
41.95000 209.515
41.96000 207.187
41.97000 204.613
41.98000 202.338
41.99000 206.279
42.00000 210.645
42.01000 213.400
42.02000 209.376
42.03000 204.596
42.04000 201.520
42.05000 203.294
42.06000 205.365
42.07000 206.745
42.08000 207.318
42.09000 207.727
42.10000 208.234
42.11000 208.871
42.12000 209.507
42.13000 209.202
42.14000 208.094
42.15000 206.999
42.16000 207.687
42.17000 209.353
42.18000 211.124
42.19000 215.003
42.20000 219.706
42.21000 223.777
42.22000 221.258
42.23000 216.988
42.24000 213.224
42.25000 207.550
42.26000 202.370
42.27000 200.527
42.28000 212.470
42.29000 225.914
42.30000 233.208
42.31000 223.302
42.32000 212.373
42.33000 205.136
42.34000 198.227
42.35000 193.132
42.36000 192.386
42.37000 197.247
42.38000 202.130
42.39000 206.428
42.40000 210.237
42.41000 213.998
42.42000 211.240
42.43000 204.983
42.44000 199.120
42.45000 200.886
42.46000 205.581
42.47000 209.466
42.48000 205.119
42.49000 198.624
42.50000 192.914
42.51000 195.938
42.52000 199.831
42.53000 203.669
42.54000 207.283
42.55000 210.874
42.56000 212.977
42.57000 210.986
42.58000 208.760
42.59000 207.294
42.60000 208.930
42.61000 210.188
42.62000 212.763
42.63000 217.004
42.64000 221.240
42.65000 220.834
42.66000 216.606
42.67000 212.433
42.68000 210.699
42.69000 210.322
42.70000 209.886
42.71000 208.359
42.72000 206.420
42.73000 204.434
42.74000 201.986
42.75000 199.420
42.76000 197.171
42.77000 200.011
42.78000 203.185
42.79000 205.718
42.80000 205.694
42.81000 205.404
42.82000 205.121
42.83000 204.854
42.84000 204.588
42.85000 204.415
42.86000 203.612
42.87000 203.012
42.88000 201.780
42.89000 199.761
42.90000 197.743
42.91000 196.410
42.92000 195.630
42.93000 194.861
42.94000 196.466
42.95000 199.277
42.96000 201.988
42.97000 202.897
42.98000 203.138
42.99000 202.960
43.00000 198.725
43.01000 193.469
43.02000 188.876
43.03000 198.368
43.04000 208.490
43.05000 215.424
43.06000 209.880
43.07000 203.073
43.08000 198.769
43.09000 201.116
43.10000 203.822
43.11000 205.580
43.12000 209.777
43.13000 212.890
43.14000 211.323
43.15000 204.053
43.16000 196.782
43.17000 193.376
43.18000 193.033
43.19000 192.696
43.20000 196.597
43.21000 202.577
43.22000 208.125
43.23000 206.141
43.24000 201.410
43.25000 196.689
43.26000 192.059
43.27000 187.451
43.28000 183.436
43.29000 187.263
43.30000 191.619
43.31000 194.802
43.32000 193.481
43.33000 191.716
43.34000 189.466
43.35000 185.950
43.36000 182.367
43.37000 180.055
43.38000 183.259
43.39000 185.680
43.40000 188.766
43.41000 192.648
43.42000 196.533
43.43000 200.692
43.44000 205.065
43.45000 209.369
43.46000 210.991
43.47000 211.201
43.48000 211.183
43.49000 207.307
43.50000 202.048
43.51000 197.165
43.52000 195.755
43.53000 195.187
43.54000 194.695
43.55000 193.731
43.56000 192.845
43.57000 191.590
43.58000 188.941
43.59000 186.158
43.60000 185.172
43.61000 188.799
43.62000 192.659
43.63000 195.134
43.64000 193.979
43.65000 193.089
43.66000 194.970
43.67000 200.105
43.68000 205.221
43.69000 204.870
43.70000 200.343
43.71000 195.891
43.72000 192.692
43.73000 190.223
43.74000 188.018
43.75000 190.159
43.76000 193.832
43.77000 197.346
43.78000 199.438
43.79000 201.191
43.80000 202.710
43.81000 201.866
43.82000 200.836
43.83000 199.661
43.84000 197.953
43.85000 196.194
43.86000 193.941
43.87000 190.438
43.88000 186.874
43.89000 184.605
43.90000 200.874
43.91000 212.933
43.92000 217.594
43.93000 213.737
43.94000 209.861
43.95000 204.203
43.96000 197.209
43.97000 190.337
43.98000 190.833
43.99000 194.915
44.00000 198.779
44.01000 199.171
44.02000 198.360
44.03000 198.230
44.04000 204.089
44.05000 211.350
44.06000 217.620
44.07000 209.461
44.08000 200.670
44.09000 194.155
44.10000 195.937
44.11000 198.479
44.12000 200.455
44.13000 201.028
44.14000 201.535
44.15000 201.856
44.16000 198.146
44.17000 195.409
44.18000 193.560
44.19000 192.715
44.20000 191.876
44.21000 191.882
44.22000 192.509
44.23000 193.125
44.24000 193.075
44.25000 192.706
44.26000 192.496
44.27000 194.747
44.28000 197.834
44.29000 200.516
44.30000 199.704
44.31000 198.091
44.32000 196.701
44.33000 195.089
44.34000 193.695
44.35000 194.171
44.36000 201.341
44.37000 209.108
44.38000 213.005
44.39000 207.467
44.40000 201.501
44.41000 197.754
44.42000 196.593
44.43000 195.782
44.44000 197.145
44.45000 200.914
44.46000 204.671
44.47000 206.243
44.48000 206.235
44.49000 206.228
44.50000 210.124
44.51000 215.716
44.52000 221.145
44.53000 224.149
44.54000 226.341
44.55000 227.880
44.56000 223.923
44.57000 218.726
44.58000 214.265
44.59000 218.948
44.60000 224.035
44.61000 228.568
44.62000 231.154
44.63000 233.570
44.64000 237.142
44.65000 243.483
44.66000 249.945
44.67000 253.976
44.68000 249.379
44.69000 245.976
44.70000 248.548
44.71000 257.611
44.72000 266.637
44.73000 269.974
44.74000 269.274
44.75000 268.588
44.76000 270.088
44.77000 272.540
44.78000 274.885
44.79000 275.680
44.80000 275.966
44.81000 276.600
44.82000 280.096
44.83000 284.225
44.84000 287.758
44.85000 294.009
44.86000 299.609
44.87000 305.588
44.88000 312.876
44.89000 320.275
44.90000 325.670
44.91000 326.344
44.92000 326.819
44.93000 327.113
44.94000 341.826
44.95000 352.543
44.96000 352.408
44.97000 340.715
44.98000 329.088
44.99000 326.273
45.00000 329.600
45.01000 332.855
45.02000 335.030
45.03000 336.628
45.04000 337.980
45.05000 335.871
45.06000 332.642
45.07000 329.914
45.08000 331.211
45.09000 333.383
45.10000 335.235
45.11000 329.182
45.12000 323.157
45.13000 316.962
45.14000 310.188
45.15000 303.367
45.16000 297.413
45.17000 293.468
45.18000 289.605
45.19000 287.229
45.20000 285.150
45.21000 283.662
45.22000 280.444
45.23000 275.421
45.24000 270.400
45.25000 265.731
45.26000 261.302
45.27000 256.974
45.28000 258.357
45.29000 262.226
45.30000 265.589
45.31000 262.012
45.32000 256.232
45.33000 251.012
45.34000 250.188
45.35000 250.303
45.36000 250.401
45.37000 247.936
45.38000 245.573
45.39000 243.556
45.40000 242.695
45.41000 241.928
45.42000 239.628
45.43000 233.839
45.44000 227.915
45.45000 224.297
45.46000 220.793
45.47000 218.288
45.48000 217.550
45.49000 218.621
45.50000 219.701
45.51000 221.784
45.52000 224.542
45.53000 227.235
45.54000 224.755
45.55000 220.121
45.56000 215.951
45.57000 217.939
45.58000 221.851
45.59000 225.356
45.60000 225.744
45.61000 225.479
45.62000 225.254
45.63000 221.812
45.64000 218.566
45.65000 215.227
45.66000 211.578
45.67000 207.905
45.68000 207.747
45.69000 215.461
45.70000 223.468
45.71000 228.321
45.72000 213.966
45.73000 203.585
45.74000 199.671
45.75000 202.248
45.76000 204.792
45.77000 204.210
45.78000 201.564
45.79000 198.983
45.80000 196.149
45.81000 193.334
45.82000 190.807
45.83000 192.016
45.84000 194.371
45.85000 196.658
45.86000 198.441
45.87000 200.120
45.88000 201.538
45.89000 194.076
45.90000 186.865
45.91000 182.314
45.92000 186.332
45.93000 190.999
45.94000 193.517
45.95000 191.304
45.96000 188.921
45.97000 187.488
45.98000 190.381
45.99000 192.468
46.00000 190.318
46.01000 184.001
46.02000 177.767
46.03000 179.012
46.04000 185.107
46.05000 191.045
46.06000 192.350
46.07000 191.646
46.08000 190.768
46.09000 187.720
46.10000 184.016
46.11000 180.285
46.12000 176.352
46.13000 172.378
46.14000 169.033
46.15000 176.112
46.16000 183.132
46.17000 187.105
46.18000 181.432
46.19000 175.048
46.20000 169.990
46.21000 167.801
46.22000 165.711
46.23000 164.462
46.24000 167.926
46.25000 170.412
46.26000 172.410
46.27000 173.937
46.28000 175.490
46.29000 179.191
46.30000 184.262
46.31000 189.195
46.32000 187.927
46.33000 184.159
46.34000 180.637
46.35000 180.137
46.36000 180.532
46.37000 180.831
46.38000 180.441
46.39000 179.915
46.40000 179.473
46.41000 181.076
46.42000 182.624
46.43000 182.397
46.44000 176.654
46.45000 170.514
46.46000 166.839
46.47000 168.402
46.48000 170.138
46.49000 171.166
46.50000 167.368
46.51000 164.656
46.52000 165.108
46.53000 168.550
46.54000 171.981
46.55000 174.499
46.56000 176.446
46.57000 178.338
46.58000 181.626
46.59000 185.316
46.60000 188.854
46.61000 190.580
46.62000 191.779
46.63000 191.729
46.64000 182.893
46.65000 172.352
46.66000 163.539
46.67000 165.960
46.68000 169.113
46.69000 170.831
46.70000 168.161
46.71000 165.186
46.72000 164.450
46.73000 168.396
46.74000 172.489
46.75000 174.896
46.76000 178.744
46.77000 181.464
46.78000 182.761
46.79000 182.739
46.80000 182.712
46.81000 182.367
46.82000 181.825
46.83000 181.299
46.84000 177.215
46.85000 171.926
46.86000 167.059
46.87000 167.094
46.88000 168.530
46.89000 170.135
46.90000 172.903
46.91000 175.892
46.92000 178.382
46.93000 176.127
46.94000 173.787
46.95000 171.716
46.96000 170.453
46.97000 169.244
46.98000 169.552
46.99000 172.977
47.00000 176.495
47.01000 178.548
47.02000 176.900
47.03000 175.724
47.04000 173.278
47.05000 169.680
47.06000 166.096
47.07000 163.415
47.08000 161.282
47.09000 159.213
47.10000 163.305
47.11000 169.584
47.12000 175.225
47.13000 173.664
47.14000 170.079
47.15000 166.617
47.16000 163.991
47.17000 161.521
47.18000 159.471
47.19000 160.817
47.20000 162.258
47.21000 164.412
47.22000 168.670
47.23000 173.066
47.24000 174.299
47.25000 169.142
47.26000 163.802
47.27000 160.711
47.28000 166.741
47.29000 171.004
47.30000 172.602
47.31000 171.826
47.32000 171.058
47.33000 170.807
47.34000 170.865
47.35000 170.920
47.36000 166.713
47.37000 161.104
47.38000 156.366
47.39000 161.222
47.40000 168.726
47.41000 175.114
47.42000 174.119
47.43000 171.773
47.44000 169.832
47.45000 164.445
47.46000 159.677
47.47000 156.852
47.48000 159.670
47.49000 162.847
47.50000 163.180
47.51000 157.865
47.52000 152.396
47.53000 149.256
47.54000 151.303
47.55000 152.756
47.56000 157.093
47.57000 163.951
47.58000 170.709
47.59000 171.593
47.60000 169.050
47.61000 166.592
47.62000 166.895
47.63000 168.218
47.64000 169.473
47.65000 170.004
47.66000 170.338
47.67000 170.721
47.68000 171.423
47.69000 172.182
47.70000 172.808
47.71000 167.276
47.72000 162.156
47.73000 159.051
47.74000 161.699
47.75000 164.701
47.76000 165.552
47.77000 162.205
47.78000 158.749
47.79000 156.780
47.80000 158.865
47.81000 160.330
47.82000 161.088
47.83000 161.240
47.84000 161.386
47.85000 161.200
47.86000 160.825
47.87000 160.463
47.88000 159.690
47.89000 158.810
47.90000 158.236
47.91000 160.865
47.92000 164.348
47.93000 167.099
47.94000 165.202
47.95000 162.488
47.96000 160.259
47.97000 158.516
47.98000 157.128
47.99000 157.184
48.00000 161.292
48.01000 165.642
48.02000 167.708
48.03000 165.394
48.04000 162.971
48.05000 161.603
48.06000 166.486
48.07000 169.895
48.08000 172.080
48.09000 173.234
48.10000 174.357
48.11000 173.820
48.12000 172.347
48.13000 170.927
48.14000 167.910
48.15000 164.494
48.16000 161.252
48.17000 159.783
48.18000 158.779
48.19000 158.119
48.20000 159.602
48.21000 161.455
48.22000 162.971
48.23000 163.087
48.24000 163.059
48.25000 163.251
48.26000 164.052
48.27000 164.888
48.28000 166.547
48.29000 169.755
48.30000 173.000
48.31000 174.817
48.32000 165.193
48.33000 158.502
48.34000 154.635
48.35000 153.100
48.36000 151.608
48.37000 152.231
48.38000 154.024
48.39000 155.751
48.40000 158.303
48.41000 160.991
48.42000 163.340
48.43000 162.317
48.44000 160.426
48.45000 158.702
48.46000 157.990
48.47000 157.449
48.48000 157.007
48.49000 154.923
48.50000 153.080
48.51000 153.232
48.52000 158.796
48.53000 164.662
48.54000 167.942
48.55000 166.432
48.56000 164.815
48.57000 163.917
48.58000 166.298
48.59000 167.940
48.60000 165.714
48.61000 160.354
48.62000 155.087
48.63000 154.120
48.64000 155.492
48.65000 156.811
48.66000 158.814
48.67000 160.927
48.68000 163.029
48.69000 165.010
48.70000 166.960
48.71000 168.484
48.72000 167.461
48.73000 166.015
48.74000 164.841
48.75000 164.227
48.76000 163.773
48.77000 164.370
48.78000 167.770
48.79000 171.322
48.80000 170.829
48.81000 162.970
48.82000 154.957
48.83000 150.545
48.84000 152.586
48.85000 153.994
48.86000 152.754
48.87000 149.408
48.88000 146.177
48.89000 147.942
48.90000 152.379
48.91000 156.638
48.92000 153.631
48.93000 148.334
48.94000 143.984
48.95000 148.619
48.96000 155.482
48.97000 161.836
48.98000 165.213
48.99000 168.107
49.00000 170.448
49.01000 165.890
49.02000 161.624
49.03000 158.842
49.04000 159.946
49.05000 161.254
49.06000 160.520
49.07000 156.134
49.08000 151.675
49.09000 149.241
49.10000 150.567
49.11000 151.482
49.12000 151.998
49.13000 152.201
49.14000 152.416
49.15000 153.108
49.16000 154.050
49.17000 154.952
49.18000 159.867
49.19000 165.800
49.20000 171.037
49.21000 169.832
49.22000 167.058
49.23000 164.064
49.24000 159.808
49.25000 155.350
49.26000 151.758
49.27000 152.540
49.28000 153.518
49.29000 154.736
49.30000 156.572
49.31000 158.439
49.32000 158.212
49.33000 154.303
49.34000 150.324
49.35000 148.172
49.36000 152.473
49.37000 155.418
49.38000 156.938
49.39000 157.367
49.40000 157.803
49.41000 158.574
49.42000 159.518
49.43000 160.421
49.44000 159.906
49.45000 158.960
49.46000 157.818
49.47000 154.903
49.48000 151.564
49.49000 148.811
49.50000 149.351
49.51000 150.405
49.52000 151.251
49.53000 150.147
49.54000 149.105
49.55000 148.716
49.56000 149.983
49.57000 151.331
49.58000 151.153
49.59000 148.337
49.60000 145.475
49.61000 143.941
49.62000 153.257
49.63000 159.599
49.64000 160.612
49.65000 157.620
49.66000 154.616
49.67000 151.170
49.68000 147.499
49.69000 143.992
49.70000 147.209
49.71000 152.370
49.72000 156.837
49.73000 155.168
49.74000 152.058
49.75000 150.309
49.76000 156.069
49.77000 162.975
49.78000 168.496
49.79000 164.298
49.80000 160.184
49.81000 158.456
49.82000 162.660
49.83000 167.144
49.84000 169.044
49.85000 166.558
49.86000 163.998
49.87000 162.639
49.88000 161.254
49.89000 160.309
49.90000 158.690
49.91000 156.574
49.92000 154.513
49.93000 154.372
49.94000 155.189
49.95000 155.969
49.96000 159.744
49.97000 164.198
49.98000 167.808
49.99000 164.138
50.00000 158.791
50.01000 154.287
50.02000 154.336
50.03000 155.066
50.04000 155.648
50.05000 160.137
50.06000 164.038
50.07000 166.030
50.08000 163.351
50.09000 160.461
50.10000 158.520
50.11000 158.165
50.12000 157.834
50.13000 157.660
50.14000 166.598
50.15000 172.626
50.16000 172.364
50.17000 167.545
50.18000 162.779
50.19000 159.858
50.20000 157.840
50.21000 155.919
50.22000 159.353
50.23000 164.200
50.24000 168.752
50.25000 170.831
50.26000 172.351
50.27000 174.356
50.28000 178.942
50.29000 183.905
50.30000 187.841
50.31000 184.354
50.32000 181.028
50.33000 181.431
50.34000 190.798
50.35000 200.558
50.36000 207.184
50.37000 208.671
50.38000 210.083
50.39000 210.820
50.40000 200.679
50.41000 193.867
50.42000 193.926
50.43000 198.876
50.44000 203.691
50.45000 204.092
50.46000 202.366
50.47000 200.724
50.48000 205.185
50.49000 211.170
50.50000 216.208
50.51000 213.431
50.52000 208.919
50.53000 205.636
50.54000 208.747
50.55000 212.774
50.56000 215.955
50.57000 218.749
50.58000 220.965
50.59000 222.970
50.60000 224.476
50.61000 225.962
50.62000 227.423
50.63000 228.842
50.64000 230.262
50.65000 230.995
50.66000 217.612
50.67000 208.646
50.68000 207.087
50.69000 210.703
50.70000 214.255
50.71000 215.817
50.72000 216.434
50.73000 217.020
50.74000 215.666
50.75000 213.836
50.76000 211.844
50.77000 208.542
50.78000 204.956
50.79000 201.994
50.80000 202.219
50.81000 202.890
50.82000 203.419
50.83000 198.956
50.84000 195.051
50.85000 190.699
50.86000 185.305
50.87000 179.868
50.88000 177.889
50.89000 181.378
50.90000 184.936
50.91000 186.756
50.92000 184.843
50.93000 183.541
50.94000 180.273
50.95000 175.654
50.96000 171.193
50.97000 171.402
50.98000 173.787
50.99000 176.048
51.00000 173.940
51.01000 170.717
51.02000 167.531
51.03000 164.644
51.04000 161.820
51.05000 159.382
51.06000 158.873
51.07000 158.628
51.08000 158.436
51.09000 161.873
51.10000 164.852
51.11000 166.098
51.12000 163.389
51.13000 160.525
51.14000 157.957
51.15000 155.847
51.16000 153.742
51.17000 152.676
51.18000 150.251
51.19000 148.637
51.20000 148.132
51.21000 148.375
51.22000 148.646
51.23000 149.701
51.24000 151.115
51.25000 152.453
51.26000 152.405
51.27000 151.962
51.28000 151.310
51.29000 149.044
51.30000 146.441
51.31000 145.084
51.32000 149.848
51.33000 155.434
51.34000 159.791
51.35000 159.802
51.36000 159.540
51.37000 158.163
51.38000 154.285
51.39000 150.314
51.40000 148.432
51.41000 149.742
51.42000 151.086
51.43000 151.760
51.44000 155.017
51.45000 157.175
51.46000 157.908
51.47000 157.696
51.48000 157.403
51.49000 154.912
51.50000 151.430
51.51000 148.143
51.52000 143.187
51.53000 138.169
51.54000 133.612
51.55000 132.532
51.56000 132.169
51.57000 132.642
51.58000 137.145
51.59000 142.179
51.60000 146.088
51.61000 145.000
51.62000 143.833
51.63000 143.425
51.64000 144.693
51.65000 146.021
51.66000 145.861
51.67000 143.471
51.68000 141.059
51.69000 138.395
51.70000 135.482
51.71000 132.636
51.72000 135.896
51.73000 143.127
51.74000 150.114
51.75000 150.684
51.76000 148.413
51.77000 146.273
51.78000 142.476
51.79000 138.540
51.80000 134.785
51.81000 132.362
51.82000 130.209
51.83000 129.180
51.84000 133.471
51.85000 138.445
51.86000 142.291
51.87000 147.417
51.88000 151.558
51.89000 153.047
51.90000 148.781
51.91000 144.317
51.92000 141.294
51.93000 140.394
51.94000 139.513
51.95000 137.971
51.96000 135.790
51.97000 133.691
51.98000 138.357
51.99000 147.346
52.00000 155.856
52.01000 152.297
52.02000 143.488
52.03000 135.200
52.04000 138.940
52.05000 145.623
52.06000 150.903
52.07000 146.051
52.08000 139.190
52.09000 134.009
52.10000 136.618
52.11000 140.206
52.12000 142.969
52.13000 145.543
52.14000 147.569
52.15000 148.922
52.16000 148.838
52.17000 148.707
52.18000 148.503
52.19000 148.195
52.20000 147.886
52.21000 147.707
52.22000 147.650
52.23000 147.618
52.24000 149.461
52.25000 152.480
52.26000 155.349
52.27000 154.585
52.28000 152.269
52.29000 150.093
52.30000 145.463
52.31000 140.588
52.32000 136.562
52.33000 138.547
52.34000 141.701
52.35000 144.150
52.36000 143.393
52.37000 142.241
52.38000 141.358
52.39000 140.333
52.40000 139.516
52.41000 138.751
52.42000 138.097
52.43000 137.445
52.44000 137.355
52.45000 138.061
52.46000 138.774
52.47000 139.308
52.48000 139.677
52.49000 140.067
52.50000 141.974
52.51000 144.815
52.52000 147.379
52.53000 143.469
52.54000 136.836
52.55000 130.619
52.56000 130.406
52.57000 131.780
52.58000 133.242
52.59000 135.309
52.60000 137.492
52.61000 139.873
52.62000 143.138
52.63000 146.510
52.64000 149.082
52.65000 143.323
52.66000 138.341
52.67000 135.621
52.68000 137.559
52.69000 139.639
52.70000 141.135
52.71000 141.818
52.72000 142.495
52.73000 143.015
52.74000 143.391
52.75000 143.722
52.76000 140.987
52.77000 136.395
52.78000 132.131
52.79000 135.221
52.80000 141.351
52.81000 147.086
52.82000 147.078
52.83000 145.602
52.84000 144.465
52.85000 145.626
52.86000 147.219
52.87000 148.621
52.88000 149.189
52.89000 149.659
52.90000 150.016
52.91000 150.902
52.92000 151.625
52.93000 152.056
52.94000 151.893
52.95000 151.712
52.96000 150.540
52.97000 148.007
52.98000 145.467
52.99000 145.469
53.00000 147.738
53.01000 149.966
53.02000 149.581
53.03000 147.641
53.04000 145.866
53.05000 147.678
53.06000 150.948
53.07000 154.001
53.08000 153.368
53.09000 151.869
53.10000 150.483
53.11000 149.843
53.12000 149.339
53.13000 149.426
53.14000 152.056
53.15000 154.977
53.16000 157.186
53.17000 152.316
53.18000 148.142
53.19000 145.020
53.20000 143.992
53.21000 143.021
53.22000 145.257
53.23000 151.804
53.24000 158.371
53.25000 162.328
53.26000 163.994
53.27000 165.656
53.28000 167.074
53.29000 168.351
53.30000 169.449
53.31000 166.810
53.32000 162.678
53.33000 158.827
53.34000 159.488
53.35000 161.197
53.36000 162.877
53.37000 164.377
53.38000 165.844
53.39000 166.750
53.40000 165.286
53.41000 163.556
53.42000 162.254
53.43000 158.738
53.44000 155.881
53.45000 153.259
53.46000 151.098
53.47000 148.949
53.48000 148.464
53.49000 150.174
53.50000 151.894
53.51000 153.256
53.52000 154.307
53.53000 155.340
53.54000 155.328
53.55000 154.715
53.56000 154.147
53.57000 154.491
53.58000 155.193
53.59000 155.846
53.60000 153.356
53.61000 150.349
53.62000 147.561
53.63000 146.166
53.64000 145.016
53.65000 143.990
53.66000 143.475
53.67000 143.017
53.68000 142.673
53.69000 144.533
53.70000 146.088
53.71000 146.674
53.72000 145.398
53.73000 144.076
53.74000 145.320
53.75000 149.890
53.76000 154.469
53.77000 155.372
53.78000 153.180
53.79000 150.968
53.80000 147.719
53.81000 143.884
53.82000 140.417
53.83000 144.126
53.84000 150.606
53.85000 156.620
53.86000 154.947
53.87000 151.621
53.88000 148.410
53.89000 145.912
53.90000 143.537
53.91000 141.328
53.92000 139.796
53.93000 138.337
53.94000 137.250
53.95000 139.797
53.96000 141.945
53.97000 142.404
53.98000 139.671
53.99000 136.863
54.00000 135.636
54.01000 136.419
54.02000 137.208
54.03000 138.428
54.04000 140.000
54.05000 141.536
54.06000 141.327
54.07000 140.151
54.08000 139.141
54.09000 141.284
54.10000 144.623
54.11000 147.716
54.12000 145.416
54.13000 142.098
54.14000 139.170
54.15000 138.636
54.16000 138.508
54.17000 138.884
54.18000 141.281
54.19000 143.890
54.20000 145.825
54.21000 147.670
54.22000 149.100
54.23000 149.489
54.24000 147.946
54.25000 146.360
54.26000 144.500
54.27000 142.297
54.28000 140.097
54.29000 140.307
54.30000 142.467
54.31000 144.576
54.32000 144.304
54.33000 142.732
54.34000 141.237
54.35000 141.118
54.36000 141.512
54.37000 141.877
54.38000 146.334
54.39000 151.265
54.40000 154.689
54.41000 149.089
54.42000 141.989
54.43000 135.736
54.44000 132.810
54.45000 130.224
54.46000 128.315
54.47000 135.462
54.48000 141.382
54.49000 144.842
54.50000 143.814
54.51000 142.690
54.52000 141.648
54.53000 140.708
54.54000 139.769
54.55000 141.408
54.56000 145.085
54.57000 148.676
54.58000 148.496
54.59000 146.293
54.60000 144.191
54.61000 143.878
54.62000 144.221
54.63000 144.536
54.64000 145.497
54.65000 146.501
54.66000 147.061
54.67000 145.015
54.68000 142.545
54.69000 141.101
54.70000 143.622
54.71000 146.538
54.72000 148.679
54.73000 147.708
54.74000 146.831
54.75000 143.839
54.76000 137.052
54.77000 130.189
54.78000 128.884
54.79000 134.265
54.80000 139.648
54.81000 141.893
54.82000 141.684
54.83000 141.561
54.84000 145.037
54.85000 150.410
54.86000 155.319
54.87000 152.304
54.88000 146.435
54.89000 141.033
54.90000 143.075
54.91000 146.525
54.92000 149.457
54.93000 149.403
54.94000 148.873
54.95000 148.553
54.96000 149.026
54.97000 149.577
54.98000 149.980
54.99000 150.920
55.00000 151.666
55.01000 152.012
55.02000 151.651
55.03000 151.277
55.04000 150.325
55.05000 148.691
55.06000 147.060
55.07000 149.121
55.08000 153.988
55.09000 158.732
55.10000 158.627
55.11000 156.011
55.12000 153.712
55.13000 156.649
55.14000 161.441
55.15000 165.842
55.16000 162.671
55.17000 158.223
55.18000 154.308
55.19000 153.404
55.20000 152.970
55.21000 153.978
55.22000 160.359
55.23000 167.249
55.24000 172.257
55.25000 167.623
55.26000 163.695
55.27000 163.160
55.28000 168.505
55.29000 173.955
55.30000 178.067
55.31000 180.632
55.32000 183.187
55.33000 190.236
55.34000 200.601
55.35000 210.843
55.36000 216.458
55.37000 219.718
55.38000 222.931
55.39000 225.391
55.40000 227.590
55.41000 229.604
55.42000 235.219
55.43000 240.972
55.44000 247.149
55.45000 255.664
55.46000 264.537
55.47000 274.671
55.48000 289.418
55.49000 304.592
55.50000 315.564
55.51000 321.510
55.52000 325.891
55.53000 333.468
55.54000 346.487
55.55000 359.596
55.56000 373.616
55.57000 388.671
55.58000 403.679
55.59000 414.099
55.60000 421.069
55.61000 428.259
55.62000 443.357
55.63000 462.410
55.64000 481.573
55.65000 502.420
55.66000 523.845
55.67000 543.432
55.68000 554.030
55.69000 561.601
55.70000 569.993
55.71000 582.831
55.72000 596.336
55.73000 606.605
55.74000 605.229
55.75000 602.807
55.76000 601.065
55.77000 626.808
55.78000 647.477
55.79000 663.996
55.80000 673.576
55.81000 683.048
55.82000 685.195
55.83000 679.184
55.84000 673.189
55.85000 679.914
55.86000 695.745
55.87000 710.985
55.88000 705.981
55.89000 691.022
55.90000 676.600
55.91000 670.275
55.92000 666.673
55.93000 663.388
55.94000 659.208
55.95000 655.323
55.96000 649.194
55.97000 631.140
55.98000 611.335
55.99000 592.945
56.00000 579.555
56.01000 566.604
56.02000 557.336
56.03000 536.505
56.04000 520.208
56.05000 505.403
56.06000 493.052
56.07000 480.736
56.08000 466.083
56.09000 448.877
56.10000 431.738
56.11000 420.111
56.12000 412.490
56.13000 404.520
56.14000 385.096
56.15000 360.136
56.16000 336.445
56.17000 331.314
56.18000 332.318
56.19000 333.231
56.20000 316.301
56.21000 297.804
56.22000 281.151
56.23000 274.114
56.24000 268.460
56.25000 262.148
56.26000 253.553
56.27000 244.762
56.28000 238.506
56.29000 233.677
56.30000 230.045
56.31000 225.514
56.32000 219.531
56.33000 213.529
56.34000 208.383
56.35000 204.154
56.36000 199.944
56.37000 193.796
56.38000 186.370
56.39000 179.148
56.40000 178.331
56.41000 180.557
56.42000 182.359
56.43000 178.134
56.44000 171.951
56.45000 166.338
56.46000 165.612
56.47000 165.914
56.48000 165.863
56.49000 164.002
56.50000 161.886
56.51000 159.805
56.52000 157.843
56.53000 155.890
56.54000 154.508
56.55000 151.345
56.56000 148.886
56.57000 147.688
56.58000 148.490
56.59000 149.317
56.60000 148.191
56.61000 145.015
56.62000 141.855
56.63000 139.759
56.64000 138.412
56.65000 137.113
56.66000 137.232
56.67000 138.015
56.68000 138.864
56.69000 140.639
56.70000 142.710
56.71000 144.586
56.72000 143.124
56.73000 141.205
56.74000 140.056
56.75000 142.765
56.76000 146.006
56.77000 146.633
56.78000 138.496
56.79000 129.652
56.80000 123.425
56.81000 124.453
56.82000 125.448
56.83000 127.166
56.84000 130.011
56.85000 132.869
56.86000 133.619
56.87000 132.199
56.88000 130.787
56.89000 131.273
56.90000 133.020
56.91000 134.771
56.92000 136.664
56.93000 138.622
56.94000 140.396
56.95000 139.696
56.96000 138.219
56.97000 136.885
56.98000 135.658
56.99000 134.599
57.00000 134.005
57.01000 135.702
57.02000 137.708
57.03000 138.773
57.04000 136.738
57.05000 134.458
57.06000 132.862
57.07000 132.282
57.08000 131.872
57.09000 130.594
57.10000 127.989
57.11000 125.369
57.12000 123.769
57.13000 123.198
57.14000 122.630
57.15000 125.032
57.16000 129.345
57.17000 133.490
57.18000 133.009
57.19000 130.441
57.20000 127.750
57.21000 123.463
57.22000 118.683
57.23000 114.375
57.24000 118.416
57.25000 123.477
57.26000 127.551
57.27000 126.860
57.28000 125.540
57.29000 123.775
57.30000 120.567
57.31000 117.249
57.32000 114.939
57.33000 121.945
57.34000 127.483
57.35000 129.429
57.36000 125.970
57.37000 122.458
57.38000 124.070
57.39000 130.748
57.40000 137.382
57.41000 133.870
57.42000 123.893
57.43000 114.389
57.44000 117.372
57.45000 125.895
57.46000 133.717
57.47000 132.639
57.48000 128.865
57.49000 125.472
57.50000 128.229
57.51000 131.735
57.52000 134.629
57.53000 134.621
57.54000 134.239
57.55000 133.627
57.56000 132.286
57.57000 130.890
57.58000 129.924
57.59000 123.285
57.60000 118.142
57.61000 115.504
57.62000 116.568
57.63000 117.666
57.64000 118.984
57.65000 120.515
57.66000 122.036
57.67000 124.193
57.68000 126.715
57.69000 129.067
57.70000 127.096
57.71000 123.238
57.72000 119.641
57.73000 119.262
57.74000 119.842
57.75000 120.361
57.76000 119.246
57.77000 117.987
57.78000 116.517
57.79000 114.063
57.80000 111.485
57.81000 110.377
57.82000 113.869
57.83000 117.692
57.84000 120.325
57.85000 124.170
57.86000 127.087
57.87000 129.370
57.88000 130.732
57.89000 132.086
57.90000 130.164
57.91000 125.128
57.92000 120.131
57.93000 120.025
57.94000 122.946
57.95000 125.712
57.96000 124.728
57.97000 122.137
57.98000 119.575
57.99000 117.370
58.00000 115.269
58.01000 113.390
58.02000 112.207
58.03000 111.293
58.04000 111.345
58.05000 115.805
58.06000 120.810
58.07000 124.108
58.08000 122.164
58.09000 119.852
58.10000 118.270
58.11000 118.389
58.12000 118.519
58.13000 118.824
58.14000 119.379
58.15000 119.937
58.16000 120.554
58.17000 121.226
58.18000 121.892
58.19000 122.657
58.20000 123.467
58.21000 124.229
58.22000 123.857
58.23000 123.007
58.24000 121.899
58.25000 117.780
58.26000 112.795
58.27000 108.349
58.28000 113.418
58.29000 119.414
58.30000 124.385
58.31000 124.762
58.32000 124.585
58.33000 123.693
58.34000 120.640
58.35000 117.440
58.36000 115.264
58.37000 114.675
58.38000 114.271
58.39000 116.434
58.40000 122.187
58.41000 127.963
58.42000 129.717
58.43000 127.796
58.44000 125.894
58.45000 123.507
58.46000 120.880
58.47000 118.411
58.48000 119.516
58.49000 122.103
58.50000 124.507
58.51000 124.839
58.52000 124.586
58.53000 124.360
58.54000 120.669
58.55000 116.898
58.56000 114.832
58.57000 120.264
58.58000 126.579
58.59000 130.440
58.60000 127.017
58.61000 123.111
58.62000 120.470
58.63000 118.809
58.64000 117.593
58.65000 115.985
58.66000 113.838
58.67000 111.690
58.68000 112.335
58.69000 115.483
58.70000 118.601
58.71000 120.416
58.72000 121.432
58.73000 122.387
58.74000 121.998
58.75000 121.062
58.76000 120.167
58.77000 119.733
58.78000 119.426
58.79000 119.153
58.80000 116.675
58.81000 114.176
58.82000 113.707
58.83000 122.012
58.84000 131.328
58.85000 135.776
58.86000 126.021
58.87000 115.355
58.88000 108.185
58.89000 118.449
58.90000 126.433
58.91000 128.734
58.92000 123.371
58.93000 117.971
58.94000 116.764
58.95000 119.242
58.96000 121.694
58.97000 122.525
58.98000 122.409
58.99000 122.120
59.00000 118.220
59.01000 112.874
59.02000 108.239
59.03000 111.295
59.04000 116.446
59.05000 121.005
59.06000 120.847
59.07000 119.975
59.08000 118.722
59.09000 115.856
59.10000 112.809
59.11000 110.870
59.12000 112.108
59.13000 113.544
59.14000 114.503
59.15000 113.681
59.16000 113.037
59.17000 113.351
59.18000 114.935
59.19000 116.529
59.20000 121.412
59.21000 129.130
59.22000 136.762
59.23000 137.004
59.24000 133.084
59.25000 129.309
59.26000 128.489
59.27000 128.831
59.28000 128.930
59.29000 126.463
59.30000 123.308
59.31000 120.524
59.32000 114.074
59.33000 107.949
59.34000 103.940
59.35000 108.746
59.36000 114.520
59.37000 118.844
59.38000 119.080
59.39000 119.070
59.40000 119.064
59.41000 122.263
59.42000 124.688
59.43000 124.265
59.44000 120.140
59.45000 116.004
59.46000 113.944
59.47000 113.641
59.48000 113.342
59.49000 116.423
59.50000 121.295
59.51000 125.894
59.52000 125.172
59.53000 122.390
59.54000 119.695
59.55000 117.888
59.56000 116.314
59.57000 114.930
59.58000 116.004
59.59000 117.295
59.60000 118.399
59.61000 118.737
59.62000 118.993
59.63000 119.280
59.64000 119.657
59.65000 120.038
59.66000 120.290
59.67000 118.876
59.68000 117.804
59.69000 116.100
59.70000 113.588
59.71000 111.079
59.72000 111.127
59.73000 113.297
59.74000 115.439
59.75000 118.712
59.76000 122.511
59.77000 126.004
59.78000 123.719
59.79000 119.236
59.80000 115.015
59.81000 113.418
59.82000 112.499
59.83000 111.693
59.84000 116.989
59.85000 122.430
59.86000 125.637
59.87000 119.870
59.88000 113.162
59.89000 109.174
59.90000 112.597
59.91000 116.438
59.92000 118.957
59.93000 121.454
59.94000 123.289
59.95000 123.060
59.96000 120.244
59.97000 117.429
59.98000 117.725
59.99000 120.556
60.00000 123.348
60.01000 124.831
60.02000 125.577
60.03000 126.362
60.04000 127.844
60.05000 129.588
60.06000 130.589
60.07000 124.325
60.08000 116.218
60.09000 109.124
60.10000 110.996
60.11000 113.883
60.12000 116.501
60.13000 118.059
60.14000 119.508
60.15000 120.774
60.16000 121.548
60.17000 122.295
60.18000 122.782
60.19000 112.486
60.20000 104.766
60.21000 102.732
60.22000 107.685
60.23000 112.647
60.24000 114.180
60.25000 112.975
60.26000 111.786
60.27000 109.967
60.28000 107.871
60.29000 105.935
60.30000 106.825
60.31000 108.753
60.32000 110.566
60.33000 111.275
60.34000 111.709
60.35000 112.088
60.36000 114.790
60.37000 117.425
60.38000 119.796
60.39000 121.140
60.40000 122.381
60.41000 122.675
60.42000 120.473
60.43000 118.139
60.44000 116.629
60.45000 116.427
60.46000 116.298
60.47000 115.665
60.48000 114.423
60.49000 113.185
60.50000 113.481
60.51000 114.980
60.52000 116.457
60.53000 118.222
60.54000 120.082
60.55000 121.642
60.56000 118.080
60.57000 112.667
60.58000 108.068
60.59000 111.063
60.60000 115.918
60.61000 120.140
60.62000 119.324
60.63000 117.939
60.64000 117.217
60.65000 119.015
60.66000 121.058
60.67000 122.948
60.68000 124.442
60.69000 125.915
60.70000 126.862
60.71000 126.951
60.72000 127.003
60.73000 126.064
60.74000 123.949
60.75000 121.838
60.76000 120.881
60.77000 120.813
60.78000 120.746
60.79000 120.809
60.80000 120.937
60.81000 121.074
60.82000 121.375
60.83000 121.733
60.84000 122.233
60.85000 124.026
60.86000 126.129
60.87000 127.953
60.88000 124.939
60.89000 121.726
60.90000 119.569
60.91000 121.356
60.92000 123.518
60.93000 124.226
60.94000 121.238
60.95000 118.068
60.96000 116.043
60.97000 111.255
60.98000 107.735
60.99000 107.004
61.00000 109.512
61.01000 112.026
61.02000 115.079
61.03000 118.540
61.04000 121.942
61.05000 121.855
61.06000 120.050
61.07000 118.568
61.08000 122.282
61.09000 127.809
61.10000 132.376
61.11000 128.407
61.12000 122.423
61.13000 117.249
61.14000 118.959
61.15000 121.312
61.16000 124.078
61.17000 128.359
61.18000 132.781
61.19000 135.940
61.20000 135.945
61.21000 135.799
61.22000 135.706
61.23000 129.676
61.24000 125.226
61.25000 123.323
61.26000 124.320
61.27000 125.307
61.28000 124.026
61.29000 121.063
61.30000 118.153
61.31000 117.962
61.32000 119.093
61.33000 120.322
61.34000 123.064
61.35000 126.325
61.36000 129.042
61.37000 127.031
61.38000 123.925
61.39000 121.247
61.40000 119.817
61.41000 118.763
61.42000 118.502
61.43000 121.101
61.44000 123.957
61.45000 126.198
61.46000 126.931
61.47000 127.595
61.48000 128.013
61.49000 134.043
61.50000 138.472
61.51000 142.049
61.52000 144.673
61.53000 147.346
61.54000 158.192
61.55000 174.994
61.56000 191.476
61.57000 203.971
61.58000 214.117
61.59000 224.708
61.60000 242.029
61.61000 261.619
61.62000 279.794
61.63000 285.959
61.64000 289.390
61.65000 292.340
61.66000 294.594
61.67000 296.415
61.68000 299.570
61.69000 307.454
61.70000 315.753
61.71000 319.652
61.72000 312.922
61.73000 305.720
61.74000 301.214
61.75000 306.064
61.76000 309.664
61.77000 306.754
61.78000 296.713
61.79000 286.632
61.80000 271.225
61.81000 252.009
61.82000 233.178
61.83000 221.238
61.84000 212.965
61.85000 204.453
61.86000 192.428
61.87000 179.241
61.88000 166.172
61.89000 154.099
61.90000 142.248
61.91000 132.094
61.92000 134.195
61.93000 137.460
61.94000 139.968
61.95000 139.837
61.96000 139.480
61.97000 137.842
61.98000 133.163
61.99000 128.355
62.00000 125.366
62.01000 131.329
62.02000 135.710
62.03000 139.098
62.04000 141.418
62.05000 143.703
62.06000 141.231
62.07000 135.417
62.08000 129.725
62.09000 128.415
62.10000 129.162
62.11000 129.933
62.12000 131.037
62.13000 132.251
62.14000 132.828
62.15000 128.237
62.16000 122.515
62.17000 117.627
62.18000 122.329
62.19000 127.430
62.20000 130.368
62.21000 125.904
62.22000 120.823
62.23000 118.723
62.24000 123.581
62.25000 128.724
62.26000 131.897
62.27000 130.100
62.28000 128.764
62.29000 128.288
62.30000 128.718
62.31000 129.131
62.32000 127.438
62.33000 124.292
62.34000 121.215
62.35000 124.293
62.36000 130.008
62.37000 135.226
62.38000 133.570
62.39000 129.714
62.40000 126.541
62.41000 128.781
62.42000 132.186
62.43000 135.086
62.44000 130.944
62.45000 126.645
62.46000 123.968
62.47000 126.741
62.48000 129.957
62.49000 132.118
62.50000 131.856
62.51000 131.499
62.52000 131.280
62.53000 133.810
62.54000 135.645
62.55000 135.399
62.56000 133.004
62.57000 130.643
62.58000 131.939
62.59000 135.714
62.60000 139.401
62.61000 136.985
62.62000 131.982
62.63000 127.183
62.64000 125.138
62.65000 123.959
62.66000 123.380
62.67000 127.458
62.68000 132.520
62.69000 136.815
62.70000 134.795
62.71000 132.385
62.72000 129.769
62.73000 126.473
62.74000 123.124
62.75000 121.281
62.76000 122.836
62.77000 124.519
62.78000 125.543
62.79000 134.113
62.80000 140.291
62.81000 141.924
62.82000 138.957
62.83000 135.973
62.84000 131.185
62.85000 125.196
62.86000 119.353
62.87000 122.582
62.88000 129.592
62.89000 136.170
62.90000 137.091
62.91000 136.264
62.92000 135.253
62.93000 132.842
62.94000 130.142
62.95000 127.858
62.96000 129.098
62.97000 130.525
62.98000 131.928
62.99000 133.250
63.00000 134.566
63.01000 135.166
63.02000 134.178
63.03000 133.133
63.04000 132.501
63.05000 131.615
63.06000 130.982
63.07000 132.125
63.08000 135.028
63.09000 137.937
63.10000 141.283
63.11000 144.914
63.12000 148.454
63.13000 147.435
63.14000 144.529
63.15000 141.596
63.16000 138.309
63.17000 134.916
63.18000 132.238
63.19000 134.879
63.20000 138.601
63.21000 141.738
63.22000 141.288
63.23000 140.525
63.24000 139.444
63.25000 137.350
63.26000 135.181
63.27000 133.162
63.28000 131.469
63.29000 129.788
63.30000 128.781
63.31000 135.420
63.32000 140.185
63.33000 140.472
63.34000 136.408
63.35000 132.377
63.36000 131.301
63.37000 132.122
63.38000 132.921
63.39000 132.823
63.40000 132.357
63.41000 131.962
63.42000 132.453
63.43000 133.210
63.44000 133.957
63.45000 134.642
63.46000 135.315
63.47000 135.881
63.48000 133.550
63.49000 131.303
63.50000 130.555
63.51000 134.507
63.52000 138.800
63.53000 140.649
63.54000 137.261
63.55000 133.698
63.56000 131.579
63.57000 133.546
63.58000 134.962
63.59000 136.771
63.60000 138.953
63.61000 141.123
63.62000 142.335
63.63000 142.941
63.64000 143.531
63.65000 141.374
63.66000 138.201
63.67000 135.143
63.68000 133.488
63.69000 132.243
63.70000 131.287
63.71000 132.382
63.72000 133.878
63.73000 135.130
63.74000 142.279
63.75000 148.828
63.76000 152.641
63.77000 148.019
63.78000 142.804
63.79000 140.079
63.80000 142.600
63.81000 145.288
63.82000 146.875
63.83000 143.501
63.84000 141.093
63.85000 141.090
63.86000 143.334
63.87000 145.522
63.88000 143.584
63.89000 139.089
63.90000 134.724
63.91000 130.577
63.92000 126.728
63.93000 123.608
63.94000 129.055
63.95000 136.970
63.96000 143.789
63.97000 142.974
63.98000 140.695
63.99000 138.792
64.00000 141.859
64.01000 144.902
64.02000 147.423
64.03000 148.365
64.04000 149.199
64.05000 151.113
64.06000 155.262
64.07000 159.480
64.08000 161.950
64.09000 156.608
64.10000 152.812
64.11000 153.879
64.12000 159.401
64.13000 164.809
64.14000 162.416
64.15000 155.271
64.16000 148.342
64.17000 147.052
64.18000 148.049
64.19000 148.956
64.20000 148.826
64.21000 148.404
64.22000 148.081
64.23000 148.443
64.24000 148.933
64.25000 149.340
64.26000 149.431
64.27000 149.475
64.28000 150.263
64.29000 153.262
64.30000 156.409
64.31000 157.884
64.32000 155.958
64.33000 153.933
64.34000 152.757
64.35000 162.630
64.36000 169.604
64.37000 168.791
64.38000 160.981
64.39000 153.250
64.40000 150.538
64.41000 150.830
64.42000 151.113
64.43000 154.538
64.44000 158.993
64.45000 163.070
64.46000 162.939
64.47000 161.638
64.48000 160.413
64.49000 159.696
64.50000 159.073
64.51000 158.556
64.52000 161.494
64.53000 164.250
64.54000 166.168
64.55000 165.638
64.56000 164.950
64.57000 165.791
64.58000 169.692
64.59000 173.678
64.60000 175.976
64.61000 171.202
64.62000 167.834
64.63000 165.622
64.64000 164.427
64.65000 163.233
64.66000 162.073
64.67000 160.932
64.68000 159.828
64.69000 165.465
64.70000 173.344
64.71000 180.550
64.72000 180.457
64.73000 178.370
64.74000 176.563
64.75000 176.588
64.76000 176.946
64.77000 177.241
64.78000 178.798
64.79000 180.199
64.80000 181.084
64.81000 180.489
64.82000 179.801
64.83000 180.991
64.84000 185.875
64.85000 190.857
64.86000 193.705
64.87000 194.143
64.88000 194.441
64.89000 194.813
64.90000 195.249
64.91000 195.658
64.92000 194.585
64.93000 192.655
64.94000 190.791
64.95000 197.263
64.96000 206.464
64.97000 214.966
64.98000 216.068
64.99000 215.183
65.00000 214.170
65.01000 212.333
65.02000 210.349
65.03000 208.718
65.04000 215.832
65.05000 222.474
65.06000 229.139
65.07000 235.869
65.08000 242.604
65.09000 246.287
65.10000 244.070
65.11000 241.705
65.12000 240.364
65.13000 244.992
65.14000 248.231
65.15000 252.114
65.16000 256.541
65.17000 260.970
65.18000 265.470
65.19000 270.010
65.20000 274.390
65.21000 273.484
65.22000 270.703
65.23000 269.085
65.24000 279.475
65.25000 293.032
65.26000 304.422
65.27000 302.228
65.28000 297.669
65.29000 293.933
65.30000 306.730
65.31000 318.687
65.32000 326.725
65.33000 323.882
65.34000 320.400
65.35000 321.464
65.36000 331.164
65.37000 341.071
65.38000 346.640
65.39000 339.026
65.40000 333.718
65.41000 332.975
65.42000 336.032
65.43000 339.262
65.44000 351.166
65.45000 367.909
65.46000 384.039
65.47000 381.689
65.48000 372.865
65.49000 365.304
65.50000 370.465
65.51000 378.923
65.52000 386.885
65.53000 391.810
65.54000 396.218
65.55000 399.816
65.56000 399.270
65.57000 398.467
65.58000 400.902
65.59000 412.181
65.60000 423.962
65.61000 436.943
65.62000 452.163
65.63000 467.433
65.64000 475.946
65.65000 507.782
65.66000 529.876
65.67000 558.502
65.68000 592.462
65.69000 627.232
65.70000 700.348
65.71000 794.487
65.72000 885.044
65.73000 997.643
65.74000 1110.960
65.75000 1226.384
65.76000 1362.486
65.77000 1503.849
65.78000 1642.838
65.79000 1767.526
65.80000 1889.823
65.81000 1989.305
65.82000 2086.698
65.83000 2166.036
65.84000 2225.164
65.85000 2230.048
65.86000 2231.951
65.87000 2238.723
65.88000 2254.431
65.89000 2270.332
65.90000 2279.120
65.91000 2252.153
65.92000 2233.406
65.93000 2187.774
65.94000 2120.598
65.95000 2052.219
65.96000 1930.035
65.97000 1778.861
65.98000 1633.649
65.99000 1494.547
66.00000 1366.469
66.01000 1238.408
66.02000 1110.520
66.03000 982.674
66.04000 861.432
66.05000 779.150
66.06000 703.253
66.07000 641.750
66.08000 578.664
66.09000 527.147
66.10000 486.105
66.11000 472.696
66.12000 460.757
66.13000 448.328
66.14000 435.018
66.15000 421.691
66.16000 414.388
66.17000 394.902
66.18000 381.512
66.19000 376.300
66.20000 377.521
66.21000 378.851
66.22000 384.844
66.23000 393.306
66.24000 401.422
66.25000 413.420
66.26000 425.941
66.27000 438.913
66.28000 456.111
66.29000 474.347
66.30000 492.438
66.31000 509.694
66.32000 526.817
66.33000 540.639
66.34000 582.839
66.35000 619.389
66.36000 648.786
66.37000 659.634
66.38000 669.528
66.39000 677.330
66.40000 681.426
66.41000 685.450
66.42000 687.636
66.43000 693.230
66.44000 697.041
66.45000 693.888
66.46000 685.358
66.47000 676.757
66.48000 665.296
66.49000 652.345
66.50000 639.942
66.51000 629.620
66.52000 620.686
66.53000 609.395
66.54000 576.565
66.55000 538.544
66.56000 502.183
66.57000 475.227
66.58000 449.750
66.59000 429.264
66.60000 421.042
66.61000 415.322
66.62000 407.048
66.63000 392.265
66.64000 377.158
66.65000 367.533
66.66000 367.455
66.67000 367.549
66.68000 367.600
66.69000 366.073
66.70000 365.039
66.71000 366.475
66.72000 369.784
66.73000 372.953
66.74000 370.778
66.75000 365.868
66.76000 361.174
66.77000 365.423
66.78000 372.290
66.79000 378.663
66.80000 380.635
66.81000 381.566
66.82000 381.122
66.83000 373.041
66.84000 363.783
66.85000 356.368
66.86000 365.951
66.87000 374.982
66.88000 381.202
66.89000 380.381
66.90000 379.223
66.91000 376.736
66.92000 371.974
66.93000 367.174
66.94000 364.614
66.95000 365.959
66.96000 366.856
66.97000 363.446
66.98000 356.833
66.99000 350.582
67.00000 357.565
67.01000 371.200
67.02000 384.218
67.03000 386.196
67.04000 384.506
67.05000 383.272
67.06000 386.011
67.07000 389.673
67.08000 392.444
67.09000 390.356
67.10000 387.535
67.11000 385.285
67.12000 386.626
67.13000 387.970
67.14000 392.187
67.15000 403.478
67.16000 415.095
67.17000 421.869
67.18000 420.496
67.19000 418.994
67.20000 418.199
67.21000 409.359
67.22000 403.405
67.23000 406.834
67.24000 417.115
67.25000 427.029
67.26000 424.154
67.27000 414.958
67.28000 406.192
67.29000 400.392
67.30000 395.943
67.31000 392.533
67.32000 397.973
67.33000 405.431
67.34000 412.500
67.35000 417.490
67.36000 422.173
67.37000 425.894
67.38000 421.217
67.39000 416.853
67.40000 415.954
67.41000 423.446
67.42000 431.311
67.43000 431.566
67.44000 419.249
67.45000 406.744
67.46000 400.196
67.47000 406.892
67.48000 411.442
67.49000 417.763
67.50000 425.355
67.51000 432.780
67.52000 434.646
67.53000 433.811
67.54000 433.017
67.55000 432.629
67.56000 432.394
67.57000 432.759
67.58000 438.108
67.59000 444.574
67.60000 450.629
67.61000 454.531
67.62000 458.121
67.63000 460.962
67.64000 465.833
67.65000 469.887
67.66000 472.431
67.67000 471.381
67.68000 470.177
67.69000 468.302
67.70000 465.339
67.71000 462.361
67.72000 460.817
67.73000 464.197
67.74000 466.480
67.75000 468.914
67.76000 471.455
67.77000 473.888
67.78000 472.920
67.79000 470.329
67.80000 467.867
67.81000 473.877
67.82000 481.984
67.83000 489.347
67.84000 490.658
67.85000 490.639
67.86000 489.797
67.87000 484.728
67.88000 479.060
67.89000 474.594
67.90000 488.152
67.91000 500.231
67.92000 508.231
67.93000 506.687
67.94000 504.749
67.95000 504.425
67.96000 506.676
67.97000 508.959
67.98000 510.132
67.99000 501.692
68.00000 496.097
68.01000 500.911
68.02000 512.925
68.03000 524.608
68.04000 526.234
68.05000 523.140
68.06000 520.205
68.07000 521.486
68.08000 523.914
68.09000 525.711
68.10000 522.489
68.11000 518.183
68.12000 516.366
68.13000 527.099
68.14000 539.573
68.15000 549.362
68.16000 556.154
68.17000 561.391
68.18000 564.703
68.19000 563.590
68.20000 562.300
68.21000 562.743
68.22000 565.902
68.23000 569.093
68.24000 570.716
68.25000 570.999
68.26000 571.171
68.27000 569.345
68.28000 566.163
68.29000 563.172
68.30000 565.736
68.31000 570.864
68.32000 575.719
68.33000 583.631
68.34000 591.798
68.35000 598.778
68.36000 596.521
68.37000 592.308
68.38000 592.138
68.39000 611.985
68.40000 634.548
68.41000 652.178
68.42000 654.404
68.43000 655.206
68.44000 653.939
68.45000 647.992
68.46000 641.867
68.47000 645.811
68.48000 665.250
68.49000 684.860
68.50000 694.738
68.51000 708.830
68.52000 718.233
68.53000 726.117
68.54000 732.986
68.55000 740.138
68.56000 755.140
68.57000 773.701
68.58000 791.245
68.59000 817.019
68.60000 843.031
68.61000 870.353
68.62000 907.641
68.63000 947.001
68.64000 987.068
68.65000 1030.573
68.66000 1074.534
68.67000 1108.738
68.68000 1160.641
68.69000 1203.045
68.70000 1245.675
68.71000 1288.806
68.72000 1331.954
68.73000 1379.202
68.74000 1432.646
68.75000 1486.152
68.76000 1538.344
68.77000 1589.226
68.78000 1640.004
68.79000 1680.907
68.80000 1715.337
68.81000 1750.239
68.82000 1797.778
68.83000 1850.952
68.84000 1901.118
68.85000 1989.122
68.86000 2080.347
68.87000 2177.799
68.88000 2321.627
68.89000 2474.910
68.90000 2666.443
68.91000 3040.283
68.92000 3437.803
68.93000 3745.744
68.94000 4969.363
68.95000 5995.672
68.96000 7440.926
68.97000 9801.718
68.98000 12194.687
68.99000 15134.811
69.00000 18887.328
69.01000 22647.352
69.02000 26505.025
69.03000 30457.680
69.04000 34402.242
69.05000 37644.973
69.06000 40435.820
69.07000 43187.949
69.08000 44946.324
69.09000 46269.156
69.10000 47514.918
69.11000 48360.074
69.12000 49023.555
69.13000 49713.699
69.14000 50598.113
69.15000 51521.387
69.16000 52410.027
69.17000 53136.645
69.18000 53842.684
69.19000 54387.223
69.20000 53814.453
69.21000 53296.133
69.22000 52075.461
69.23000 49346.012
69.24000 46565.754
69.25000 43673.906
69.26000 40619.324
69.27000 37563.555
69.28000 34893.344
69.29000 32592.094
69.30000 30298.525
69.31000 28621.703
69.32000 27334.979
69.33000 26072.043
69.34000 25396.025
69.35000 24972.879
69.36000 24575.119
69.37000 24050.910
69.38000 23538.354
69.39000 22943.967
69.40000 21765.969
69.41000 20473.438
69.42000 19053.758
69.43000 17050.342
69.44000 14974.414
69.45000 13380.443
69.46000 11049.830
69.47000 9166.272
69.48000 7482.188
69.49000 6219.320
69.50000 4970.028
69.51000 3968.001
69.52000 3320.094
69.53000 2675.014
69.54000 2228.573
69.55000 1968.382
69.56000 1709.465
69.57000 1545.459
69.58000 1440.430
69.59000 1336.543
69.60000 1259.757
69.61000 1194.450
69.62000 1133.175
69.63000 1081.728
69.64000 1037.435
69.65000 995.113
69.66000 966.546
69.67000 940.626
69.68000 911.871
69.69000 870.334
69.70000 827.246
69.71000 794.310
69.72000 789.192
69.73000 786.663
69.74000 776.978
69.75000 752.439
69.76000 727.441
69.77000 704.269
69.78000 683.666
69.79000 663.086
69.80000 651.185
69.81000 647.263
69.82000 643.237
69.83000 632.047
69.84000 616.484
69.85000 601.573
69.86000 601.587
69.87000 607.814
69.88000 613.645
69.89000 608.872
69.90000 601.793
69.91000 594.780
69.92000 588.210
69.93000 581.725
69.94000 574.436
69.95000 563.596
69.96000 552.334
69.97000 543.765
69.98000 521.650
69.99000 503.539
70.00000 493.406
