20.00000 479.401
20.01000 475.983
20.02000 472.076
20.03000 469.682
20.04000 473.247
20.05000 477.422
20.06000 480.505
20.07000 481.717
20.08000 482.578
20.09000 481.871
20.10000 478.295
20.11000 474.659
20.12000 470.341
20.13000 465.187
20.14000 460.039
20.15000 459.507
20.16000 462.648
20.17000 465.746
20.18000 466.885
20.19000 466.974
20.20000 467.290
20.21000 471.637
20.22000 477.466
20.23000 482.843
20.24000 480.781
20.25000 477.272
20.26000 475.155
20.27000 481.215
20.28000 488.611
20.29000 494.106
20.30000 492.239
20.31000 489.637
20.32000 487.725
20.33000 482.665
20.34000 478.623
20.35000 474.767
20.36000 471.244
20.37000 467.727
20.38000 466.030
20.39000 466.527
20.40000 467.027
20.41000 466.732
20.42000 465.819
20.43000 464.995
20.44000 467.962
20.45000 472.929
20.46000 477.385
20.47000 473.067
20.48000 465.580
20.49000 458.688
20.50000 461.564
20.51000 466.274
20.52000 470.102
20.53000 468.847
20.54000 466.778
20.55000 465.732
20.56000 468.576
20.57000 471.798
20.58000 474.153
20.59000 473.169
20.60000 472.278
20.61000 471.127
20.62000 469.516
20.63000 467.898
20.64000 467.193
20.65000 467.568
20.66000 467.945
20.67000 471.160
20.68000 476.529
20.69000 481.727
20.70000 480.132
20.71000 475.011
20.72000 470.129
20.73000 469.225
20.74000 469.732
20.75000 470.197
20.76000 464.529
20.77000 458.156
20.78000 453.481
20.79000 458.404
20.80000 464.831
20.81000 467.390
20.82000 455.498
20.83000 442.235
20.84000 432.588
20.85000 448.233
20.86000 461.233
20.87000 469.641
20.88000 470.080
20.89000 470.376
20.90000 470.888
20.91000 471.650
20.92000 472.411
20.93000 473.961
20.94000 476.092
20.95000 478.196
20.96000 479.254
20.97000 479.779
20.98000 480.339
20.99000 481.473
21.00000 482.807
21.01000 484.029
21.02000 491.988
21.03000 500.491
21.04000 505.596
21.05000 491.873
21.06000 475.258
21.07000 462.164
21.08000 461.992
21.09000 463.015
21.10000 463.755
21.11000 468.201
21.12000 471.750
21.13000 477.485
21.14000 486.950
21.15000 496.479
21.16000 500.091
21.17000 496.970
21.18000 493.852
21.19000 488.066
21.20000 480.361
21.21000 472.753
21.22000 468.626
21.23000 466.246
21.24000 464.268
21.25000 468.568
21.26000 475.021
21.27000 480.921
21.28000 476.304
21.29000 470.035
21.30000 465.042
21.31000 466.982
21.32000 469.964
21.33000 473.991
21.34000 481.785
21.35000 489.917
21.36000 495.772
21.37000 483.947
21.38000 474.270
21.39000 470.189
21.40000 475.489
21.41000 480.937
21.42000 478.935
21.43000 468.614
21.44000 458.322
21.45000 459.849
21.46000 469.897
21.47000 479.820
21.48000 485.439
21.49000 488.936
21.50000 492.132
21.51000 490.771
21.52000 487.874
21.53000 485.231
21.54000 474.291
21.55000 462.914
21.56000 453.866
21.57000 457.222
21.58000 462.405
21.59000 466.285
21.60000 465.548
21.61000 464.407
21.62000 463.590
21.63000 466.049
21.64000 468.039
21.65000 473.856
21.66000 485.975
21.67000 498.187
21.68000 506.850
21.69000 511.627
21.70000 516.383
21.71000 522.005
21.72000 528.186
21.73000 534.294
21.74000 538.021
21.75000 540.593
21.76000 543.839
21.77000 556.982
21.78000 573.404
21.79000 588.351
21.80000 597.422
21.81000 604.289
21.82000 611.387
21.83000 619.691
21.84000 628.168
21.85000 637.695
21.86000 650.870
21.87000 664.357
21.88000 673.963
21.89000 683.104
21.90000 690.054
21.91000 704.101
21.92000 729.632
21.93000 755.321
21.94000 769.777
21.95000 772.173
21.96000 774.554
21.97000 776.750
21.98000 778.794
21.99000 780.906
22.00000 785.157
22.01000 790.427
22.02000 794.812
22.03000 786.559
22.04000 774.193
22.05000 762.964
22.06000 756.592
22.07000 751.904
22.08000 747.760
22.09000 746.404
22.10000 745.442
22.11000 741.555
22.12000 727.666
22.13000 712.944
22.14000 702.515
22.15000 676.930
22.16000 657.009
22.17000 644.850
22.18000 645.030
22.19000 645.368
22.20000 637.460
22.21000 620.870
22.22000 604.359
22.23000 588.181
22.24000 572.415
22.25000 556.924
22.26000 549.716
22.27000 546.384
22.28000 543.107
22.29000 540.590
22.30000 538.316
22.31000 536.256
22.32000 529.146
22.33000 521.922
22.34000 515.711
22.35000 514.593
22.36000 514.179
22.37000 513.823
22.38000 513.662
22.39000 513.518
22.40000 513.416
22.41000 506.075
22.42000 500.293
22.43000 493.512
22.44000 485.173
22.45000 476.816
22.46000 472.602
22.47000 472.663
22.48000 472.723
22.49000 468.704
22.50000 462.007
22.51000 455.473
22.52000 453.690
22.53000 454.092
22.54000 454.396
22.55000 453.391
22.56000 451.974
22.57000 450.694
22.58000 450.418
22.59000 450.362
22.60000 450.503
22.61000 451.619
22.62000 452.866
22.63000 452.904
22.64000 448.950
22.65000 444.682
22.66000 441.691
22.67000 447.716
22.68000 452.532
22.69000 452.017
22.70000 443.323
22.71000 434.540
22.72000 434.480
22.73000 443.246
22.74000 451.959
22.75000 451.546
22.76000 445.149
22.77000 439.000
22.78000 439.683
22.79000 443.456
22.80000 446.821
22.81000 444.857
22.82000 441.247
22.83000 437.992
22.84000 439.296
22.85000 441.270
22.86000 441.793
22.87000 435.289
22.88000 427.856
22.89000 420.517
22.90000 413.486
22.91000 406.478
22.92000 401.596
22.93000 419.782
22.94000 434.137
22.95000 442.215
22.96000 440.833
22.97000 439.356
22.98000 439.019
22.99000 439.812
23.00000 440.599
23.01000 438.808
23.02000 435.382
23.03000 432.246
23.04000 436.791
23.05000 444.751
23.06000 451.532
23.07000 443.300
23.08000 430.510
23.09000 419.008
23.10000 423.544
23.11000 430.372
23.12000 436.379
23.13000 438.481
23.14000 440.078
23.15000 440.789
23.16000 438.676
23.17000 436.352
23.18000 434.742
23.19000 430.139
23.20000 426.596
23.21000 424.623
23.22000 424.972
23.23000 425.342
23.24000 431.201
23.25000 442.392
23.26000 453.504
23.27000 452.365
23.28000 443.505
23.29000 434.772
23.30000 429.282
23.31000 425.210
23.32000 421.475
23.33000 421.920
23.34000 423.612
23.35000 425.130
23.36000 429.390
23.37000 433.593
23.38000 436.345
23.39000 432.339
23.40000 427.478
23.41000 424.508
23.42000 427.467
23.43000 430.855
23.44000 433.189
23.45000 432.267
23.46000 431.494
23.47000 433.243
23.48000 438.661
23.49000 444.109
23.50000 442.694
23.51000 434.741
23.52000 426.849
23.53000 424.240
23.54000 424.950
23.55000 425.506
23.56000 422.272
23.57000 417.409
23.58000 413.363
23.59000 419.173
23.60000 427.871
23.61000 435.653
23.62000 430.359
23.63000 423.510
23.64000 418.400
23.65000 421.245
23.66000 425.075
23.67000 425.818
23.68000 417.053
23.69000 407.618
23.70000 401.157
23.71000 419.615
23.72000 434.035
23.73000 442.431
23.74000 442.227
23.75000 441.956
23.76000 438.638
23.77000 432.474
23.78000 426.361
23.79000 428.468
23.80000 435.536
23.81000 442.211
23.82000 439.611
23.83000 433.093
23.84000 427.410
23.85000 431.514
23.86000 438.437
23.87000 444.615
23.88000 438.642
23.89000 431.414
23.90000 426.396
23.91000 431.308
23.92000 437.420
23.93000 441.278
23.94000 438.310
23.95000 434.875
23.96000 432.537
23.97000 438.473
23.98000 443.096
23.99000 447.273
24.00000 450.825
24.01000 454.370
24.02000 450.984
24.03000 441.253
24.04000 431.608
24.05000 431.042
24.06000 435.904
24.07000 440.475
24.08000 438.410
24.09000 433.591
24.10000 429.450
24.11000 433.058
24.12000 438.860
24.13000 444.023
24.14000 441.455
24.15000 437.961
24.16000 433.797
24.17000 426.678
24.18000 419.209
24.19000 415.794
24.20000 424.436
24.21000 433.878
24.22000 440.268
24.23000 425.948
24.24000 414.827
24.25000 410.027
24.26000 413.927
24.27000 417.881
24.28000 420.637
24.29000 422.318
24.30000 423.983
24.31000 421.168
24.32000 415.790
24.33000 410.662
24.34000 411.034
24.35000 413.651
24.36000 415.974
24.37000 415.033
24.38000 413.183
24.39000 411.541
24.40000 411.490
24.41000 411.701
24.42000 412.887
24.43000 418.293
24.44000 424.188
24.45000 426.995
24.46000 420.778
24.47000 413.979
24.48000 409.406
24.49000 412.496
24.50000 414.951
24.51000 414.383
24.52000 409.729
24.53000 405.054
24.54000 401.574
24.55000 399.146
24.56000 396.744
24.57000 401.055
24.58000 409.130
24.59000 416.773
24.60000 415.285
24.61000 410.135
24.62000 405.368
24.63000 404.759
24.64000 405.286
24.65000 405.752
24.66000 408.025
24.67000 410.274
24.68000 412.057
24.69000 411.860
24.70000 411.440
24.71000 410.547
24.72000 408.294
24.73000 405.957
24.74000 404.394
24.75000 398.728
24.76000 394.447
24.77000 393.420
24.78000 396.709
24.79000 400.016
24.80000 400.568
24.81000 398.738
24.82000 396.928
24.83000 396.686
24.84000 397.333
24.85000 397.874
24.86000 396.258
24.87000 393.790
24.88000 391.783
24.89000 394.635
24.90000 398.791
24.91000 402.460
24.92000 400.963
24.93000 398.880
24.94000 397.153
24.95000 396.911
24.96000 396.832
24.97000 397.118
24.98000 398.435
24.99000 399.814
25.00000 400.730
25.01000 404.407
25.02000 407.177
25.03000 407.695
25.04000 405.279
25.05000 402.851
25.06000 401.459
25.07000 400.945
25.08000 400.436
25.09000 400.826
25.10000 401.702
25.11000 402.683
25.12000 405.726
25.13000 409.568
25.14000 412.690
25.15000 408.375
25.16000 402.100
25.17000 396.575
25.18000 401.641
25.19000 407.590
25.20000 410.684
25.21000 402.074
25.22000 392.204
25.23000 386.730
25.24000 393.462
25.25000 400.910
25.26000 405.828
25.27000 417.608
25.28000 426.418
25.29000 425.724
25.30000 412.878
25.31000 399.999
25.32000 393.247
25.33000 391.591
25.34000 389.955
25.35000 390.661
25.36000 392.619
25.37000 394.201
25.38000 388.623
25.39000 380.316
25.40000 373.770
25.41000 384.936
25.42000 400.689
25.43000 414.518
25.44000 404.578
25.45000 392.554
25.46000 383.967
25.47000 389.212
25.48000 395.911
25.49000 400.209
25.50000 397.952
25.51000 395.322
25.52000 393.597
25.53000 391.036
25.54000 389.139
25.55000 390.974
25.56000 397.495
25.57000 404.018
25.58000 405.407
25.59000 402.605
25.60000 399.841
25.61000 400.388
25.62000 402.684
25.63000 404.922
25.64000 406.092
25.65000 406.862
25.66000 407.429
25.67000 406.013
25.68000 404.092
25.69000 402.410
25.70000 405.679
25.71000 409.191
25.72000 410.819
25.73000 405.001
25.74000 398.420
25.75000 394.455
25.76000 397.512
25.77000 400.954
25.78000 403.199
25.79000 399.477
25.80000 396.653
25.81000 393.689
25.82000 390.553
25.83000 387.425
25.84000 386.808
25.85000 388.203
25.86000 389.578
25.87000 389.458
25.88000 388.561
25.89000 387.764
25.90000 388.750
25.91000 390.394
25.92000 391.856
25.93000 391.580
25.94000 390.871
25.95000 390.252
25.96000 394.292
25.97000 398.402
25.98000 399.965
25.99000 391.639
26.00000 382.322
26.01000 377.895
26.02000 386.362
26.03000 395.513
26.04000 401.442
26.05000 397.642
26.06000 394.717
26.07000 390.077
26.08000 383.365
26.09000 376.660
26.10000 373.133
26.11000 372.105
26.12000 371.092
26.13000 373.574
26.14000 377.775
26.15000 381.943
26.16000 385.544
26.17000 388.941
26.18000 391.812
26.19000 389.768
26.20000 386.517
26.21000 383.688
26.22000 381.033
26.23000 378.789
26.24000 378.728
26.25000 386.990
26.26000 396.065
26.27000 403.047
26.28000 404.604
26.29000 405.883
26.30000 406.706
26.31000 393.799
26.32000 384.186
26.33000 380.940
26.34000 385.246
26.35000 389.550
26.36000 390.135
26.37000 387.850
26.38000 385.602
26.39000 386.685
26.40000 389.412
26.41000 391.891
26.42000 390.251
26.43000 387.144
26.44000 384.233
26.45000 383.113
26.46000 382.425
26.47000 381.827
26.48000 388.775
26.49000 395.704
26.50000 400.818
26.51000 399.137
26.52000 396.808
26.53000 396.255
26.54000 400.231
26.55000 404.430
26.56000 407.115
26.57000 401.847
26.58000 397.908
26.59000 392.569
26.60000 385.602
26.61000 378.642
26.62000 373.611
26.63000 370.042
26.64000 366.533
26.65000 368.551
26.66000 373.234
26.67000 377.817
26.68000 380.787
26.69000 383.194
26.70000 385.677
26.71000 388.839
26.72000 392.161
26.73000 395.036
26.74000 388.418
26.75000 381.550
26.76000 374.997
26.77000 369.602
26.78000 364.315
26.79000 361.293
26.80000 363.948
26.81000 366.874
26.82000 368.732
26.83000 366.399
26.84000 364.654
26.85000 364.952
26.86000 367.581
26.87000 370.223
26.88000 374.711
26.89000 380.572
26.90000 386.327
26.91000 388.063
26.92000 387.787
26.93000 387.415
26.94000 385.520
26.95000 383.102
26.96000 380.909
26.97000 380.679
26.98000 380.904
26.99000 381.098
27.00000 381.678
27.01000 382.219
27.02000 383.195
27.03000 385.745
27.04000 388.438
27.05000 390.107
27.06000 389.256
27.07000 388.288
27.08000 387.678
27.09000 390.593
27.10000 392.744
27.11000 389.375
27.12000 379.825
27.13000 370.316
27.14000 368.412
27.15000 372.062
27.16000 375.642
27.17000 374.446
27.18000 371.019
27.19000 367.961
27.20000 370.523
27.21000 374.983
27.22000 379.186
27.23000 381.196
27.24000 382.705
27.25000 384.003
27.26000 383.767
27.27000 383.376
27.28000 383.002
27.29000 382.693
27.30000 382.391
27.31000 381.706
27.32000 380.099
27.33000 378.450
27.34000 377.417
27.35000 367.399
27.36000 360.068
27.37000 357.373
27.38000 359.768
27.39000 362.149
27.40000 361.980
27.41000 359.982
27.42000 358.025
27.43000 364.110
27.44000 373.724
27.45000 382.793
27.46000 383.831
27.47000 382.202
27.48000 380.275
27.49000 375.871
27.50000 370.912
27.51000 366.662
27.52000 371.144
27.53000 375.996
27.54000 378.729
27.55000 374.069
27.56000 368.775
27.57000 365.645
27.58000 367.667
27.59000 369.911
27.60000 371.306
27.61000 371.672
27.62000 371.926
27.63000 376.327
27.64000 385.195
27.65000 393.998
27.66000 393.780
27.67000 387.210
27.68000 380.778
27.69000 376.652
27.70000 373.745
27.71000 370.900
27.72000 368.931
27.73000 367.249
27.74000 365.627
27.75000 364.490
27.76000 363.459
27.77000 362.579
27.78000 369.885
27.79000 377.019
27.80000 382.019
27.81000 379.704
27.82000 376.777
27.83000 373.248
27.84000 368.309
27.85000 363.311
27.86000 360.225
27.87000 369.473
27.88000 376.230
27.89000 378.943
27.90000 377.387
27.91000 375.809
27.92000 371.665
27.93000 365.747
27.94000 359.958
27.95000 362.158
27.96000 367.864
27.97000 372.878
27.98000 368.269
27.99000 360.574
28.00000 353.937
28.01000 355.716
28.02000 359.309
28.03000 362.370
28.04000 361.214
28.05000 359.752
28.06000 360.456
28.07000 368.460
28.08000 377.059
28.09000 382.152
28.10000 379.182
28.11000 375.892
28.12000 373.875
28.13000 374.403
28.14000 374.802
28.15000 374.064
28.16000 372.147
28.17000 370.252
28.18000 370.780
28.19000 372.955
28.20000 375.079
28.21000 367.722
28.22000 356.488
28.23000 346.383
28.24000 351.522
28.25000 361.468
28.26000 370.108
28.27000 368.605
28.28000 364.955
28.29000 361.856
28.30000 367.313
28.31000 372.864
28.32000 376.771
28.33000 375.233
28.34000 373.264
28.35000 370.457
28.36000 365.754
28.37000 360.979
28.38000 358.073
28.39000 367.238
28.40000 373.879
28.41000 371.737
28.42000 360.682
28.43000 349.705
28.44000 346.689
28.45000 348.982
28.46000 351.219
28.47000 350.302
28.48000 348.058
28.49000 346.184
28.50000 349.182
28.51000 353.690
28.52000 358.411
28.53000 364.756
28.54000 371.438
28.55000 377.092
28.56000 375.822
28.57000 373.989
28.58000 373.142
28.59000 375.502
28.60000 378.109
28.61000 379.317
28.62000 377.416
28.63000 375.401
28.64000 374.184
28.65000 369.658
28.66000 366.411
28.67000 366.380
28.68000 369.549
28.69000 372.641
28.70000 368.552
28.71000 359.760
28.72000 351.189
28.73000 348.342
28.74000 348.059
28.75000 347.865
28.76000 348.806
28.77000 350.092
28.78000 351.251
28.79000 351.460
28.80000 351.475
28.81000 351.488
28.82000 354.199
28.83000 356.756
28.84000 358.781
28.85000 359.106
28.86000 359.303
28.87000 359.241
28.88000 358.613
28.89000 357.965
28.90000 357.576
28.91000 361.088
28.92000 363.608
28.93000 366.365
28.94000 369.352
28.95000 372.254
28.96000 367.744
28.97000 358.465
28.98000 349.430
28.99000 350.631
29.00000 356.048
29.01000 361.006
29.02000 360.259
29.03000 357.805
29.04000 355.137
29.05000 350.903
29.06000 346.355
29.07000 342.533
29.08000 351.164
29.09000 359.673
29.10000 363.753
29.11000 353.914
29.12000 343.062
29.13000 338.798
29.14000 348.681
29.15000 359.040
29.16000 365.205
29.17000 358.440
29.18000 353.571
29.19000 350.744
29.20000 349.869
29.21000 349.024
29.22000 350.597
29.23000 353.698
29.24000 356.715
29.25000 358.749
29.26000 360.282
29.27000 361.986
29.28000 365.759
29.29000 370.141
29.30000 373.458
29.31000 369.185
29.32000 363.424
29.33000 358.597
29.34000 357.793
29.35000 357.540
29.36000 356.062
29.37000 350.802
29.38000 345.274
29.39000 343.522
29.40000 349.740
29.41000 356.215
29.42000 360.038
29.43000 366.288
29.44000 370.713
29.45000 368.504
29.46000 360.081
29.47000 351.776
29.48000 352.318
29.49000 358.356
29.50000 364.221
29.51000 362.095
29.52000 356.864
29.53000 352.023
29.54000 351.776
29.55000 352.856
29.56000 353.337
29.57000 349.629
29.58000 345.116
29.59000 341.348
29.60000 349.201
29.61000 356.886
29.62000 361.377
29.63000 356.178
29.64000 350.314
29.65000 348.383
29.66000 354.612
29.67000 361.093
29.68000 364.891
29.69000 371.208
29.70000 375.668
29.71000 376.781
29.72000 374.818
29.73000 372.943
29.74000 377.206
29.75000 385.215
29.76000 392.983
29.77000 389.187
29.78000 381.028
29.79000 374.263
29.80000 383.504
29.81000 397.287
29.82000 410.358
29.83000 418.574
29.84000 425.872
29.85000 431.943
29.86000 428.724
29.87000 425.146
29.88000 424.821
29.89000 434.197
29.90000 444.220
29.91000 448.944
29.92000 442.860
29.93000 436.459
29.94000 432.737
29.95000 435.325
29.96000 437.171
29.97000 439.883
29.98000 443.376
29.99000 446.854
30.00000 449.345
30.01000 451.244
30.02000 453.084
30.03000 449.808
30.04000 444.726
30.05000 440.157
30.06000 441.312
30.07000 444.063
30.08000 446.149
30.09000 443.787
30.10000 440.602
30.11000 437.962
30.12000 434.578
30.13000 431.711
30.14000 428.403
30.15000 423.801
30.16000 419.116
30.17000 416.597
30.18000 418.422
30.19000 420.369
30.20000 421.492
30.21000 414.349
30.22000 409.317
30.23000 408.291
30.24000 410.802
30.25000 413.175
30.26000 407.113
30.27000 396.082
30.28000 385.410
30.29000 381.906
30.30000 381.320
30.31000 380.611
30.32000 378.569
30.33000 376.163
30.34000 375.095
30.35000 382.800
30.36000 392.097
30.37000 399.776
30.38000 400.334
30.39000 400.129
30.40000 397.576
30.41000 388.258
30.42000 378.515
30.43000 373.208
30.44000 376.644
30.45000 380.312
30.46000 382.411
30.47000 388.094
30.48000 392.068
30.49000 391.191
30.50000 386.111
30.51000 381.079
30.52000 378.821
30.53000 378.168
30.54000 377.537
30.55000 374.697
30.56000 371.195
30.57000 368.445
30.58000 373.666
30.59000 381.033
30.60000 388.051
30.61000 392.836
30.62000 397.225
30.63000 400.836
30.64000 394.456
30.65000 388.301
30.66000 383.600
30.67000 383.018
30.68000 382.685
30.69000 383.473
30.70000 386.431
30.71000 389.444
30.72000 391.153
30.73000 401.522
30.74000 408.759
30.75000 410.284
30.76000 406.953
30.77000 403.759
30.78000 407.910
30.79000 416.239
30.80000 424.276
30.81000 425.649
30.82000 424.505
30.83000 424.249
30.84000 433.197
30.85000 444.577
30.86000 455.796
30.87000 466.010
30.88000 476.047
30.89000 484.278
30.90000 493.506
30.91000 501.164
30.92000 509.053
30.93000 517.582
30.94000 526.150
30.95000 538.550
30.96000 558.248
30.97000 578.122
30.98000 589.306
30.99000 629.645
31.00000 657.743
31.01000 695.693
31.02000 741.861
31.03000 787.865
31.04000 825.622
31.05000 858.767
31.06000 890.704
31.07000 963.371
31.08000 1046.263
31.09000 1127.953
31.10000 1197.507
31.11000 1263.911
31.12000 1332.362
31.13000 1413.425
31.14000 1496.645
31.15000 1564.627
31.16000 1674.600
31.17000 1768.239
31.18000 1860.788
31.19000 1950.356
31.20000 2039.754
31.21000 2126.071
31.22000 2206.624
31.23000 2287.044
31.24000 2331.922
31.25000 2452.757
31.26000 2536.527
31.27000 2606.483
31.28000 2665.132
31.29000 2723.928
31.30000 2789.764
31.31000 2859.467
31.32000 2926.531
31.33000 2928.268
31.34000 2906.890
31.35000 2885.407
31.36000 2862.893
31.37000 2840.116
31.38000 2816.223
31.39000 2785.600
31.40000 2753.849
31.41000 2728.008
31.42000 2612.774
31.43000 2511.150
31.44000 2412.966
31.45000 2324.034
31.46000 2235.613
31.47000 2151.775
31.48000 2076.365
31.49000 2001.137
31.50000 1959.515
31.51000 1813.298
31.52000 1712.199
31.53000 1609.707
31.54000 1506.097
31.55000 1402.950
31.56000 1320.692
31.57000 1249.713
31.58000 1181.521
31.59000 1114.097
31.60000 1051.245
31.61000 988.327
31.62000 924.762
31.63000 861.036
31.64000 801.070
31.65000 763.350
31.66000 729.284
31.67000 701.666
31.68000 663.056
31.69000 630.696
31.70000 601.205
31.71000 579.298
31.72000 557.796
31.73000 536.972
31.74000 517.373
31.75000 497.800
31.76000 487.064
31.77000 456.825
31.78000 436.035
31.79000 427.772
31.80000 429.386
31.81000 430.866
31.82000 426.581
31.83000 419.239
31.84000 412.195
31.85000 407.378
31.86000 403.633
31.87000 399.528
31.88000 392.055
31.89000 383.752
31.90000 376.712
31.91000 376.992
31.92000 378.450
31.93000 379.627
31.94000 366.672
31.95000 355.015
31.96000 348.085
31.97000 353.444
31.98000 359.436
31.99000 363.524
32.00000 364.228
32.01000 364.868
32.02000 365.216
32.03000 358.744
32.04000 354.294
32.05000 349.307
32.06000 343.905
32.07000 338.589
32.08000 336.771
32.09000 336.777
32.10000 336.783
32.11000 337.236
32.12000 337.806
32.13000 338.360
32.14000 338.763
32.15000 339.129
32.16000 339.585
32.17000 340.548
32.18000 341.592
32.19000 342.432
32.20000 336.257
32.21000 330.704
32.22000 326.004
32.23000 323.480
32.24000 321.064
32.25000 318.529
32.26000 315.788
32.27000 313.043
32.28000 311.563
32.29000 317.926
32.30000 322.261
32.31000 321.477
32.32000 316.804
32.33000 312.299
32.34000 314.282
32.35000 319.589
32.36000 324.666
32.37000 320.506
32.38000 313.620
32.39000 307.821
32.40000 311.760
32.41000 318.007
32.42000 323.860
32.43000 327.509
32.44000 330.818
32.45000 333.470
32.46000 325.287
32.47000 317.847
32.48000 314.384
32.49000 320.908
32.50000 327.913
32.51000 330.221
32.52000 324.477
32.53000 318.596
32.54000 315.455
32.55000 317.611
32.56000 319.078
32.57000 319.334
32.58000 318.685
32.59000 318.087
32.60000 319.307
32.61000 321.445
32.62000 323.486
32.63000 319.588
32.64000 314.065
32.65000 309.170
32.66000 309.768
32.67000 311.645
32.68000 312.937
32.69000 311.030
32.70000 308.640
32.71000 306.732
32.72000 308.444
32.73000 310.091
32.74000 313.694
32.75000 322.121
32.76000 330.772
32.77000 334.816
32.78000 331.097
32.79000 327.253
32.80000 325.220
32.81000 312.102
32.82000 303.235
32.83000 303.401
32.84000 310.180
32.85000 316.839
32.86000 319.274
32.87000 319.618
32.88000 319.946
32.89000 321.759
32.90000 323.906
32.91000 325.673
32.92000 324.194
32.93000 321.973
32.94000 319.535
32.95000 315.936
32.96000 312.165
32.97000 309.168
32.98000 305.028
32.99000 301.611
33.00000 300.804
33.01000 306.330
33.02000 312.139
33.03000 315.878
33.04000 316.192
33.05000 316.454
33.06000 316.591
33.07000 322.512
33.08000 326.488
33.09000 324.744
33.10000 318.887
33.11000 313.133
33.12000 310.808
33.13000 310.152
33.14000 309.528
33.15000 310.183
33.16000 311.182
33.17000 311.453
33.18000 305.640
33.19000 298.462
33.20000 292.534
33.21000 293.175
33.22000 294.769
33.23000 296.031
33.24000 293.052
33.25000 290.364
33.26000 288.752
33.27000 289.710
33.28000 290.777
33.29000 292.819
33.30000 296.445
33.31000 300.094
33.32000 301.988
33.33000 295.975
33.34000 291.981
33.35000 297.257
33.36000 309.078
33.37000 320.438
33.38000 317.123
33.39000 306.785
33.40000 296.962
33.41000 289.815
33.42000 284.020
33.43000 279.472
33.44000 285.105
33.45000 292.980
33.46000 299.180
33.47000 296.745
33.48000 293.084
33.49000 290.197
33.50000 290.477
33.51000 290.914
33.52000 292.411
33.53000 296.394
33.54000 300.480
33.55000 301.328
33.56000 297.001
33.57000 292.606
33.58000 290.346
33.59000 299.596
33.60000 305.794
33.61000 308.429
33.62000 308.592
33.63000 308.665
33.64000 305.996
33.65000 302.037
33.66000 298.282
33.67000 299.669
33.68000 302.472
33.69000 304.496
33.70000 300.307
33.71000 294.774
33.72000 289.419
33.73000 284.966
33.74000 280.639
33.75000 277.241
33.76000 283.888
33.77000 289.862
33.78000 292.470
33.79000 287.318
33.80000 281.857
33.81000 279.000
33.82000 280.231
33.83000 281.511
33.84000 282.163
33.85000 292.928
33.86000 300.100
33.87000 301.623
33.88000 299.299
33.89000 297.056
33.90000 297.164
33.91000 298.361
33.92000 299.494
33.93000 297.075
33.94000 293.816
33.95000 290.891
33.96000 290.566
33.97000 290.794
33.98000 291.533
33.99000 294.809
34.00000 298.430
34.01000 301.261
34.02000 300.458
34.03000 299.587
34.04000 295.795
34.05000 285.383
34.06000 274.717
34.07000 270.561
34.08000 276.445
34.09000 282.441
34.10000 285.465
34.11000 294.937
34.12000 301.257
34.13000 306.230
34.14000 310.302
34.15000 314.177
34.16000 312.531
34.17000 308.375
34.18000 304.447
34.19000 301.936
34.20000 300.035
34.21000 298.286
34.22000 297.694
34.23000 297.343
34.24000 298.027
34.25000 303.748
34.26000 310.140
34.27000 315.116
34.28000 311.360
34.29000 307.831
34.30000 304.713
34.31000 302.508
34.32000 300.337
34.33000 297.007
34.34000 291.921
34.35000 286.818
34.36000 286.522
34.37000 291.021
34.38000 295.472
34.39000 295.423
34.40000 292.418
34.41000 289.480
34.42000 288.341
34.43000 288.004
34.44000 287.686
34.45000 291.025
34.46000 295.110
34.47000 299.201
34.48000 303.347
34.49000 307.504
34.50000 310.369
34.51000 307.057
34.52000 302.941
34.53000 299.751
34.54000 295.119
34.55000 291.352
34.56000 290.127
34.57000 294.468
34.58000 299.006
34.59000 301.094
34.60000 299.538
34.61000 297.946
34.62000 297.355
34.63000 297.741
34.64000 298.115
34.65000 297.342
34.66000 295.831
34.67000 294.284
34.68000 291.820
34.69000 288.953
34.70000 286.253
34.71000 281.131
34.72000 275.780
34.73000 271.355
34.74000 273.695
34.75000 277.391
34.76000 280.657
34.77000 281.903
34.78000 282.891
34.79000 283.654
34.80000 278.097
34.81000 273.327
34.82000 273.392
34.83000 283.870
34.84000 294.699
34.85000 300.471
34.86000 298.851
34.87000 297.168
34.88000 294.423
34.89000 290.662
34.90000 286.908
34.91000 283.775
34.92000 281.036
34.93000 278.345
34.94000 276.882
34.95000 275.948
34.96000 275.070
34.97000 277.026
34.98000 279.574
34.99000 281.796
35.00000 281.677
35.01000 281.098
35.02000 279.966
35.03000 276.289
35.04000 272.294
35.05000 269.225
35.06000 271.486
35.07000 273.574
35.08000 276.622
35.09000 281.702
35.10000 286.848
35.11000 289.244
35.12000 287.691
35.13000 286.107
35.14000 282.811
35.15000 277.907
35.16000 273.044
35.17000 271.217
35.18000 271.282
35.19000 271.293
35.20000 270.034
35.21000 268.234
35.22000 266.546
35.23000 274.485
35.24000 284.262
35.25000 292.038
35.26000 285.805
35.27000 276.868
35.28000 269.054
35.29000 266.313
35.30000 264.189
35.31000 262.565
35.32000 268.293
35.33000 273.212
35.34000 276.182
35.35000 275.100
35.36000 273.893
35.37000 271.284
35.38000 266.702
35.39000 262.106
35.40000 261.132
35.41000 263.493
35.42000 265.790
35.43000 263.607
35.44000 258.683
35.45000 254.058
35.46000 256.307
35.47000 261.424
35.48000 266.217
35.49000 269.887
35.50000 272.935
35.51000 275.582
35.52000 275.481
35.53000 274.861
35.54000 273.844
35.55000 271.070
35.56000 268.086
35.57000 265.815
35.58000 270.320
35.59000 274.223
35.60000 276.546
35.61000 275.641
35.62000 274.640
35.63000 270.636
35.64000 262.476
35.65000 254.291
35.66000 252.506
35.67000 256.499
35.68000 260.413
35.69000 259.167
35.70000 254.820
35.71000 250.877
35.72000 255.886
35.73000 264.566
35.74000 272.681
35.75000 276.979
35.76000 279.912
35.77000 282.404
35.78000 281.937
35.79000 280.922
35.80000 279.973
35.81000 279.312
35.82000 278.685
35.83000 278.209
35.84000 272.369
35.85000 267.510
35.86000 262.502
35.87000 257.198
35.88000 251.885
35.89000 252.086
35.90000 259.782
35.91000 267.516
35.92000 267.346
35.93000 260.183
35.94000 253.175
35.95000 255.724
35.96000 263.919
35.97000 271.757
35.98000 271.996
35.99000 269.171
36.00000 266.535
36.01000 267.457
36.02000 269.178
36.03000 269.981
36.04000 264.754
36.05000 258.430
36.06000 253.828
36.07000 256.581
36.08000 260.170
36.09000 262.878
36.10000 253.196
36.11000 245.001
36.12000 239.573
36.13000 239.614
36.14000 239.803
36.15000 243.066
36.16000 250.433
36.17000 257.816
36.18000 265.297
36.19000 272.850
36.20000 280.221
36.21000 277.076
36.22000 267.828
36.23000 258.852
36.24000 255.465
36.25000 254.293
36.26000 253.201
36.27000 256.075
36.28000 259.641
36.29000 263.756
36.30000 271.408
36.31000 279.692
36.32000 284.278
36.33000 273.347
36.34000 260.694
36.35000 251.193
36.36000 255.501
36.37000 259.526
36.38000 261.544
36.39000 259.667
36.40000 257.690
36.41000 257.718
36.42000 260.374
36.43000 263.040
36.44000 261.196
36.45000 255.520
36.46000 249.934
36.47000 249.210
36.48000 251.260
36.49000 253.175
36.50000 252.418
36.51000 250.619
36.52000 248.948
36.53000 255.572
36.54000 263.534
36.55000 270.114
36.56000 267.984
36.57000 264.331
36.58000 262.750
36.59000 269.711
36.60000 277.597
36.61000 283.490
36.62000 276.907
36.63000 271.199
36.64000 265.890
36.65000 261.344
36.66000 256.816
36.67000 253.610
36.68000 252.103
36.69000 250.605
36.70000 247.403
36.71000 242.788
36.72000 238.409
36.73000 245.994
36.74000 260.286
36.75000 273.885
36.76000 274.194
36.77000 269.414
36.78000 264.980
36.79000 259.887
36.80000 255.146
36.81000 250.927
36.82000 249.930
36.83000 249.486
36.84000 250.075
36.85000 254.849
36.86000 260.065
36.87000 263.944
36.88000 268.977
36.89000 272.943
36.90000 272.987
36.91000 265.674
36.92000 258.191
36.93000 254.112
36.94000 254.329
36.95000 254.560
36.96000 255.551
36.97000 257.162
36.98000 258.733
36.99000 258.422
37.00000 257.073
37.01000 255.962
37.02000 259.274
37.03000 264.250
37.04000 268.855
37.05000 268.187
37.06000 266.375
37.07000 264.411
37.08000 261.526
37.09000 258.485
37.10000 256.039
37.11000 255.953
37.12000 256.112
37.13000 256.229
37.14000 258.165
37.15000 259.745
37.16000 259.829
37.17000 257.156
37.18000 254.422
37.19000 253.495
37.20000 254.806
37.21000 256.121
37.22000 253.625
37.23000 248.082
37.24000 242.623
37.25000 240.967
37.26000 241.370
37.27000 242.104
37.28000 248.790
37.29000 257.679
37.30000 265.888
37.31000 259.872
37.32000 251.273
37.33000 243.923
37.34000 243.992
37.35000 245.283
37.36000 246.801
37.37000 249.201
37.38000 251.691
37.39000 253.524
37.40000 249.809
37.41000 246.704
37.42000 244.691
37.43000 244.659
37.44000 244.668
37.45000 247.416
37.46000 253.493
37.47000 259.567
37.48000 261.446
37.49000 260.016
37.50000 258.550
37.51000 255.549
37.52000 251.730
37.53000 248.075
37.54000 247.250
37.55000 247.454
37.56000 247.643
37.57000 252.337
37.58000 257.534
37.59000 261.225
37.60000 256.156
37.61000 249.674
37.62000 245.846
37.63000 252.197
37.64000 259.549
37.65000 264.935
37.66000 256.895
37.67000 250.150
37.68000 245.234
37.69000 243.576
37.70000 241.981
37.71000 243.376
37.72000 248.335
37.73000 253.290
37.74000 252.867
37.75000 248.296
37.76000 243.949
37.77000 248.734
37.78000 258.293
37.79000 267.115
37.80000 263.520
37.81000 255.486
37.82000 248.097
37.83000 249.582
37.84000 252.827
37.85000 256.040
37.86000 259.068
37.87000 262.066
37.88000 263.527
37.89000 259.197
37.90000 254.312
37.91000 250.751
37.92000 254.838
37.93000 258.282
37.94000 260.562
37.95000 260.805
37.96000 261.011
37.97000 260.729
37.98000 259.878
37.99000 259.027
38.00000 256.329
38.01000 252.251
38.02000 248.302
38.03000 249.387
38.04000 253.058
38.05000 256.305
38.06000 252.622
38.07000 246.504
38.08000 240.890
38.09000 240.274
38.10000 240.783
38.11000 242.901
38.12000 254.012
38.13000 266.516
38.14000 274.886
38.15000 267.965
38.16000 259.613
38.17000 253.557
38.18000 259.391
38.19000 264.317
38.20000 266.230
38.21000 262.964
38.22000 259.609
38.23000 257.595
38.24000 257.120
38.25000 256.648
38.26000 260.246
38.27000 266.838
38.28000 273.594
38.29000 286.402
38.30000 302.267
38.31000 317.414
38.32000 321.216
38.33000 321.100
38.34000 320.994
38.35000 326.380
38.36000 332.312
38.37000 339.774
38.38000 355.617
38.39000 372.734
38.40000 385.999
38.41000 385.269
38.42000 383.263
38.43000 381.816
38.44000 391.964
38.45000 400.158
38.46000 412.293
38.47000 431.086
38.48000 449.986
38.49000 463.451
38.50000 470.795
38.51000 478.110
38.52000 492.195
38.53000 511.097
38.54000 529.693
38.55000 537.551
38.56000 540.077
38.57000 542.425
38.58000 542.048
38.59000 540.746
38.60000 539.557
38.61000 542.492
38.62000 545.937
38.63000 549.074
38.64000 550.552
38.65000 551.784
38.66000 554.644
38.67000 563.322
38.68000 572.516
38.69000 579.115
38.70000 571.653
38.71000 565.463
38.72000 555.832
38.73000 540.488
38.74000 525.057
38.75000 520.025
38.76000 526.477
38.77000 532.911
38.78000 525.273
38.79000 507.651
38.80000 490.162
38.81000 477.105
38.82000 466.211
38.83000 455.434
38.84000 446.381
38.85000 437.905
38.86000 430.181
38.87000 413.604
38.88000 397.153
38.89000 381.892
38.90000 372.903
38.91000 364.826
38.92000 357.306
38.93000 351.740
38.94000 346.343
38.95000 342.490
38.96000 331.678
38.97000 323.201
38.98000 314.701
38.99000 306.166
39.00000 297.630
39.01000 291.347
39.02000 287.505
39.03000 283.679
39.04000 279.494
39.05000 275.099
39.06000 270.621
39.07000 263.490
39.08000 255.086
39.09000 247.266
39.10000 247.880
39.11000 251.262
39.12000 254.335
39.13000 252.639
39.14000 250.209
39.15000 248.137
39.16000 247.920
39.17000 247.968
39.18000 246.542
39.19000 240.036
39.20000 233.103
39.21000 228.180
39.22000 236.981
39.23000 244.114
39.24000 246.138
39.25000 239.976
39.26000 233.706
39.27000 233.049
39.28000 238.352
39.29000 243.632
39.30000 242.862
39.31000 237.940
39.32000 233.114
39.33000 231.224
39.34000 230.718
39.35000 230.320
39.36000 231.427
39.37000 233.019
39.38000 234.463
39.39000 233.535
39.40000 232.262
39.41000 230.955
39.42000 229.476
39.43000 227.972
39.44000 227.750
39.45000 231.869
39.46000 236.344
39.47000 239.505
39.48000 236.764
39.49000 234.504
39.50000 232.734
39.51000 231.736
39.52000 230.747
39.53000 228.840
39.54000 225.977
39.55000 223.129
39.56000 225.545
39.57000 231.481
39.58000 237.253
39.59000 238.194
39.60000 236.896
39.61000 235.531
39.62000 233.244
39.63000 230.666
39.64000 228.333
39.65000 228.578
39.66000 229.277
39.67000 230.885
39.68000 237.016
39.69000 243.764
39.70000 246.628
39.71000 236.567
39.72000 225.474
39.73000 217.683
39.74000 219.169
39.75000 220.564
39.76000 222.939
39.77000 226.828
39.78000 230.734
39.79000 231.021
39.80000 227.613
39.81000 224.225
39.82000 227.531
39.83000 235.223
39.84000 242.612
39.85000 241.453
39.86000 236.400
39.87000 231.800
39.88000 233.225
39.89000 236.525
39.90000 239.504
39.91000 237.022
39.92000 233.840
39.93000 231.105
39.94000 230.557
39.95000 230.300
39.96000 230.170
39.97000 230.454
39.98000 230.769
39.99000 230.990
40.00000 226.046
40.01000 222.167
40.02000 219.447
40.03000 218.486
40.04000 217.544
40.05000 217.478
40.06000 218.290
40.07000 219.096
40.08000 220.495
40.09000 222.261
40.10000 223.974
40.11000 224.274
40.12000 223.941
40.13000 223.768
40.14000 225.659
40.15000 228.182
40.16000 230.453
40.17000 227.059
40.18000 223.066
40.19000 220.287
40.20000 223.328
40.21000 227.128
40.22000 229.023
40.23000 224.796
40.24000 220.107
40.25000 216.850
40.26000 218.956
40.27000 220.687
40.28000 221.634
40.29000 221.412
40.30000 221.180
40.31000 220.635
40.32000 219.784
40.33000 218.938
40.34000 219.278
40.35000 220.366
40.36000 221.565
40.37000 225.622
40.38000 230.938
40.39000 235.521
40.40000 230.917
40.41000 223.552
40.42000 216.938
40.43000 214.273
40.44000 212.636
40.45000 212.264
40.46000 217.838
40.47000 224.171
40.48000 228.517
40.49000 226.589
40.50000 224.200
40.51000 222.550
40.52000 217.882
40.53000 214.296
40.54000 211.846
40.55000 211.061
40.56000 210.290
40.57000 212.105
40.58000 216.405
40.59000 220.672
40.60000 220.699
40.61000 218.074
40.62000 215.669
40.63000 218.734
40.64000 224.167
40.65000 229.074
40.66000 227.568
40.67000 224.168
40.68000 221.122
40.69000 217.219
40.70000 213.663
40.71000 211.295
40.72000 214.406
40.73000 218.201
40.74000 221.064
40.75000 221.031
40.76000 220.792
40.77000 220.628
40.78000 213.646
40.79000 208.246
40.80000 207.087
40.81000 212.032
40.82000 217.026
40.83000 219.099
40.84000 218.422
40.85000 217.750
40.86000 218.792
40.87000 220.866
40.88000 222.917
40.89000 224.433
40.90000 225.722
40.91000 226.379
40.92000 219.545
40.93000 210.536
40.94000 202.488
40.95000 206.489
40.96000 212.007
40.97000 216.313
40.98000 215.133
40.99000 213.283
41.00000 211.919
41.01000 212.040
41.02000 212.263
41.03000 212.415
41.04000 212.367
41.05000 212.326
41.06000 212.373
41.07000 212.543
41.08000 212.715
41.09000 212.755
41.10000 212.672
41.11000 212.591
41.12000 212.513
41.13000 212.440
41.14000 212.279
41.15000 210.096
41.16000 207.068
41.17000 204.369
41.18000 205.480
41.19000 207.677
41.20000 209.635
41.21000 210.466
41.22000 211.002
41.23000 211.111
41.24000 209.319
41.25000 207.299
41.26000 206.808
41.27000 210.898
41.28000 215.296
41.29000 218.280
41.30000 217.073
41.31000 216.080
41.32000 217.010
41.33000 220.607
41.34000 224.218
41.35000 221.845
41.36000 214.051
41.37000 206.330
41.38000 203.013
41.39000 202.364
41.40000 201.878
41.41000 205.030
41.42000 209.676
41.43000 213.927
41.44000 213.712
41.45000 212.246
41.46000 210.943
41.47000 201.625
41.48000 192.247
41.49000 185.420
41.50000 189.731
41.51000 195.342
41.52000 201.092
41.53000 207.252
41.54000 213.439
41.55000 217.612
41.56000 216.346
41.57000 215.289
41.58000 212.887
41.59000 208.654
41.60000 204.410
41.61000 200.216
41.62000 196.068
41.63000 191.961
41.64000 190.549
41.65000 190.730
41.66000 191.083
41.67000 195.142
41.68000 200.701
41.69000 205.717
41.70000 204.790
41.71000 202.227
41.72000 199.956
41.73000 204.572
41.74000 209.655
41.75000 213.322
41.76000 210.918
41.77000 207.821
41.78000 205.671
41.79000 206.266
41.80000 207.034
41.81000 207.549
41.82000 213.204
41.83000 217.503
41.84000 218.454
41.85000 214.925
41.86000 211.376
41.87000 211.172
41.88000 213.883
41.89000 216.565
41.90000 215.008
41.91000 211.077
41.92000 207.331
41.93000 207.394
41.94000 208.971
41.95000 210.448
41.96000 210.858
41.97000 210.978
41.98000 211.084
41.99000 211.747
42.00000 212.406
42.01000 213.360
42.02000 215.559
42.03000 217.896
42.04000 219.025
42.05000 216.715
42.06000 214.193
42.07000 212.513
42.08000 212.789
42.09000 213.030
42.10000 212.273
42.11000 210.203
42.12000 208.127
42.13000 205.912
42.14000 203.579
42.15000 201.272
42.16000 203.251
42.17000 207.573
42.18000 211.729
42.19000 212.558
42.20000 212.087
42.21000 212.120
42.22000 217.394
42.23000 224.060
42.24000 229.936
42.25000 222.824
42.26000 214.729
42.27000 206.979
42.28000 200.652
42.29000 194.480
42.30000 192.543
42.31000 202.453
42.32000 213.067
42.33000 220.096
42.34000 211.748
42.35000 205.306
42.36000 202.054
42.37000 202.917
42.38000 203.794
42.39000 203.511
42.40000 202.254
42.41000 201.012
42.42000 203.741
42.43000 208.574
42.44000 213.103
42.45000 211.779
42.46000 208.206
42.47000 204.900
42.48000 204.302
42.49000 204.411
42.50000 204.506
42.51000 202.207
42.52000 199.876
42.53000 198.105
42.54000 198.607
42.55000 199.351
42.56000 201.724
42.57000 208.579
42.58000 215.691
42.59000 220.372
42.60000 202.577
42.61000 189.088
42.62000 185.776
42.63000 195.344
42.64000 204.943
42.65000 209.159
42.66000 208.945
42.67000 208.733
42.68000 209.278
42.69000 210.214
42.70000 211.286
42.71000 214.882
42.72000 219.431
42.73000 223.287
42.74000 220.255
42.75000 215.458
42.76000 211.253
42.77000 205.440
42.78000 200.218
42.79000 196.538
42.80000 199.003
42.81000 202.104
42.82000 204.416
42.83000 204.595
42.84000 204.655
42.85000 204.694
42.86000 209.601
42.87000 213.284
42.88000 213.981
42.89000 210.970
42.90000 207.958
42.91000 208.954
42.92000 213.187
42.93000 217.360
42.94000 213.689
42.95000 205.986
42.96000 198.779
42.97000 200.548
42.98000 205.648
42.99000 210.369
43.00000 211.430
43.01000 211.571
43.02000 211.693
43.03000 209.199
43.04000 206.694
43.05000 204.487
43.06000 203.454
43.07000 202.539
43.08000 202.099
43.09000 202.920
43.10000 203.809
43.11000 204.386
43.12000 210.069
43.13000 214.311
43.14000 214.554
43.15000 209.923
43.16000 205.294
43.17000 204.994
43.18000 208.126
43.19000 211.211
43.20000 213.325
43.21000 214.874
43.22000 216.480
43.23000 219.068
43.24000 222.016
43.25000 223.904
43.26000 215.779
43.27000 205.178
43.28000 195.941
43.29000 198.892
43.30000 203.101
43.31000 206.072
43.32000 204.287
43.33000 202.033
43.34000 200.904
43.35000 202.715
43.36000 204.679
43.37000 205.947
43.38000 201.885
43.39000 198.840
43.40000 197.357
43.41000 197.742
43.42000 198.132
43.43000 198.726
43.44000 199.480
43.45000 200.221
43.46000 200.563
43.47000 200.691
43.48000 200.689
43.49000 198.478
43.50000 195.475
43.51000 192.902
43.52000 194.298
43.53000 196.658
43.54000 198.708
43.55000 196.227
43.56000 193.499
43.57000 192.371
43.58000 197.283
43.59000 202.776
43.60000 207.030
43.61000 208.099
43.62000 209.008
43.63000 209.591
43.64000 202.312
43.65000 196.902
43.66000 192.931
43.67000 190.649
43.68000 188.383
43.69000 188.987
43.70000 191.784
43.71000 194.534
43.72000 194.863
43.73000 193.973
43.74000 193.418
43.75000 198.336
43.76000 205.182
43.77000 211.255
43.78000 210.359
43.79000 207.801
43.80000 205.585
43.81000 206.406
43.82000 207.507
43.83000 207.446
43.84000 203.072
43.85000 198.294
43.86000 195.868
43.87000 199.376
43.88000 203.173
43.89000 205.591
43.90000 196.887
43.91000 190.420
43.92000 189.399
43.93000 194.649
43.94000 199.884
43.95000 200.544
43.96000 197.775
43.97000 195.054
43.98000 190.817
43.99000 185.983
44.00000 181.686
44.01000 185.908
44.02000 193.081
44.03000 200.215
44.04000 206.999
44.05000 213.701
44.06000 219.489
44.07000 213.085
44.08000 206.073
44.09000 200.223
44.10000 198.608
44.11000 197.381
44.12000 196.783
44.13000 197.748
44.14000 198.787
44.15000 199.444
44.16000 201.199
44.17000 202.485
44.18000 205.648
44.19000 210.932
44.20000 216.189
44.21000 216.260
44.22000 212.513
44.23000 208.835
44.24000 203.157
44.25000 196.720
44.26000 190.837
44.27000 193.479
44.28000 199.024
44.29000 204.819
44.30000 212.767
44.31000 221.210
44.32000 228.480
44.33000 223.373
44.34000 217.483
44.35000 213.335
44.36000 215.422
44.37000 218.065
44.38000 220.457
44.39000 222.237
44.40000 223.989
44.41000 225.090
44.42000 221.853
44.43000 219.465
44.44000 219.261
44.45000 221.478
44.46000 223.711
44.47000 228.322
44.48000 234.650
44.49000 240.855
44.50000 244.389
44.51000 246.534
44.52000 248.759
44.53000 252.178
44.54000 255.995
44.55000 259.448
44.56000 259.839
44.57000 259.538
44.58000 259.280
44.59000 265.407
44.60000 271.373
44.61000 276.016
44.62000 276.000
44.63000 275.579
44.64000 279.538
44.65000 293.998
44.66000 308.915
44.67000 318.221
44.68000 319.852
44.69000 320.949
44.70000 326.008
44.71000 335.371
44.72000 344.721
44.73000 351.903
44.74000 357.546
44.75000 363.074
44.76000 376.229
44.77000 392.403
44.78000 407.991
44.79000 415.095
44.80000 419.407
44.81000 424.048
44.82000 431.384
44.83000 439.316
44.84000 446.104
44.85000 445.832
44.86000 444.753
44.87000 446.802
44.88000 459.664
44.89000 473.441
44.90000 482.593
44.91000 480.847
44.92000 478.643
44.93000 477.278
44.94000 479.056
44.95000 480.365
44.96000 481.156
44.97000 481.395
44.98000 481.610
44.99000 478.804
45.00000 473.891
45.01000 469.084
45.02000 463.454
45.03000 457.677
45.04000 451.690
45.05000 442.759
45.06000 432.876
45.07000 423.264
45.08000 415.823
45.09000 408.855
45.10000 402.912
45.11000 388.890
45.12000 376.139
45.13000 366.151
45.14000 365.543
45.15000 365.708
45.16000 364.337
45.17000 359.407
45.18000 354.334
45.19000 351.214
45.20000 334.955
45.21000 323.179
45.22000 318.564
45.23000 321.424
45.24000 324.234
45.25000 321.149
45.26000 314.028
45.27000 307.067
45.28000 301.086
45.29000 295.792
45.30000 290.693
45.31000 288.277
45.32000 286.713
45.33000 284.666
45.34000 278.825
45.35000 272.175
45.36000 266.522
45.37000 272.631
45.38000 279.114
45.39000 280.999
45.40000 267.546
45.41000 252.865
45.42000 243.286
45.43000 245.330
45.44000 247.825
45.45000 249.349
45.46000 247.346
45.47000 245.884
45.48000 245.997
45.49000 247.720
45.50000 249.396
45.51000 246.087
45.52000 239.426
45.53000 232.922
45.54000 228.483
45.55000 225.138
45.56000 221.841
45.57000 219.178
45.58000 216.712
45.59000 214.574
45.60000 214.946
45.61000 215.844
45.62000 216.605
45.63000 218.042
45.64000 219.322
45.65000 220.779
45.66000 222.817
45.67000 224.901
45.68000 224.288
45.69000 217.637
45.70000 210.761
45.71000 206.593
45.72000 205.204
45.73000 204.234
45.74000 203.301
45.75000 202.405
45.76000 201.511
45.77000 200.900
45.78000 200.474
45.79000 200.059
45.80000 197.350
45.81000 193.778
45.82000 190.535
45.83000 191.542
45.84000 193.852
45.85000 196.069
45.86000 197.582
45.87000 198.949
45.88000 200.104
45.89000 201.866
45.90000 203.406
45.91000 204.113
45.92000 202.140
45.93000 199.963
45.94000 197.456
45.95000 194.222
45.96000 190.962
45.97000 189.001
45.98000 182.025
45.99000 177.030
46.00000 176.674
46.01000 180.881
46.02000 185.060
46.03000 186.802
46.04000 186.964
46.05000 187.121
46.06000 185.871
46.07000 184.086
46.08000 182.482
46.09000 183.145
46.10000 184.491
46.11000 185.423
46.12000 183.318
46.13000 180.600
46.14000 178.312
46.15000 187.369
46.16000 196.137
46.17000 201.213
46.18000 194.601
46.19000 187.127
46.20000 181.724
46.21000 180.801
46.22000 180.031
46.23000 179.572
46.24000 184.125
46.25000 187.385
46.26000 187.240
46.27000 183.812
46.28000 180.394
46.29000 177.765
46.30000 175.641
46.31000 173.574
46.32000 175.408
46.33000 178.764
46.34000 181.777
46.35000 180.586
46.36000 178.151
46.37000 176.676
46.38000 182.110
46.39000 188.910
46.40000 194.615
46.41000 186.777
46.42000 178.840
46.43000 173.739
46.44000 177.460
46.45000 181.813
46.46000 184.150
46.47000 182.201
46.48000 180.112
46.49000 178.873
46.50000 178.382
46.51000 178.039
46.52000 177.363
46.53000 176.372
46.54000 175.363
46.55000 173.012
46.56000 169.820
46.57000 166.719
46.58000 168.192
46.59000 171.447
46.60000 174.411
46.61000 173.916
46.62000 172.415
46.63000 171.847
46.64000 177.851
46.65000 185.130
46.66000 191.215
46.67000 185.353
46.68000 179.268
46.69000 173.764
46.70000 170.036
46.71000 166.431
46.72000 166.327
46.73000 173.541
46.74000 180.984
46.75000 185.362
46.76000 178.162
46.77000 173.026
46.78000 169.711
46.79000 168.086
46.80000 166.483
46.81000 166.538
46.82000 167.613
46.83000 168.656
46.84000 169.851
46.85000 171.044
46.86000 172.137
46.87000 172.047
46.88000 171.619
46.89000 171.353
46.90000 172.206
46.91000 173.271
46.92000 174.159
46.93000 177.952
46.94000 181.384
46.95000 182.906
46.96000 178.688
46.97000 174.083
46.98000 169.935
46.99000 166.727
47.00000 163.547
47.01000 161.692
47.02000 168.797
47.03000 173.833
47.04000 175.315
47.05000 173.570
47.06000 171.813
47.07000 169.265
47.08000 166.240
47.09000 163.308
47.10000 168.929
47.11000 177.591
47.12000 185.597
47.13000 186.185
47.14000 184.689
47.15000 182.745
47.16000 177.782
47.17000 172.256
47.18000 167.667
47.19000 169.343
47.20000 171.334
47.21000 172.637
47.22000 171.908
47.23000 171.045
47.24000 169.826
47.25000 167.889
47.26000 165.932
47.27000 164.799
47.28000 166.207
47.29000 167.205
47.30000 167.685
47.31000 167.704
47.32000 167.704
47.33000 166.585
47.34000 164.799
47.35000 163.071
47.36000 162.990
47.37000 163.545
47.38000 164.240
47.39000 166.485
47.40000 169.157
47.41000 171.588
47.42000 172.420
47.43000 172.959
47.44000 173.405
47.45000 168.873
47.46000 164.665
47.47000 162.061
47.48000 164.112
47.49000 166.460
47.50000 167.273
47.51000 165.039
47.52000 162.722
47.53000 161.392
47.54000 162.813
47.55000 163.815
47.56000 162.516
47.57000 159.206
47.58000 155.974
47.59000 157.325
47.60000 161.348
47.61000 165.237
47.62000 168.030
47.63000 170.254
47.64000 172.086
47.65000 169.706
47.66000 166.184
47.67000 163.398
47.68000 165.376
47.69000 168.210
47.70000 170.545
47.71000 166.913
47.72000 163.375
47.73000 161.606
47.74000 164.884
47.75000 168.474
47.76000 169.542
47.77000 165.689
47.78000 161.707
47.79000 159.440
47.80000 163.331
47.81000 166.063
47.82000 168.747
47.83000 171.390
47.84000 173.962
47.85000 172.651
47.86000 169.114
47.87000 165.699
47.88000 164.036
47.89000 163.115
47.90000 162.450
47.91000 164.455
47.92000 167.171
47.93000 168.536
47.94000 161.328
47.95000 152.611
47.96000 145.452
47.97000 153.308
47.98000 161.106
47.99000 166.923
48.00000 167.186
48.01000 167.116
48.02000 166.918
48.03000 166.474
48.04000 166.024
48.05000 165.770
48.06000 160.994
48.07000 157.666
48.08000 156.059
48.09000 155.901
48.10000 155.791
48.11000 158.136
48.12000 161.865
48.13000 165.460
48.14000 163.340
48.15000 159.278
48.16000 155.480
48.17000 154.368
48.18000 153.959
48.19000 154.170
48.20000 158.235
48.21000 162.965
48.22000 166.836
48.23000 165.117
48.24000 163.220
48.25000 162.336
48.26000 164.243
48.27000 166.312
48.28000 167.755
48.29000 168.016
48.30000 168.250
48.31000 168.381
48.32000 170.044
48.33000 171.195
48.34000 170.078
48.35000 167.089
48.36000 164.159
48.37000 164.109
48.38000 165.654
48.39000 167.141
48.40000 167.057
48.41000 166.421
48.42000 165.665
48.43000 163.713
48.44000 161.454
48.45000 159.009
48.46000 155.435
48.47000 151.671
48.48000 148.602
48.49000 153.234
48.50000 157.675
48.51000 161.420
48.52000 163.281
48.53000 165.035
48.54000 166.307
48.55000 166.684
48.56000 167.040
48.57000 167.238
48.58000 166.757
48.59000 166.427
48.60000 167.691
48.61000 170.247
48.62000 172.674
48.63000 169.151
48.64000 162.391
48.65000 155.893
48.66000 154.851
48.67000 155.775
48.68000 156.998
48.69000 161.121
48.70000 165.976
48.71000 169.701
48.72000 166.691
48.73000 162.565
48.74000 159.213
48.75000 159.504
48.76000 160.043
48.77000 160.711
48.78000 161.720
48.79000 162.748
48.80000 163.091
48.81000 162.187
48.82000 161.257
48.83000 160.745
48.84000 149.394
48.85000 141.590
48.86000 144.060
48.87000 154.699
48.88000 165.084
48.89000 164.395
48.90000 157.784
48.91000 151.438
48.92000 152.750
48.93000 156.597
48.94000 160.177
48.95000 161.237
48.96000 161.671
48.97000 161.239
48.98000 155.737
48.99000 149.411
49.00000 144.294
49.01000 145.803
49.02000 147.565
49.03000 149.770
49.04000 153.133
49.05000 156.557
49.06000 157.716
49.07000 154.819
49.08000 151.842
49.09000 150.218
49.10000 154.132
49.11000 156.821
49.12000 157.581
49.13000 156.836
49.14000 156.117
49.15000 156.465
49.16000 157.374
49.17000 158.245
49.18000 157.141
49.19000 155.448
49.20000 153.944
49.21000 154.177
49.22000 154.835
49.23000 155.698
49.24000 157.742
49.25000 159.973
49.26000 161.772
49.27000 155.217
49.28000 149.241
49.29000 145.608
49.30000 148.008
49.31000 150.714
49.32000 151.990
49.33000 150.753
49.34000 149.469
49.35000 148.775
49.36000 154.582
49.37000 158.558
49.38000 160.580
49.39000 161.105
49.40000 161.496
49.41000 156.595
49.42000 148.961
49.43000 141.654
49.44000 144.929
49.45000 151.462
49.46000 157.256
49.47000 156.355
49.48000 153.855
49.49000 151.301
49.50000 148.445
49.51000 145.542
49.52000 143.212
49.53000 150.901
49.54000 157.896
49.55000 161.943
49.56000 158.532
49.57000 154.758
49.58000 153.811
49.59000 157.750
49.60000 161.776
49.61000 163.934
49.62000 159.850
49.63000 157.066
49.64000 155.950
49.65000 156.087
49.66000 156.209
49.67000 155.713
49.68000 154.903
49.69000 154.129
49.70000 152.025
49.71000 149.638
49.72000 147.796
49.73000 150.757
49.74000 154.846
49.75000 158.009
49.76000 156.062
49.77000 153.336
49.78000 151.156
49.79000 152.658
49.80000 154.146
49.81000 157.209
49.82000 164.188
49.83000 171.352
49.84000 173.400
49.85000 166.760
49.86000 159.977
49.87000 156.373
49.88000 164.974
49.89000 170.793
49.90000 169.146
49.91000 161.988
49.92000 155.134
49.93000 159.125
49.94000 168.526
49.95000 177.496
49.96000 175.116
49.97000 169.311
49.98000 163.838
49.99000 161.231
50.00000 159.284
50.01000 157.447
50.02000 156.206
50.03000 155.055
50.04000 154.137
50.05000 156.662
50.06000 158.947
50.07000 161.695
50.08000 165.576
50.09000 169.508
50.10000 171.807
50.11000 171.380
50.12000 170.911
50.13000 170.664
50.14000 170.294
50.15000 170.061
50.16000 172.650
50.17000 177.285
50.18000 181.828
50.19000 183.239
50.20000 183.113
50.21000 182.993
50.22000 185.254
50.23000 188.089
50.24000 190.852
50.25000 193.010
50.26000 195.031
50.27000 196.980
50.28000 198.542
50.29000 200.047
50.30000 201.241
50.31000 194.855
50.32000 189.186
50.33000 186.995
50.34000 193.166
50.35000 199.703
50.36000 205.782
50.37000 211.112
50.38000 216.431
50.39000 219.204
50.40000 225.706
50.41000 230.089
50.42000 232.373
50.43000 233.161
50.44000 233.994
50.45000 236.268
50.46000 239.236
50.47000 242.059
50.48000 240.578
50.49000 237.897
50.50000 235.855
50.51000 239.075
50.52000 243.465
50.53000 247.411
50.54000 249.049
50.55000 250.357
50.56000 251.390
50.57000 249.460
50.58000 247.708
50.59000 247.017
50.60000 248.833
50.61000 250.754
50.62000 252.617
50.63000 254.389
50.64000 256.159
50.65000 257.073
50.66000 249.675
50.67000 244.712
50.68000 242.965
50.69000 243.466
50.70000 243.884
50.71000 241.724
50.72000 238.341
50.73000 235.130
50.74000 233.761
50.75000 233.049
50.76000 232.209
50.77000 230.336
50.78000 228.237
50.79000 225.100
50.80000 216.664
50.81000 207.484
50.82000 200.263
50.83000 201.168
50.84000 202.431
50.85000 202.111
50.86000 198.114
50.87000 193.967
50.88000 192.276
50.89000 194.470
50.90000 196.713
50.91000 197.860
50.92000 188.566
50.93000 182.349
50.94000 179.327
50.95000 178.497
50.96000 177.724
50.97000 178.656
50.98000 180.383
50.99000 182.019
51.00000 179.993
51.01000 177.053
51.02000 174.373
51.03000 173.739
51.04000 173.544
51.05000 172.457
51.06000 166.907
51.07000 160.744
51.08000 155.916
51.09000 156.749
51.10000 157.779
51.11000 158.202
51.12000 157.242
51.13000 156.227
51.14000 155.812
51.15000 156.327
51.16000 156.853
51.17000 157.120
51.18000 153.528
51.19000 151.167
51.20000 153.501
51.21000 159.001
51.22000 164.218
51.23000 161.382
51.24000 154.858
51.25000 148.686
51.26000 145.406
51.27000 143.222
51.28000 141.414
51.29000 142.500
51.30000 144.194
51.31000 146.077
51.32000 148.891
51.33000 151.829
51.34000 154.121
51.35000 155.225
51.36000 156.031
51.37000 154.897
51.38000 149.408
51.39000 143.755
51.40000 141.165
51.41000 143.250
51.42000 145.386
51.43000 146.457
51.44000 143.206
51.45000 141.057
51.46000 140.943
51.47000 142.177
51.48000 143.566
51.49000 149.215
51.50000 156.783
51.51000 163.929
51.52000 162.526
51.53000 158.826
51.54000 155.092
51.55000 151.107
51.56000 147.071
51.57000 143.942
51.58000 145.188
51.59000 147.008
51.60000 148.422
51.61000 138.949
51.62000 130.757
51.63000 127.345
51.64000 134.482
51.65000 141.998
51.66000 145.783
51.67000 143.973
51.68000 142.107
51.69000 141.740
51.70000 142.849
51.71000 143.943
51.72000 143.558
51.73000 142.212
51.74000 140.948
51.75000 141.835
51.76000 143.674
51.77000 145.407
51.78000 145.598
51.79000 145.346
51.80000 144.948
51.81000 143.467
51.82000 141.766
51.83000 140.172
51.84000 139.075
51.85000 138.043
51.86000 137.245
51.87000 144.243
51.88000 150.254
51.89000 154.156
51.90000 153.487
51.91000 152.660
51.92000 152.922
51.93000 154.787
51.94000 156.667
51.95000 153.843
51.96000 146.473
51.97000 139.156
51.98000 136.194
51.99000 136.016
52.00000 135.944
52.01000 138.569
52.02000 142.367
52.03000 145.940
52.04000 144.418
52.05000 141.644
52.06000 139.322
52.07000 140.265
52.08000 141.856
52.09000 143.438
52.10000 144.982
52.11000 146.520
52.12000 147.705
52.13000 148.958
52.14000 149.953
52.15000 149.517
52.16000 146.030
52.17000 142.441
52.18000 140.160
52.19000 139.770
52.20000 139.395
52.21000 138.333
52.22000 136.620
52.23000 134.924
52.24000 134.498
52.25000 134.871
52.26000 135.320
52.27000 137.651
52.28000 140.786
52.29000 143.731
52.30000 143.574
52.31000 142.605
52.32000 142.373
52.33000 147.337
52.34000 153.313
52.35000 157.033
52.36000 150.482
52.37000 142.668
52.38000 136.680
52.39000 143.691
52.40000 149.945
52.41000 152.445
52.42000 147.081
52.43000 141.467
52.44000 138.604
52.45000 139.648
52.46000 140.721
52.47000 141.603
52.48000 142.307
52.49000 142.986
52.50000 141.924
52.51000 139.789
52.52000 137.792
52.53000 139.046
52.54000 141.666
52.55000 144.122
52.56000 145.283
52.57000 146.003
52.58000 146.501
52.59000 145.464
52.60000 144.135
52.61000 143.405
52.62000 145.360
52.63000 147.637
52.64000 149.374
52.65000 144.319
52.66000 139.973
52.67000 138.047
52.68000 141.105
52.69000 144.313
52.70000 145.629
52.71000 144.307
52.72000 142.967
52.73000 143.634
52.74000 146.129
52.75000 148.585
52.76000 148.461
52.77000 146.774
52.78000 145.162
52.79000 145.256
52.80000 146.055
52.81000 146.802
52.82000 146.609
52.83000 146.192
52.84000 145.765
52.85000 145.265
52.86000 144.752
52.87000 143.645
52.88000 139.932
52.89000 135.913
52.90000 132.860
52.91000 140.754
52.92000 147.525
52.93000 151.846
52.94000 151.209
52.95000 150.429
52.96000 149.131
52.97000 147.123
52.98000 145.112
52.99000 145.722
53.00000 148.670
53.01000 151.596
53.02000 153.081
53.03000 153.710
53.04000 154.243
53.05000 152.712
53.06000 150.342
53.07000 148.129
53.08000 150.306
53.09000 153.383
53.10000 155.798
53.11000 153.819
53.12000 151.033
53.13000 149.067
53.14000 150.632
53.15000 152.602
53.16000 154.092
53.17000 155.161
53.18000 155.979
53.19000 156.967
53.20000 158.292
53.21000 159.627
53.22000 162.493
53.23000 167.419
53.24000 172.353
53.25000 171.467
53.26000 165.491
53.27000 159.597
53.28000 158.536
53.29000 160.302
53.30000 161.968
53.31000 161.539
53.32000 160.274
53.33000 159.096
53.34000 160.276
53.35000 161.925
53.36000 162.942
53.37000 159.851
53.38000 156.020
53.39000 154.045
53.40000 159.921
53.41000 166.678
53.42000 171.761
53.43000 167.566
53.44000 163.835
53.45000 159.137
53.46000 152.547
53.47000 145.907
53.48000 143.615
53.49000 147.065
53.50000 150.540
53.51000 154.611
53.52000 159.186
53.53000 163.662
53.54000 162.647
53.55000 158.475
53.56000 154.437
53.57000 153.082
53.58000 152.781
53.59000 152.501
53.60000 153.059
53.61000 153.764
53.62000 154.180
53.63000 152.754
53.64000 151.003
53.65000 148.279
53.66000 141.512
53.67000 134.303
53.68000 128.905
53.69000 133.597
53.70000 137.731
53.71000 143.101
53.72000 150.844
53.73000 158.647
53.74000 162.608
53.75000 161.589
53.76000 160.550
53.77000 158.090
53.78000 154.441
53.79000 150.805
53.80000 147.836
53.81000 145.243
53.82000 142.846
53.83000 144.265
53.84000 147.156
53.85000 149.841
53.86000 147.436
53.87000 144.065
53.88000 141.083
53.89000 140.522
53.90000 140.381
53.91000 140.784
53.92000 143.411
53.93000 146.276
53.94000 148.411
53.95000 145.560
53.96000 143.115
53.97000 142.138
53.98000 143.933
53.99000 145.793
54.00000 147.094
54.01000 147.682
54.02000 148.267
54.03000 146.130
54.04000 141.754
54.05000 137.459
54.06000 137.126
54.07000 138.991
54.08000 140.817
54.09000 141.895
54.10000 142.688
54.11000 143.423
54.12000 142.316
54.13000 140.894
54.14000 139.604
54.15000 139.123
54.16000 138.779
54.17000 139.115
54.18000 142.169
54.19000 145.508
54.20000 147.983
54.21000 143.573
54.22000 139.846
54.23000 137.861
54.24000 139.110
54.25000 140.432
54.26000 140.998
54.27000 140.620
54.28000 140.241
54.29000 142.641
54.30000 147.282
54.31000 151.788
54.32000 150.052
54.33000 144.911
54.34000 139.913
54.35000 137.524
54.36000 136.109
54.37000 134.801
54.38000 137.226
54.39000 140.252
54.40000 142.358
54.41000 138.956
54.42000 134.637
54.43000 131.975
54.44000 135.827
54.45000 140.344
54.46000 143.676
54.47000 146.886
54.48000 149.368
54.49000 148.805
54.50000 142.683
54.51000 136.444
54.52000 137.060
54.53000 146.078
54.54000 155.102
54.55000 155.453
54.56000 148.919
54.57000 142.496
54.58000 140.939
54.59000 141.989
54.60000 143.211
54.61000 147.443
54.62000 152.779
54.63000 157.700
54.64000 151.642
54.65000 143.769
54.66000 137.624
54.67000 141.614
54.68000 147.255
54.69000 150.408
54.70000 143.943
54.71000 136.521
54.72000 131.072
54.73000 133.328
54.74000 135.386
54.75000 137.050
54.76000 138.008
54.77000 138.951
54.78000 142.681
54.79000 149.762
54.80000 156.836
54.81000 157.395
54.82000 152.881
54.83000 148.468
54.84000 148.277
54.85000 150.310
54.86000 152.295
54.87000 153.459
54.88000 154.326
54.89000 155.124
54.90000 153.794
54.91000 152.141
54.92000 150.008
54.93000 145.112
54.94000 139.776
54.95000 135.883
54.96000 137.467
54.97000 139.583
54.98000 141.129
54.99000 146.761
55.00000 151.265
55.01000 153.994
55.02000 153.593
55.03000 153.134
55.04000 153.908
55.05000 156.138
55.06000 158.365
55.07000 157.002
55.08000 152.907
55.09000 148.914
55.10000 148.939
55.11000 151.045
55.12000 153.031
55.13000 153.029
55.14000 152.324
55.15000 151.676
55.16000 154.904
55.17000 158.613
55.18000 162.081
55.19000 164.189
55.20000 166.083
55.21000 168.269
55.22000 171.535
55.23000 174.904
55.24000 177.353
55.25000 182.204
55.26000 186.026
55.27000 187.529
55.28000 185.013
55.29000 182.426
55.30000 187.148
55.31000 200.331
55.32000 213.489
55.33000 219.054
55.34000 218.895
55.35000 218.909
55.36000 225.465
55.37000 235.351
55.38000 245.157
55.39000 253.675
55.40000 261.746
55.41000 269.140
55.42000 275.948
55.43000 281.887
55.44000 288.564
55.45000 299.324
55.46000 310.710
55.47000 322.746
55.48000 337.166
55.49000 351.806
55.50000 362.392
55.51000 375.976
55.52000 386.508
55.53000 394.953
55.54000 399.844
55.55000 404.675
55.56000 414.170
55.57000 428.960
55.58000 443.708
55.59000 458.798
55.60000 474.021
55.61000 489.195
55.62000 502.637
55.63000 515.211
55.64000 527.717
55.65000 539.151
55.66000 550.219
55.67000 560.338
55.68000 574.224
55.69000 587.337
55.70000 601.045
55.71000 617.986
55.72000 635.412
55.73000 649.083
55.74000 649.247
55.75000 648.196
55.76000 647.441
55.77000 649.794
55.78000 651.703
55.79000 656.079
55.80000 664.579
55.81000 673.144
55.82000 676.101
55.83000 672.811
55.84000 669.529
55.85000 668.318
55.86000 668.609
55.87000 668.759
55.88000 664.086
55.89000 657.041
55.90000 649.472
55.91000 634.007
55.92000 615.886
55.93000 599.358
55.94000 594.915
55.95000 593.406
55.96000 590.388
55.97000 579.345
55.98000 567.123
55.99000 553.322
56.00000 533.937
56.01000 514.063
56.02000 499.842
56.03000 484.462
56.04000 472.678
56.05000 462.803
56.06000 456.065
56.07000 449.373
56.08000 440.246
56.09000 428.458
56.10000 416.716
56.11000 397.861
56.12000 374.161
56.13000 350.873
56.14000 341.038
56.15000 337.706
56.16000 334.209
56.17000 328.289
56.18000 321.568
56.19000 315.452
56.20000 307.348
56.21000 299.786
56.22000 292.131
56.23000 283.994
56.24000 275.787
56.25000 267.464
56.26000 258.731
56.27000 249.964
56.28000 243.723
56.29000 241.318
56.30000 239.610
56.31000 234.597
56.32000 224.246
56.33000 213.822
56.34000 207.842
56.35000 206.622
56.36000 205.408
56.37000 200.828
56.38000 193.964
56.39000 187.166
56.40000 182.460
56.41000 178.747
56.42000 175.063
56.43000 171.780
56.44000 168.626
56.45000 165.764
56.46000 164.847
56.47000 164.413
56.48000 163.824
56.49000 162.445
56.50000 160.954
56.51000 158.609
56.52000 153.352
56.53000 147.854
56.54000 143.961
56.55000 150.796
56.56000 156.323
56.57000 159.839
56.58000 160.164
56.59000 160.449
56.60000 158.498
56.61000 154.200
56.62000 149.923
56.63000 147.154
56.64000 145.443
56.65000 143.738
56.66000 142.200
56.67000 140.739
56.68000 139.472
56.69000 140.884
56.70000 143.151
56.71000 145.204
56.72000 142.166
56.73000 138.526
56.74000 135.273
56.75000 133.961
56.76000 132.916
56.77000 132.702
56.78000 135.276
56.79000 138.075
56.80000 140.046
56.81000 137.864
56.82000 136.085
56.83000 136.246
56.84000 139.427
56.85000 142.644
56.86000 142.174
56.87000 137.907
56.88000 133.664
56.89000 129.997
56.90000 126.761
56.91000 123.654
56.92000 124.240
56.93000 126.522
56.94000 128.834
56.95000 131.553
56.96000 134.398
56.97000 136.970
56.98000 136.897
56.99000 136.343
57.00000 135.318
57.01000 131.971
57.02000 128.311
57.03000 126.022
57.04000 128.248
57.05000 130.829
57.06000 132.636
57.07000 134.709
57.08000 136.284
57.09000 137.006
57.10000 136.419
57.11000 135.818
57.12000 136.182
57.13000 137.518
57.14000 138.847
57.15000 139.542
57.16000 139.811
57.17000 139.957
57.18000 136.685
57.19000 131.871
57.20000 127.076
57.21000 122.526
57.22000 118.052
57.23000 114.019
57.24000 121.781
57.25000 130.731
57.26000 137.313
57.27000 132.464
57.28000 126.106
57.29000 121.206
57.30000 121.026
57.31000 121.206
57.32000 121.332
57.33000 120.564
57.34000 119.960
57.35000 121.989
57.36000 127.979
57.37000 134.007
57.38000 137.425
57.39000 138.261
57.40000 139.092
57.41000 135.190
57.42000 128.306
57.43000 121.544
57.44000 117.991
57.45000 115.861
57.46000 114.266
57.47000 119.443
57.48000 126.672
57.49000 133.170
57.50000 130.913
57.51000 127.381
57.52000 125.135
57.53000 128.979
57.54000 133.608
57.55000 135.952
57.56000 131.021
57.57000 125.549
57.58000 121.760
57.59000 123.101
57.60000 124.244
57.61000 124.671
57.62000 124.041
57.63000 123.401
57.64000 123.105
57.65000 123.143
57.66000 123.181
57.67000 123.688
57.68000 124.483
57.69000 125.266
57.70000 125.757
57.71000 126.122
57.72000 126.534
57.73000 127.523
57.74000 128.684
57.75000 129.725
57.76000 126.779
57.77000 123.512
57.78000 121.062
57.79000 122.415
57.80000 124.248
57.81000 124.645
57.82000 120.552
57.83000 116.135
57.84000 113.094
57.85000 115.230
57.86000 116.962
57.87000 117.942
57.88000 117.830
57.89000 117.710
57.90000 118.527
57.91000 120.235
57.92000 121.930
57.93000 124.348
57.94000 127.173
57.95000 129.836
57.96000 128.538
57.97000 125.542
57.98000 122.754
57.99000 122.458
58.00000 122.890
58.01000 123.276
58.02000 125.417
58.03000 127.582
58.04000 129.606
58.05000 130.985
58.06000 132.285
58.07000 132.342
58.08000 128.580
58.09000 124.550
58.10000 121.793
58.11000 123.038
58.12000 124.067
58.13000 123.857
58.14000 121.886
58.15000 119.902
58.16000 120.014
58.17000 122.080
58.18000 124.128
58.19000 123.528
58.20000 121.331
58.21000 119.260
58.22000 120.144
58.23000 122.272
58.24000 124.196
58.25000 123.726
58.26000 122.568
58.27000 121.535
58.28000 118.587
58.29000 115.703
58.30000 114.359
58.31000 119.919
58.32000 126.312
58.33000 130.629
58.34000 128.678
58.35000 126.300
58.36000 124.682
58.37000 128.904
58.38000 132.190
58.39000 132.636
58.40000 129.109
58.41000 125.555
58.42000 122.152
58.43000 118.886
58.44000 115.651
58.45000 114.946
58.46000 115.762
58.47000 116.695
58.48000 120.263
58.49000 124.924
58.50000 129.179
58.51000 128.816
58.52000 127.149
58.53000 125.666
58.54000 127.617
58.55000 129.871
58.56000 130.788
58.57000 125.820
58.58000 120.159
58.59000 115.505
58.60000 113.844
58.61000 112.380
58.62000 111.390
58.63000 109.579
58.64000 108.212
58.65000 109.152
58.66000 113.259
58.67000 117.386
58.68000 121.122
58.69000 124.510
58.70000 127.864
58.71000 127.266
58.72000 124.371
58.73000 121.552
58.74000 120.398
58.75000 119.923
58.76000 119.615
58.77000 121.167
58.78000 123.234
58.79000 125.068
58.80000 123.022
58.81000 120.630
58.82000 118.880
58.83000 119.909
58.84000 121.257
58.85000 122.825
58.86000 125.033
58.87000 127.283
58.88000 128.795
58.89000 123.530
58.90000 119.478
58.91000 117.481
58.92000 118.257
58.93000 119.048
58.94000 120.379
58.95000 122.186
58.96000 123.974
58.97000 126.299
58.98000 128.881
58.99000 131.234
59.00000 128.787
59.01000 124.419
59.02000 120.279
59.03000 118.616
59.04000 117.629
59.05000 116.755
59.06000 121.375
59.07000 126.227
59.08000 129.753
59.09000 127.655
59.10000 124.925
59.11000 122.344
59.12000 120.193
59.13000 118.068
59.14000 116.649
59.15000 115.661
59.16000 114.938
59.17000 115.643
59.18000 118.240
59.19000 120.844
59.20000 122.463
59.21000 123.233
59.22000 123.994
59.23000 121.671
59.24000 117.668
59.25000 113.960
59.26000 116.257
59.27000 120.916
59.28000 125.078
59.29000 124.009
59.30000 121.540
59.31000 119.360
59.32000 119.072
59.33000 119.113
59.34000 118.320
59.35000 114.053
59.36000 109.404
59.37000 106.985
59.38000 110.851
59.39000 115.095
59.40000 117.913
59.41000 114.978
59.42000 112.703
59.43000 112.554
59.44000 115.171
59.45000 117.796
59.46000 118.931
59.47000 118.806
59.48000 118.682
59.49000 120.812
59.50000 124.134
59.51000 127.234
59.52000 126.000
59.53000 123.088
59.54000 120.235
59.55000 117.976
59.56000 115.874
59.57000 114.024
59.58000 112.810
59.59000 111.861
59.60000 111.895
59.61000 115.950
59.62000 120.437
59.63000 122.709
59.64000 118.843
59.65000 114.619
59.66000 111.831
59.67000 115.205
59.68000 117.801
59.69000 120.877
59.70000 124.566
59.71000 128.249
59.72000 128.031
59.73000 124.575
59.74000 121.163
59.75000 120.354
59.76000 120.976
59.77000 121.538
59.78000 120.949
59.79000 119.922
59.80000 118.819
59.81000 116.948
59.82000 114.878
59.83000 113.061
59.84000 113.816
59.85000 114.841
59.86000 115.535
59.87000 114.900
59.88000 114.126
59.89000 114.536
59.90000 118.167
59.91000 121.980
59.92000 124.480
59.93000 122.174
59.94000 120.399
59.95000 120.612
59.96000 123.314
59.97000 126.019
59.98000 127.191
59.99000 127.113
60.00000 127.037
60.01000 124.806
60.02000 121.491
60.03000 118.362
60.04000 118.655
60.05000 120.226
60.06000 121.519
60.07000 120.092
60.08000 117.976
60.09000 116.123
60.10000 115.271
60.11000 114.683
60.12000 114.222
60.13000 114.262
60.14000 114.353
60.15000 114.437
60.16000 114.503
60.17000 114.568
60.18000 114.611
60.19000 113.089
60.20000 111.948
60.21000 110.757
60.22000 109.504
60.23000 108.263
60.24000 110.972
60.25000 116.837
60.26000 122.618
60.27000 122.688
60.28000 119.776
60.29000 117.069
60.30000 117.988
60.31000 120.239
60.32000 122.079
60.33000 119.997
60.34000 116.937
60.35000 114.268
60.36000 114.441
60.37000 114.987
60.38000 116.370
60.39000 121.000
60.40000 125.954
60.41000 128.803
60.42000 126.108
60.43000 123.121
60.44000 121.187
60.45000 120.780
60.46000 120.506
60.47000 119.347
60.48000 117.122
60.49000 114.894
60.50000 112.637
60.51000 110.356
60.52000 108.110
60.53000 109.039
60.54000 111.566
60.55000 114.016
60.56000 115.143
60.57000 115.792
60.58000 116.308
60.59000 115.582
60.60000 114.552
60.61000 113.656
60.62000 119.285
60.63000 124.981
60.64000 129.064
60.65000 127.005
60.66000 124.349
60.67000 122.859
60.68000 124.384
60.69000 126.064
60.70000 127.144
60.71000 120.557
60.72000 115.644
60.73000 113.028
60.74000 113.129
60.75000 113.242
60.76000 115.356
60.77000 119.010
60.78000 122.605
60.79000 123.716
60.80000 123.543
60.81000 123.442
60.82000 124.545
60.83000 126.074
60.84000 127.277
60.85000 125.511
60.86000 123.030
60.87000 120.879
60.88000 124.606
60.89000 128.566
60.90000 131.127
60.91000 128.459
60.92000 125.295
60.93000 123.146
60.94000 123.577
60.95000 124.135
60.96000 124.491
60.97000 125.462
60.98000 126.177
60.99000 126.231
61.00000 125.518
61.01000 124.800
61.02000 123.418
61.03000 121.535
61.04000 119.684
61.05000 119.278
61.06000 119.599
61.07000 119.959
61.08000 120.948
61.09000 122.157
61.10000 123.424
61.11000 125.205
61.12000 127.106
61.13000 128.750
61.14000 127.801
61.15000 126.655
61.16000 124.924
61.17000 121.045
61.18000 116.966
61.19000 115.233
61.20000 119.365
61.21000 123.777
61.22000 126.576
61.23000 122.743
61.24000 119.880
61.25000 119.857
61.26000 123.068
61.27000 126.266
61.28000 126.609
61.29000 124.832
61.30000 123.088
61.31000 124.730
61.32000 127.953
61.33000 130.796
61.34000 127.699
61.35000 122.565
61.36000 118.250
61.37000 121.056
61.38000 125.512
61.39000 129.354
61.40000 126.804
61.41000 123.826
61.42000 121.537
61.43000 121.729
61.44000 122.145
61.45000 122.392
61.46000 122.224
61.47000 122.037
61.48000 121.919
61.49000 133.156
61.50000 141.419
61.51000 147.492
61.52000 151.119
61.53000 154.779
61.54000 164.346
61.55000 178.217
61.56000 191.824
61.57000 208.571
61.58000 226.200
61.59000 243.559
61.60000 256.838
61.61000 268.742
61.62000 281.239
61.63000 298.771
61.64000 317.448
61.65000 333.501
61.66000 335.615
61.67000 335.667
61.68000 337.359
61.69000 344.865
61.70000 352.881
61.71000 358.285
61.72000 357.378
61.73000 356.190
61.74000 355.447
61.75000 349.925
61.76000 345.889
61.77000 338.043
61.78000 326.026
61.79000 313.966
61.80000 295.952
61.81000 273.678
61.82000 251.851
61.83000 232.400
61.84000 214.794
61.85000 197.704
61.86000 188.174
61.87000 181.150
61.88000 173.815
61.89000 163.906
61.90000 153.421
61.91000 144.438
61.92000 140.208
61.93000 137.216
61.94000 135.390
61.95000 137.624
61.96000 140.206
61.97000 141.810
61.98000 141.093
61.99000 140.277
62.00000 139.769
62.01000 137.884
62.02000 136.513
62.03000 137.410
62.04000 140.744
62.05000 144.050
62.06000 143.628
62.07000 140.587
62.08000 137.609
62.09000 135.217
62.10000 133.187
62.11000 131.359
62.12000 132.408
62.13000 134.393
62.14000 135.956
62.15000 134.099
62.16000 131.491
62.17000 129.264
62.18000 131.521
62.19000 133.956
62.20000 135.775
62.21000 135.487
62.22000 135.024
62.23000 134.377
62.24000 133.302
62.25000 132.209
62.26000 131.535
62.27000 126.481
62.28000 122.813
62.29000 121.298
62.30000 122.049
62.31000 122.820
62.32000 125.829
62.33000 130.382
62.34000 134.835
62.35000 134.154
62.36000 131.197
62.37000 128.635
62.38000 131.544
62.39000 136.204
62.40000 140.220
62.41000 139.124
62.42000 136.928
62.43000 135.059
62.44000 133.960
62.45000 133.126
62.46000 130.736
62.47000 123.116
62.48000 115.071
62.49000 111.916
62.50000 119.984
62.51000 128.496
62.52000 133.709
62.53000 129.365
62.54000 126.174
62.55000 125.433
62.56000 127.223
62.57000 129.001
62.58000 129.434
62.59000 128.955
62.60000 128.487
62.61000 129.163
62.62000 130.315
62.63000 131.307
62.64000 130.153
62.65000 128.322
62.66000 126.588
62.67000 125.600
62.68000 124.768
62.69000 124.062
62.70000 129.572
62.71000 134.898
62.72000 138.275
62.73000 135.213
62.74000 131.643
62.75000 127.973
62.76000 124.079
62.77000 120.177
62.78000 117.804
62.79000 124.998
62.80000 130.209
62.81000 131.760
62.82000 129.606
62.83000 127.501
62.84000 130.387
62.85000 136.595
62.86000 142.652
62.87000 140.494
62.88000 134.881
62.89000 129.562
62.90000 128.107
62.91000 127.847
62.92000 127.616
62.93000 127.599
62.94000 127.626
62.95000 127.649
62.96000 132.925
62.97000 137.921
62.98000 140.908
62.99000 137.370
63.00000 133.332
63.01000 131.517
63.02000 134.634
63.03000 137.930
63.04000 139.920
63.05000 134.210
63.06000 130.089
63.07000 129.751
63.08000 133.165
63.09000 136.549
63.10000 137.124
63.11000 135.863
63.12000 134.634
63.13000 134.577
63.14000 135.021
63.15000 135.348
63.16000 134.207
63.17000 132.619
63.18000 130.645
63.19000 125.806
63.20000 120.384
63.21000 115.813
63.22000 120.768
63.23000 125.934
63.24000 130.111
63.25000 131.131
63.26000 131.916
63.27000 130.948
63.28000 126.159
63.29000 121.237
63.30000 118.288
63.31000 128.138
63.32000 135.216
63.33000 138.287
63.34000 137.465
63.35000 136.640
63.36000 135.662
63.37000 134.584
63.38000 133.535
63.39000 135.212
63.40000 137.944
63.41000 140.546
63.42000 141.543
63.43000 142.061
63.44000 142.206
63.45000 139.636
63.46000 136.524
63.47000 133.910
63.48000 132.182
63.49000 130.835
63.50000 131.809
63.51000 140.059
63.52000 148.837
63.53000 152.911
63.54000 146.904
63.55000 140.560
63.56000 136.788
63.57000 140.615
63.58000 143.370
63.59000 146.483
63.60000 149.937
63.61000 153.344
63.62000 152.985
63.63000 150.251
63.64000 147.593
63.65000 139.517
63.66000 129.623
63.67000 120.731
63.68000 123.920
63.69000 130.653
63.70000 136.450
63.71000 135.600
63.72000 133.448
63.73000 131.646
63.74000 133.542
63.75000 135.498
63.76000 137.453
63.77000 139.403
63.78000 141.354
63.79000 142.502
63.80000 141.961
63.81000 141.365
63.82000 141.014
63.83000 147.219
63.84000 151.635
63.85000 152.531
63.86000 150.138
63.87000 147.737
63.88000 144.821
63.89000 141.586
63.90000 138.444
63.91000 140.880
63.92000 145.429
63.93000 149.604
63.94000 149.397
63.95000 147.925
63.96000 146.453
63.97000 144.976
63.98000 143.497
63.99000 142.264
64.00000 144.839
64.01000 147.357
64.02000 149.116
64.03000 148.577
64.04000 147.881
64.05000 147.569
64.06000 148.055
64.07000 148.566
64.08000 148.864
64.09000 151.723
64.10000 153.747
64.11000 154.833
64.12000 155.058
64.13000 155.249
64.14000 153.122
64.15000 149.584
64.16000 146.153
64.17000 142.666
64.18000 139.341
64.19000 136.570
64.20000 140.135
64.21000 145.496
64.22000 149.437
64.23000 143.708
64.24000 136.160
64.25000 129.883
64.26000 142.219
64.27000 154.250
64.28000 161.659
64.29000 155.312
64.30000 148.051
64.31000 144.701
64.32000 149.311
64.33000 154.154
64.34000 156.967
64.35000 156.690
64.36000 156.482
64.37000 155.968
64.38000 155.178
64.39000 154.408
64.40000 154.980
64.41000 156.355
64.42000 157.686
64.43000 161.777
64.44000 166.712
64.45000 171.260
64.46000 171.486
64.47000 170.509
64.48000 169.720
64.49000 170.183
64.50000 170.876
64.51000 171.451
64.52000 168.258
64.53000 165.261
64.54000 162.429
64.55000 160.077
64.56000 157.756
64.57000 156.999
64.58000 159.373
64.59000 161.834
64.60000 163.253
64.61000 169.052
64.62000 173.127
64.63000 174.793
64.64000 174.338
64.65000 173.918
64.66000 175.581
64.67000 178.471
64.68000 181.266
64.69000 181.581
64.70000 180.938
64.71000 180.439
64.72000 181.500
64.73000 182.986
64.74000 184.517
64.75000 186.335
64.76000 188.205
64.77000 189.749
64.78000 188.041
64.79000 186.331
64.80000 186.420
64.81000 191.680
64.82000 197.262
64.83000 201.214
64.84000 201.959
64.85000 202.619
64.86000 202.996
64.87000 203.913
64.88000 204.553
64.89000 203.394
64.90000 200.680
64.91000 198.027
64.92000 198.847
64.93000 201.674
64.94000 204.405
64.95000 208.796
64.96000 213.554
64.97000 218.274
64.98000 222.599
64.99000 226.818
65.00000 230.243
65.01000 228.585
65.02000 226.024
65.03000 223.917
65.04000 230.703
65.05000 237.087
65.06000 245.472
65.07000 259.508
65.08000 273.887
65.09000 280.595
65.10000 272.478
65.11000 263.987
65.12000 259.174
65.13000 272.091
65.14000 281.125
65.15000 285.241
65.16000 285.186
65.17000 285.232
65.18000 290.625
65.19000 299.053
65.20000 307.183
65.21000 311.516
65.22000 314.208
65.23000 316.810
65.24000 318.489
65.25000 319.925
65.26000 322.099
65.27000 328.902
65.28000 336.511
65.29000 342.746
65.30000 345.495
65.31000 347.440
65.32000 348.184
65.33000 345.587
65.34000 342.795
65.35000 346.194
65.36000 361.354
65.37000 376.796
65.38000 385.477
65.39000 385.760
65.40000 385.937
65.41000 387.336
65.42000 389.750
65.43000 392.052
65.44000 388.688
65.45000 382.164
65.46000 375.879
65.47000 380.073
65.48000 387.765
65.49000 395.452
65.50000 403.084
65.51000 410.702
65.52000 417.933
65.53000 422.787
65.54000 427.234
65.55000 430.866
65.56000 438.728
65.57000 445.525
65.58000 450.978
65.59000 452.765
65.60000 454.343
65.61000 459.307
65.62000 470.591
65.63000 482.018
65.64000 488.389
65.65000 525.677
65.66000 551.577
65.67000 591.030
65.68000 641.550
65.69000 692.533
65.70000 765.432
65.71000 850.348
65.72000 932.033
65.73000 1047.983
65.74000 1168.738
65.75000 1292.300
65.76000 1443.432
65.77000 1601.578
65.78000 1758.228
65.79000 1905.879
65.80000 2052.025
65.81000 2170.907
65.82000 2272.923
65.83000 2354.798
65.84000 2421.463
65.85000 2447.304
65.86000 2470.901
65.87000 2488.499
65.88000 2495.090
65.89000 2501.445
65.90000 2504.957
65.91000 2488.922
65.92000 2477.701
65.93000 2425.048
65.94000 2339.190
65.95000 2253.108
65.96000 2156.991
65.97000 2055.467
65.98000 1957.947
65.99000 1798.752
66.00000 1628.498
66.01000 1460.721
66.02000 1316.688
66.03000 1178.587
66.04000 1044.025
66.05000 930.340
66.06000 820.078
66.07000 730.726
66.08000 669.987
66.09000 622.846
66.10000 579.345
66.11000 545.449
66.12000 512.062
66.13000 483.789
66.14000 464.736
66.15000 445.870
66.16000 435.534
66.17000 437.013
66.18000 438.021
66.19000 431.358
66.20000 418.662
66.21000 406.382
66.22000 411.777
66.23000 426.532
66.24000 440.684
66.25000 446.796
66.26000 449.786
66.27000 454.812
66.28000 478.886
66.29000 507.636
66.30000 535.080
66.31000 554.975
66.32000 573.658
66.33000 588.739
66.34000 627.331
66.35000 660.562
66.36000 688.595
66.37000 703.147
66.38000 717.006
66.39000 730.083
66.40000 741.775
66.41000 753.440
66.42000 759.775
66.43000 777.902
66.44000 790.284
66.45000 787.691
66.46000 773.537
66.47000 759.425
66.48000 747.040
66.49000 735.555
66.50000 724.555
66.51000 708.879
66.52000 692.710
66.53000 675.272
66.54000 646.229
66.55000 614.391
66.56000 582.339
66.57000 549.070
66.58000 515.609
66.59000 488.704
66.60000 465.997
66.61000 447.909
66.62000 432.605
66.63000 424.397
66.64000 416.542
66.65000 409.878
66.66000 405.289
66.67000 400.737
66.68000 398.287
66.69000 394.754
66.70000 392.355
66.71000 393.687
66.72000 397.847
66.73000 401.910
66.74000 402.223
66.75000 400.618
66.76000 399.083
66.77000 393.727
66.78000 387.498
66.79000 381.901
66.80000 381.946
66.81000 383.327
66.82000 384.256
66.83000 382.675
66.84000 380.706
66.85000 379.130
66.86000 376.271
66.87000 373.861
66.88000 371.703
66.89000 370.174
66.90000 368.676
66.91000 370.401
66.92000 377.641
66.93000 384.975
66.94000 388.887
66.95000 398.417
66.96000 404.886
66.97000 406.027
66.98000 403.202
66.99000 400.399
67.00000 398.410
67.01000 396.829
67.02000 395.320
67.03000 396.655
67.04000 398.804
67.05000 400.874
67.06000 402.249
67.07000 403.463
67.08000 404.510
67.09000 404.649
67.10000 404.652
67.11000 404.654
67.12000 411.312
67.13000 417.172
67.14000 419.784
67.15000 414.392
67.16000 408.630
67.17000 405.450
67.18000 406.612
67.19000 407.843
67.20000 408.493
67.21000 421.058
67.22000 429.543
67.23000 428.612
67.24000 420.802
67.25000 413.262
67.26000 415.140
67.27000 421.672
67.28000 427.898
67.29000 438.146
67.30000 448.908
67.31000 457.967
67.32000 452.530
67.33000 443.786
67.34000 436.877
67.35000 439.779
67.36000 444.131
67.37000 447.589
67.38000 443.900
67.39000 440.421
67.40000 439.044
67.41000 442.757
67.42000 446.697
67.43000 450.465
67.44000 453.950
67.45000 457.430
67.46000 459.252
67.47000 460.124
67.48000 460.733
67.49000 464.326
67.50000 470.059
67.51000 475.503
67.52000 471.334
67.53000 462.496
67.54000 454.085
67.55000 448.765
67.56000 444.791
67.57000 441.409
67.58000 442.958
67.59000 445.610
67.60000 448.445
67.61000 452.243
67.62000 456.180
67.63000 459.295
67.64000 467.403
67.65000 474.262
67.66000 478.989
67.67000 478.640
67.68000 478.073
67.69000 477.092
67.70000 475.442
67.71000 473.782
67.72000 472.921
67.73000 484.295
67.74000 491.975
67.75000 499.733
67.76000 507.546
67.77000 514.953
67.78000 509.461
67.79000 497.809
67.80000 486.740
67.81000 487.482
67.82000 491.730
67.83000 496.034
67.84000 500.800
67.85000 505.667
67.86000 509.860
67.87000 510.584
67.88000 510.816
67.89000 510.999
67.90000 504.306
67.91000 498.480
67.92000 500.529
67.93000 521.012
67.94000 542.256
67.95000 553.152
67.96000 547.548
67.97000 541.731
67.98000 538.743
67.99000 530.464
68.00000 524.899
68.01000 520.030
68.02000 515.641
68.03000 511.576
68.04000 517.333
68.05000 527.702
68.06000 537.535
68.07000 549.671
68.08000 561.540
68.09000 572.023
68.10000 571.476
68.11000 568.551
68.12000 565.390
68.13000 561.040
68.14000 556.527
68.15000 552.984
68.16000 568.216
68.17000 581.621
68.18000 588.979
68.19000 582.426
68.20000 575.321
68.21000 574.920
68.22000 585.020
68.23000 595.245
68.24000 600.447
68.25000 601.028
68.26000 601.401
68.27000 600.068
68.28000 597.575
68.29000 595.161
68.30000 595.071
68.31000 596.052
68.32000 596.980
68.33000 610.757
68.34000 627.161
68.35000 642.107
68.36000 645.713
68.37000 646.917
68.38000 649.175
68.39000 656.647
68.40000 664.827
68.41000 671.219
68.42000 695.639
68.43000 716.264
68.44000 724.925
68.45000 706.532
68.46000 687.107
68.47000 682.759
68.48000 701.613
68.49000 720.723
68.50000 730.350
68.51000 742.372
68.52000 750.436
68.53000 761.503
68.54000 774.573
68.55000 787.937
68.56000 809.462
68.57000 834.690
68.58000 858.533
68.59000 882.695
68.60000 904.975
68.61000 927.993
68.62000 956.630
68.63000 986.434
68.64000 1019.899
68.65000 1071.151
68.66000 1124.764
68.67000 1166.476
68.68000 1231.562
68.69000 1284.809
68.70000 1337.316
68.71000 1388.178
68.72000 1438.980
68.73000 1490.920
68.74000 1544.579
68.75000 1598.257
68.76000 1654.761
68.77000 1714.077
68.78000 1773.328
68.79000 1826.520
68.80000 1875.740
68.81000 1926.088
68.82000 2006.588
68.83000 2100.531
68.84000 2189.160
68.85000 2311.438
68.86000 2432.909
68.87000 2560.597
68.88000 2734.582
68.89000 2918.006
68.90000 3133.101
68.91000 3499.149
68.92000 3884.804
68.93000 4183.554
68.94000 5442.146
68.95000 6498.859
68.96000 7946.193
68.97000 10247.168
68.98000 12578.144
68.99000 15538.880
69.00000 19434.660
69.01000 23339.088
69.02000 27485.721
69.03000 31868.254
69.04000 36244.055
69.05000 40035.758
69.06000 43451.387
69.07000 46830.340
69.08000 49268.055
69.09000 51293.234
69.10000 53200.418
69.11000 54338.473
69.12000 55169.016
69.13000 56007.016
69.14000 56899.332
69.15000 57802.520
69.16000 58699.332
69.17000 59566.363
69.18000 60429.605
69.19000 61095.391
69.20000 60785.258
69.21000 60483.195
69.22000 59491.957
69.23000 57020.238
69.24000 54498.668
69.25000 51642.211
69.26000 48297.402
69.27000 44948.652
69.28000 41835.344
69.29000 38947.633
69.30000 36068.582
69.31000 33885.051
69.32000 32141.441
69.33000 30427.662
69.34000 29449.793
69.35000 28788.988
69.36000 28167.832
69.37000 27595.451
69.38000 27085.959
69.39000 26489.859
69.40000 25276.072
69.41000 23941.064
69.42000 22477.449
69.43000 20423.396
69.44000 18296.000
69.45000 16662.510
69.46000 13979.394
69.47000 11799.675
69.48000 9810.016
69.49000 8221.692
69.50000 6646.307
69.51000 5336.503
69.52000 4407.053
69.53000 3480.670
69.54000 2842.601
69.55000 2474.857
69.56000 2108.752
69.57000 1864.735
69.58000 1696.585
69.59000 1530.747
69.60000 1419.809
69.61000 1332.123
69.62000 1249.852
69.63000 1197.155
69.64000 1156.922
69.65000 1115.792
69.66000 1068.390
69.67000 1019.782
69.68000 974.445
69.69000 943.855
69.70000 915.055
69.71000 893.041
69.72000 862.527
69.73000 838.002
69.74000 817.996
69.75000 807.371
69.76000 797.035
69.77000 780.123
69.78000 753.961
69.79000 727.741
69.80000 704.089
69.81000 682.812
69.82000 661.659
69.83000 649.125
69.84000 641.852
69.85000 634.595
69.86000 627.718
69.87000 620.998
69.88000 614.705
69.89000 604.873
69.90000 595.018
69.91000 585.255
69.92000 576.124
69.93000 567.111
69.94000 558.758
69.95000 553.319
69.96000 548.227
69.97000 544.352
69.98000 546.128
69.99000 547.821
70.00000 545.363
