20.00000 471.280
20.01000 471.019
20.02000 470.719
20.03000 471.449
20.04000 476.236
20.05000 481.437
20.06000 485.277
20.07000 485.997
20.08000 486.422
20.09000 485.404
20.10000 481.742
20.11000 478.025
20.12000 476.340
20.13000 477.152
20.14000 477.970
20.15000 478.571
20.16000 478.996
20.17000 479.350
20.18000 476.564
20.19000 472.090
20.20000 467.829
20.21000 467.338
20.22000 468.232
20.23000 469.057
20.24000 471.568
20.25000 474.194
20.26000 476.515
20.27000 477.044
20.28000 477.280
20.29000 476.226
20.30000 470.181
20.31000 463.638
20.32000 458.831
20.33000 462.991
20.34000 466.575
20.35000 467.929
20.36000 465.272
20.37000 462.535
20.38000 463.001
20.39000 467.326
20.40000 471.651
20.41000 475.141
20.42000 477.962
20.43000 480.723
20.44000 480.949
20.45000 479.836
20.46000 478.854
20.47000 480.108
20.48000 482.169
20.49000 484.066
20.50000 477.923
20.51000 470.671
20.52000 463.877
20.53000 459.728
20.54000 456.003
20.55000 453.966
20.56000 458.351
20.57000 463.361
20.58000 467.023
20.59000 479.052
20.60000 488.660
20.61000 490.090
20.62000 477.072
20.63000 463.779
20.64000 458.730
20.65000 463.432
20.66000 468.140
20.67000 468.528
20.68000 465.609
20.69000 462.790
20.70000 463.994
20.71000 467.285
20.72000 470.738
20.73000 476.894
20.74000 484.009
20.75000 490.545
20.76000 481.467
20.77000 470.018
20.78000 460.445
20.79000 461.478
20.80000 464.173
20.81000 465.155
20.82000 459.736
20.83000 453.710
20.84000 449.327
20.85000 457.775
20.86000 464.762
20.87000 468.165
20.88000 465.342
20.89000 462.409
20.90000 458.649
20.91000 453.931
20.92000 449.224
20.93000 450.997
20.94000 457.621
20.95000 464.112
20.96000 465.559
20.97000 464.434
20.98000 463.430
20.99000 464.384
21.00000 466.021
21.01000 467.521
21.02000 461.904
21.03000 455.407
21.04000 450.031
21.05000 450.874
21.06000 452.672
21.07000 454.205
21.08000 454.768
21.09000 455.242
21.10000 455.584
21.11000 459.189
21.12000 462.075
21.13000 465.522
21.14000 469.924
21.15000 474.342
21.16000 475.369
21.17000 472.535
21.18000 469.706
21.19000 468.237
21.20000 467.782
21.21000 467.151
21.22000 460.143
21.23000 449.937
21.24000 440.484
21.25000 442.767
21.26000 449.074
21.27000 454.843
21.28000 462.068
21.29000 468.790
21.30000 473.801
21.31000 469.515
21.32000 463.831
21.33000 458.637
21.34000 455.209
21.35000 451.940
21.36000 449.586
21.37000 443.769
21.38000 439.193
21.39000 439.892
21.40000 449.433
21.41000 459.114
21.42000 466.146
21.43000 470.222
21.44000 474.282
21.45000 474.805
21.46000 472.770
21.47000 470.798
21.48000 470.980
21.49000 472.224
21.50000 473.424
21.51000 473.961
21.52000 474.275
21.53000 474.562
21.54000 468.704
21.55000 462.269
21.56000 457.069
21.57000 458.446
21.58000 460.792
21.59000 462.451
21.60000 461.675
21.61000 460.685
21.62000 459.977
21.63000 463.375
21.64000 466.110
21.65000 470.655
21.66000 478.182
21.67000 485.753
21.68000 487.830
21.69000 483.893
21.70000 479.969
21.71000 478.406
21.72000 478.532
21.73000 478.598
21.74000 476.667
21.75000 473.770
21.76000 471.379
21.77000 476.418
21.78000 483.918
21.79000 490.745
21.80000 491.060
21.81000 490.053
21.82000 489.854
21.83000 493.885
21.84000 498.525
21.85000 500.777
21.86000 494.717
21.87000 487.946
21.88000 483.124
21.89000 499.153
21.90000 512.044
21.91000 521.065
21.92000 523.821
21.93000 526.492
21.94000 527.188
21.95000 525.762
21.96000 524.343
21.97000 526.184
21.98000 530.271
21.99000 534.309
22.00000 536.793
22.01000 538.536
22.02000 540.280
22.03000 542.036
22.04000 543.796
22.05000 545.395
22.06000 544.028
22.07000 542.247
22.08000 541.043
22.09000 542.791
22.10000 544.957
22.11000 546.171
22.12000 544.135
22.13000 541.828
22.14000 540.194
22.15000 545.473
22.16000 549.701
22.17000 549.288
22.18000 541.497
22.19000 533.612
22.20000 525.744
22.21000 517.894
22.22000 510.083
22.23000 507.352
22.24000 508.116
22.25000 508.723
22.26000 504.648
22.27000 498.381
22.28000 492.301
22.29000 488.821
22.30000 486.172
22.31000 483.772
22.32000 485.581
22.33000 487.973
22.34000 489.627
22.35000 487.573
22.36000 485.006
22.37000 482.074
22.38000 477.910
22.39000 473.646
22.40000 470.642
22.41000 472.762
22.42000 474.523
22.43000 476.938
22.44000 480.377
22.45000 483.828
22.46000 478.079
22.47000 462.834
22.48000 447.670
22.49000 443.059
22.50000 445.564
22.51000 448.183
22.52000 454.083
22.53000 461.491
22.54000 468.307
22.55000 467.137
22.56000 463.457
22.57000 460.130
22.58000 455.654
22.59000 451.503
22.60000 448.127
22.61000 448.574
22.62000 449.537
22.63000 449.140
22.64000 444.250
22.65000 439.005
22.66000 435.330
22.67000 444.045
22.68000 450.991
22.69000 453.735
22.70000 450.031
22.71000 446.256
22.72000 439.814
22.73000 430.676
22.74000 421.591
22.75000 422.157
22.76000 429.048
22.77000 435.726
22.78000 436.511
22.79000 434.630
22.80000 432.980
22.81000 434.351
22.82000 436.656
22.83000 438.734
22.84000 443.112
22.85000 447.373
22.86000 449.377
22.87000 440.453
22.88000 430.083
22.89000 424.156
22.90000 432.641
22.91000 442.232
22.92000 448.915
22.93000 453.220
22.94000 456.403
22.95000 455.127
22.96000 447.131
22.97000 439.068
22.98000 437.929
22.99000 443.656
23.00000 449.346
23.01000 444.739
23.02000 433.572
23.03000 422.849
23.04000 423.945
23.05000 430.295
23.06000 436.626
23.07000 442.727
23.08000 448.757
23.09000 454.179
23.10000 448.700
23.11000 441.960
23.12000 436.551
23.13000 437.468
23.14000 439.204
23.15000 438.869
23.16000 431.930
23.17000 424.498
23.18000 419.349
23.19000 429.235
23.20000 437.070
23.21000 442.329
23.22000 443.776
23.23000 445.187
23.24000 441.174
23.25000 431.892
23.26000 422.675
23.27000 419.067
23.28000 419.061
23.29000 419.200
23.30000 423.074
23.31000 428.580
23.32000 433.483
23.33000 430.934
23.34000 426.162
23.35000 421.881
23.36000 418.660
23.37000 416.031
23.38000 414.781
23.39000 419.964
23.40000 425.961
23.41000 430.732
23.42000 431.663
23.43000 432.315
23.44000 432.765
23.45000 438.123
23.46000 442.270
23.47000 444.249
23.48000 443.078
23.49000 441.881
23.50000 436.156
23.51000 426.117
23.52000 416.156
23.53000 415.524
23.54000 420.686
23.55000 425.768
23.56000 428.892
23.57000 431.176
23.58000 433.442
23.59000 435.489
23.60000 437.473
23.61000 439.248
23.62000 435.766
23.63000 431.831
23.64000 428.866
23.65000 430.339
23.66000 432.361
23.67000 434.954
23.68000 439.304
23.69000 443.778
23.70000 446.842
23.71000 452.207
23.72000 456.281
23.73000 458.286
23.74000 457.338
23.75000 456.369
23.76000 459.460
23.77000 466.341
23.78000 473.165
23.79000 471.025
23.80000 463.473
23.81000 456.274
23.82000 457.400
23.83000 462.042
23.84000 466.586
23.85000 469.971
23.86000 473.023
23.87000 475.746
23.88000 476.145
23.89000 476.105
23.90000 476.142
23.91000 476.533
23.92000 476.966
23.93000 478.174
23.94000 481.726
23.95000 485.438
23.96000 487.966
23.97000 488.827
23.98000 489.433
23.99000 493.816
24.00000 503.497
24.01000 513.210
24.02000 515.214
24.03000 510.159
24.04000 505.148
24.05000 495.150
24.06000 482.370
24.07000 470.355
24.08000 475.735
24.09000 488.337
24.10000 499.674
24.11000 496.566
24.12000 489.370
24.13000 482.964
24.14000 480.237
24.15000 478.469
24.16000 476.565
24.17000 474.060
24.18000 471.484
24.19000 470.111
24.20000 472.318
24.21000 474.763
24.22000 476.417
24.23000 457.470
24.24000 442.903
24.25000 437.060
24.26000 443.228
24.27000 449.462
24.28000 446.373
24.29000 434.909
24.30000 423.557
24.31000 427.616
24.32000 440.616
24.33000 452.801
24.34000 447.127
24.35000 434.165
24.36000 422.245
24.37000 421.936
24.38000 424.854
24.39000 427.444
24.40000 428.036
24.41000 428.229
24.42000 427.554
24.43000 423.123
24.44000 418.258
24.45000 414.309
24.46000 413.042
24.47000 411.946
24.48000 411.210
24.49000 427.289
24.50000 439.588
24.51000 442.138
24.52000 431.512
24.53000 420.818
24.54000 414.194
24.55000 411.156
24.56000 408.149
24.57000 411.598
24.58000 418.681
24.59000 425.446
24.60000 425.505
24.61000 422.874
24.62000 420.188
24.63000 416.915
24.64000 413.482
24.65000 410.442
24.66000 411.519
24.67000 413.095
24.68000 413.724
24.69000 410.328
24.70000 406.477
24.71000 404.682
24.72000 408.794
24.73000 413.275
24.74000 416.271
24.75000 407.341
24.76000 400.487
24.77000 398.084
24.78000 401.587
24.79000 405.123
24.80000 412.276
24.81000 422.553
24.82000 432.716
24.83000 426.075
24.84000 410.112
24.85000 394.838
24.86000 393.571
24.87000 397.828
24.88000 402.041
24.89000 405.787
24.90000 409.407
24.91000 412.603
24.92000 414.291
24.93000 415.517
24.94000 416.078
24.95000 413.860
24.96000 411.336
24.97000 411.368
24.98000 418.621
24.99000 426.310
25.00000 431.419
25.01000 414.295
25.02000 401.219
25.03000 396.279
25.04000 401.940
25.05000 407.648
25.06000 414.313
25.07000 421.790
25.08000 429.178
25.09000 423.411
25.10000 410.506
25.11000 398.201
25.12000 397.708
25.13000 401.794
25.14000 405.950
25.15000 410.825
25.16000 415.888
25.17000 420.346
25.18000 414.579
25.19000 408.081
25.20000 403.823
25.21000 408.748
25.22000 414.661
25.23000 419.020
25.24000 419.066
25.25000 418.858
25.26000 418.721
25.27000 412.090
25.28000 407.085
25.29000 403.231
25.30000 400.849
25.31000 398.471
25.32000 396.120
25.33000 393.789
25.34000 391.488
25.35000 392.329
25.36000 394.853
25.37000 397.289
25.38000 398.040
25.39000 398.149
25.40000 397.953
25.41000 394.683
25.42000 390.616
25.43000 387.047
25.44000 389.206
25.45000 391.902
25.46000 394.628
25.47000 397.476
25.48000 400.337
25.49000 403.234
25.50000 406.228
25.51000 409.228
25.52000 411.196
25.53000 406.533
25.54000 402.991
25.55000 399.785
25.56000 396.999
25.57000 394.216
25.58000 392.042
25.59000 390.364
25.60000 388.708
25.61000 392.783
25.62000 399.800
25.63000 406.320
25.64000 403.694
25.65000 397.641
25.66000 392.318
25.67000 394.152
25.68000 397.807
25.69000 401.006
25.70000 403.979
25.71000 406.495
25.72000 408.776
25.73000 410.129
25.74000 411.387
25.75000 411.249
25.76000 407.366
25.77000 403.277
25.78000 400.611
25.79000 396.290
25.80000 393.093
25.81000 393.110
25.82000 397.084
25.83000 401.059
25.84000 401.511
25.85000 399.140
25.86000 396.804
25.87000 391.469
25.88000 384.722
25.89000 378.685
25.90000 385.291
25.91000 396.552
25.92000 406.753
25.93000 406.794
25.94000 404.297
25.95000 402.118
25.96000 400.346
25.97000 398.888
25.98000 397.621
25.99000 397.093
26.00000 396.639
26.01000 395.820
26.02000 394.041
26.03000 392.211
26.04000 391.026
26.05000 392.004
26.06000 392.751
26.07000 391.337
26.08000 387.311
26.09000 383.298
26.10000 384.460
26.11000 389.692
26.12000 394.844
26.13000 391.846
26.14000 384.756
26.15000 378.216
26.16000 381.148
26.17000 387.509
26.18000 392.445
26.19000 384.050
26.20000 372.385
26.21000 362.233
26.22000 369.089
26.23000 377.273
26.24000 383.054
26.25000 379.671
26.26000 375.394
26.27000 371.572
26.28000 368.933
26.29000 366.354
26.30000 364.695
26.31000 372.671
26.32000 378.627
26.33000 382.078
26.34000 382.558
26.35000 383.025
26.36000 381.836
26.37000 379.368
26.38000 376.940
26.39000 372.784
26.40000 367.890
26.41000 363.533
26.42000 368.142
26.43000 375.942
26.44000 382.737
26.45000 380.357
26.46000 375.767
26.47000 371.784
26.48000 373.194
26.49000 375.116
26.50000 376.397
26.51000 375.273
26.52000 373.919
26.53000 374.237
26.54000 378.812
26.55000 383.599
26.56000 386.659
26.57000 384.348
26.58000 382.596
26.59000 378.375
26.60000 371.281
26.61000 364.222
26.62000 365.484
26.63000 373.048
26.64000 380.484
26.65000 386.075
26.66000 390.568
26.67000 394.291
26.68000 385.593
26.69000 372.551
26.70000 361.369
26.71000 366.776
26.72000 376.106
26.73000 384.177
26.74000 382.818
26.75000 380.428
26.76000 378.254
26.77000 376.876
26.78000 375.571
26.79000 376.031
26.80000 380.910
26.81000 386.001
26.82000 389.234
26.83000 378.314
26.84000 370.212
26.85000 368.063
26.86000 372.709
26.87000 377.345
26.88000 378.695
26.89000 377.601
26.90000 376.526
26.91000 378.026
26.92000 380.724
26.93000 383.103
26.94000 380.504
26.95000 376.194
26.96000 372.492
26.97000 374.096
26.98000 376.933
26.99000 379.379
27.00000 375.128
27.01000 370.666
27.02000 368.466
27.03000 374.448
27.04000 381.171
27.05000 385.453
27.06000 383.729
27.07000 381.727
27.08000 380.464
27.09000 387.636
27.10000 392.925
27.11000 393.854
27.12000 389.901
27.13000 385.953
27.14000 383.483
27.15000 382.092
27.16000 380.728
27.17000 383.401
27.18000 387.898
27.19000 391.811
27.20000 386.825
27.21000 378.833
27.22000 371.040
27.23000 364.942
27.24000 359.229
27.25000 354.318
27.26000 375.772
27.27000 397.225
27.28000 411.142
27.29000 398.297
27.30000 383.092
27.31000 371.978
27.32000 370.768
27.33000 369.998
27.34000 369.516
27.35000 375.734
27.36000 380.295
27.37000 380.258
27.38000 375.170
27.39000 370.110
27.40000 369.748
27.41000 372.753
27.42000 375.699
27.43000 377.938
27.44000 379.763
27.45000 381.794
27.46000 386.863
27.47000 392.940
27.48000 398.258
27.49000 397.261
27.50000 394.850
27.51000 392.784
27.52000 387.104
27.53000 381.866
27.54000 377.157
27.55000 374.290
27.56000 371.581
27.57000 371.835
27.58000 379.138
27.59000 386.743
27.60000 391.473
27.61000 388.029
27.62000 385.467
27.63000 382.797
27.64000 380.012
27.65000 377.217
27.66000 373.193
27.67000 368.303
27.68000 363.515
27.69000 364.462
27.70000 368.001
27.71000 371.526
27.72000 374.850
27.73000 378.108
27.74000 381.200
27.75000 382.942
27.76000 384.388
27.77000 385.624
27.78000 379.549
27.79000 373.558
27.80000 368.804
27.81000 368.292
27.82000 368.135
27.83000 366.537
27.84000 361.568
27.85000 356.460
27.86000 353.305
27.87000 360.092
27.88000 365.059
27.89000 366.024
27.90000 362.765
27.91000 359.530
27.92000 359.370
27.93000 361.337
27.94000 363.261
27.95000 364.365
27.96000 365.055
27.97000 365.458
27.98000 361.872
27.99000 357.007
28.00000 352.660
28.01000 352.439
28.02000 353.109
28.03000 353.679
28.04000 357.514
28.05000 361.118
28.06000 365.128
28.07000 370.502
28.08000 375.987
28.09000 378.124
28.10000 372.563
28.11000 366.695
28.12000 363.098
28.13000 355.477
28.14000 349.985
28.15000 347.304
28.16000 347.534
28.17000 347.814
28.18000 353.675
28.19000 363.325
28.20000 372.754
28.21000 372.735
28.22000 368.544
28.23000 364.538
28.24000 363.026
28.25000 362.300
28.26000 362.099
28.27000 365.979
28.28000 370.722
28.29000 374.748
28.30000 365.611
28.31000 356.447
28.32000 350.110
28.33000 353.127
28.34000 356.884
28.35000 361.355
28.36000 367.439
28.37000 373.584
28.38000 377.325
28.39000 370.830
28.40000 366.110
28.41000 359.440
28.42000 350.792
28.43000 342.211
28.44000 340.519
28.45000 343.422
28.46000 346.254
28.47000 353.106
28.48000 361.399
28.49000 369.218
28.50000 370.818
28.51000 370.491
28.52000 370.087
28.53000 369.090
28.54000 367.970
28.55000 367.023
28.56000 364.668
28.57000 362.541
28.58000 360.292
28.59000 357.650
28.60000 354.977
28.61000 354.050
28.62000 357.004
28.63000 360.099
28.64000 361.970
28.65000 354.612
28.66000 349.305
28.67000 347.539
28.68000 349.295
28.69000 351.039
28.70000 351.704
28.71000 351.662
28.72000 351.621
28.73000 356.784
28.74000 363.925
28.75000 370.173
28.76000 364.999
28.77000 356.349
28.78000 348.920
28.79000 350.586
28.80000 354.104
28.81000 357.072
28.82000 357.676
28.83000 357.924
28.84000 356.900
28.85000 351.807
28.86000 346.409
28.87000 345.193
28.88000 353.111
28.89000 361.350
28.90000 366.290
28.91000 363.290
28.92000 361.106
28.93000 361.767
28.94000 365.202
28.95000 368.558
28.96000 365.060
28.97000 357.149
28.98000 349.447
28.99000 345.837
29.00000 344.105
29.01000 342.410
29.02000 341.172
29.03000 340.072
29.04000 339.228
29.05000 340.257
29.06000 341.660
29.07000 342.839
29.08000 348.201
29.09000 353.111
29.10000 357.509
29.11000 360.298
29.12000 362.969
29.13000 363.049
29.14000 357.564
29.15000 351.892
29.16000 348.517
29.17000 345.016
29.18000 342.535
29.19000 340.524
29.20000 338.961
29.21000 337.419
29.22000 337.552
29.23000 338.742
29.24000 339.900
29.25000 342.813
29.26000 346.302
29.27000 349.563
29.28000 350.064
29.29000 349.754
29.30000 348.856
29.31000 343.776
29.32000 337.875
29.33000 332.932
29.34000 341.128
29.35000 349.299
29.36000 354.322
29.37000 349.624
29.38000 344.240
29.39000 341.621
29.40000 344.841
29.41000 348.250
29.42000 350.263
29.43000 355.678
29.44000 359.522
29.45000 363.718
29.46000 368.245
29.47000 372.660
29.48000 368.857
29.49000 359.949
29.50000 351.297
29.51000 348.139
29.52000 347.350
29.53000 346.688
29.54000 347.536
29.55000 348.820
29.56000 350.888
29.57000 358.431
29.58000 367.027
29.59000 374.202
29.60000 363.489
29.61000 352.799
29.62000 344.837
29.63000 345.149
29.64000 346.029
29.65000 348.725
29.66000 355.187
29.67000 361.765
29.68000 365.620
29.69000 358.631
29.70000 353.655
29.71000 350.601
29.72000 349.312
29.73000 348.015
29.74000 346.211
29.75000 344.099
29.76000 342.050
29.77000 349.720
29.78000 360.826
29.79000 371.233
29.80000 373.625
29.81000 373.744
29.82000 373.541
29.83000 371.142
29.84000 368.330
29.85000 365.990
29.86000 370.087
29.87000 374.110
29.88000 376.949
29.89000 376.254
29.90000 375.323
29.91000 376.329
29.92000 381.284
29.93000 386.355
29.94000 389.303
29.95000 378.386
29.96000 370.663
29.97000 370.474
29.98000 377.073
29.99000 383.608
30.00000 385.978
30.01000 385.851
30.02000 385.727
30.03000 379.957
30.04000 372.311
30.05000 365.295
30.06000 365.321
30.07000 367.311
30.08000 369.191
30.09000 370.343
30.10000 371.361
30.11000 372.204
30.12000 368.586
30.13000 365.171
30.14000 362.099
30.15000 360.034
30.16000 358.033
30.17000 358.152
30.18000 362.517
30.19000 367.002
30.20000 369.589
30.21000 363.101
30.22000 358.525
30.23000 357.163
30.24000 358.640
30.25000 360.111
30.26000 361.193
30.27000 362.047
30.28000 362.873
30.29000 365.298
30.30000 368.196
30.31000 370.953
30.32000 372.164
30.33000 372.952
30.34000 373.093
30.35000 368.993
30.36000 364.124
30.37000 360.103
30.38000 367.344
30.39000 374.362
30.40000 378.727
30.41000 375.450
30.42000 371.693
30.43000 366.878
30.44000 359.977
30.45000 353.020
30.46000 349.040
30.47000 351.945
30.48000 353.999
30.49000 356.857
30.50000 360.411
30.51000 363.935
30.52000 365.715
30.53000 366.486
30.54000 367.230
30.55000 363.445
30.56000 358.186
30.57000 353.322
30.58000 352.640
30.59000 353.083
30.60000 354.192
30.61000 359.576
30.62000 365.720
30.63000 370.777
30.64000 362.344
30.65000 354.184
30.66000 348.230
30.67000 348.524
30.68000 349.198
30.69000 353.562
30.70000 365.070
30.71000 376.760
30.72000 383.393
30.73000 382.626
30.74000 382.065
30.75000 378.806
30.76000 373.254
30.77000 367.756
30.78000 365.208
30.79000 364.337
30.80000 363.497
30.81000 369.524
30.82000 377.708
30.83000 385.136
30.84000 384.726
30.85000 382.245
30.86000 379.797
30.87000 377.553
30.88000 375.344
30.89000 373.533
30.90000 378.424
30.91000 383.029
30.92000 387.475
30.93000 391.473
30.94000 395.445
30.95000 401.221
30.96000 410.430
30.97000 419.722
30.98000 424.952
30.99000 425.588
31.00000 426.024
31.01000 429.650
31.02000 435.937
31.03000 442.463
31.04000 461.035
31.05000 486.341
31.06000 510.724
31.07000 521.631
31.08000 527.041
31.09000 533.500
31.10000 550.539
31.11000 570.325
31.12000 588.880
31.13000 599.855
31.14000 609.532
31.15000 617.438
31.16000 656.907
31.17000 691.939
31.18000 724.888
31.19000 752.139
31.20000 779.066
31.21000 803.575
31.22000 823.563
31.23000 843.446
31.24000 854.542
31.25000 898.874
31.26000 929.634
31.27000 961.352
31.28000 993.854
31.29000 1025.944
31.30000 1038.370
31.31000 1039.993
31.32000 1041.555
31.33000 1058.492
31.34000 1079.792
31.35000 1099.807
31.36000 1107.177
31.37000 1111.322
31.38000 1112.904
31.39000 1099.015
31.40000 1082.532
31.41000 1069.117
31.42000 1063.218
31.43000 1059.032
31.44000 1049.858
31.45000 1027.269
31.46000 1003.939
31.47000 979.074
31.48000 951.385
31.49000 923.635
31.50000 908.281
31.51000 878.952
31.52000 858.644
31.53000 823.734
31.54000 777.094
31.55000 730.882
31.56000 703.945
31.57000 687.415
31.58000 671.535
31.59000 649.589
31.60000 626.949
31.61000 604.268
31.62000 581.194
31.63000 558.022
31.64000 536.383
31.65000 523.812
31.66000 512.732
31.67000 503.748
31.68000 493.284
31.69000 484.636
31.70000 472.568
31.71000 451.456
31.72000 429.862
31.73000 412.925
31.74000 404.405
31.75000 396.057
31.76000 391.479
31.77000 394.345
31.78000 396.323
31.79000 396.829
31.80000 396.174
31.81000 395.324
31.82000 386.128
31.83000 372.502
31.84000 359.430
31.85000 352.841
31.86000 348.882
31.87000 345.330
31.88000 345.602
31.89000 346.815
31.90000 348.789
31.91000 355.178
31.92000 362.278
31.93000 368.012
31.94000 364.968
31.95000 361.794
31.96000 358.282
31.97000 353.889
31.98000 349.451
31.99000 345.863
32.00000 343.786
32.01000 341.738
32.02000 340.625
32.03000 349.538
32.04000 355.630
32.05000 353.049
32.06000 343.758
32.07000 334.631
32.08000 332.107
32.09000 333.029
32.10000 333.912
32.11000 335.990
32.12000 338.325
32.13000 340.218
32.14000 338.052
32.15000 334.906
32.16000 332.578
32.17000 334.895
32.18000 337.945
32.19000 340.399
32.20000 333.233
32.21000 326.675
32.22000 323.179
32.23000 327.504
32.24000 332.219
32.25000 334.521
32.26000 332.611
32.27000 330.624
32.28000 329.553
32.29000 327.411
32.30000 325.934
32.31000 322.106
32.32000 316.492
32.33000 311.025
32.34000 311.238
32.35000 314.365
32.36000 317.354
32.37000 331.428
32.38000 348.147
32.39000 362.351
32.40000 354.051
32.41000 340.413
32.42000 328.485
32.43000 326.085
32.44000 325.158
32.45000 324.415
32.46000 321.462
32.47000 318.906
32.48000 316.729
32.49000 315.501
32.50000 314.319
32.51000 313.133
32.52000 311.942
32.53000 310.750
32.54000 310.113
32.55000 313.897
32.56000 316.491
32.57000 321.135
32.58000 327.308
32.59000 333.252
32.60000 330.783
32.61000 324.075
32.62000 317.670
32.63000 317.879
32.64000 320.191
32.65000 321.814
32.66000 317.408
32.67000 311.598
32.68000 306.617
32.69000 306.163
32.70000 306.394
32.71000 306.578
32.72000 311.158
32.73000 315.178
32.74000 318.969
32.75000 322.191
32.76000 325.388
32.77000 325.184
32.78000 319.251
32.79000 313.226
32.80000 310.038
32.81000 309.370
32.82000 308.921
32.83000 308.859
32.84000 309.080
32.85000 309.311
32.86000 309.842
32.87000 310.524
32.88000 311.173
32.89000 314.917
32.90000 319.362
32.91000 323.054
32.92000 320.325
32.93000 316.128
32.94000 312.219
32.95000 309.851
32.96000 307.711
32.97000 306.011
32.98000 308.905
32.99000 311.564
33.00000 312.404
33.01000 308.830
33.02000 305.059
33.03000 303.963
33.04000 307.297
33.05000 310.697
33.06000 312.480
33.07000 303.487
33.08000 297.427
33.09000 296.823
33.10000 300.141
33.11000 303.332
33.12000 302.264
33.13000 299.123
33.14000 296.133
33.15000 299.500
33.16000 304.577
33.17000 309.516
33.18000 313.313
33.19000 316.854
33.20000 318.537
33.21000 310.456
33.22000 300.958
33.23000 293.439
33.24000 293.039
33.25000 293.212
33.26000 292.154
33.27000 288.159
33.28000 284.039
33.29000 285.632
33.30000 296.519
33.31000 307.536
33.32000 313.257
33.33000 302.235
33.34000 294.842
33.35000 294.675
33.36000 299.611
33.37000 304.304
33.38000 301.237
33.39000 294.458
33.40000 288.017
33.41000 288.752
33.42000 291.600
33.43000 294.303
33.44000 295.814
33.45000 297.062
33.46000 298.493
33.47000 300.862
33.48000 303.364
33.49000 305.336
33.50000 308.369
33.51000 310.873
33.52000 311.204
33.53000 306.442
33.54000 301.468
33.55000 299.963
33.56000 304.001
33.57000 308.111
33.58000 310.226
33.59000 309.671
33.60000 309.279
33.61000 306.645
33.62000 302.457
33.63000 298.300
33.64000 295.117
33.65000 292.392
33.66000 289.806
33.67000 294.181
33.68000 300.279
33.69000 305.215
33.70000 300.877
33.71000 294.534
33.72000 289.812
33.73000 293.290
33.74000 297.907
33.75000 301.532
33.76000 297.704
33.77000 294.155
33.78000 291.157
33.79000 289.431
33.80000 287.756
33.81000 288.848
33.82000 294.284
33.83000 299.772
33.84000 302.568
33.85000 303.925
33.86000 304.854
33.87000 307.754
33.88000 311.998
33.89000 316.098
33.90000 316.035
33.91000 314.046
33.92000 312.162
33.93000 313.354
33.94000 315.345
33.95000 316.946
33.96000 315.504
33.97000 313.417
33.98000 311.968
33.99000 313.682
34.00000 315.827
34.01000 317.504
34.02000 312.744
34.03000 308.536
34.04000 307.519
34.05000 313.733
34.06000 320.224
34.07000 322.533
34.08000 318.392
34.09000 314.178
34.10000 312.053
34.11000 324.781
34.12000 333.240
34.13000 336.325
34.14000 335.817
34.15000 335.443
34.16000 338.840
34.17000 343.950
34.18000 348.781
34.19000 345.666
34.20000 340.537
34.21000 337.081
34.22000 346.391
34.23000 358.359
34.24000 367.485
34.25000 362.773
34.26000 356.218
34.27000 351.116
34.28000 352.764
34.29000 354.492
34.30000 356.543
34.31000 359.313
34.32000 362.111
34.33000 361.061
34.34000 354.185
34.35000 347.248
34.36000 346.144
34.37000 350.857
34.38000 355.558
34.39000 359.036
34.40000 361.711
34.41000 364.360
34.42000 366.314
34.43000 367.956
34.44000 369.506
34.45000 366.767
34.46000 363.057
34.47000 359.247
34.48000 354.687
34.49000 349.973
34.50000 346.131
34.51000 346.451
34.52000 347.314
34.53000 347.982
34.54000 344.090
34.55000 340.725
34.56000 336.307
34.57000 329.582
34.58000 322.775
34.59000 318.962
34.60000 319.601
34.61000 320.283
34.62000 321.290
34.63000 322.615
34.64000 323.951
34.65000 326.274
34.66000 329.233
34.67000 332.113
34.68000 332.951
34.69000 332.893
34.70000 332.838
34.71000 319.409
34.72000 303.452
34.73000 289.035
34.74000 285.877
34.75000 284.977
34.76000 284.524
34.77000 286.169
34.78000 288.080
34.79000 289.555
34.80000 294.394
34.81000 298.425
34.82000 298.747
34.83000 291.084
34.84000 283.151
34.85000 283.580
34.86000 296.233
34.87000 308.990
34.88000 312.897
34.89000 308.324
34.90000 303.773
34.91000 300.891
34.92000 299.067
34.93000 297.127
34.94000 292.280
34.95000 286.179
34.96000 280.443
34.97000 278.745
34.98000 278.282
34.99000 278.007
35.00000 279.081
35.01000 280.421
35.02000 281.213
35.03000 279.484
35.04000 277.441
35.05000 275.872
35.06000 268.689
35.07000 262.693
35.08000 260.219
35.09000 265.197
35.10000 270.416
35.11000 272.821
35.12000 271.189
35.13000 269.525
35.14000 269.987
35.15000 272.446
35.16000 274.876
35.17000 275.136
35.18000 274.044
35.19000 272.889
35.20000 270.216
35.21000 266.899
35.22000 263.787
35.23000 263.634
35.24000 264.276
35.25000 265.516
35.26000 270.944
35.27000 277.179
35.28000 280.907
35.29000 273.302
35.30000 264.317
35.31000 257.445
35.32000 271.777
35.33000 284.236
35.34000 290.083
35.35000 282.175
35.36000 273.841
35.37000 271.115
35.38000 276.294
35.39000 281.527
35.40000 282.947
35.41000 280.855
35.42000 278.748
35.43000 275.545
35.44000 271.672
35.45000 267.760
35.46000 262.958
35.47000 257.783
35.48000 252.937
35.49000 256.655
35.50000 262.254
35.51000 266.445
35.52000 260.987
35.53000 253.704
35.54000 249.090
35.55000 256.314
35.56000 264.948
35.57000 271.521
35.58000 260.691
35.59000 251.251
35.60000 247.546
35.61000 255.570
35.62000 263.940
35.63000 268.863
35.64000 269.014
35.65000 269.134
35.66000 266.379
35.67000 261.032
35.68000 255.820
35.69000 259.437
35.70000 268.363
35.71000 276.778
35.72000 273.925
35.73000 266.449
35.74000 259.460
35.75000 259.648
35.76000 261.639
35.77000 263.239
35.78000 262.217
35.79000 260.708
35.80000 260.137
35.81000 263.642
35.82000 267.622
35.83000 270.638
35.84000 263.464
35.85000 257.311
35.86000 255.713
35.87000 263.269
35.88000 271.083
35.89000 274.647
35.90000 272.433
35.91000 270.187
35.92000 265.719
35.93000 259.290
35.94000 252.941
35.95000 251.460
35.96000 252.853
35.97000 254.284
35.98000 256.502
35.99000 259.037
36.00000 261.403
36.01000 264.331
36.02000 267.125
36.03000 268.939
36.04000 264.324
36.05000 258.539
36.06000 254.650
36.07000 258.867
36.08000 264.005
36.09000 267.881
36.10000 259.892
36.11000 253.047
36.12000 249.569
36.13000 252.738
36.14000 256.086
36.15000 257.192
36.16000 255.309
36.17000 253.412
36.18000 255.411
36.19000 260.788
36.20000 266.070
36.21000 265.920
36.22000 262.619
36.23000 259.528
36.24000 260.762
36.25000 263.712
36.26000 266.458
36.27000 266.942
36.28000 266.828
36.29000 266.136
36.30000 261.720
36.31000 256.639
36.32000 252.035
36.33000 249.431
36.34000 247.049
36.35000 245.261
36.36000 253.170
36.37000 259.814
36.38000 263.790
36.39000 262.587
36.40000 261.250
36.41000 260.258
36.42000 259.718
36.43000 259.179
36.44000 255.499
36.45000 249.154
36.46000 242.966
36.47000 245.256
36.48000 252.380
36.49000 259.040
36.50000 256.495
36.51000 250.363
36.52000 244.664
36.53000 241.471
36.54000 239.189
36.55000 237.746
36.56000 241.590
36.57000 246.359
36.58000 250.376
36.59000 251.294
36.60000 251.875
36.61000 252.310
36.62000 267.116
36.63000 279.322
36.64000 285.030
36.65000 278.339
36.66000 271.346
36.67000 264.375
36.68000 257.434
36.69000 250.500
36.70000 248.151
36.71000 249.634
36.72000 251.076
36.73000 250.462
36.74000 248.695
36.75000 247.309
36.76000 253.245
36.77000 261.985
36.78000 270.090
36.79000 275.357
36.80000 279.435
36.81000 282.969
36.82000 283.137
36.83000 282.728
36.84000 282.256
36.85000 281.533
36.86000 280.783
36.87000 280.225
36.88000 279.269
36.89000 278.508
36.90000 277.718
36.91000 276.875
36.92000 276.031
36.93000 276.612
36.94000 278.993
36.95000 281.377
36.96000 284.543
36.97000 288.338
36.98000 292.131
36.99000 295.848
37.00000 299.524
37.01000 302.817
37.02000 299.007
37.03000 292.523
37.04000 286.522
37.05000 290.442
37.06000 296.245
37.07000 300.518
37.08000 295.525
37.09000 288.975
37.10000 282.859
37.11000 278.469
37.12000 274.259
37.13000 271.143
37.14000 281.199
37.15000 289.569
37.16000 293.495
37.17000 289.232
37.18000 284.789
37.19000 282.905
37.20000 284.189
37.21000 285.481
37.22000 281.727
37.23000 273.942
37.24000 266.316
37.25000 265.884
37.26000 269.347
37.27000 272.689
37.28000 273.854
37.29000 274.214
37.30000 274.546
37.31000 270.419
37.32000 265.713
37.33000 261.506
37.34000 260.265
37.35000 259.512
37.36000 259.253
37.37000 260.921
37.38000 262.783
37.39000 264.154
37.40000 258.811
37.41000 254.397
37.42000 253.241
37.43000 257.984
37.44000 262.850
37.45000 266.618
37.46000 269.053
37.47000 271.480
37.48000 267.538
37.49000 258.605
37.50000 249.870
37.51000 249.641
37.52000 253.938
37.53000 258.025
37.54000 258.467
37.55000 257.583
37.56000 256.769
37.57000 255.649
37.58000 254.580
37.59000 253.755
37.60000 254.359
37.61000 255.192
37.62000 256.156
37.63000 257.616
37.64000 259.125
37.65000 260.230
37.66000 258.859
37.67000 257.701
37.68000 255.847
37.69000 252.751
37.70000 249.632
37.71000 247.332
37.72000 246.008
37.73000 244.688
37.74000 246.852
37.75000 251.691
37.76000 256.499
37.77000 259.994
37.78000 262.803
37.79000 265.453
37.80000 265.419
37.81000 264.425
37.82000 263.511
37.83000 262.545
37.84000 261.670
37.85000 260.841
37.86000 260.265
37.87000 259.730
37.88000 259.139
37.89000 258.340
37.90000 257.522
37.91000 256.925
37.92000 258.598
37.93000 259.975
37.94000 260.273
37.95000 258.685
37.96000 257.063
37.97000 256.000
37.98000 255.591
37.99000 255.184
38.00000 252.979
38.01000 249.427
38.02000 246.082
38.03000 250.787
38.04000 259.629
38.05000 268.004
38.06000 268.750
38.07000 266.814
38.08000 265.038
38.09000 266.255
38.10000 267.974
38.11000 269.705
38.12000 271.499
38.13000 273.302
38.14000 272.934
38.15000 264.535
38.16000 255.384
38.17000 248.747
38.18000 254.207
38.19000 258.853
38.20000 266.446
38.21000 279.107
38.22000 291.856
38.23000 297.296
38.24000 294.346
38.25000 291.395
38.26000 292.600
38.27000 296.880
38.28000 301.214
38.29000 307.536
38.30000 314.862
38.31000 322.091
38.32000 327.791
38.33000 332.964
38.34000 337.698
38.35000 349.583
38.36000 361.641
38.37000 373.638
38.38000 385.301
38.39000 396.913
38.40000 409.835
38.41000 427.515
38.42000 445.630
38.43000 458.700
38.44000 497.136
38.45000 527.507
38.46000 554.697
38.47000 576.513
38.48000 598.242
38.49000 623.137
38.50000 651.596
38.51000 679.964
38.52000 712.889
38.53000 748.865
38.54000 784.803
38.55000 819.387
38.56000 853.298
38.57000 887.892
38.58000 932.955
38.59000 981.574
38.60000 1025.978
38.61000 1054.033
38.62000 1075.613
38.63000 1098.040
38.64000 1125.023
38.65000 1152.684
38.66000 1177.174
38.67000 1190.346
38.68000 1202.512
38.69000 1211.244
38.70000 1234.275
38.71000 1252.379
38.72000 1258.017
38.73000 1242.963
38.74000 1227.595
38.75000 1212.784
38.76000 1198.590
38.77000 1184.449
38.78000 1156.081
38.79000 1117.807
38.80000 1079.634
38.81000 1044.874
38.82000 1011.781
38.83000 978.716
38.84000 946.088
38.85000 913.605
38.86000 884.007
38.87000 843.335
38.88000 805.095
38.89000 767.739
38.90000 735.036
38.91000 703.010
38.92000 670.117
38.93000 634.183
38.94000 597.985
38.95000 572.144
38.96000 529.757
38.97000 496.876
38.98000 468.500
38.99000 447.469
39.00000 426.541
39.01000 409.359
39.02000 396.233
39.03000 383.163
39.04000 365.080
39.05000 343.667
39.06000 322.673
39.07000 315.146
39.08000 314.080
39.09000 312.282
39.10000 299.908
39.11000 284.065
39.12000 269.662
39.13000 268.942
39.14000 270.977
39.15000 272.420
39.16000 270.802
39.17000 268.749
39.18000 266.825
39.19000 265.349
39.20000 263.910
39.21000 262.889
39.22000 261.604
39.23000 260.617
39.24000 257.028
39.25000 249.270
39.26000 241.456
39.27000 239.419
39.28000 243.517
39.29000 247.597
39.30000 248.366
39.31000 246.849
39.32000 245.374
39.33000 245.162
39.34000 245.546
39.35000 245.716
39.36000 242.899
39.37000 239.118
39.38000 235.689
39.39000 232.522
39.40000 229.779
39.41000 227.723
39.42000 229.147
39.43000 231.056
39.44000 232.836
39.45000 234.178
39.46000 235.483
39.47000 236.405
39.48000 245.875
39.49000 253.324
39.50000 254.865
39.51000 247.104
39.52000 239.230
39.53000 237.224
39.54000 241.327
39.55000 245.409
39.56000 248.554
39.57000 251.027
39.58000 253.290
39.59000 249.350
39.60000 242.537
39.61000 236.245
39.62000 237.068
39.63000 240.144
39.64000 242.928
39.65000 241.219
39.66000 238.873
39.67000 236.888
39.68000 236.699
39.69000 236.756
39.70000 237.262
39.71000 239.265
39.72000 241.387
39.73000 242.877
39.74000 239.405
39.75000 236.631
39.76000 233.983
39.77000 231.532
39.78000 229.083
39.79000 229.111
39.80000 231.667
39.81000 234.208
39.82000 234.494
39.83000 233.283
39.84000 232.083
39.85000 231.190
39.86000 230.437
39.87000 229.686
39.88000 228.954
39.89000 228.229
39.90000 227.574
39.91000 222.265
39.92000 216.748
39.93000 212.787
39.94000 216.426
39.95000 221.080
39.96000 225.397
39.97000 228.609
39.98000 231.737
39.99000 233.921
40.00000 228.754
40.01000 224.645
40.02000 222.591
40.03000 223.655
40.04000 224.752
40.05000 225.771
40.06000 226.712
40.07000 227.647
40.08000 227.988
40.09000 227.940
40.10000 227.853
40.11000 226.744
40.12000 225.178
40.13000 223.820
40.14000 225.156
40.15000 227.317
40.16000 229.262
40.17000 226.925
40.18000 224.107
40.19000 221.837
40.20000 222.195
40.21000 222.897
40.22000 224.591
40.23000 229.471
40.24000 234.593
40.25000 238.150
40.26000 238.240
40.27000 238.215
40.28000 235.730
40.29000 229.575
40.30000 223.385
40.31000 217.504
40.32000 211.924
40.33000 206.382
40.34000 209.245
40.35000 217.420
40.36000 225.308
40.37000 225.769
40.38000 222.960
40.39000 220.722
40.40000 225.636
40.41000 232.701
40.42000 239.045
40.43000 229.264
40.44000 217.870
40.45000 209.053
40.46000 212.350
40.47000 217.195
40.48000 220.806
40.49000 220.518
40.50000 219.945
40.51000 219.548
40.52000 220.393
40.53000 221.059
40.54000 219.941
40.55000 216.209
40.56000 212.454
40.57000 211.552
40.58000 213.391
40.59000 215.216
40.60000 215.384
40.61000 214.513
40.62000 213.759
40.63000 215.904
40.64000 219.304
40.65000 222.420
40.66000 222.057
40.67000 220.667
40.68000 219.422
40.69000 219.226
40.70000 219.235
40.71000 218.748
40.72000 215.966
40.73000 212.897
40.74000 212.137
40.75000 218.541
40.76000 225.457
40.77000 230.206
40.78000 215.839
40.79000 204.602
40.80000 198.784
40.81000 200.766
40.82000 202.809
40.83000 205.026
40.84000 207.404
40.85000 209.763
40.86000 212.660
40.87000 215.835
40.88000 218.910
40.89000 219.576
40.90000 219.218
40.91000 218.517
40.92000 213.755
40.93000 207.813
40.94000 202.505
40.95000 204.753
40.96000 207.986
40.97000 211.161
40.98000 214.081
40.99000 216.970
41.00000 218.995
41.01000 218.389
41.02000 217.601
41.03000 217.063
41.04000 218.650
41.05000 219.886
41.06000 219.519
41.07000 216.888
41.08000 214.242
41.09000 213.766
41.10000 215.296
41.11000 216.813
41.12000 215.871
41.13000 213.466
41.14000 211.083
41.15000 209.193
41.16000 207.510
41.17000 206.103
41.18000 207.897
41.19000 210.604
41.20000 213.016
41.21000 213.824
41.22000 214.262
41.23000 214.946
41.24000 216.726
41.25000 218.636
41.26000 219.460
41.27000 217.027
41.28000 214.375
41.29000 212.576
41.30000 210.762
41.31000 209.408
41.32000 207.793
41.33000 205.816
41.34000 203.838
41.35000 205.348
41.36000 210.017
41.37000 214.643
41.38000 213.757
41.39000 209.635
41.40000 205.643
41.41000 204.534
41.42000 204.612
41.43000 204.871
41.44000 207.175
41.45000 210.053
41.46000 212.610
41.47000 212.321
41.48000 211.611
41.49000 211.709
41.50000 215.338
41.51000 219.379
41.52000 221.548
41.53000 218.203
41.54000 214.499
41.55000 212.001
41.56000 208.350
41.57000 205.609
41.58000 203.747
41.59000 203.084
41.60000 202.428
41.61000 201.815
41.62000 201.242
41.63000 200.674
41.64000 201.820
41.65000 203.933
41.66000 205.975
41.67000 206.505
41.68000 206.424
41.69000 206.238
41.70000 204.909
41.71000 203.265
41.72000 201.808
41.73000 203.045
41.74000 204.542
41.75000 205.936
41.76000 206.890
41.77000 207.794
41.78000 209.621
41.79000 214.119
41.80000 218.786
41.81000 221.915
41.82000 211.227
41.83000 203.017
41.84000 197.625
41.85000 196.004
41.86000 194.407
41.87000 196.826
41.88000 202.744
41.89000 208.599
41.90000 211.750
41.91000 213.292
41.92000 214.622
41.93000 211.553
41.94000 206.738
41.95000 202.545
41.96000 205.011
41.97000 209.278
41.98000 213.049
41.99000 213.297
42.00000 212.966
42.01000 211.199
42.02000 203.387
42.03000 194.902
42.04000 191.331
42.05000 201.746
42.06000 213.018
42.07000 220.529
42.08000 212.299
42.09000 205.906
42.10000 203.484
42.11000 206.277
42.12000 209.095
42.13000 212.414
42.14000 216.162
42.15000 219.867
42.16000 219.935
42.17000 217.971
42.18000 216.035
42.19000 214.649
42.20000 213.477
42.21000 212.002
42.22000 207.371
42.23000 201.902
42.24000 197.081
42.25000 196.571
42.26000 196.785
42.27000 197.805
42.28000 202.161
42.29000 206.880
42.30000 211.220
42.31000 214.499
42.32000 217.715
42.33000 219.845
42.34000 216.717
42.35000 214.312
42.36000 213.783
42.37000 215.670
42.38000 217.561
42.39000 216.253
42.40000 212.263
42.41000 208.322
42.42000 210.792
42.43000 216.709
42.44000 222.426
42.45000 224.295
42.46000 224.686
42.47000 224.758
42.48000 221.583
42.49000 217.559
42.50000 214.023
42.51000 215.574
42.52000 217.660
42.53000 218.790
42.54000 216.040
42.55000 212.877
42.56000 211.273
42.57000 213.952
42.58000 216.877
42.59000 218.802
42.60000 218.284
42.61000 217.860
42.62000 216.058
42.63000 212.512
42.64000 208.971
42.65000 210.196
42.66000 215.344
42.67000 220.425
42.68000 217.699
42.69000 210.851
42.70000 204.269
42.71000 202.624
42.72000 202.844
42.73000 203.009
42.74000 202.635
42.75000 202.124
42.76000 201.675
42.77000 203.991
42.78000 206.379
42.79000 207.564
42.80000 203.954
42.81000 199.847
42.82000 197.231
42.83000 198.644
42.84000 200.283
42.85000 201.354
42.86000 205.843
42.87000 209.195
42.88000 208.566
42.89000 202.993
42.90000 197.419
42.91000 196.687
42.92000 199.866
42.93000 203.000
42.94000 206.316
42.95000 209.635
42.96000 212.633
42.97000 209.867
42.98000 204.962
42.99000 200.661
43.00000 202.202
43.01000 205.214
43.02000 207.847
43.03000 205.062
43.04000 201.911
43.05000 199.773
43.06000 201.605
43.07000 203.838
43.08000 205.787
43.09000 206.983
43.10000 208.139
43.11000 208.889
43.12000 193.709
43.13000 182.344
43.14000 178.766
43.15000 184.677
43.16000 190.594
43.17000 191.162
43.18000 187.490
43.19000 183.873
43.20000 185.178
43.21000 188.993
43.22000 192.764
43.23000 195.782
43.24000 198.525
43.25000 200.893
43.26000 199.728
43.27000 197.690
43.28000 195.913
43.29000 201.368
43.30000 207.031
43.31000 210.722
43.32000 206.838
43.33000 202.206
43.34000 199.274
43.35000 200.780
43.36000 202.518
43.37000 203.639
43.38000 204.450
43.39000 205.038
43.40000 202.660
43.41000 196.734
43.42000 190.816
43.43000 188.869
43.44000 190.011
43.45000 191.135
43.46000 191.893
43.47000 192.442
43.48000 192.830
43.49000 190.503
43.50000 187.203
43.51000 185.079
43.52000 193.805
43.53000 205.165
43.54000 215.035
43.55000 205.539
43.56000 194.822
43.57000 186.825
43.58000 189.100
43.59000 192.364
43.60000 193.512
43.61000 189.227
43.62000 184.668
43.63000 181.745
43.64000 189.793
43.65000 195.805
43.66000 198.949
43.67000 198.726
43.68000 198.490
43.69000 196.575
43.70000 193.377
43.71000 190.233
43.72000 188.023
43.73000 186.350
43.74000 185.037
43.75000 189.606
43.76000 196.248
43.77000 201.774
43.78000 197.245
43.79000 190.319
43.80000 184.319
43.81000 183.450
43.82000 183.390
43.83000 184.131
43.84000 187.846
43.85000 191.841
43.86000 195.351
43.87000 197.639
43.88000 199.867
43.89000 201.287
43.90000 197.888
43.91000 195.357
43.92000 190.965
43.93000 184.430
43.94000 177.937
43.95000 180.271
43.96000 189.225
43.97000 198.022
43.98000 197.488
43.99000 192.409
44.00000 187.707
44.01000 189.005
44.02000 192.381
44.03000 195.122
44.04000 192.266
44.05000 188.100
44.06000 184.502
44.07000 189.509
44.08000 194.872
44.09000 198.287
44.10000 194.605
44.11000 190.274
44.12000 189.520
44.13000 197.642
44.14000 206.182
44.15000 211.583
44.16000 205.403
44.17000 200.786
44.18000 196.841
44.19000 193.654
44.20000 190.492
44.21000 191.612
44.22000 195.884
44.23000 200.076
44.24000 200.450
44.25000 198.977
44.26000 197.635
44.27000 198.315
44.28000 199.685
44.29000 200.540
44.30000 196.977
44.31000 192.398
44.32000 188.456
44.33000 190.994
44.34000 193.962
44.35000 197.382
44.36000 202.416
44.37000 207.594
44.38000 211.629
44.39000 212.876
44.40000 213.997
44.41000 214.701
44.42000 216.324
44.43000 217.508
44.44000 216.916
44.45000 214.357
44.46000 211.794
44.47000 208.830
44.48000 205.576
44.49000 202.385
44.50000 203.479
44.51000 206.550
44.52000 209.544
44.53000 211.373
44.54000 212.813
44.55000 213.925
44.56000 212.280
44.57000 210.013
44.58000 208.067
44.59000 208.831
44.60000 209.811
44.61000 211.560
44.62000 216.011
44.63000 220.698
44.64000 223.797
44.65000 223.090
44.66000 222.217
44.67000 221.673
44.68000 227.361
44.69000 231.526
44.70000 232.150
44.71000 228.926
44.72000 225.715
44.73000 224.504
44.74000 224.714
44.75000 224.920
44.76000 223.550
44.77000 221.505
44.78000 219.946
44.79000 225.450
44.80000 233.276
44.81000 240.665
44.82000 244.462
44.83000 247.463
44.84000 250.031
44.85000 248.961
44.86000 247.619
44.87000 246.137
44.88000 244.170
44.89000 242.162
44.90000 242.134
44.91000 246.774
44.92000 251.609
44.93000 254.604
44.94000 262.893
44.95000 268.905
44.96000 272.348
44.97000 273.057
44.98000 273.759
44.99000 273.695
45.00000 273.097
45.01000 272.512
45.02000 268.568
45.03000 263.258
45.04000 258.521
45.05000 261.868
45.06000 267.828
45.07000 272.211
45.08000 263.936
45.09000 252.910
45.10000 243.505
45.11000 251.724
45.12000 260.716
45.13000 266.335
45.14000 260.501
45.15000 253.723
45.16000 249.781
45.17000 252.406
45.18000 255.296
45.19000 257.074
45.20000 255.707
45.21000 254.699
45.22000 251.206
45.23000 245.119
45.24000 239.042
45.25000 234.230
45.26000 230.284
45.27000 226.427
45.28000 225.597
45.29000 226.149
45.30000 226.811
45.31000 228.970
45.32000 231.604
45.33000 233.977
45.34000 234.299
45.35000 234.183
45.36000 234.084
45.37000 233.110
45.38000 232.191
45.39000 230.095
45.40000 224.072
45.41000 217.735
45.42000 212.529
45.43000 209.900
45.44000 207.370
45.45000 205.826
45.46000 210.948
45.47000 214.666
45.48000 216.569
45.49000 216.614
45.50000 216.648
45.51000 215.417
45.52000 213.337
45.53000 211.306
45.54000 212.733
45.55000 215.609
45.56000 218.147
45.57000 216.195
45.58000 212.841
45.59000 209.478
45.60000 206.042
45.61000 202.591
45.62000 199.667
45.63000 203.765
45.64000 207.987
45.65000 210.310
45.66000 206.409
45.67000 202.022
45.68000 199.612
45.69000 201.630
45.70000 203.812
45.71000 205.135
45.72000 202.757
45.73000 201.033
45.74000 199.823
45.75000 199.127
45.76000 198.435
45.77000 198.084
45.78000 197.958
45.79000 197.836
45.80000 194.994
45.81000 191.114
45.82000 187.745
45.83000 190.997
45.84000 196.278
45.85000 200.639
45.86000 198.081
45.87000 194.100
45.88000 190.738
45.89000 194.824
45.90000 199.056
45.91000 200.641
45.92000 193.700
45.93000 186.111
45.94000 182.267
45.95000 186.664
45.96000 191.356
45.97000 194.179
45.98000 191.385
45.99000 189.358
46.00000 187.475
46.01000 185.733
46.02000 183.960
46.03000 179.391
46.04000 173.010
46.05000 166.794
46.06000 167.542
46.07000 171.186
46.08000 174.989
46.09000 180.786
46.10000 187.184
46.11000 192.361
46.12000 188.564
46.13000 182.958
46.14000 178.239
46.15000 173.538
46.16000 169.618
46.17000 166.701
46.18000 166.957
46.19000 167.447
46.20000 168.537
46.21000 170.924
46.22000 173.355
46.23000 174.807
46.24000 177.952
46.25000 180.192
46.26000 179.679
46.27000 176.510
46.28000 173.357
46.29000 171.483
46.30000 170.423
46.31000 169.393
46.32000 171.406
46.33000 174.580
46.34000 177.615
46.35000 178.941
46.36000 179.762
46.37000 180.543
46.38000 181.045
46.39000 181.492
46.40000 181.866
46.41000 180.214
46.42000 178.627
46.43000 176.858
46.44000 174.525
46.45000 172.152
46.46000 171.581
46.47000 174.840
46.48000 178.225
46.49000 180.231
46.50000 179.939
46.51000 179.721
46.52000 181.399
46.53000 184.871
46.54000 188.243
46.55000 183.928
46.56000 174.801
46.57000 165.932
46.58000 165.755
46.59000 169.110
46.60000 172.384
46.61000 174.686
46.62000 176.706
46.63000 178.250
46.64000 176.445
46.65000 173.990
46.66000 171.938
46.67000 170.621
46.68000 169.603
46.69000 169.342
46.70000 171.397
46.71000 173.613
46.72000 175.126
46.73000 175.166
46.74000 175.161
46.75000 175.157
46.76000 179.533
46.77000 182.640
46.78000 183.205
46.79000 181.414
46.80000 179.619
46.81000 177.469
46.82000 175.102
46.83000 172.804
46.84000 170.331
46.85000 167.916
46.86000 165.872
46.87000 168.135
46.88000 171.629
46.89000 175.001
46.90000 177.530
46.91000 179.898
46.92000 181.872
46.93000 183.095
46.94000 184.035
46.95000 184.555
46.96000 183.814
46.97000 182.988
46.98000 181.304
46.99000 177.857
47.00000 174.357
47.01000 172.314
47.02000 172.234
47.03000 172.187
47.04000 171.900
47.05000 171.397
47.06000 170.842
47.07000 166.918
47.08000 160.958
47.09000 155.180
47.10000 154.875
47.11000 156.721
47.12000 158.489
47.13000 159.363
47.14000 159.985
47.15000 160.629
47.16000 161.418
47.17000 162.234
47.18000 162.911
47.19000 163.352
47.20000 163.693
47.21000 164.571
47.22000 167.034
47.23000 169.601
47.24000 171.450
47.25000 171.847
47.26000 172.202
47.27000 172.408
47.28000 176.828
47.29000 179.940
47.30000 178.024
47.31000 171.627
47.32000 165.306
47.33000 163.763
47.34000 165.057
47.35000 166.309
47.36000 167.533
47.37000 168.679
47.38000 169.318
47.39000 164.377
47.40000 157.895
47.41000 152.602
47.42000 155.163
47.43000 159.162
47.44000 162.470
47.45000 162.108
47.46000 161.462
47.47000 159.952
47.48000 155.929
47.49000 151.746
47.50000 150.118
47.51000 153.563
47.52000 157.146
47.53000 159.204
47.54000 162.623
47.55000 165.017
47.56000 166.677
47.57000 167.696
47.58000 168.661
47.59000 166.524
47.60000 162.576
47.61000 158.760
47.62000 155.761
47.63000 153.237
47.64000 151.196
47.65000 154.331
47.66000 158.870
47.67000 162.629
47.68000 161.340
47.69000 159.144
47.70000 157.335
47.71000 155.433
47.72000 153.860
47.73000 154.040
47.74000 159.226
47.75000 164.721
47.76000 167.501
47.77000 164.983
47.78000 162.327
47.79000 160.814
47.80000 159.669
47.81000 158.874
47.82000 158.945
47.83000 159.758
47.84000 160.561
47.85000 160.775
47.86000 160.652
47.87000 160.533
47.88000 160.553
47.89000 160.622
47.90000 160.633
47.91000 160.026
47.92000 159.255
47.93000 158.641
47.94000 159.023
47.95000 159.579
47.96000 160.036
47.97000 158.078
47.98000 156.253
47.99000 154.965
48.00000 155.182
48.01000 155.488
48.02000 155.425
48.03000 154.656
48.04000 153.869
48.05000 153.424
48.06000 159.348
48.07000 163.476
48.08000 163.506
48.09000 160.090
48.10000 156.718
48.11000 155.654
48.12000 155.889
48.13000 156.117
48.14000 160.121
48.15000 165.253
48.16000 169.511
48.17000 164.846
48.18000 157.846
48.19000 152.169
48.20000 154.720
48.21000 158.691
48.22000 161.941
48.23000 165.492
48.24000 168.427
48.25000 169.555
48.26000 165.700
48.27000 161.556
48.28000 158.285
48.29000 156.661
48.30000 155.075
48.31000 154.187
48.32000 161.623
48.33000 166.788
48.34000 168.078
48.35000 166.171
48.36000 164.304
48.37000 164.385
48.38000 165.545
48.39000 166.661
48.40000 166.710
48.41000 166.376
48.42000 165.841
48.43000 163.297
48.44000 160.237
48.45000 157.956
48.46000 160.419
48.47000 163.685
48.48000 166.348
48.49000 162.305
48.50000 158.430
48.51000 155.817
48.52000 156.622
48.53000 157.619
48.54000 158.015
48.55000 157.297
48.56000 156.555
48.57000 156.142
48.58000 155.374
48.59000 154.847
48.60000 156.086
48.61000 158.754
48.62000 161.356
48.63000 160.901
48.64000 158.782
48.65000 156.746
48.66000 158.858
48.67000 162.282
48.68000 164.860
48.69000 159.211
48.70000 151.484
48.71000 145.268
48.72000 148.063
48.73000 152.352
48.74000 155.835
48.75000 159.057
48.76000 161.663
48.77000 163.273
48.78000 162.226
48.79000 161.035
48.80000 160.275
48.81000 160.296
48.82000 160.334
48.83000 160.354
48.84000 156.429
48.85000 153.726
48.86000 153.366
48.87000 154.869
48.88000 156.284
48.89000 153.868
48.90000 149.403
48.91000 145.117
48.92000 148.346
48.93000 153.936
48.94000 159.228
48.95000 161.696
48.96000 163.463
48.97000 163.984
48.98000 157.217
48.99000 149.265
49.00000 142.832
49.01000 143.262
49.02000 144.166
49.03000 145.186
49.04000 146.514
49.05000 147.858
49.06000 148.164
49.07000 146.614
49.08000 145.027
49.09000 144.161
49.10000 145.810
49.11000 146.951
49.12000 149.635
49.13000 153.523
49.14000 157.345
49.15000 158.451
49.16000 158.129
49.17000 157.821
49.18000 160.827
49.19000 164.745
49.20000 167.569
49.21000 160.254
49.22000 150.471
49.23000 142.818
49.24000 147.369
49.25000 153.864
49.26000 159.097
49.27000 158.651
49.28000 157.843
49.29000 156.962
49.30000 155.894
49.31000 154.817
49.32000 152.779
49.33000 149.054
49.34000 145.298
49.35000 143.266
49.36000 146.819
49.37000 149.262
49.38000 152.506
49.39000 156.363
49.40000 160.117
49.41000 159.813
49.42000 157.414
49.43000 155.119
49.44000 156.799
49.45000 159.674
49.46000 162.272
49.47000 162.371
49.48000 161.872
49.49000 160.780
49.50000 156.356
49.51000 151.412
49.52000 147.443
49.53000 152.317
49.54000 156.940
49.55000 159.735
49.56000 157.903
49.57000 155.845
49.58000 154.476
49.59000 154.298
49.60000 154.142
49.61000 154.058
49.62000 145.506
49.63000 139.691
49.64000 139.749
49.65000 144.223
49.66000 148.692
49.67000 153.003
49.68000 157.233
49.69000 161.276
49.70000 161.722
49.71000 160.976
49.72000 160.224
49.73000 159.420
49.74000 158.605
49.75000 158.314
49.76000 160.911
49.77000 163.950
49.78000 166.379
49.79000 160.343
49.80000 154.837
49.81000 151.724
49.82000 154.564
49.83000 157.685
49.84000 157.826
49.85000 152.908
49.86000 147.906
49.87000 145.249
49.88000 148.818
49.89000 151.241
49.90000 151.860
49.91000 151.149
49.92000 150.453
49.93000 150.313
49.94000 150.450
49.95000 150.581
49.96000 156.380
49.97000 163.557
49.98000 169.570
49.99000 165.545
50.00000 159.206
50.01000 153.006
50.02000 147.559
50.03000 142.225
50.04000 137.977
50.05000 146.084
50.06000 153.512
50.07000 157.604
50.08000 153.539
50.09000 149.104
50.10000 148.719
50.11000 155.092
50.12000 161.569
50.13000 164.979
50.14000 159.121
50.15000 155.163
50.16000 154.369
50.17000 155.866
50.18000 157.340
50.19000 158.031
50.20000 158.336
50.21000 158.627
50.22000 156.719
50.23000 154.267
50.24000 152.621
50.25000 157.764
50.26000 164.443
50.27000 169.345
50.28000 164.833
50.29000 158.942
50.30000 154.270
50.31000 155.479
50.32000 156.864
50.33000 157.819
50.34000 157.741
50.35000 157.617
50.36000 159.360
50.37000 164.162
50.38000 169.009
50.39000 171.536
50.40000 164.444
50.41000 159.703
50.42000 163.133
50.43000 172.377
50.44000 181.268
50.45000 178.661
50.46000 170.511
50.47000 162.761
50.48000 161.219
50.49000 161.686
50.50000 162.353
50.51000 164.680
50.52000 167.375
50.53000 169.882
50.54000 171.410
50.55000 172.798
50.56000 173.895
50.57000 173.250
50.58000 172.614
50.59000 170.357
50.60000 164.269
50.61000 158.019
50.62000 155.206
50.63000 157.928
50.64000 160.724
50.65000 162.168
50.66000 166.407
50.67000 169.241
50.68000 169.016
50.69000 166.653
50.70000 164.391
50.71000 165.276
50.72000 167.652
50.73000 169.907
50.74000 170.599
50.75000 170.769
50.76000 170.515
50.77000 166.838
50.78000 162.416
50.79000 159.401
50.80000 163.564
50.81000 168.735
50.82000 172.802
50.83000 164.948
50.84000 157.868
50.85000 155.011
50.86000 161.963
50.87000 169.313
50.88000 171.420
50.89000 165.230
50.90000 158.937
50.91000 155.717
50.92000 161.112
50.93000 164.708
50.94000 164.956
50.95000 162.906
50.96000 160.844
50.97000 158.391
50.98000 155.756
50.99000 153.260
51.00000 153.804
51.01000 155.198
51.02000 156.347
51.03000 155.568
51.04000 154.376
51.05000 152.897
51.06000 149.983
51.07000 146.873
51.08000 144.436
51.09000 142.241
51.10000 140.503
51.11000 140.931
51.12000 146.305
51.13000 151.873
51.14000 155.109
51.15000 154.721
51.16000 154.291
51.17000 154.073
51.18000 154.477
51.19000 154.729
51.20000 153.022
51.21000 149.994
51.22000 147.131
51.23000 148.966
51.24000 152.953
51.25000 156.724
51.26000 153.451
51.27000 148.416
51.28000 143.813
51.29000 142.548
51.30000 141.984
51.31000 142.037
51.32000 145.123
51.33000 148.616
51.34000 151.340
51.35000 149.867
51.36000 148.432
51.37000 147.847
51.38000 149.172
51.39000 150.568
51.40000 150.187
51.41000 147.090
51.42000 143.965
51.43000 142.397
51.44000 152.511
51.45000 159.165
51.46000 156.376
51.47000 147.335
51.48000 138.564
51.49000 137.185
51.50000 139.134
51.51000 140.974
51.52000 139.215
51.53000 136.585
51.54000 134.852
51.55000 139.878
51.56000 146.296
51.57000 151.389
51.58000 150.098
51.59000 147.968
51.60000 146.313
51.61000 145.033
51.62000 144.038
51.63000 144.038
51.64000 146.236
51.65000 148.513
51.66000 148.432
51.67000 144.814
51.68000 141.162
51.69000 139.837
51.70000 140.806
51.71000 141.804
51.72000 145.402
51.73000 150.690
51.74000 155.685
51.75000 152.979
51.76000 146.865
51.77000 141.102
51.78000 141.893
51.79000 144.432
51.80000 146.771
51.81000 147.639
51.82000 148.209
51.83000 148.727
51.84000 149.000
51.85000 149.242
51.86000 149.429
51.87000 143.796
51.88000 138.984
51.89000 135.969
51.90000 136.851
51.91000 137.867
51.92000 137.690
51.93000 135.754
51.94000 133.802
51.95000 135.135
51.96000 139.641
51.97000 144.115
51.98000 145.966
51.99000 146.141
52.00000 146.330
52.01000 146.900
52.02000 147.635
52.03000 148.327
52.04000 144.054
52.05000 138.801
52.06000 134.629
52.07000 138.263
52.08000 143.444
52.09000 147.467
52.10000 146.110
52.11000 144.076
52.12000 142.510
52.13000 146.764
52.14000 150.462
52.15000 153.222
52.16000 153.981
52.17000 154.673
52.18000 152.329
52.19000 145.590
52.20000 138.816
52.21000 136.770
52.22000 139.204
52.23000 141.630
52.24000 143.535
52.25000 145.112
52.26000 146.646
52.27000 147.112
52.28000 147.123
52.29000 147.133
52.30000 144.895
52.31000 142.256
52.32000 139.449
52.33000 135.457
52.34000 131.236
52.35000 128.393
52.36000 131.830
52.37000 136.040
52.38000 139.266
52.39000 140.806
52.40000 141.928
52.41000 143.744
52.42000 147.011
52.43000 150.325
52.44000 150.640
52.45000 146.695
52.46000 142.719
52.47000 140.328
52.48000 139.409
52.49000 138.493
52.50000 137.810
52.51000 137.269
52.52000 136.821
52.53000 138.533
52.54000 141.154
52.55000 143.610
52.56000 141.424
52.57000 138.221
52.58000 135.435
52.59000 135.530
52.60000 136.175
52.61000 136.522
52.62000 135.534
52.63000 134.385
52.64000 133.509
52.65000 135.560
52.66000 137.333
52.67000 137.493
52.68000 134.331
52.69000 131.070
52.70000 131.600
52.71000 137.421
52.72000 143.276
52.73000 143.467
52.74000 138.502
52.75000 133.651
52.76000 136.465
52.77000 143.922
52.78000 150.953
52.79000 148.406
52.80000 141.900
52.81000 135.812
52.82000 135.829
52.83000 137.407
52.84000 139.212
52.85000 142.556
52.86000 146.189
52.87000 148.686
52.88000 146.202
52.89000 143.131
52.90000 140.800
52.91000 143.134
52.92000 145.209
52.93000 145.404
52.94000 141.789
52.95000 138.064
52.96000 135.740
52.97000 135.336
52.98000 134.944
52.99000 135.857
53.00000 137.934
53.01000 139.987
53.02000 140.537
53.03000 140.193
53.04000 139.791
53.05000 138.143
53.06000 135.991
53.07000 133.980
53.08000 137.006
53.09000 141.014
53.10000 144.221
53.11000 142.113
53.12000 139.029
53.13000 137.254
53.14000 141.114
53.15000 145.621
53.16000 149.028
53.17000 153.102
53.18000 156.330
53.19000 157.830
53.20000 155.889
53.21000 153.854
53.22000 152.635
53.23000 152.514
53.24000 152.398
53.25000 152.943
53.26000 154.067
53.27000 155.188
53.28000 156.106
53.29000 156.906
53.30000 157.711
53.31000 158.639
53.32000 159.617
53.33000 160.527
53.34000 159.438
53.35000 157.961
53.36000 156.812
53.37000 157.792
53.38000 159.155
53.39000 160.866
53.40000 164.052
53.41000 167.402
53.42000 169.923
53.43000 163.811
53.44000 158.612
53.45000 157.060
53.46000 162.643
53.47000 168.413
53.48000 170.289
53.49000 167.023
53.50000 163.736
53.51000 162.507
53.52000 163.045
53.53000 163.531
53.54000 161.064
53.55000 156.900
53.56000 152.918
53.57000 152.624
53.58000 153.778
53.59000 154.851
53.60000 151.470
53.61000 147.341
53.62000 143.162
53.63000 138.658
53.64000 134.096
53.65000 130.961
53.66000 133.749
53.67000 137.187
53.68000 139.761
53.69000 138.920
53.70000 138.105
53.71000 140.553
53.72000 149.279
53.73000 158.161
53.74000 161.920
53.75000 159.036
53.76000 156.128
53.77000 155.471
53.78000 156.708
53.79000 157.908
53.80000 157.202
53.81000 155.419
53.82000 153.689
53.83000 152.994
53.84000 152.697
53.85000 152.422
53.86000 151.778
53.87000 151.111
53.88000 150.475
53.89000 150.038
53.90000 149.635
53.91000 149.094
53.92000 147.990
53.93000 146.825
53.94000 145.957
53.95000 142.146
53.96000 139.045
53.97000 136.830
53.98000 136.285
53.99000 135.781
54.00000 136.200
54.01000 137.796
54.02000 139.394
54.03000 140.929
54.04000 142.407
54.05000 143.872
54.06000 144.653
54.07000 145.054
54.08000 145.338
54.09000 143.412
54.10000 140.647
54.11000 138.085
54.12000 139.300
54.13000 141.267
54.14000 142.824
54.15000 141.869
54.16000 140.488
54.17000 139.070
54.18000 137.499
54.19000 135.913
54.20000 134.737
54.21000 138.850
54.22000 142.276
54.23000 144.425
54.24000 144.200
54.25000 143.923
54.26000 144.124
54.27000 144.924
54.28000 145.725
54.29000 145.842
54.30000 145.405
54.31000 144.956
54.32000 143.924
54.33000 142.574
54.34000 141.325
54.35000 141.909
54.36000 143.177
54.37000 144.349
54.38000 143.597
54.39000 142.486
54.40000 141.694
54.41000 142.814
54.42000 144.252
54.43000 145.088
54.44000 143.559
54.45000 141.788
54.46000 140.481
54.47000 145.008
54.48000 148.761
54.49000 149.350
54.50000 144.163
54.51000 138.854
54.52000 138.343
54.53000 143.713
54.54000 149.088
54.55000 149.526
54.56000 146.042
54.57000 142.602
54.58000 141.051
54.59000 140.513
54.60000 139.898
54.61000 137.942
54.62000 135.493
54.63000 133.234
54.64000 134.710
54.65000 136.864
54.66000 138.913
54.67000 140.345
54.68000 141.677
54.69000 142.762
54.70000 142.895
54.71000 142.933
54.72000 142.961
54.73000 143.980
54.74000 144.808
54.75000 144.986
54.76000 143.996
54.77000 142.982
54.78000 143.599
54.79000 146.178
54.80000 148.756
54.81000 146.618
54.82000 140.822
54.83000 135.163
54.84000 135.264
54.85000 138.398
54.86000 141.419
54.87000 142.508
54.88000 142.902
54.89000 143.265
54.90000 143.834
54.91000 144.388
54.92000 145.094
54.93000 146.674
54.94000 148.392
54.95000 150.419
54.96000 153.614
54.97000 156.922
54.98000 159.340
54.99000 146.533
55.00000 136.061
55.01000 131.326
55.02000 136.707
55.03000 142.279
55.04000 144.735
55.05000 143.513
55.06000 142.289
55.07000 143.808
55.08000 147.413
55.09000 150.947
55.10000 151.646
55.11000 150.878
55.12000 150.137
55.13000 149.858
55.14000 149.741
55.15000 149.634
55.16000 150.904
55.17000 152.332
55.18000 154.211
55.19000 158.634
55.20000 163.455
55.21000 166.476
55.22000 162.786
55.23000 158.461
55.24000 155.318
55.25000 160.520
55.26000 164.838
55.27000 168.695
55.28000 171.754
55.29000 174.799
55.30000 175.990
55.31000 175.036
55.32000 174.082
55.33000 171.594
55.34000 167.976
55.35000 164.619
55.36000 171.168
55.37000 182.757
55.38000 193.801
55.39000 196.101
55.40000 195.358
55.41000 194.676
55.42000 195.518
55.43000 196.586
55.44000 198.516
55.45000 205.214
55.46000 212.641
55.47000 219.944
55.48000 226.793
55.49000 233.600
55.50000 238.523
55.51000 244.698
55.52000 249.483
55.53000 255.670
55.54000 264.243
55.55000 272.855
55.56000 282.548
55.57000 293.466
55.58000 304.351
55.59000 312.700
55.60000 319.120
55.61000 325.656
55.62000 336.329
55.63000 349.071
55.64000 362.329
55.65000 383.598
55.66000 407.609
55.67000 429.560
55.68000 441.320
55.69000 449.676
55.70000 458.933
55.71000 473.073
55.72000 487.946
55.73000 503.065
55.74000 519.067
55.75000 535.149
55.76000 546.718
55.77000 568.726
55.78000 585.939
55.79000 601.986
55.80000 616.084
55.81000 630.152
55.82000 644.559
55.83000 659.346
55.84000 674.080
55.85000 682.696
55.86000 686.829
55.87000 691.153
55.88000 702.011
55.89000 716.082
55.90000 729.452
55.91000 732.251
55.92000 731.496
55.93000 730.808
55.94000 728.147
55.95000 725.391
55.96000 721.524
55.97000 711.750
55.98000 701.109
55.99000 690.529
56.00000 680.161
56.01000 669.813
56.02000 662.408
56.03000 649.312
56.04000 639.120
56.05000 626.280
56.06000 609.086
56.07000 591.830
56.08000 579.068
56.09000 571.217
56.10000 563.399
56.11000 547.028
56.12000 524.770
56.13000 502.423
56.14000 477.148
56.15000 450.459
56.16000 424.833
56.17000 414.764
56.18000 409.835
56.19000 405.350
56.20000 383.854
56.21000 361.479
56.22000 341.508
56.23000 334.068
56.24000 328.431
56.25000 320.637
56.26000 305.357
56.27000 289.437
56.28000 278.107
56.29000 268.049
56.30000 260.429
56.31000 252.596
56.32000 244.421
56.33000 236.242
56.34000 229.207
56.35000 223.396
56.36000 217.612
56.37000 209.995
56.38000 201.187
56.39000 192.525
56.40000 188.406
56.41000 186.447
56.42000 184.585
56.43000 184.125
56.44000 184.120
56.45000 184.115
56.46000 180.744
56.47000 177.116
56.48000 173.964
56.49000 173.247
56.50000 172.872
56.51000 171.610
56.52000 167.325
56.53000 162.788
56.54000 159.576
56.55000 156.200
56.56000 153.629
56.57000 151.902
56.58000 151.513
56.59000 151.142
56.60000 152.531
56.61000 155.770
56.62000 158.993
56.63000 158.669
56.64000 155.936
56.65000 153.189
56.66000 150.024
56.67000 146.663
56.68000 143.274
56.69000 139.502
56.70000 135.607
56.71000 132.079
56.72000 136.629
56.73000 142.165
56.74000 146.560
56.75000 145.234
56.76000 143.120
56.77000 140.869
56.78000 138.156
56.79000 135.405
56.80000 133.469
56.81000 133.106
56.82000 132.877
56.83000 134.366
56.84000 138.529
56.85000 142.724
56.86000 141.930
56.87000 136.001
56.88000 130.104
56.89000 125.763
56.90000 122.516
56.91000 119.434
56.92000 121.084
56.93000 124.906
56.94000 128.490
56.95000 128.893
56.96000 128.296
56.97000 127.758
56.98000 129.558
56.99000 131.574
57.00000 132.856
57.01000 130.524
57.02000 127.705
57.03000 126.224
57.04000 129.148
57.05000 132.419
57.06000 134.709
57.07000 132.261
57.08000 130.275
57.09000 129.022
57.10000 128.893
57.11000 128.775
57.12000 127.350
57.13000 124.604
57.14000 121.875
57.15000 123.842
57.16000 128.858
57.17000 133.741
57.18000 134.972
57.19000 134.555
57.20000 134.092
57.21000 133.024
57.22000 131.770
57.23000 130.640
57.24000 130.250
57.25000 130.042
57.26000 129.403
57.27000 126.682
57.28000 123.687
57.29000 121.781
57.30000 123.408
57.31000 125.304
57.32000 126.624
57.33000 123.245
57.34000 120.568
57.35000 119.962
57.36000 122.471
57.37000 125.012
57.38000 127.661
57.39000 130.419
57.40000 133.159
57.41000 133.805
57.42000 133.098
57.43000 132.334
57.44000 130.089
57.45000 127.187
57.46000 124.544
57.47000 125.199
57.48000 126.853
57.49000 128.340
57.50000 130.456
57.51000 132.422
57.52000 133.807
57.53000 132.442
57.54000 130.722
57.55000 130.020
57.56000 132.559
57.57000 135.338
57.58000 137.262
57.59000 133.239
57.60000 130.057
57.61000 126.771
57.62000 123.334
57.63000 119.895
57.64000 120.177
57.65000 124.066
57.66000 127.927
57.67000 133.347
57.68000 139.663
57.69000 145.749
57.70000 145.990
57.71000 143.681
57.72000 141.236
57.73000 137.095
57.74000 132.450
57.75000 128.285
57.76000 127.808
57.77000 128.032
57.78000 127.640
57.79000 124.382
57.80000 120.762
57.81000 119.371
57.82000 124.949
57.83000 131.031
57.84000 135.217
57.85000 132.139
57.86000 129.648
57.87000 128.216
57.88000 128.323
57.89000 128.443
57.90000 130.623
57.91000 134.759
57.92000 138.864
57.93000 137.243
57.94000 132.108
57.95000 126.972
57.96000 121.792
57.97000 116.592
57.98000 112.159
57.99000 116.917
58.00000 124.365
58.01000 131.026
58.02000 133.831
58.03000 135.621
58.04000 136.113
58.05000 130.676
58.06000 124.508
58.07000 120.509
58.08000 123.177
58.09000 126.313
58.10000 128.459
58.11000 122.471
58.12000 117.794
58.13000 115.872
58.14000 117.872
58.15000 119.902
58.16000 122.805
58.17000 126.521
58.18000 130.206
58.19000 128.273
58.20000 122.967
58.21000 117.922
58.22000 119.002
58.23000 122.662
58.24000 125.864
58.25000 123.712
58.26000 120.021
58.27000 116.727
58.28000 118.426
58.29000 120.735
58.30000 122.627
58.31000 122.648
58.32000 122.442
58.33000 122.034
58.34000 121.012
58.35000 119.948
58.36000 119.225
58.37000 119.479
58.38000 119.691
58.39000 119.277
58.40000 117.985
58.41000 116.689
58.42000 115.853
58.43000 115.438
58.44000 115.026
58.45000 116.050
58.46000 117.909
58.47000 119.718
58.48000 120.435
58.49000 120.699
58.50000 120.895
58.51000 120.325
58.52000 119.539
58.53000 118.839
58.54000 121.490
58.55000 124.337
58.56000 126.567
58.57000 126.072
58.58000 125.257
58.59000 125.465
58.60000 128.710
58.61000 132.156
58.62000 134.486
58.63000 129.541
58.64000 125.701
58.65000 123.503
58.66000 123.561
58.67000 123.632
58.68000 122.712
58.69000 120.904
58.70000 119.113
58.71000 119.642
58.72000 121.515
58.73000 123.306
58.74000 123.320
58.75000 122.610
58.76000 121.776
58.77000 119.553
58.78000 116.945
58.79000 114.631
58.80000 120.389
58.81000 126.665
58.82000 130.768
58.83000 125.488
58.84000 119.127
58.85000 115.429
58.86000 119.499
58.87000 124.067
58.88000 127.138
58.89000 121.208
58.90000 116.618
58.91000 114.537
58.92000 115.841
58.93000 117.164
58.94000 118.845
58.95000 120.840
58.96000 122.813
58.97000 122.315
58.98000 120.409
58.99000 118.738
59.00000 121.982
59.01000 127.193
59.02000 131.685
59.03000 128.386
59.04000 122.964
59.05000 118.166
59.06000 122.079
59.07000 126.823
59.08000 130.186
59.09000 127.694
59.10000 124.543
59.11000 122.907
59.12000 125.614
59.13000 128.592
59.14000 130.581
59.15000 130.215
59.16000 129.897
59.17000 128.234
59.18000 124.788
59.19000 121.334
59.20000 118.234
59.21000 115.440
59.22000 112.677
59.23000 110.582
59.24000 108.911
59.25000 107.428
59.26000 109.724
59.27000 113.508
59.28000 117.026
59.29000 117.732
59.30000 117.687
59.31000 117.646
59.32000 119.626
59.33000 121.642
59.34000 123.413
59.35000 124.158
59.36000 124.791
59.37000 124.419
59.38000 121.216
59.39000 117.843
59.40000 115.604
59.41000 116.202
59.42000 116.697
59.43000 118.660
59.44000 122.533
59.45000 126.407
59.46000 126.935
59.47000 124.630
59.48000 122.353
59.49000 121.352
59.50000 121.080
59.51000 120.778
59.52000 119.881
59.53000 118.754
59.54000 117.491
59.55000 114.829
59.56000 111.800
59.57000 109.134
59.58000 112.999
59.59000 117.303
59.60000 120.588
59.61000 119.710
59.62000 118.385
59.63000 117.993
59.64000 120.188
59.65000 122.534
59.66000 124.082
59.67000 120.534
59.68000 117.829
59.69000 116.139
59.70000 115.745
59.71000 115.360
59.72000 117.375
59.73000 121.381
59.74000 125.337
59.75000 126.293
59.76000 125.599
59.77000 124.862
59.78000 123.305
59.79000 121.436
59.80000 119.839
59.81000 120.962
59.82000 122.789
59.83000 124.392
59.84000 123.107
59.85000 121.582
59.86000 120.434
59.87000 120.804
59.88000 121.332
59.89000 121.660
59.90000 121.444
59.91000 121.196
59.92000 121.034
59.93000 115.760
59.94000 111.797
59.95000 112.417
59.96000 118.776
59.97000 125.143
59.98000 127.946
59.99000 127.845
60.00000 127.746
60.01000 124.543
60.02000 119.778
60.03000 115.146
60.04000 112.953
60.05000 111.672
60.06000 110.702
60.07000 112.771
60.08000 115.611
60.09000 118.097
60.10000 119.104
60.11000 119.756
60.12000 120.567
60.13000 122.002
60.14000 123.502
60.15000 123.913
60.16000 121.409
60.17000 118.746
60.18000 117.011
60.19000 116.718
60.20000 116.526
60.21000 115.755
60.22000 114.274
60.23000 112.792
60.24000 111.669
60.25000 110.834
60.26000 110.010
60.27000 112.393
60.28000 116.380
60.29000 120.187
60.30000 120.832
60.31000 120.314
60.32000 119.831
60.33000 119.687
60.34000 119.628
60.35000 119.576
60.36000 113.936
60.37000 108.331
60.38000 104.454
60.39000 107.272
60.40000 110.757
60.41000 113.729
60.42000 115.346
60.43000 116.892
60.44000 117.892
60.45000 121.913
60.46000 124.898
60.47000 126.762
60.48000 127.272
60.49000 127.771
60.50000 125.898
60.51000 122.163
60.52000 118.486
60.53000 117.964
60.54000 119.075
60.55000 120.135
60.56000 120.327
60.57000 120.205
60.58000 120.065
60.59000 119.744
60.60000 119.379
60.61000 119.061
60.62000 117.887
60.63000 116.768
60.64000 115.913
60.65000 116.062
60.66000 116.309
60.67000 116.082
60.68000 114.629
60.69000 113.114
60.70000 112.139
60.71000 116.303
60.72000 119.413
60.73000 120.376
60.74000 118.800
60.75000 117.232
60.76000 118.550
60.77000 122.092
60.78000 125.577
60.79000 123.425
60.80000 118.508
60.81000 113.932
60.82000 115.010
60.83000 118.095
60.84000 120.771
60.85000 119.710
60.86000 117.752
60.87000 116.053
60.88000 118.895
60.89000 121.922
60.90000 123.941
60.91000 122.194
60.92000 120.089
60.93000 118.446
60.94000 117.975
60.95000 117.562
60.96000 117.298
60.97000 119.921
60.98000 121.867
60.99000 120.963
61.00000 116.751
61.01000 112.558
61.02000 113.444
61.03000 118.169
61.04000 122.813
61.05000 124.635
61.06000 125.004
61.07000 125.160
61.08000 121.885
61.09000 117.411
61.10000 113.702
61.11000 116.784
61.12000 121.470
61.13000 125.522
61.14000 125.481
61.15000 124.912
61.16000 124.850
61.17000 126.651
61.18000 128.625
61.19000 129.253
61.20000 126.514
61.21000 123.615
61.22000 121.776
61.23000 116.937
61.24000 113.388
61.25000 113.031
61.26000 116.308
61.27000 119.576
61.28000 120.391
61.29000 119.386
61.30000 118.400
61.31000 121.163
61.32000 125.645
61.33000 129.689
61.34000 126.891
61.35000 121.746
61.36000 117.244
61.37000 118.330
61.38000 120.712
61.39000 122.764
61.40000 124.421
61.41000 125.775
61.42000 126.701
61.43000 126.084
61.44000 125.327
61.45000 124.321
61.46000 122.701
61.47000 121.053
61.48000 120.014
61.49000 130.487
61.50000 138.198
61.51000 147.301
61.52000 157.958
61.53000 168.612
61.54000 178.684
61.55000 188.331
61.56000 197.795
61.57000 209.420
61.58000 221.647
61.59000 233.727
61.60000 243.561
61.61000 252.639
61.62000 261.594
61.63000 269.511
61.64000 277.192
61.65000 283.793
61.66000 291.266
61.67000 297.698
61.68000 301.840
61.69000 297.869
61.70000 293.185
61.71000 291.796
61.72000 298.366
61.73000 305.290
61.74000 309.622
61.75000 297.253
61.76000 288.145
61.77000 274.606
61.78000 256.210
61.79000 237.843
61.80000 224.099
61.81000 213.663
61.82000 203.436
61.83000 189.015
61.84000 173.186
61.85000 157.865
61.86000 150.000
61.87000 144.606
61.88000 139.375
61.89000 135.495
61.90000 131.918
61.91000 128.853
61.92000 126.960
61.93000 125.506
61.94000 124.333
61.95000 124.140
61.96000 124.030
61.97000 124.576
61.98000 126.677
61.99000 128.845
62.00000 130.191
62.01000 122.925
62.02000 117.608
62.03000 116.919
62.04000 121.200
62.05000 125.459
62.06000 126.712
62.07000 125.851
62.08000 125.009
62.09000 123.138
62.10000 120.870
62.11000 118.852
62.12000 120.386
62.13000 123.077
62.14000 125.551
62.15000 126.258
62.16000 126.579
62.17000 126.853
62.18000 125.482
62.19000 124.131
62.20000 124.050
62.21000 128.309
62.22000 132.930
62.23000 134.336
62.24000 128.237
62.25000 121.830
62.26000 117.877
62.27000 122.115
62.28000 125.233
62.29000 125.952
62.30000 124.145
62.31000 122.361
62.32000 123.478
62.33000 126.598
62.34000 129.649
62.35000 131.713
62.36000 133.248
62.37000 134.789
62.38000 136.421
62.39000 138.082
62.40000 139.470
62.41000 138.697
62.42000 137.459
62.43000 136.405
62.44000 131.278
62.45000 126.496
62.46000 123.516
62.47000 126.598
62.48000 130.170
62.49000 132.498
62.50000 131.966
62.51000 131.322
62.52000 130.928
62.53000 128.503
62.54000 126.749
62.55000 126.365
62.56000 127.395
62.57000 128.428
62.58000 129.841
62.59000 131.511
62.60000 133.143
62.61000 132.068
62.62000 129.847
62.63000 127.887
62.64000 129.431
62.65000 132.078
62.66000 134.748
62.67000 137.605
62.68000 140.500
62.69000 142.957
62.70000 138.851
62.71000 134.664
62.72000 131.375
62.73000 131.052
62.74000 130.964
62.75000 130.865
62.76000 130.740
62.77000 130.615
62.78000 130.539
62.79000 131.211
62.80000 131.697
62.81000 130.916
62.82000 128.851
62.83000 126.823
62.84000 128.450
62.85000 132.510
62.86000 136.472
62.87000 138.484
62.88000 139.565
62.89000 140.213
62.90000 135.204
62.91000 128.446
62.92000 122.461
62.93000 122.330
62.94000 123.413
62.95000 124.329
62.96000 128.118
62.97000 131.607
62.98000 133.779
62.99000 131.674
63.00000 129.241
63.01000 127.475
63.02000 127.185
63.03000 126.948
63.04000 126.806
63.05000 131.725
63.06000 135.264
63.07000 137.068
63.08000 137.151
63.09000 137.222
63.10000 136.127
63.11000 134.270
63.12000 132.460
63.13000 133.042
63.14000 134.613
63.15000 135.799
63.16000 132.091
63.17000 126.896
63.18000 122.782
63.19000 126.695
63.20000 132.240
63.21000 136.914
63.22000 134.404
63.23000 131.531
63.24000 129.327
63.25000 129.250
63.26000 129.332
63.27000 130.211
63.28000 132.827
63.29000 135.504
63.30000 137.107
63.31000 130.178
63.32000 125.202
63.33000 123.961
63.34000 126.349
63.35000 128.743
63.36000 131.580
63.37000 134.701
63.38000 137.740
63.39000 139.576
63.40000 140.825
63.41000 141.820
63.42000 139.673
63.43000 136.589
63.44000 133.491
63.45000 130.290
63.46000 127.070
63.47000 124.364
63.48000 126.909
63.49000 129.583
63.50000 132.010
63.51000 133.658
63.52000 135.251
63.53000 135.819
63.54000 134.195
63.55000 132.496
63.56000 131.486
63.57000 132.356
63.58000 132.982
63.59000 130.997
63.60000 126.524
63.61000 122.122
63.62000 123.326
63.63000 128.066
63.64000 132.675
63.65000 134.255
63.66000 134.518
63.67000 134.556
63.68000 131.874
63.69000 128.393
63.70000 125.403
63.71000 125.891
63.72000 127.060
63.73000 128.039
63.74000 131.654
63.75000 134.931
63.76000 138.061
63.77000 140.741
63.78000 143.390
63.79000 143.758
63.80000 139.323
63.81000 134.733
63.82000 132.025
63.83000 139.963
63.84000 145.625
63.85000 147.492
63.86000 145.814
63.87000 144.124
63.88000 141.566
63.89000 138.471
63.90000 135.465
63.91000 131.614
63.92000 127.619
63.93000 124.034
63.94000 125.262
63.95000 127.878
63.96000 130.679
63.97000 134.773
63.98000 139.115
63.99000 142.737
64.00000 142.031
64.01000 141.011
64.02000 140.869
64.03000 143.387
64.04000 146.087
64.05000 148.069
64.06000 148.562
64.07000 149.010
64.08000 149.272
64.09000 147.268
64.10000 145.848
64.11000 146.502
64.12000 149.059
64.13000 151.590
64.14000 152.406
64.15000 152.178
64.16000 151.956
64.17000 150.660
64.18000 149.008
64.19000 147.388
64.20000 146.117
64.21000 144.946
64.22000 144.088
64.23000 145.365
64.24000 147.045
64.25000 148.442
64.26000 150.286
64.27000 151.857
64.28000 152.963
64.29000 152.687
64.30000 152.320
64.31000 151.598
64.32000 150.151
64.33000 148.683
64.34000 147.830
64.35000 148.405
64.36000 148.815
64.37000 149.837
64.38000 151.408
64.39000 152.945
64.40000 152.307
64.41000 150.369
64.42000 148.491
64.43000 149.521
64.44000 151.618
64.45000 153.550
64.46000 153.644
64.47000 153.227
64.48000 152.815
64.49000 152.434
64.50000 152.059
64.51000 151.748
64.52000 146.467
64.53000 141.631
64.54000 139.820
64.55000 146.852
64.56000 154.454
64.57000 160.648
64.58000 164.026
64.59000 167.324
64.60000 169.225
64.61000 168.918
64.62000 168.693
64.63000 166.443
64.64000 162.410
64.65000 158.416
64.66000 156.833
64.67000 156.667
64.68000 156.506
64.69000 157.900
64.70000 159.805
64.71000 161.879
64.72000 165.791
64.73000 170.204
64.74000 173.375
64.75000 168.435
64.76000 162.026
64.77000 156.735
64.78000 159.408
64.79000 162.350
64.80000 164.593
64.81000 164.824
64.82000 164.929
64.83000 164.810
64.84000 164.248
64.85000 163.674
64.86000 163.346
64.87000 163.362
64.88000 163.378
64.89000 166.832
64.90000 173.258
64.91000 179.625
64.92000 182.716
64.93000 183.914
64.94000 185.071
64.95000 186.192
64.96000 187.236
64.97000 188.099
64.98000 187.050
64.99000 185.487
65.00000 184.092
65.01000 183.778
65.02000 183.654
65.03000 183.553
65.04000 182.970
65.05000 182.447
65.06000 184.105
65.07000 191.921
65.08000 200.111
65.09000 204.740
65.10000 202.489
65.11000 200.063
65.12000 198.688
65.13000 197.114
65.14000 196.020
65.15000 196.337
65.16000 197.851
65.17000 199.422
65.18000 204.021
65.19000 210.338
65.20000 216.432
65.21000 217.868
65.22000 217.519
65.23000 217.360
65.24000 219.170
65.25000 221.499
65.26000 223.927
65.27000 226.984
65.28000 230.150
65.29000 232.745
65.30000 232.512
65.31000 232.071
65.32000 231.982
65.33000 232.870
65.34000 233.816
65.35000 236.875
65.36000 243.948
65.37000 251.118
65.38000 255.148
65.39000 256.001
65.40000 256.586
65.41000 257.566
65.42000 258.876
65.43000 260.259
65.44000 265.368
65.45000 272.555
65.46000 279.478
65.47000 284.368
65.48000 288.233
65.49000 291.498
65.50000 288.724
65.51000 284.386
65.52000 281.379
65.53000 286.552
65.54000 293.120
65.55000 298.483
65.56000 308.704
65.57000 317.486
65.58000 328.123
65.59000 343.826
65.60000 359.816
65.61000 371.282
65.62000 374.302
65.63000 377.130
65.64000 378.707
65.65000 420.725
65.66000 449.908
65.67000 488.172
65.68000 533.852
65.69000 580.141
65.70000 655.225
65.71000 746.094
65.72000 833.507
65.73000 948.645
65.74000 1066.341
65.75000 1184.518
65.76000 1307.414
65.77000 1431.512
65.78000 1550.073
65.79000 1635.301
65.80000 1714.955
65.81000 1779.750
65.82000 1827.245
65.83000 1864.572
65.84000 1893.158
65.85000 1898.283
65.86000 1902.118
65.87000 1913.133
65.88000 1937.322
65.89000 1961.794
65.90000 1975.320
65.91000 1902.868
65.92000 1852.703
65.93000 1792.446
65.94000 1724.102
65.95000 1654.702
65.96000 1538.010
65.97000 1395.837
65.98000 1259.270
65.99000 1134.415
66.00000 1021.601
66.01000 910.723
66.02000 818.397
66.03000 730.706
66.04000 647.821
66.05000 593.285
66.06000 543.395
66.07000 502.967
66.08000 476.677
66.09000 456.416
66.10000 437.698
66.11000 423.051
66.12000 408.620
66.13000 394.464
66.14000 380.803
66.15000 367.152
66.16000 359.673
66.17000 361.217
66.18000 362.291
66.19000 362.588
66.20000 362.276
66.21000 361.985
66.22000 362.624
66.23000 363.756
66.24000 364.841
66.25000 383.260
66.26000 406.329
66.27000 428.596
66.28000 443.357
66.29000 456.276
66.30000 471.888
66.31000 503.076
66.32000 536.765
66.33000 563.961
66.34000 566.178
66.35000 565.997
66.36000 568.179
66.37000 576.489
66.38000 585.115
66.39000 592.343
66.40000 597.094
66.41000 601.798
66.42000 604.353
66.43000 612.424
66.44000 617.909
66.45000 609.970
66.46000 591.665
66.47000 573.679
66.48000 568.562
66.49000 570.142
66.50000 571.656
66.51000 551.642
66.52000 525.835
66.53000 500.978
66.54000 484.804
66.55000 470.722
66.56000 455.297
66.57000 432.257
66.58000 408.019
66.59000 388.530
66.60000 381.090
66.61000 375.988
66.62000 369.374
66.63000 358.905
66.64000 348.246
66.65000 342.403
66.66000 344.950
66.67000 347.648
66.68000 349.100
66.69000 349.380
66.70000 349.563
66.71000 348.358
66.72000 346.099
66.73000 343.905
66.74000 344.162
66.75000 345.673
66.76000 347.117
66.77000 346.564
66.78000 345.398
66.79000 344.017
66.80000 340.725
66.81000 336.981
66.82000 334.462
66.83000 338.756
66.84000 344.100
66.85000 348.380
66.86000 346.678
66.87000 344.853
66.88000 343.851
66.89000 344.914
66.90000 346.077
66.91000 344.561
66.92000 338.461
66.93000 332.283
66.94000 328.988
66.95000 347.694
66.96000 360.419
66.97000 366.134
66.98000 366.632
66.99000 367.140
67.00000 368.011
67.01000 369.065
67.02000 370.070
67.03000 366.538
67.04000 361.807
67.05000 358.408
67.06000 366.625
67.07000 377.540
67.08000 386.123
67.09000 381.988
67.10000 375.934
67.11000 371.105
67.12000 370.352
67.13000 370.042
67.14000 371.026
67.15000 375.197
67.16000 379.516
67.17000 380.706
67.18000 376.637
67.19000 372.484
67.20000 370.289
67.21000 383.485
67.22000 392.426
67.23000 396.230
67.24000 396.282
67.25000 396.274
67.26000 394.169
67.27000 391.028
67.28000 388.033
67.29000 393.140
67.30000 400.413
67.31000 406.321
67.32000 400.596
67.33000 392.218
67.34000 385.981
67.35000 391.192
67.36000 398.096
67.37000 403.580
67.38000 404.483
67.39000 404.884
67.40000 406.300
67.41000 410.170
67.42000 414.150
67.43000 415.476
67.44000 412.418
67.45000 409.295
67.46000 407.660
67.47000 406.474
67.48000 405.672
67.49000 404.906
67.50000 404.166
67.51000 403.460
67.52000 403.856
67.53000 404.788
67.54000 405.674
67.55000 407.529
67.56000 409.543
67.57000 411.907
67.58000 417.182
67.59000 423.108
67.60000 427.844
67.61000 426.346
67.62000 423.944
67.63000 422.044
67.64000 433.288
67.65000 443.230
67.66000 448.366
67.67000 442.060
67.68000 435.263
67.69000 431.495
67.70000 432.641
67.71000 433.856
67.72000 434.486
67.73000 435.716
67.74000 436.543
67.75000 436.920
67.76000 436.980
67.77000 437.233
67.78000 443.601
67.79000 452.889
67.80000 461.713
67.81000 465.242
67.82000 466.904
67.83000 467.833
67.84000 462.800
67.85000 456.457
67.86000 453.740
67.87000 469.672
67.88000 488.247
67.89000 502.884
67.90000 489.222
67.91000 476.373
67.92000 470.192
67.93000 479.618
67.94000 489.688
67.95000 489.063
67.96000 471.384
67.97000 453.484
67.98000 444.288
67.99000 466.549
68.00000 481.464
68.01000 488.488
68.02000 490.053
68.03000 491.502
68.04000 489.420
68.05000 485.681
68.06000 482.135
68.07000 482.620
68.08000 484.259
68.09000 486.522
68.10000 493.751
68.11000 502.051
68.12000 509.094
68.13000 509.798
68.14000 509.623
68.15000 509.486
68.16000 515.982
68.17000 521.608
68.18000 527.544
68.19000 534.190
68.20000 540.865
68.21000 543.275
68.22000 539.005
68.23000 534.655
68.24000 532.442
68.25000 537.434
68.26000 540.780
68.27000 543.981
68.28000 547.084
68.29000 550.123
68.30000 551.316
68.31000 551.657
68.32000 551.981
68.33000 567.913
68.34000 587.103
68.35000 602.970
68.36000 592.980
68.37000 577.515
68.38000 566.158
68.39000 575.131
68.40000 586.863
68.41000 596.030
68.42000 607.515
68.43000 616.827
68.44000 623.264
68.45000 623.204
68.46000 622.896
68.47000 626.706
68.48000 636.852
68.49000 647.068
68.50000 652.215
68.51000 679.784
68.52000 698.105
68.53000 705.861
68.54000 706.565
68.55000 707.883
68.56000 726.275
68.57000 752.412
68.58000 777.114
68.59000 797.877
68.60000 815.823
68.61000 835.127
68.62000 864.765
68.63000 896.550
68.64000 927.841
68.65000 956.731
68.66000 985.303
68.67000 1007.533
68.68000 1063.908
68.69000 1110.881
68.70000 1160.977
68.71000 1218.014
68.72000 1275.305
68.73000 1322.612
68.74000 1354.825
68.75000 1386.885
68.76000 1426.138
68.77000 1472.548
68.78000 1518.909
68.79000 1560.753
68.80000 1599.636
68.81000 1638.829
68.82000 1686.283
68.83000 1737.420
68.84000 1785.665
68.85000 1875.035
68.86000 1968.429
68.87000 2068.395
68.88000 2217.300
68.89000 2376.183
68.90000 2583.309
68.91000 3020.377
68.92000 3487.311
68.93000 3849.024
68.94000 5397.750
68.95000 6698.413
68.96000 8403.700
68.97000 10993.229
68.98000 13613.836
68.99000 16579.004
69.00000 20055.764
69.01000 23537.229
69.02000 26836.395
69.03000 29957.625
69.04000 33070.633
69.05000 35470.508
69.06000 37411.223
69.07000 39319.902
69.08000 40406.391
69.09000 41132.523
69.10000 41816.348
69.11000 42491.313
69.12000 43106.348
69.13000 43737.629
69.14000 44487.301
69.15000 45260.656
69.16000 45988.621
69.17000 46504.258
69.18000 46992.918
69.19000 47369.805
69.20000 46007.219
69.21000 44827.172
69.22000 43103.141
69.23000 40210.531
69.24000 37278.570
69.25000 34506.371
69.26000 31967.150
69.27000 29430.080
69.28000 27360.252
69.29000 25737.332
69.30000 24121.553
69.31000 23078.951
69.32000 22398.889
69.33000 21732.508
69.34000 21403.639
69.35000 21220.186
69.36000 21047.738
69.37000 20439.033
69.38000 19766.162
69.39000 19006.096
69.40000 17624.168
69.41000 16120.199
69.42000 14561.725
69.43000 12753.010
69.44000 10913.212
69.45000 9500.549
69.46000 7728.798
69.47000 6308.143
69.48000 5058.492
69.49000 4169.941
69.50000 3293.031
69.51000 2624.414
69.52000 2254.105
69.53000 1886.155
69.54000 1631.548
69.55000 1483.217
69.56000 1335.574
69.57000 1239.240
69.58000 1174.790
69.59000 1110.891
69.60000 1060.059
69.61000 1014.762
69.62000 972.263
69.63000 932.476
69.64000 896.936
69.65000 862.663
69.66000 837.232
69.67000 813.503
69.68000 791.969
69.69000 780.327
69.70000 769.887
69.71000 761.907
69.72000 723.267
69.73000 691.132
69.74000 667.860
69.75000 662.983
69.76000 658.674
69.77000 652.793
69.78000 644.701
69.79000 636.596
69.80000 629.324
69.81000 622.822
69.82000 616.259
69.83000 605.450
69.84000 592.048
69.85000 578.595
69.86000 563.982
69.87000 548.884
69.88000 534.746
69.89000 529.289
69.90000 526.568
69.91000 524.607
69.92000 527.840
69.93000 532.054
69.94000 534.820
69.95000 531.173
69.96000 526.766
69.97000 523.413
69.98000 513.339
69.99000 505.061
70.00000 496.912
