20.00000 473.326
20.01000 476.616
20.02000 480.376
20.03000 482.854
20.04000 480.275
20.05000 477.178
20.06000 474.892
20.07000 483.270
20.08000 490.215
20.09000 495.971
20.10000 499.550
20.11000 503.082
20.12000 500.488
20.13000 490.368
20.14000 480.246
20.15000 475.360
20.16000 474.661
20.17000 474.008
20.18000 475.409
20.19000 477.914
20.20000 480.316
20.21000 480.898
20.22000 480.811
20.23000 480.731
20.24000 474.772
20.25000 468.119
20.26000 462.661
20.27000 464.228
20.28000 466.942
20.29000 470.588
20.30000 477.844
20.31000 485.459
20.32000 491.054
20.33000 481.669
20.34000 473.801
20.35000 470.488
20.36000 475.367
20.37000 480.412
20.38000 478.795
20.39000 469.148
20.40000 459.504
20.41000 457.141
20.42000 460.470
20.43000 463.809
20.44000 467.549
20.45000 471.500
20.46000 475.007
20.47000 470.881
20.48000 464.000
20.49000 457.666
20.50000 465.274
20.51000 475.129
20.52000 483.966
20.53000 486.936
20.54000 488.967
20.55000 489.764
20.56000 485.867
20.57000 481.514
20.58000 478.331
20.59000 475.073
20.60000 472.558
20.61000 471.384
20.62000 472.582
20.63000 473.824
20.64000 472.618
20.65000 468.517
20.66000 464.419
20.67000 463.251
20.68000 464.330
20.69000 465.469
20.70000 469.016
20.71000 473.812
20.72000 477.964
20.73000 471.430
20.74000 461.104
20.75000 451.619
20.76000 456.453
20.77000 463.837
20.78000 470.167
20.79000 470.540
20.80000 469.978
20.81000 468.902
20.82000 465.901
20.83000 462.717
20.84000 460.402
20.85000 469.827
20.86000 477.525
20.87000 481.476
20.88000 478.923
20.89000 476.254
20.90000 475.780
20.91000 477.854
20.92000 479.926
20.93000 477.553
20.94000 471.860
20.95000 466.251
20.96000 463.820
20.97000 463.009
20.98000 462.006
20.99000 457.913
21.00000 452.742
21.01000 448.003
21.02000 453.036
21.03000 459.572
21.04000 464.702
21.05000 462.049
21.06000 458.200
21.07000 455.135
21.08000 454.948
21.09000 455.028
21.10000 455.086
21.11000 452.203
21.12000 449.883
21.13000 451.611
21.14000 460.247
21.15000 468.999
21.16000 474.566
21.17000 476.507
21.18000 478.438
21.19000 476.355
21.20000 471.333
21.21000 466.353
21.22000 462.898
21.23000 460.207
21.24000 457.550
21.25000 455.415
21.26000 453.459
21.27000 451.670
21.28000 456.949
21.29000 463.096
21.30000 467.557
21.31000 462.862
21.32000 456.789
21.33000 452.200
21.34000 452.962
21.35000 454.207
21.36000 455.103
21.37000 461.078
21.38000 465.833
21.39000 469.256
21.40000 470.448
21.41000 471.604
21.42000 469.437
21.43000 463.558
21.44000 457.697
21.45000 459.303
21.46000 466.288
21.47000 473.154
21.48000 475.905
21.49000 476.628
21.50000 477.259
21.51000 476.498
21.52000 475.267
21.53000 474.145
21.54000 473.595
21.55000 473.223
21.56000 473.215
21.57000 475.148
21.58000 477.367
21.59000 477.728
21.60000 471.506
21.61000 464.705
21.62000 459.836
21.63000 468.786
21.64000 476.090
21.65000 479.918
21.66000 478.022
21.67000 476.042
21.68000 476.201
21.69000 478.703
21.70000 481.196
21.71000 479.005
21.72000 473.516
21.73000 468.448
21.74000 477.223
21.75000 492.704
21.76000 506.788
21.77000 500.359
21.78000 487.135
21.79000 475.098
21.80000 477.935
21.81000 483.385
21.82000 487.774
21.83000 486.620
21.84000 484.666
21.85000 482.810
21.86000 481.297
21.87000 479.814
21.88000 478.757
21.89000 495.975
21.90000 509.689
21.91000 518.544
21.92000 519.536
21.93000 520.420
21.94000 518.522
21.95000 513.637
21.96000 508.773
21.97000 512.941
21.98000 523.341
21.99000 533.452
22.00000 534.471
22.01000 531.160
22.02000 528.357
22.03000 532.794
22.04000 539.589
22.05000 545.758
22.06000 539.479
22.07000 531.523
22.08000 525.043
22.09000 526.133
22.10000 528.291
22.11000 530.656
22.12000 533.727
22.13000 536.858
22.14000 539.076
22.15000 524.695
22.16000 513.246
22.17000 503.868
22.18000 497.783
22.19000 491.739
22.20000 490.738
22.21000 495.047
22.22000 499.335
22.23000 496.822
22.24000 489.700
22.25000 482.897
22.26000 485.665
22.27000 492.914
22.28000 499.656
22.29000 499.381
22.30000 496.860
22.31000 494.576
22.32000 487.214
22.33000 479.763
22.34000 473.851
22.35000 475.674
22.36000 478.566
22.37000 479.980
22.38000 476.431
22.39000 472.479
22.40000 469.694
22.41000 474.616
22.42000 478.578
22.43000 479.410
22.44000 475.353
22.45000 471.237
22.46000 469.988
22.47000 471.697
22.48000 473.397
22.49000 472.676
22.50000 470.344
22.51000 468.010
22.52000 465.624
22.53000 463.214
22.54000 460.998
22.55000 461.408
22.56000 462.642
22.57000 463.758
22.58000 450.052
22.59000 435.244
22.60000 425.192
22.61000 438.604
22.62000 455.189
22.63000 465.902
22.64000 457.228
22.65000 447.024
22.66000 439.875
22.67000 435.977
22.68000 433.121
22.69000 433.610
22.70000 439.231
22.71000 444.908
22.72000 450.925
22.73000 457.288
22.74000 463.613
22.75000 464.700
22.76000 462.335
22.77000 460.015
22.78000 458.958
22.79000 458.471
22.80000 457.723
22.81000 453.548
22.82000 448.314
22.83000 443.595
22.84000 451.347
22.85000 460.419
22.86000 466.057
22.87000 455.074
22.88000 441.891
22.89000 432.348
22.90000 434.615
22.91000 437.787
22.92000 439.998
22.93000 445.368
22.94000 449.506
22.95000 450.302
22.96000 446.058
22.97000 441.764
22.98000 440.983
22.99000 443.686
23.00000 446.372
23.01000 447.128
23.02000 446.631
23.03000 446.055
23.04000 443.376
23.05000 439.764
23.06000 436.384
23.07000 435.965
23.08000 436.446
23.09000 436.879
23.10000 435.979
23.11000 434.954
23.12000 434.528
23.13000 436.949
23.14000 439.739
23.15000 442.303
23.16000 444.145
23.17000 445.933
23.18000 447.172
23.19000 441.190
23.20000 436.498
23.21000 435.209
23.22000 438.956
23.23000 442.750
23.24000 444.990
23.25000 445.720
23.26000 446.445
23.27000 450.653
23.28000 456.995
23.29000 463.044
23.30000 461.618
23.31000 456.926
23.32000 452.230
23.33000 447.478
23.34000 442.711
23.35000 438.434
23.36000 430.473
23.37000 422.872
23.38000 417.866
23.39000 424.959
23.40000 433.583
23.41000 439.212
23.42000 435.455
23.43000 431.017
23.44000 427.960
23.45000 432.140
23.46000 435.460
23.47000 439.318
23.48000 443.957
23.49000 448.602
23.50000 451.452
23.51000 452.592
23.52000 453.723
23.53000 450.967
23.54000 445.850
23.55000 440.803
23.56000 437.476
23.57000 434.888
23.58000 433.071
23.59000 440.548
23.60000 450.749
23.61000 459.876
23.62000 462.381
23.63000 463.436
23.64000 463.889
23.65000 461.588
23.66000 458.946
23.67000 456.232
23.68000 453.297
23.69000 450.347
23.70000 448.326
23.71000 467.606
23.72000 482.555
23.73000 491.164
23.74000 490.722
23.75000 490.211
23.76000 491.913
23.77000 495.680
23.78000 499.416
23.79000 500.299
23.80000 499.430
23.81000 498.598
23.82000 498.630
23.83000 499.027
23.84000 499.981
23.85000 507.465
23.86000 516.830
23.87000 525.187
23.88000 527.762
23.89000 529.038
23.90000 529.487
23.91000 526.225
23.92000 522.513
23.93000 522.226
23.94000 532.302
23.95000 543.087
23.96000 550.429
23.97000 548.056
23.98000 546.061
23.99000 542.825
24.00000 537.847
24.01000 532.859
24.02000 529.408
24.03000 527.364
24.04000 525.339
24.05000 523.797
24.06000 522.573
24.07000 521.350
24.08000 520.152
24.09000 518.963
24.10000 517.884
24.11000 518.056
24.12000 518.582
24.13000 519.050
24.14000 509.468
24.15000 499.503
24.16000 490.577
24.17000 486.233
24.18000 482.430
24.19000 480.605
24.20000 484.663
24.21000 489.111
24.22000 492.121
24.23000 476.432
24.24000 464.335
24.25000 457.116
24.26000 456.612
24.27000 456.150
24.28000 455.158
24.29000 453.691
24.30000 452.238
24.31000 448.416
24.32000 443.286
24.33000 438.250
24.34000 435.260
24.35000 433.105
24.36000 430.965
24.37000 428.981
24.38000 427.042
24.39000 425.320
24.40000 426.152
24.41000 427.283
24.42000 427.979
24.43000 426.793
24.44000 425.389
24.45000 424.829
24.46000 426.734
24.47000 428.798
24.48000 430.186
24.49000 439.508
24.50000 446.599
24.51000 447.044
24.52000 438.505
24.53000 429.919
24.54000 425.320
24.55000 424.233
24.56000 423.157
24.57000 418.158
24.58000 411.014
24.59000 404.234
24.60000 405.126
24.61000 409.096
24.62000 412.601
24.63000 411.063
24.64000 408.148
24.65000 405.568
24.66000 412.468
24.67000 419.920
24.68000 425.490
24.69000 423.063
24.70000 419.732
24.71000 415.303
24.72000 407.719
24.73000 399.938
24.74000 394.735
24.75000 395.624
24.76000 396.402
24.77000 400.687
24.78000 409.625
24.79000 418.578
24.80000 421.876
24.81000 420.288
24.82000 418.717
24.83000 409.142
24.84000 395.277
24.85000 382.343
24.86000 388.371
24.87000 401.878
24.88000 414.245
24.89000 414.559
24.90000 411.638
24.91000 409.059
24.92000 407.102
24.93000 405.508
24.94000 405.561
24.95000 412.488
24.96000 420.173
24.97000 425.204
24.98000 422.735
24.99000 419.813
25.00000 417.871
25.01000 401.390
25.02000 388.933
25.03000 385.369
25.04000 393.393
25.05000 401.460
25.06000 406.253
25.07000 408.271
25.08000 410.266
25.09000 412.922
25.10000 415.880
25.11000 418.453
25.12000 413.473
25.13000 405.564
25.14000 398.954
25.15000 405.735
25.16000 416.046
25.17000 425.124
25.18000 420.259
25.19000 413.981
25.20000 408.316
25.21000 405.165
25.22000 402.286
25.23000 399.624
25.24000 397.568
25.25000 395.547
25.26000 394.213
25.27000 406.985
25.28000 416.654
25.29000 421.502
25.30000 420.185
25.31000 418.832
25.32000 410.620
25.33000 396.704
25.34000 382.965
25.35000 382.320
25.36000 388.804
25.37000 395.048
25.38000 396.748
25.39000 396.715
25.40000 396.546
25.41000 394.993
25.42000 393.083
25.43000 391.407
25.44000 396.136
25.45000 401.139
25.46000 405.011
25.47000 404.335
25.48000 403.181
25.49000 401.790
25.50000 399.753
25.51000 397.679
25.52000 396.318
25.53000 394.559
25.54000 393.258
25.55000 395.059
25.56000 400.754
25.57000 406.443
25.58000 405.164
25.59000 398.197
25.60000 391.325
25.61000 391.241
25.62000 394.779
25.63000 398.193
25.64000 399.329
25.65000 399.613
25.66000 399.953
25.67000 400.834
25.68000 401.853
25.69000 402.746
25.70000 396.917
25.71000 390.957
25.72000 386.551
25.73000 388.292
25.74000 390.663
25.75000 392.949
25.76000 395.003
25.77000 397.045
25.78000 398.377
25.79000 391.691
25.80000 386.659
25.81000 386.737
25.82000 393.110
25.83000 399.486
25.84000 401.466
25.85000 399.925
25.86000 398.406
25.87000 397.292
25.88000 396.422
25.89000 395.661
25.90000 396.844
25.91000 398.743
25.92000 400.420
25.93000 399.971
25.94000 398.991
25.95000 398.135
25.96000 391.180
25.97000 384.374
25.98000 379.354
25.99000 381.270
26.00000 383.880
26.01000 385.994
26.02000 386.800
26.03000 387.536
26.04000 388.013
26.05000 386.365
26.06000 385.128
26.07000 385.690
26.08000 388.428
26.09000 391.164
26.10000 391.979
26.11000 391.286
26.12000 390.602
26.13000 393.078
26.14000 397.100
26.15000 400.845
26.16000 399.819
26.17000 397.067
26.18000 394.244
26.19000 390.760
26.20000 387.113
26.21000 383.940
26.22000 384.457
26.23000 385.404
26.24000 387.185
26.25000 392.147
26.26000 397.420
26.27000 399.912
26.28000 395.197
26.29000 390.113
26.30000 386.840
26.31000 388.288
26.32000 389.410
26.33000 391.520
26.34000 394.799
26.35000 398.074
26.36000 399.671
26.37000 399.973
26.38000 400.271
26.39000 395.702
26.40000 388.828
26.41000 382.476
26.42000 384.837
26.43000 390.297
26.44000 394.876
26.45000 391.395
26.46000 385.974
26.47000 381.270
26.48000 383.872
26.49000 387.068
26.50000 389.076
26.51000 386.631
26.52000 383.763
26.53000 381.375
26.54000 380.211
26.55000 379.108
26.56000 378.403
26.57000 386.227
26.58000 392.034
26.59000 397.311
26.60000 401.969
26.61000 406.598
26.62000 405.236
26.63000 399.335
26.64000 393.534
26.65000 387.791
26.66000 382.267
26.67000 377.237
26.68000 380.177
26.69000 385.904
26.70000 391.047
26.71000 390.976
26.72000 389.672
26.73000 388.545
26.74000 378.699
26.75000 369.188
26.76000 363.451
26.77000 371.596
26.78000 381.031
26.79000 386.885
26.80000 383.768
26.81000 380.221
26.82000 377.969
26.83000 383.025
26.84000 386.786
26.85000 387.117
26.86000 383.534
26.87000 379.970
26.88000 380.706
26.89000 384.640
26.90000 388.503
26.91000 386.009
26.92000 380.518
26.93000 375.298
26.94000 374.332
26.95000 374.828
26.96000 375.304
26.97000 375.595
26.98000 375.844
26.99000 376.059
27.00000 375.875
27.01000 375.668
27.02000 374.483
27.03000 369.760
27.04000 364.717
27.05000 362.804
27.06000 368.598
27.07000 374.747
27.08000 378.625
27.09000 388.543
27.10000 395.794
27.11000 399.240
27.12000 398.427
27.13000 397.578
27.14000 391.409
27.15000 381.353
27.16000 371.487
27.17000 369.908
27.18000 372.332
27.19000 374.719
27.20000 376.545
27.21000 378.181
27.22000 379.731
27.23000 380.548
27.24000 381.198
27.25000 381.757
27.26000 378.665
27.27000 375.591
27.28000 372.931
27.29000 371.735
27.30000 370.669
27.31000 370.044
27.32000 370.488
27.33000 370.978
27.34000 371.286
27.35000 377.817
27.36000 382.600
27.37000 385.409
27.38000 386.049
27.39000 386.647
27.40000 380.863
27.41000 370.503
27.42000 360.349
27.43000 358.157
27.44000 359.766
27.45000 361.435
27.46000 363.980
27.47000 366.816
27.48000 369.098
27.49000 366.773
27.50000 363.418
27.51000 360.541
27.52000 366.899
27.53000 373.396
27.54000 376.298
27.55000 366.657
27.56000 355.939
27.57000 350.775
27.58000 358.826
27.59000 367.444
27.60000 372.804
27.61000 381.145
27.62000 387.181
27.63000 389.099
27.64000 386.582
27.65000 384.061
27.66000 381.306
27.67000 378.386
27.68000 375.526
27.69000 376.443
27.70000 379.055
27.71000 381.564
27.72000 382.595
27.73000 383.144
27.74000 382.459
27.75000 371.745
27.76000 358.827
27.77000 347.790
27.78000 363.825
27.79000 380.567
27.80000 390.225
27.81000 375.599
27.82000 358.941
27.83000 350.026
27.84000 359.224
27.85000 369.170
27.86000 375.311
27.87000 379.076
27.88000 381.758
27.89000 379.856
27.90000 373.114
27.91000 366.425
27.92000 366.341
27.93000 370.825
27.94000 375.211
27.95000 371.976
27.96000 365.442
27.97000 359.528
27.98000 362.225
27.99000 367.685
28.00000 372.049
28.01000 367.704
28.02000 361.481
28.03000 356.182
28.04000 361.048
28.05000 366.323
28.06000 370.718
28.07000 372.145
28.08000 373.331
28.09000 375.325
28.10000 379.176
28.11000 383.101
28.12000 385.507
28.13000 368.707
28.14000 356.510
28.15000 355.158
28.16000 365.031
28.17000 374.802
28.18000 373.045
28.19000 363.460
28.20000 354.095
28.21000 359.222
28.22000 370.530
28.23000 381.129
28.24000 382.136
28.25000 380.118
28.26000 377.337
28.27000 368.613
28.28000 358.632
28.29000 350.159
28.30000 360.556
28.31000 371.425
28.32000 379.136
28.33000 376.395
28.34000 372.826
28.35000 370.368
28.36000 370.423
28.37000 370.574
28.38000 370.665
28.39000 369.137
28.40000 368.032
28.41000 364.711
28.42000 359.140
28.43000 353.624
28.44000 353.795
28.45000 357.759
28.46000 361.626
28.47000 363.075
28.48000 363.411
28.49000 363.552
28.50000 361.121
28.51000 357.895
28.52000 355.570
28.53000 360.112
28.54000 366.079
28.55000 371.129
28.56000 367.439
28.57000 363.380
28.58000 360.769
28.59000 362.869
28.60000 365.331
28.61000 366.758
28.62000 365.883
28.63000 364.924
28.64000 364.345
28.65000 362.488
28.66000 361.155
28.67000 360.605
28.68000 360.833
28.69000 361.057
28.70000 360.886
28.71000 360.457
28.72000 360.038
28.73000 357.959
28.74000 355.267
28.75000 352.606
28.76000 350.331
28.77000 348.173
28.78000 346.050
28.79000 344.186
28.80000 342.376
28.81000 340.849
28.82000 348.889
28.83000 356.642
28.84000 361.780
28.85000 358.565
28.86000 354.723
28.87000 351.040
28.88000 347.703
28.89000 344.378
28.90000 342.384
28.91000 351.577
28.92000 358.181
28.93000 359.873
28.94000 356.777
28.95000 353.697
28.96000 351.991
28.97000 351.168
28.98000 350.367
28.99000 349.931
29.00000 349.667
29.01000 350.010
29.02000 357.899
29.03000 368.045
29.04000 375.975
29.05000 367.767
29.06000 356.333
29.07000 346.722
29.08000 346.258
29.09000 346.840
29.10000 348.464
29.11000 353.363
29.12000 358.500
29.13000 362.220
29.14000 362.895
29.15000 363.468
29.16000 363.809
29.17000 358.862
29.18000 355.326
29.19000 354.119
29.20000 355.138
29.21000 356.132
29.22000 355.074
29.23000 352.720
29.24000 350.431
29.25000 354.084
29.26000 359.993
29.27000 365.304
29.28000 363.379
29.29000 359.327
29.30000 356.095
29.31000 358.704
29.32000 362.459
29.33000 365.604
29.34000 363.751
29.35000 361.694
29.36000 360.871
29.37000 363.856
29.38000 367.111
29.39000 367.467
29.40000 361.701
29.41000 355.737
29.42000 352.216
29.43000 352.639
29.44000 352.959
29.45000 354.997
29.46000 358.644
29.47000 362.241
29.48000 362.181
29.49000 359.848
29.50000 357.583
29.51000 354.623
29.52000 351.533
29.53000 348.739
29.54000 349.426
29.55000 351.119
29.56000 352.606
29.57000 352.663
29.58000 352.445
29.59000 352.263
29.60000 356.569
29.61000 360.594
29.62000 362.911
29.63000 360.042
29.64000 356.817
29.65000 356.167
29.66000 360.857
29.67000 365.712
29.68000 368.558
29.69000 365.814
29.70000 363.855
29.71000 362.523
29.72000 361.766
29.73000 361.032
29.74000 361.826
29.75000 363.554
29.76000 365.230
29.77000 364.792
29.78000 363.545
29.79000 362.216
29.80000 359.961
29.81000 357.444
29.82000 355.023
29.83000 353.258
29.84000 351.616
29.85000 350.251
29.86000 363.256
29.87000 375.433
29.88000 384.440
29.89000 383.995
29.90000 382.919
29.91000 382.175
29.92000 382.106
29.93000 382.057
29.94000 382.029
29.95000 390.565
29.96000 396.594
29.97000 397.150
29.98000 392.775
29.99000 388.398
30.00000 383.877
30.01000 379.269
30.02000 374.806
30.03000 379.162
30.04000 386.698
30.05000 393.769
30.06000 395.652
30.07000 396.089
30.08000 395.822
30.09000 390.848
30.10000 385.003
30.11000 380.157
30.12000 383.778
30.13000 387.580
30.14000 389.557
30.15000 386.187
30.16000 382.471
30.17000 380.573
30.18000 382.320
30.19000 384.169
30.20000 385.235
30.21000 382.271
30.22000 380.181
30.23000 379.453
30.24000 379.929
30.25000 380.284
30.26000 373.260
30.27000 361.887
30.28000 350.885
30.29000 349.612
30.30000 352.106
30.31000 354.735
30.32000 358.834
30.33000 363.334
30.34000 367.125
30.35000 366.268
30.36000 364.567
30.37000 363.161
30.38000 369.973
30.39000 376.353
30.40000 380.302
30.41000 377.246
30.42000 373.750
30.43000 369.098
30.44000 362.166
30.45000 355.173
30.46000 351.172
30.47000 366.907
30.48000 377.952
30.49000 381.225
30.50000 377.761
30.51000 374.297
30.52000 370.872
30.53000 367.468
30.54000 364.179
30.55000 364.239
30.56000 365.544
30.57000 366.559
30.58000 364.496
30.59000 361.606
30.60000 359.894
30.61000 365.746
30.62000 372.944
30.63000 378.868
30.64000 385.898
30.65000 391.778
30.66000 394.974
30.67000 390.569
30.68000 385.701
30.69000 384.964
30.70000 392.228
30.71000 399.695
30.72000 403.932
30.73000 388.521
30.74000 377.743
30.75000 374.032
30.76000 376.330
30.77000 378.631
30.78000 381.050
30.79000 383.537
30.80000 385.937
30.81000 387.181
30.82000 387.928
30.83000 389.018
30.84000 393.651
30.85000 399.220
30.86000 404.566
30.87000 408.513
30.88000 412.216
30.89000 415.252
30.90000 415.867
30.91000 416.158
30.92000 419.816
30.93000 432.849
30.94000 446.433
30.95000 455.215
30.96000 454.854
30.97000 454.272
30.98000 453.945
30.99000 485.210
31.00000 506.972
31.01000 516.168
31.02000 514.882
31.03000 513.799
31.04000 522.971
31.05000 537.877
31.06000 552.238
31.07000 570.448
31.08000 588.937
31.09000 607.038
31.10000 621.222
31.11000 634.389
31.12000 651.746
31.13000 694.906
31.14000 742.479
31.15000 781.341
31.16000 811.364
31.17000 835.174
31.18000 861.454
31.19000 894.493
31.20000 927.917
31.21000 955.756
31.22000 973.146
31.23000 990.297
31.24000 999.868
31.25000 1066.863
31.26000 1113.342
31.27000 1152.288
31.28000 1185.068
31.29000 1217.582
31.30000 1237.428
31.31000 1250.315
31.32000 1262.713
31.33000 1274.389
31.34000 1285.084
31.35000 1296.698
31.36000 1317.365
31.37000 1340.340
31.38000 1357.977
31.39000 1343.402
31.40000 1323.427
31.41000 1307.170
31.42000 1280.879
31.43000 1258.564
31.44000 1234.675
31.45000 1206.555
31.46000 1178.201
31.47000 1149.901
31.48000 1121.698
31.49000 1093.498
31.50000 1077.896
31.51000 1017.576
31.52000 975.878
31.53000 937.958
31.54000 903.071
31.55000 868.299
31.56000 838.699
31.57000 811.892
31.58000 786.136
31.59000 754.858
31.60000 723.669
31.61000 691.896
31.62000 654.513
31.63000 615.724
31.64000 579.921
31.65000 561.784
31.66000 546.548
31.67000 534.197
31.68000 518.176
31.69000 504.822
31.70000 489.743
31.71000 470.106
31.72000 450.225
31.73000 434.728
31.74000 427.153
31.75000 419.740
31.76000 415.674
31.77000 418.991
31.78000 421.268
31.79000 418.706
31.80000 412.329
31.81000 405.890
31.82000 396.748
31.83000 386.172
31.84000 376.026
31.85000 373.306
31.86000 373.281
31.87000 373.590
31.88000 377.030
31.89000 381.241
31.90000 384.235
31.91000 380.170
31.92000 374.969
31.93000 370.769
31.94000 372.536
31.95000 374.448
31.96000 374.792
31.97000 371.060
31.98000 367.118
31.99000 364.852
32.00000 365.563
32.01000 366.331
32.02000 366.749
32.03000 352.686
32.04000 343.052
32.05000 340.964
32.06000 344.715
32.07000 348.339
32.08000 346.827
32.09000 342.636
32.10000 338.621
32.11000 342.297
32.12000 348.283
32.13000 353.075
32.14000 346.921
32.15000 338.124
32.16000 331.211
32.17000 335.010
32.18000 340.499
32.19000 344.914
32.20000 349.408
32.21000 353.060
32.22000 353.550
32.23000 345.966
32.24000 337.978
32.25000 333.573
32.26000 335.419
32.27000 337.379
32.28000 338.435
32.29000 333.866
32.30000 330.742
32.31000 328.680
32.32000 327.425
32.33000 326.347
32.34000 332.071
32.35000 341.281
32.36000 350.089
32.37000 351.817
32.38000 351.115
32.39000 350.067
32.40000 345.924
32.41000 341.046
32.42000 336.497
32.43000 333.775
32.44000 331.336
32.45000 329.382
32.46000 327.162
32.47000 325.346
32.48000 323.472
32.49000 321.454
32.50000 319.429
32.51000 319.100
32.52000 321.680
32.53000 324.310
32.54000 325.715
32.55000 327.615
32.56000 328.909
32.57000 329.711
32.58000 330.148
32.59000 330.404
32.60000 324.053
32.61000 314.372
32.62000 305.128
32.63000 314.765
32.64000 329.766
32.65000 343.375
32.66000 344.825
32.67000 343.443
32.68000 340.201
32.69000 326.797
32.70000 311.854
32.71000 299.928
32.72000 308.936
32.73000 317.745
32.74000 325.065
32.75000 328.710
32.76000 332.184
32.77000 334.672
32.78000 335.499
32.79000 336.300
32.80000 336.723
32.81000 328.354
32.82000 322.698
32.83000 323.161
32.84000 328.104
32.85000 332.799
32.86000 328.835
32.87000 320.581
32.88000 312.713
32.89000 313.337
32.90000 316.585
32.91000 319.724
32.92000 321.942
32.93000 323.950
32.94000 325.057
32.95000 321.339
32.96000 316.905
32.97000 313.381
32.98000 308.575
32.99000 304.611
33.00000 303.760
33.01000 310.461
33.02000 317.501
33.03000 321.567
33.04000 320.713
33.05000 319.784
33.06000 319.297
33.07000 321.105
33.08000 322.294
33.09000 317.857
33.10000 309.375
33.11000 301.188
33.12000 302.852
33.13000 309.311
33.14000 315.458
33.15000 313.774
33.16000 309.801
33.17000 305.587
33.18000 299.355
33.19000 292.670
33.20000 287.923
33.21000 293.364
33.22000 300.283
33.23000 305.760
33.24000 299.939
33.25000 294.477
33.26000 290.549
33.27000 290.277
33.28000 290.163
33.29000 295.405
33.30000 309.360
33.31000 323.437
33.32000 330.747
33.33000 309.668
33.34000 295.500
33.35000 291.112
33.36000 293.629
33.37000 296.165
33.38000 299.344
33.39000 302.828
33.40000 306.140
33.41000 305.566
33.42000 303.861
33.43000 302.068
33.44000 299.551
33.45000 296.875
33.46000 295.350
33.47000 299.763
33.48000 305.020
33.49000 309.164
33.50000 302.809
33.51000 297.007
33.52000 294.929
33.53000 301.583
33.54000 308.599
33.55000 311.901
33.56000 309.268
33.57000 306.557
33.58000 305.163
33.59000 302.167
33.60000 300.186
33.61000 302.485
33.62000 307.752
33.63000 312.821
33.64000 311.830
33.65000 307.990
33.66000 304.346
33.67000 307.232
33.68000 311.828
33.69000 315.415
33.70000 310.952
33.71000 304.747
33.72000 299.527
33.73000 299.288
33.74000 299.740
33.75000 300.095
33.76000 299.397
33.77000 298.769
33.78000 298.444
33.79000 298.816
33.80000 299.215
33.81000 300.393
33.82000 302.794
33.83000 305.209
33.84000 306.439
33.85000 309.333
33.86000 311.284
33.87000 314.300
33.88000 318.042
33.89000 321.739
33.90000 324.108
33.91000 325.865
33.92000 327.528
33.93000 321.236
33.94000 313.131
33.95000 305.978
33.96000 306.255
33.97000 308.108
33.98000 310.172
33.99000 313.279
34.00000 316.528
34.01000 319.068
34.02000 321.333
34.03000 323.123
34.04000 325.796
34.05000 330.470
34.06000 335.221
34.07000 337.702
34.08000 336.682
34.09000 335.622
34.10000 335.088
34.11000 333.456
34.12000 332.370
34.13000 331.794
34.14000 331.559
34.15000 331.457
34.16000 335.071
34.17000 340.375
34.18000 345.388
34.19000 345.711
34.20000 344.670
34.21000 343.801
34.22000 344.246
34.23000 344.965
34.24000 345.935
34.25000 348.129
34.26000 350.487
34.27000 352.322
34.28000 350.916
34.29000 349.597
34.30000 347.990
34.31000 345.740
34.32000 343.467
34.33000 344.335
34.34000 349.964
34.35000 355.643
34.36000 355.924
34.37000 350.825
34.38000 345.806
34.39000 348.501
34.40000 356.262
34.41000 363.728
34.42000 363.279
34.43000 359.294
34.44000 355.533
34.45000 347.207
34.46000 338.297
34.47000 330.908
34.48000 334.884
34.49000 341.181
34.50000 345.331
34.51000 339.219
34.52000 331.770
34.53000 325.997
34.54000 324.265
34.55000 323.130
34.56000 322.098
34.57000 321.291
34.58000 320.492
34.59000 320.951
34.60000 323.281
34.61000 325.628
34.62000 322.308
34.63000 313.447
34.64000 304.687
34.65000 304.698
34.66000 310.368
34.67000 315.779
34.68000 314.500
34.69000 310.282
34.70000 306.310
34.71000 303.489
34.72000 301.224
34.73000 299.435
34.74000 301.125
34.75000 303.514
34.76000 305.331
34.77000 304.471
34.78000 303.271
34.79000 302.344
34.80000 298.601
34.81000 295.471
34.82000 292.751
34.83000 290.917
34.84000 289.112
34.85000 290.023
34.86000 294.904
34.87000 299.819
34.88000 300.305
34.89000 296.546
34.90000 292.778
34.91000 288.321
34.92000 283.427
34.93000 278.812
34.94000 281.103
34.95000 286.376
34.96000 291.334
34.97000 288.768
34.98000 284.399
34.99000 280.289
35.00000 278.028
35.01000 276.129
35.02000 274.565
35.03000 274.539
35.04000 274.705
35.05000 274.832
35.06000 278.471
35.07000 281.547
35.08000 282.662
35.09000 279.631
35.10000 276.465
35.11000 275.632
35.12000 278.146
35.13000 280.687
35.14000 281.139
35.15000 279.631
35.16000 278.104
35.17000 275.229
35.18000 271.514
35.19000 267.960
35.20000 268.244
35.21000 270.157
35.22000 271.953
35.23000 274.127
35.24000 276.209
35.25000 277.625
35.26000 274.385
35.27000 270.247
35.28000 267.333
35.29000 269.951
35.30000 273.243
35.31000 275.761
35.32000 272.662
35.33000 269.913
35.34000 269.556
35.35000 274.177
35.36000 278.952
35.37000 283.230
35.38000 286.805
35.39000 290.375
35.40000 284.648
35.41000 270.365
35.42000 256.260
35.43000 254.604
35.44000 260.566
35.45000 266.324
35.46000 267.413
35.47000 266.555
35.48000 265.750
35.49000 264.055
35.50000 262.281
35.51000 260.328
35.52000 257.145
35.53000 253.729
35.54000 250.791
35.55000 249.969
35.56000 249.399
35.57000 248.966
35.58000 254.784
35.59000 259.692
35.60000 262.802
35.61000 262.232
35.62000 261.554
35.63000 261.381
35.64000 261.908
35.65000 262.439
35.66000 259.950
35.67000 254.738
35.68000 249.590
35.69000 248.575
35.70000 250.044
35.71000 251.542
35.72000 253.656
35.73000 256.022
35.74000 258.234
35.75000 255.852
35.76000 252.525
35.77000 249.681
35.78000 250.086
35.79000 251.093
35.80000 253.384
35.81000 261.265
35.82000 269.796
35.83000 276.261
35.84000 273.940
35.85000 271.669
35.86000 270.273
35.87000 270.635
35.88000 271.046
35.89000 270.243
35.90000 267.790
35.91000 265.329
35.92000 261.126
35.93000 255.387
35.94000 249.740
35.95000 249.747
35.96000 253.094
35.97000 256.402
35.98000 258.861
35.99000 260.980
36.00000 262.956
36.01000 262.057
36.02000 260.527
36.03000 258.924
36.04000 256.835
36.05000 254.659
36.06000 253.627
36.07000 257.487
36.08000 261.903
36.09000 265.235
36.10000 260.641
36.11000 256.652
36.12000 254.990
36.13000 257.926
36.14000 260.986
36.15000 262.771
36.16000 262.855
36.17000 262.931
36.18000 261.445
36.19000 258.607
36.20000 255.849
36.21000 257.704
36.22000 262.235
36.23000 266.553
36.24000 266.481
36.25000 264.669
36.26000 262.982
36.27000 266.775
36.28000 271.542
36.29000 275.524
36.30000 274.455
36.31000 272.485
36.32000 269.933
36.33000 264.945
36.34000 259.687
36.35000 255.739
36.36000 252.212
36.37000 249.476
36.38000 249.142
36.39000 253.475
36.40000 257.927
36.41000 258.747
36.42000 254.809
36.43000 250.854
36.44000 252.319
36.45000 258.391
36.46000 264.405
36.47000 267.332
36.48000 268.497
36.49000 269.428
36.50000 265.698
36.51000 260.152
36.52000 254.998
36.53000 252.911
36.54000 251.761
36.55000 251.244
36.56000 254.725
36.57000 258.904
36.58000 262.208
36.59000 261.903
36.60000 261.208
36.61000 260.688
36.62000 258.311
36.63000 256.372
36.64000 257.006
36.65000 262.551
36.66000 268.215
36.67000 268.206
36.68000 260.900
36.69000 253.574
36.70000 250.285
36.71000 250.373
36.72000 250.595
36.73000 257.641
36.74000 268.511
36.75000 278.875
36.76000 279.526
36.77000 276.456
36.78000 273.609
36.79000 275.258
36.80000 277.797
36.81000 279.930
36.82000 279.558
36.83000 278.756
36.84000 277.589
36.85000 274.946
36.86000 272.147
36.87000 270.066
36.88000 276.170
36.89000 281.282
36.90000 285.141
36.91000 286.650
36.92000 288.104
36.93000 284.080
36.94000 273.140
36.95000 262.192
36.96000 263.999
36.97000 276.233
36.98000 288.310
36.99000 292.901
37.00000 293.367
37.01000 293.393
37.02000 285.229
37.03000 273.983
37.04000 263.575
37.05000 273.190
37.06000 286.432
37.07000 296.395
37.08000 286.516
37.09000 273.300
37.10000 263.868
37.11000 269.477
37.12000 276.640
37.13000 281.941
37.14000 274.189
37.15000 267.613
37.16000 264.197
37.17000 266.607
37.18000 269.144
37.19000 270.354
37.20000 269.918
37.21000 269.479
37.22000 269.850
37.23000 270.869
37.24000 271.793
37.25000 268.387
37.26000 262.636
37.27000 257.203
37.28000 257.493
37.29000 259.901
37.30000 262.124
37.31000 259.482
37.32000 256.016
37.33000 253.828
37.34000 259.223
37.35000 265.866
37.36000 270.686
37.37000 268.388
37.38000 265.373
37.39000 263.152
37.40000 263.459
37.41000 263.800
37.42000 264.260
37.43000 264.932
37.44000 265.609
37.45000 265.372
37.46000 264.024
37.47000 262.675
37.48000 259.790
37.49000 255.710
37.50000 251.723
37.51000 251.753
37.52000 253.921
37.53000 256.130
37.54000 259.062
37.55000 262.256
37.56000 265.199
37.57000 262.947
37.58000 259.785
37.59000 256.395
37.60000 251.684
37.61000 246.759
37.62000 243.696
37.63000 247.770
37.64000 252.546
37.65000 256.045
37.66000 252.651
37.67000 249.755
37.68000 249.906
37.69000 255.483
37.70000 261.166
37.71000 264.570
37.72000 265.255
37.73000 265.933
37.74000 262.752
37.75000 256.610
37.76000 250.660
37.77000 252.544
37.78000 258.523
37.79000 263.982
37.80000 260.672
37.81000 254.226
37.82000 248.298
37.83000 247.281
37.84000 247.434
37.85000 247.466
37.86000 246.805
37.87000 246.035
37.88000 246.613
37.89000 252.271
37.90000 258.416
37.91000 262.895
37.92000 259.218
37.93000 256.071
37.94000 253.421
37.95000 251.641
37.96000 249.876
37.97000 250.567
37.98000 254.130
37.99000 257.689
38.00000 261.693
38.01000 266.008
38.02000 270.306
38.03000 273.900
38.04000 277.133
38.05000 280.100
38.06000 278.725
38.07000 275.823
38.08000 273.162
38.09000 268.452
38.10000 263.820
38.11000 260.496
38.12000 264.486
38.13000 269.609
38.14000 273.211
38.15000 271.184
38.16000 268.630
38.17000 266.778
38.18000 266.784
38.19000 266.857
38.20000 269.571
38.21000 276.824
38.22000 284.155
38.23000 287.872
38.24000 287.437
38.25000 287.000
38.26000 287.544
38.27000 288.814
38.28000 290.145
38.29000 293.741
38.30000 298.480
38.31000 303.473
38.32000 312.461
38.33000 322.829
38.34000 332.320
38.35000 340.187
38.36000 346.848
38.37000 353.012
38.38000 356.448
38.39000 359.470
38.40000 367.780
38.41000 395.302
38.42000 424.577
38.43000 445.698
38.44000 453.940
38.45000 459.797
38.46000 474.049
38.47000 502.480
38.48000 531.141
38.49000 559.987
38.50000 589.043
38.51000 618.003
38.52000 647.707
38.53000 677.713
38.54000 707.566
38.55000 732.032
38.56000 753.824
38.57000 776.605
38.58000 814.554
38.59000 857.655
38.60000 897.019
38.61000 933.830
38.62000 965.989
38.63000 996.471
38.64000 1017.941
38.65000 1038.072
38.66000 1054.369
38.67000 1056.976
38.68000 1058.367
38.69000 1059.365
38.70000 1062.876
38.71000 1065.648
38.72000 1067.450
38.73000 1067.642
38.74000 1067.810
38.75000 1056.033
38.76000 1031.064
38.77000 1006.181
38.78000 976.311
38.79000 943.150
38.80000 910.287
38.81000 887.468
38.82000 869.551
38.83000 850.903
38.84000 821.379
38.85000 788.225
38.86000 758.015
38.87000 722.713
38.88000 690.423
38.89000 657.159
38.90000 618.764
38.91000 579.623
38.92000 543.437
38.93000 517.620
38.94000 492.701
38.95000 474.910
38.96000 451.092
38.97000 432.723
38.98000 415.551
38.99000 400.329
39.00000 385.134
39.01000 369.298
39.02000 352.766
39.03000 336.303
39.04000 324.069
39.05000 314.922
39.06000 305.785
39.07000 296.990
39.08000 288.360
39.09000 279.957
39.10000 274.836
39.11000 270.793
39.12000 267.117
39.13000 266.134
39.14000 265.790
39.15000 265.469
39.16000 265.263
39.17000 265.074
39.18000 262.660
39.19000 252.581
39.20000 241.857
39.21000 234.241
39.22000 238.623
39.23000 242.338
39.24000 243.391
39.25000 240.179
39.26000 236.911
39.27000 239.675
39.28000 248.846
39.29000 257.976
39.30000 257.543
39.31000 250.540
39.32000 243.634
39.33000 239.658
39.34000 237.064
39.35000 234.618
39.36000 234.236
39.37000 234.518
39.38000 234.775
39.39000 238.461
39.40000 242.369
39.41000 244.810
39.42000 239.812
39.43000 233.776
39.44000 228.489
39.45000 225.736
39.46000 223.191
39.47000 221.394
39.48000 230.286
39.49000 237.361
39.50000 240.764
39.51000 238.385
39.52000 235.936
39.53000 233.850
39.54000 232.142
39.55000 230.443
39.56000 229.817
39.57000 229.923
39.58000 229.945
39.59000 227.511
39.60000 223.938
39.61000 221.006
39.62000 226.796
39.63000 235.349
39.64000 243.087
39.65000 241.912
39.66000 239.208
39.67000 236.267
39.68000 232.148
39.69000 227.869
39.70000 224.914
39.71000 226.365
39.72000 228.168
39.73000 229.435
39.74000 236.474
39.75000 241.973
39.76000 246.140
39.77000 248.247
39.78000 250.332
39.79000 247.593
39.80000 239.932
39.81000 232.314
39.82000 229.771
39.83000 230.620
39.84000 231.447
39.85000 231.662
39.86000 231.598
39.87000 231.642
39.88000 233.121
39.89000 235.046
39.90000 236.783
39.91000 236.566
39.92000 236.016
39.93000 235.491
39.94000 235.083
39.95000 234.691
39.96000 235.198
39.97000 238.641
39.98000 242.311
39.99000 244.875
40.00000 233.250
40.01000 224.071
40.02000 220.054
40.03000 223.877
40.04000 227.782
40.05000 228.343
40.06000 225.562
40.07000 222.798
40.08000 223.237
40.09000 225.750
40.10000 228.226
40.11000 229.697
40.12000 230.717
40.13000 231.442
40.14000 228.376
40.15000 224.150
40.16000 220.345
40.17000 225.532
40.18000 231.694
40.19000 235.659
40.20000 229.101
40.21000 221.167
40.22000 214.868
40.23000 213.820
40.24000 213.169
40.25000 212.717
40.26000 215.290
40.27000 217.310
40.28000 220.533
40.29000 225.551
40.30000 230.585
40.31000 231.723
40.32000 229.042
40.33000 226.379
40.34000 227.486
40.35000 230.978
40.36000 234.319
40.37000 233.735
40.38000 231.424
40.39000 228.675
40.40000 220.446
40.41000 210.569
40.42000 201.700
40.43000 205.889
40.44000 211.850
40.45000 217.680
40.46000 222.886
40.47000 228.013
40.48000 231.263
40.49000 228.592
40.50000 225.485
40.51000 223.340
40.52000 218.667
40.53000 215.090
40.54000 213.014
40.55000 213.136
40.56000 213.277
40.57000 214.184
40.58000 215.828
40.59000 217.459
40.60000 217.272
40.61000 215.952
40.62000 214.669
40.63000 214.329
40.64000 214.395
40.65000 214.524
40.66000 215.407
40.67000 216.513
40.68000 217.503
40.69000 216.056
40.70000 214.372
40.71000 214.399
40.72000 222.320
40.73000 231.227
40.74000 236.408
40.75000 230.028
40.76000 222.823
40.77000 217.876
40.78000 208.171
40.79000 200.779
40.80000 199.908
40.81000 208.423
40.82000 217.011
40.83000 220.546
40.84000 219.322
40.85000 218.107
40.86000 218.748
40.87000 220.516
40.88000 222.145
40.89000 220.463
40.90000 217.373
40.91000 214.292
40.92000 211.326
40.93000 208.394
40.94000 205.775
40.95000 211.469
40.96000 217.831
40.97000 222.571
40.98000 219.966
40.99000 216.463
41.00000 214.215
41.01000 215.796
41.02000 217.642
41.03000 218.902
41.04000 215.787
41.05000 213.356
41.06000 212.598
41.07000 214.206
41.08000 215.832
41.09000 218.113
41.10000 221.002
41.11000 223.865
41.12000 223.703
41.13000 221.725
41.14000 219.693
41.15000 216.442
41.16000 212.681
41.17000 209.219
41.18000 209.205
41.19000 210.174
41.20000 211.038
41.21000 210.728
41.22000 210.265
41.23000 210.451
41.24000 213.519
41.25000 216.932
41.26000 220.131
41.27000 222.688
41.28000 225.202
41.29000 226.907
41.30000 215.861
41.31000 207.338
41.32000 204.890
41.33000 210.876
41.34000 216.914
41.35000 220.250
41.36000 221.138
41.37000 222.019
41.38000 221.224
41.39000 219.458
41.40000 217.436
41.41000 209.746
41.42000 199.724
41.43000 190.905
41.44000 195.639
41.45000 204.170
41.46000 211.752
41.47000 213.996
41.48000 215.082
41.49000 215.245
41.50000 211.385
41.51000 207.055
41.52000 203.299
41.53000 201.235
41.54000 199.281
41.55000 197.963
41.56000 206.583
41.57000 213.206
41.58000 217.167
41.59000 217.500
41.60000 217.810
41.61000 215.047
41.62000 209.554
41.63000 204.116
41.64000 205.835
41.65000 211.665
41.66000 217.215
41.67000 216.775
41.68000 213.913
41.69000 211.388
41.70000 212.567
41.71000 214.766
41.72000 216.715
41.73000 220.384
41.74000 223.832
41.75000 225.819
41.76000 221.548
41.77000 216.562
41.78000 213.386
41.79000 215.450
41.80000 217.845
41.81000 219.450
41.82000 216.828
41.83000 214.797
41.84000 214.815
41.85000 217.573
41.86000 220.342
41.87000 219.505
41.88000 215.528
41.89000 211.593
41.90000 214.845
41.91000 222.109
41.92000 229.107
41.93000 230.583
41.94000 229.865
41.95000 228.702
41.96000 222.766
41.97000 215.540
41.98000 209.153
41.99000 210.948
42.00000 213.765
42.01000 215.885
42.02000 215.075
42.03000 213.939
42.04000 213.293
42.05000 214.043
42.06000 214.879
42.07000 215.436
42.08000 216.559
42.09000 217.402
42.10000 216.395
42.11000 212.959
42.12000 209.519
42.13000 211.174
42.14000 217.183
42.15000 223.124
42.16000 221.943
42.17000 216.816
42.18000 211.947
42.19000 212.214
42.20000 214.487
42.21000 216.598
42.22000 217.015
42.23000 216.982
42.24000 216.953
42.25000 218.360
42.26000 219.791
42.27000 220.524
42.28000 218.373
42.29000 215.909
42.30000 214.595
42.31000 216.502
42.32000 218.600
42.33000 219.989
42.34000 217.778
42.35000 216.081
42.36000 217.198
42.37000 221.944
42.38000 226.702
42.39000 229.946
42.40000 231.921
42.41000 233.872
42.42000 231.495
42.43000 226.809
42.44000 222.356
42.45000 222.407
42.46000 224.188
42.47000 225.840
42.48000 226.186
42.49000 226.192
42.50000 226.197
42.51000 221.901
42.52000 217.570
42.53000 213.802
42.54000 212.317
42.55000 211.074
42.56000 209.893
42.57000 208.878
42.58000 207.872
42.59000 207.210
42.60000 220.428
42.61000 230.399
42.62000 232.475
42.63000 224.561
42.64000 216.626
42.65000 214.779
42.66000 217.943
42.67000 221.065
42.68000 218.448
42.69000 212.817
42.70000 207.328
42.71000 204.479
42.72000 202.625
42.73000 201.080
42.74000 202.594
42.75000 204.893
42.76000 206.907
42.77000 211.500
42.78000 215.816
42.79000 218.798
42.80000 216.467
42.81000 213.586
42.82000 210.636
42.83000 207.502
42.84000 204.358
42.85000 202.303
42.86000 206.058
42.87000 208.911
42.88000 207.660
42.89000 201.313
42.90000 194.964
42.91000 192.870
42.92000 194.214
42.93000 195.539
42.94000 196.334
42.95000 196.827
42.96000 197.419
42.97000 199.797
42.98000 202.838
42.99000 205.685
43.00000 206.661
43.01000 207.166
43.02000 207.607
43.03000 204.662
43.04000 201.661
43.05000 199.826
43.06000 202.558
43.07000 205.752
43.08000 207.604
43.09000 205.893
43.10000 203.990
43.11000 202.753
43.12000 198.224
43.13000 194.856
43.14000 194.841
43.15000 198.912
43.16000 202.982
43.17000 203.432
43.18000 201.014
43.19000 198.631
43.20000 200.831
43.21000 205.338
43.22000 209.372
43.23000 205.164
43.24000 197.950
43.25000 191.595
43.26000 193.360
43.27000 197.132
43.28000 200.420
43.29000 197.285
43.30000 193.718
43.31000 192.131
43.32000 198.159
43.33000 204.939
43.34000 209.729
43.35000 209.324
43.36000 208.649
43.37000 208.213
43.38000 201.781
43.39000 196.995
43.40000 193.879
43.41000 192.759
43.42000 191.652
43.43000 192.896
43.44000 195.970
43.45000 198.995
43.46000 198.654
43.47000 196.615
43.48000 194.815
43.49000 197.074
43.50000 200.788
43.51000 204.093
43.52000 203.613
43.53000 202.214
43.54000 200.999
43.55000 198.105
43.56000 195.411
43.57000 193.119
43.58000 192.344
43.59000 191.715
43.60000 191.255
43.61000 191.231
43.62000 191.229
43.63000 191.227
43.64000 199.485
43.65000 205.614
43.66000 207.005
43.67000 202.835
43.68000 198.664
43.69000 196.256
43.70000 195.195
43.71000 194.152
43.72000 195.410
43.73000 197.775
43.74000 199.761
43.75000 195.518
43.76000 189.082
43.77000 183.812
43.78000 189.048
43.79000 196.789
43.80000 203.495
43.81000 198.079
43.82000 191.867
43.83000 188.433
43.84000 195.299
43.85000 203.132
43.86000 208.881
43.87000 209.372
43.88000 209.608
43.89000 209.758
43.90000 201.649
43.91000 195.652
43.92000 194.880
43.93000 200.125
43.94000 205.345
43.95000 204.174
43.96000 198.212
43.97000 192.354
43.98000 194.357
43.99000 200.139
44.00000 205.391
44.01000 202.246
44.02000 196.192
44.03000 191.070
44.04000 194.150
44.05000 199.150
44.06000 203.468
44.07000 199.599
44.08000 195.256
44.09000 192.257
44.10000 194.158
44.11000 196.506
44.12000 198.652
44.13000 200.293
44.14000 201.911
44.15000 202.934
44.16000 193.530
44.17000 186.589
44.18000 183.489
44.19000 184.724
44.20000 185.977
44.21000 189.545
44.22000 194.819
44.23000 199.995
44.24000 201.606
44.25000 201.448
44.26000 201.156
44.27000 198.793
44.28000 195.726
44.29000 192.899
44.30000 192.147
44.31000 191.872
44.32000 191.635
44.33000 193.156
44.34000 194.666
44.35000 195.577
44.36000 194.340
44.37000 192.911
44.38000 192.809
44.39000 195.939
44.40000 199.216
44.41000 201.275
44.42000 212.117
44.43000 220.053
44.44000 221.265
44.45000 215.029
44.46000 208.815
44.47000 206.868
44.48000 208.005
44.49000 209.120
44.50000 208.935
44.51000 208.144
44.52000 207.550
44.53000 209.894
44.54000 213.220
44.55000 216.554
44.56000 219.940
44.57000 223.339
44.58000 226.256
44.59000 224.819
44.60000 223.068
44.61000 220.881
44.62000 217.165
44.63000 213.315
44.64000 212.474
44.65000 218.847
44.66000 225.533
44.67000 229.704
44.68000 228.381
44.69000 227.370
44.70000 228.215
44.71000 231.075
44.72000 233.924
44.73000 234.957
44.74000 234.701
44.75000 234.450
44.76000 229.615
44.77000 222.846
44.78000 216.568
44.79000 217.394
44.80000 220.557
44.81000 223.851
44.82000 228.229
44.83000 232.846
44.84000 236.796
44.85000 236.266
44.86000 235.279
44.87000 234.217
44.88000 232.900
44.89000 231.562
44.90000 232.751
44.91000 239.899
44.92000 247.297
44.93000 251.879
44.94000 254.354
44.95000 256.113
44.96000 253.688
44.97000 246.807
44.98000 239.946
44.99000 235.821
45.00000 233.602
45.01000 231.432
45.02000 234.589
45.03000 240.037
45.04000 245.223
45.05000 246.712
45.06000 247.006
45.07000 247.669
45.08000 251.293
45.09000 255.561
45.10000 259.201
45.11000 260.039
45.12000 260.414
45.13000 260.234
45.14000 258.167
45.15000 255.945
45.16000 253.205
45.17000 249.266
45.18000 245.278
45.19000 242.826
45.20000 241.569
45.21000 240.678
45.22000 241.173
45.23000 243.116
45.24000 245.036
45.25000 244.375
45.26000 241.947
45.27000 239.574
45.28000 234.249
45.29000 227.831
45.30000 221.623
45.31000 218.285
45.32000 215.858
45.33000 213.592
45.34000 212.582
45.35000 211.840
45.36000 211.210
45.37000 212.071
45.38000 212.966
45.39000 214.239
45.40000 216.775
45.41000 219.413
45.42000 221.382
45.43000 221.829
45.44000 222.217
45.45000 222.454
45.46000 220.244
45.47000 218.643
45.48000 216.056
45.49000 212.461
45.50000 208.923
45.51000 211.469
45.52000 218.105
45.53000 224.585
45.54000 223.627
45.55000 219.462
45.56000 215.567
45.57000 215.278
45.58000 216.115
45.59000 216.574
45.60000 214.132
45.61000 211.082
45.62000 208.497
45.63000 201.740
45.64000 195.609
45.65000 192.131
45.66000 197.343
45.67000 203.233
45.68000 205.647
45.69000 200.279
45.70000 194.621
45.71000 191.191
45.72000 197.272
45.73000 201.681
45.74000 200.303
45.75000 193.120
45.76000 186.016
45.77000 186.517
45.78000 192.042
45.79000 197.429
45.80000 194.395
45.81000 187.886
45.82000 181.809
45.83000 181.343
45.84000 182.597
45.85000 184.260
45.86000 188.998
45.87000 194.369
45.88000 198.905
45.89000 195.961
45.90000 192.681
45.91000 189.923
45.92000 188.846
45.93000 187.897
45.94000 186.694
45.95000 184.936
45.96000 183.157
45.97000 182.087
45.98000 179.778
45.99000 178.128
46.00000 178.380
46.01000 180.503
46.02000 182.610
46.03000 183.332
46.04000 183.156
46.05000 182.984
46.06000 180.363
46.07000 176.834
46.08000 173.451
46.09000 171.912
46.10000 170.929
46.11000 170.389
46.12000 173.109
46.13000 176.486
46.14000 179.329
46.15000 183.585
46.16000 187.287
46.17000 188.255
46.18000 180.570
46.19000 172.248
46.20000 167.524
46.21000 170.587
46.22000 173.917
46.23000 175.905
46.24000 177.064
46.25000 177.881
46.26000 181.170
46.27000 186.839
46.28000 192.439
46.29000 192.233
46.30000 188.327
46.31000 184.527
46.32000 179.851
46.33000 175.040
46.34000 170.538
46.35000 169.839
46.36000 170.265
46.37000 170.587
46.38000 170.161
46.39000 169.587
46.40000 169.106
46.41000 174.168
46.42000 178.960
46.43000 181.181
46.44000 175.403
46.45000 169.053
46.46000 165.973
46.47000 169.848
46.48000 173.950
46.49000 176.381
46.50000 175.306
46.51000 174.525
46.52000 174.692
46.53000 175.755
46.54000 176.855
46.55000 180.729
46.56000 186.341
46.57000 191.794
46.58000 188.449
46.59000 181.705
46.60000 175.897
46.61000 181.260
46.62000 189.874
46.63000 196.376
46.64000 188.010
46.65000 176.759
46.66000 167.352
46.67000 172.933
46.68000 179.093
46.69000 183.894
46.70000 184.540
46.71000 184.897
46.72000 183.426
46.73000 178.134
46.74000 172.721
46.75000 169.538
46.76000 180.019
46.77000 187.479
46.78000 187.462
46.79000 180.521
46.80000 173.677
46.81000 173.812
46.82000 178.239
46.83000 182.535
46.84000 184.206
46.85000 184.746
46.86000 185.028
46.87000 182.312
46.88000 178.739
46.89000 175.380
46.90000 173.492
46.91000 171.885
46.92000 170.545
46.93000 169.599
46.94000 168.853
46.95000 168.682
46.96000 170.234
46.97000 171.903
46.98000 171.790
46.99000 168.013
47.00000 164.126
47.01000 161.859
47.02000 172.145
47.03000 179.433
47.04000 180.859
47.05000 176.961
47.06000 173.079
47.07000 170.296
47.08000 168.177
47.09000 166.122
47.10000 167.053
47.11000 169.100
47.12000 171.200
47.13000 173.900
47.14000 176.768
47.15000 178.329
47.16000 171.070
47.17000 162.164
47.18000 154.770
47.19000 160.575
47.20000 166.651
47.21000 169.628
47.22000 163.450
47.23000 156.672
47.24000 153.109
47.25000 156.040
47.26000 159.158
47.27000 160.963
47.28000 165.278
47.29000 168.313
47.30000 169.172
47.31000 168.094
47.32000 167.053
47.33000 168.298
47.34000 170.901
47.35000 173.420
47.36000 172.520
47.37000 170.359
47.38000 168.121
47.39000 165.042
47.40000 161.731
47.41000 159.234
47.42000 162.121
47.43000 165.995
47.44000 169.199
47.45000 172.589
47.46000 175.402
47.47000 174.990
47.48000 165.215
47.49000 154.845
47.50000 149.915
47.51000 155.787
47.52000 161.955
47.53000 165.496
47.54000 163.954
47.55000 162.855
47.56000 159.972
47.57000 155.529
47.58000 151.209
47.59000 154.106
47.60000 161.214
47.61000 168.086
47.62000 167.688
47.63000 164.581
47.64000 162.186
47.65000 167.446
47.66000 174.782
47.67000 180.138
47.68000 172.672
47.69000 162.906
47.70000 154.855
47.71000 152.967
47.72000 151.980
47.73000 152.763
47.74000 158.597
47.75000 164.743
47.76000 168.071
47.77000 165.899
47.78000 163.583
47.79000 162.265
47.80000 165.684
47.81000 168.083
47.82000 170.515
47.83000 172.975
47.84000 175.342
47.85000 172.565
47.86000 166.838
47.87000 161.309
47.88000 160.926
47.89000 162.462
47.90000 164.189
47.91000 167.908
47.92000 172.156
47.93000 174.953
47.94000 168.535
47.95000 160.496
47.96000 153.894
47.97000 153.848
47.98000 154.397
47.99000 155.098
48.00000 156.222
48.01000 157.372
48.02000 160.524
48.03000 167.516
48.04000 174.602
48.05000 178.605
48.06000 166.222
48.07000 157.580
48.08000 154.690
48.09000 156.637
48.10000 158.535
48.11000 157.887
48.12000 155.805
48.13000 153.797
48.14000 150.882
48.15000 147.811
48.16000 145.319
48.17000 148.733
48.18000 153.693
48.19000 158.329
48.20000 160.949
48.21000 163.221
48.22000 165.080
48.23000 161.723
48.24000 158.518
48.25000 156.815
48.26000 159.257
48.27000 161.938
48.28000 163.992
48.29000 164.866
48.30000 165.712
48.31000 166.186
48.32000 159.468
48.33000 154.800
48.34000 152.626
48.35000 152.508
48.36000 152.434
48.37000 154.443
48.38000 157.606
48.39000 160.651
48.40000 161.870
48.41000 162.366
48.42000 162.686
48.43000 161.248
48.44000 159.358
48.45000 158.082
48.46000 160.537
48.47000 163.624
48.48000 166.140
48.49000 162.435
48.50000 158.878
48.51000 155.924
48.52000 154.605
48.53000 153.378
48.54000 153.466
48.55000 155.989
48.56000 158.567
48.57000 159.999
48.58000 163.884
48.59000 166.570
48.60000 167.814
48.61000 167.890
48.62000 167.901
48.63000 164.857
48.64000 160.150
48.65000 155.626
48.66000 154.102
48.67000 153.720
48.68000 153.157
48.69000 150.833
48.70000 148.065
48.71000 145.856
48.72000 146.985
48.73000 148.668
48.74000 150.034
48.75000 150.624
48.76000 151.041
48.77000 151.034
48.78000 149.899
48.79000 148.702
48.80000 150.577
48.81000 158.045
48.82000 165.629
48.83000 169.805
48.84000 165.968
48.85000 163.304
48.86000 158.363
48.87000 151.613
48.88000 145.047
48.89000 146.525
48.90000 152.304
48.91000 157.851
48.92000 160.147
48.93000 161.183
48.94000 161.977
48.95000 160.487
48.96000 158.431
48.97000 156.341
48.98000 154.048
48.99000 151.723
49.00000 149.843
49.01000 152.709
49.02000 155.424
49.03000 157.611
49.04000 158.416
49.05000 159.149
49.06000 159.014
49.07000 157.324
49.08000 155.603
49.09000 154.663
49.10000 156.017
49.11000 156.946
49.12000 156.790
49.13000 155.787
49.14000 154.810
49.15000 154.903
49.16000 155.557
49.17000 156.185
49.18000 155.598
49.19000 154.644
49.20000 153.843
49.21000 154.461
49.22000 155.424
49.23000 156.049
49.24000 154.742
49.25000 153.127
49.26000 151.826
49.27000 152.107
49.28000 152.460
49.29000 153.179
49.30000 154.840
49.31000 156.548
49.32000 157.004
49.33000 155.261
49.34000 153.476
49.35000 152.511
49.36000 158.429
49.37000 162.474
49.38000 163.163
49.39000 161.282
49.40000 159.385
49.41000 156.908
49.42000 154.130
49.43000 151.472
49.44000 151.835
49.45000 153.167
49.46000 154.690
49.47000 157.930
49.48000 161.581
49.49000 164.482
49.50000 163.172
49.51000 161.205
49.52000 159.626
49.53000 154.561
49.54000 150.191
49.55000 146.897
49.56000 146.322
49.57000 145.881
49.58000 148.359
49.59000 155.882
49.60000 163.494
49.61000 167.576
49.62000 154.340
49.63000 145.333
49.64000 144.961
49.65000 151.079
49.66000 157.054
49.67000 157.615
49.68000 155.428
49.69000 153.338
49.70000 153.807
49.71000 155.069
49.72000 156.315
49.73000 157.406
49.74000 158.461
49.75000 159.188
49.76000 158.102
49.77000 156.740
49.78000 155.650
49.79000 154.145
49.80000 152.898
49.81000 152.033
49.82000 152.117
49.83000 152.247
49.84000 151.620
49.85000 149.707
49.86000 147.773
49.87000 146.745
49.88000 152.818
49.89000 156.951
49.90000 160.426
49.91000 163.414
49.92000 166.342
49.93000 167.088
49.94000 166.745
49.95000 166.418
49.96000 160.545
49.97000 153.337
49.98000 147.011
49.99000 148.300
50.00000 151.343
50.01000 154.169
50.02000 155.819
50.03000 157.293
50.04000 158.467
50.05000 154.940
50.06000 151.757
50.07000 150.932
50.08000 155.873
50.09000 161.076
50.10000 161.738
50.11000 154.823
50.12000 147.792
50.13000 144.090
50.14000 149.380
50.15000 152.966
50.16000 155.458
50.17000 157.157
50.18000 158.731
50.19000 156.031
50.20000 151.235
50.21000 146.667
50.22000 146.358
50.23000 147.395
50.24000 148.328
50.25000 148.377
50.26000 148.226
50.27000 149.103
50.28000 155.428
50.29000 162.551
50.30000 168.201
50.31000 162.832
50.32000 157.740
50.33000 154.458
50.34000 155.526
50.35000 156.785
50.36000 157.400
50.37000 156.959
50.38000 156.503
50.39000 156.265
50.40000 151.386
50.41000 148.126
50.42000 150.724
50.43000 157.490
50.44000 164.166
50.45000 167.876
50.46000 170.157
50.47000 172.326
50.48000 168.433
50.49000 162.985
50.50000 158.416
50.51000 161.092
50.52000 165.377
50.53000 168.438
50.54000 165.134
50.55000 160.917
50.56000 157.586
50.57000 163.872
50.58000 169.574
50.59000 172.829
50.60000 170.306
50.61000 167.539
50.62000 165.335
50.63000 164.038
50.64000 162.754
50.65000 162.090
50.66000 160.379
50.67000 159.239
50.68000 159.905
50.69000 161.834
50.70000 163.708
50.71000 163.889
50.72000 163.267
50.73000 162.676
50.74000 164.397
50.75000 166.676
50.76000 168.475
50.77000 166.405
50.78000 163.491
50.79000 160.625
50.80000 158.002
50.81000 155.414
50.82000 153.378
50.83000 153.508
50.84000 153.756
50.85000 153.234
50.86000 150.923
50.87000 148.539
50.88000 146.834
50.89000 146.203
50.90000 145.586
50.91000 145.270
50.92000 148.546
50.93000 150.747
50.94000 152.887
50.95000 154.984
50.96000 156.978
50.97000 155.859
50.98000 153.290
50.99000 150.856
51.00000 151.900
51.01000 153.883
51.02000 155.078
51.03000 150.062
51.04000 143.716
51.05000 139.176
51.06000 143.666
51.07000 149.397
51.08000 153.886
51.09000 154.437
51.10000 154.623
51.11000 154.255
51.12000 152.620
51.13000 150.936
51.14000 151.498
51.15000 155.553
51.16000 159.649
51.17000 161.724
51.18000 155.415
51.19000 151.223
51.20000 150.478
51.21000 152.058
51.22000 153.573
51.23000 153.240
51.24000 152.061
51.25000 150.945
51.26000 148.284
51.27000 145.393
51.28000 142.861
51.29000 143.089
51.30000 143.897
51.31000 145.173
51.32000 148.741
51.33000 152.617
51.34000 155.640
51.35000 152.221
51.36000 149.094
51.37000 147.413
51.38000 148.977
51.39000 150.664
51.40000 150.572
51.41000 147.766
51.42000 144.931
51.43000 143.509
51.44000 147.603
51.45000 150.312
51.46000 150.656
51.47000 149.433
51.48000 148.058
51.49000 142.500
51.50000 135.059
51.51000 128.032
51.52000 132.627
51.53000 140.123
51.54000 147.011
51.55000 149.317
51.56000 150.679
51.57000 151.294
51.58000 148.313
51.59000 144.860
51.60000 142.178
51.61000 144.946
51.62000 147.478
51.63000 148.433
51.64000 145.906
51.65000 143.254
51.66000 142.937
51.67000 146.121
51.68000 149.340
51.69000 149.686
51.70000 147.200
51.71000 144.701
51.72000 140.970
51.73000 136.439
51.74000 132.203
51.75000 135.720
51.76000 142.668
51.77000 149.217
51.78000 149.265
51.79000 147.508
51.80000 145.957
51.81000 145.912
51.82000 146.172
51.83000 145.764
51.84000 142.197
51.85000 138.223
51.86000 135.151
51.87000 139.467
51.88000 143.326
51.89000 145.147
51.90000 142.551
51.91000 139.802
51.92000 139.528
51.93000 142.900
51.94000 146.304
51.95000 147.993
51.96000 148.024
51.97000 148.037
51.98000 146.470
51.99000 143.894
52.00000 141.495
52.01000 143.550
52.02000 147.541
52.03000 151.297
52.04000 150.479
52.05000 148.490
52.06000 146.564
52.07000 145.098
52.08000 143.723
52.09000 142.269
52.10000 140.451
52.11000 138.586
52.12000 137.150
52.13000 140.042
52.14000 142.578
52.15000 144.807
52.16000 146.385
52.17000 147.942
52.18000 148.525
52.19000 147.700
52.20000 146.863
52.21000 145.084
52.22000 142.413
52.23000 139.763
52.24000 138.759
52.25000 138.788
52.26000 138.849
52.27000 139.667
52.28000 140.810
52.29000 141.883
52.30000 143.195
52.31000 144.455
52.32000 145.417
52.33000 144.270
52.34000 142.712
52.35000 140.603
52.36000 135.985
52.37000 131.057
52.38000 127.281
52.39000 134.094
52.40000 140.058
52.41000 143.189
52.42000 140.380
52.43000 137.384
52.44000 137.373
52.45000 141.604
52.46000 145.866
52.47000 147.702
52.48000 147.284
52.49000 146.797
52.50000 141.318
52.51000 132.762
52.52000 124.653
52.53000 126.978
52.54000 133.688
52.55000 139.979
52.56000 141.113
52.57000 140.799
52.58000 140.867
52.59000 143.581
52.60000 146.800
52.61000 148.677
52.62000 144.553
52.63000 139.707
52.64000 136.010
52.65000 136.088
52.66000 136.351
52.67000 136.411
52.68000 136.056
52.69000 135.688
52.70000 136.855
52.71000 140.165
52.72000 143.489
52.73000 144.480
52.74000 143.346
52.75000 142.224
52.76000 141.900
52.77000 142.060
52.78000 142.217
52.79000 142.292
52.80000 142.334
52.81000 142.373
52.82000 143.520
52.83000 144.846
52.84000 145.636
52.85000 142.794
52.86000 139.272
52.87000 136.382
52.88000 136.267
52.89000 136.478
52.90000 136.639
52.91000 140.342
52.92000 143.436
52.93000 144.139
52.94000 140.002
52.95000 135.726
52.96000 135.079
52.97000 139.404
52.98000 143.758
52.99000 145.393
53.00000 144.599
53.01000 143.805
53.02000 143.009
53.03000 142.212
53.04000 141.589
53.05000 144.756
53.06000 149.462
53.07000 153.856
53.08000 150.680
53.09000 145.899
53.10000 142.088
53.11000 144.712
53.12000 148.517
53.13000 150.657
53.14000 145.626
53.15000 139.771
53.16000 135.345
53.17000 143.711
53.18000 150.912
53.19000 155.277
53.20000 154.000
53.21000 152.567
53.22000 150.789
53.23000 148.546
53.24000 146.302
53.25000 146.971
53.26000 150.190
53.27000 153.365
53.28000 154.018
53.29000 153.195
53.30000 152.423
53.31000 152.700
53.32000 153.397
53.33000 154.046
53.34000 152.686
53.35000 150.961
53.36000 150.155
53.37000 155.317
53.38000 161.553
53.39000 166.167
53.40000 163.919
53.41000 160.901
53.42000 158.631
53.43000 152.317
53.44000 147.182
53.45000 145.331
53.46000 149.902
53.47000 154.642
53.48000 157.440
53.49000 157.675
53.50000 157.897
53.51000 156.997
53.52000 155.136
53.53000 153.295
53.54000 152.533
53.55000 152.392
53.56000 152.277
53.57000 152.666
53.58000 153.254
53.59000 153.801
53.60000 150.671
53.61000 146.956
53.62000 144.027
53.63000 146.097
53.64000 149.050
53.65000 150.959
53.66000 148.535
53.67000 145.636
53.68000 143.465
53.69000 147.229
53.70000 150.444
53.71000 151.145
53.72000 147.011
53.73000 142.757
53.74000 141.007
53.75000 142.503
53.76000 144.012
53.77000 143.793
53.78000 142.123
53.79000 140.454
53.80000 138.795
53.81000 137.143
53.82000 135.750
53.83000 139.389
53.84000 144.970
53.85000 150.151
53.86000 144.769
53.87000 137.420
53.88000 131.651
53.89000 135.731
53.90000 141.516
53.91000 145.840
53.92000 144.209
53.93000 141.940
53.94000 140.249
53.95000 145.879
53.96000 150.593
53.97000 152.041
53.98000 147.316
53.99000 142.445
54.00000 140.314
54.01000 141.672
54.02000 143.040
54.03000 143.030
54.04000 141.883
54.05000 140.818
54.06000 143.788
54.07000 148.997
54.08000 153.936
54.09000 153.796
54.10000 151.729
54.11000 149.815
54.12000 143.936
54.13000 137.730
54.14000 132.657
54.15000 134.512
54.16000 137.542
54.17000 140.520
54.18000 143.292
54.19000 146.043
54.20000 148.083
54.21000 143.332
54.22000 139.345
54.23000 136.465
54.24000 135.639
54.25000 134.860
54.26000 134.922
54.27000 136.036
54.28000 137.151
54.29000 138.658
54.30000 140.476
54.31000 142.319
54.32000 145.319
54.33000 148.950
54.34000 152.266
54.35000 149.834
54.36000 145.259
54.37000 141.029
54.38000 140.760
54.39000 141.418
54.40000 141.899
54.41000 141.322
54.42000 140.570
54.43000 139.748
54.44000 138.655
54.45000 137.535
54.46000 136.708
54.47000 138.525
54.48000 140.044
54.49000 142.239
54.50000 145.667
54.51000 149.120
54.52000 148.721
54.53000 143.598
54.54000 138.472
54.55000 137.510
54.56000 139.855
54.57000 142.111
54.58000 140.392
54.59000 136.542
54.60000 133.070
54.61000 136.237
54.62000 141.838
54.63000 147.004
54.64000 144.283
54.65000 140.089
54.66000 136.747
54.67000 138.399
54.68000 140.865
54.69000 143.852
54.70000 148.856
54.71000 154.060
54.72000 157.881
54.73000 152.052
54.74000 147.154
54.75000 145.987
54.76000 151.515
54.77000 157.178
54.78000 158.925
54.79000 155.966
54.80000 153.003
54.81000 149.351
54.82000 145.182
54.83000 141.087
54.84000 140.055
54.85000 140.636
54.86000 141.327
54.87000 143.879
54.88000 147.102
54.89000 150.068
54.90000 150.251
54.91000 149.808
54.92000 149.417
54.93000 149.329
54.94000 149.289
54.95000 149.228
54.96000 149.082
54.97000 148.929
54.98000 148.816
54.99000 147.098
55.00000 145.710
55.01000 148.251
55.02000 157.717
55.03000 167.314
55.04000 168.197
55.05000 158.796
55.06000 149.401
55.07000 145.835
55.08000 146.740
55.09000 147.632
55.10000 147.972
55.11000 148.026
55.12000 148.251
55.13000 151.283
55.14000 155.311
55.15000 159.009
55.16000 160.901
55.17000 162.203
55.18000 163.414
55.19000 164.113
55.20000 164.733
55.21000 164.314
55.22000 160.027
55.23000 155.374
55.24000 151.991
55.25000 157.717
55.26000 162.466
55.27000 166.146
55.28000 167.972
55.29000 169.766
55.30000 168.967
55.31000 165.166
55.32000 161.372
55.33000 162.607
55.34000 167.599
55.35000 172.579
55.36000 177.090
55.37000 181.364
55.38000 185.376
55.39000 185.200
55.40000 183.567
55.41000 182.069
55.42000 185.866
55.43000 190.355
55.44000 194.914
55.45000 199.855
55.46000 204.854
55.47000 210.703
55.48000 219.665
55.49000 228.913
55.50000 235.601
55.51000 234.263
55.52000 232.944
55.53000 233.898
55.54000 238.722
55.55000 243.610
55.56000 253.520
55.57000 269.135
55.58000 284.706
55.59000 293.124
55.60000 296.225
55.61000 299.497
55.62000 308.948
55.63000 321.490
55.64000 333.636
55.65000 339.618
55.66000 343.491
55.67000 347.033
55.68000 358.564
55.69000 370.451
55.70000 383.149
55.71000 400.243
55.72000 417.997
55.73000 433.920
55.74000 443.258
55.75000 452.003
55.76000 458.295
55.77000 470.499
55.78000 480.049
55.79000 493.411
55.80000 513.153
55.81000 532.994
55.82000 551.338
55.83000 568.015
55.84000 584.631
55.85000 595.583
55.86000 602.359
55.87000 608.998
55.88000 610.935
55.89000 610.559
55.90000 610.652
55.91000 617.811
55.92000 627.346
55.93000 636.043
55.94000 636.854
55.95000 635.986
55.96000 634.027
55.97000 626.266
55.98000 617.653
55.99000 610.391
56.00000 607.908
56.01000 605.843
56.02000 604.365
56.03000 583.055
56.04000 566.114
56.05000 552.023
56.06000 542.618
56.07000 533.282
56.08000 520.566
56.09000 504.160
56.10000 487.817
56.11000 471.646
56.12000 455.750
56.13000 439.912
56.14000 425.934
56.15000 412.855
56.16000 399.823
56.17000 387.481
56.18000 375.366
56.19000 364.342
56.20000 347.157
56.21000 330.736
56.22000 316.382
56.23000 312.804
56.24000 310.776
56.25000 305.623
56.26000 289.618
56.27000 272.688
56.28000 260.638
56.29000 252.175
56.30000 245.844
56.31000 237.513
56.32000 225.953
56.33000 214.350
56.34000 207.362
56.35000 205.318
56.36000 203.284
56.37000 198.990
56.38000 193.175
56.39000 187.454
56.40000 184.687
56.41000 183.323
56.42000 182.047
56.43000 182.010
56.44000 182.377
56.45000 182.710
56.46000 177.561
56.47000 171.956
56.48000 166.820
56.49000 164.075
56.50000 161.668
56.51000 158.277
56.52000 151.532
56.53000 144.509
56.54000 139.538
56.55000 148.702
56.56000 156.106
56.57000 158.561
56.58000 153.166
56.59000 147.673
56.60000 147.492
56.61000 152.891
56.62000 158.263
56.63000 157.972
56.64000 153.831
56.65000 149.760
56.66000 147.748
56.67000 146.699
56.68000 145.755
56.69000 146.266
56.70000 147.242
56.71000 148.125
56.72000 144.410
56.73000 140.266
56.74000 136.677
56.75000 135.872
56.76000 135.450
56.77000 135.844
56.78000 138.971
56.79000 142.319
56.80000 144.677
56.81000 139.537
56.82000 135.418
56.83000 132.952
56.84000 133.061
56.85000 133.200
56.86000 132.634
56.87000 131.341
56.88000 130.054
56.89000 129.513
56.90000 129.474
56.91000 129.517
56.92000 131.879
56.93000 135.305
56.94000 138.649
56.95000 140.899
56.96000 142.805
56.97000 144.527
56.98000 141.323
56.99000 137.594
57.00000 134.424
57.01000 134.011
57.02000 133.969
57.03000 134.114
57.04000 134.870
57.05000 135.674
57.06000 136.237
57.07000 132.974
57.08000 130.397
57.09000 127.700
57.10000 124.819
57.11000 121.936
57.12000 121.941
57.13000 124.859
57.14000 127.760
57.15000 128.149
57.16000 126.889
57.17000 125.678
57.18000 125.844
57.19000 126.630
57.20000 127.110
57.21000 123.574
57.22000 118.801
57.23000 114.499
57.24000 115.896
57.25000 118.154
57.26000 120.769
57.27000 125.108
57.28000 129.673
57.29000 133.068
57.30000 132.675
57.31000 131.992
57.32000 131.516
57.33000 128.662
57.34000 126.445
57.35000 125.139
57.36000 125.205
57.37000 125.284
57.38000 124.775
57.39000 123.684
57.40000 122.600
57.41000 122.116
57.42000 122.026
57.43000 121.987
57.44000 123.308
57.45000 125.233
57.46000 127.068
57.47000 127.766
57.48000 128.119
57.49000 128.436
57.50000 127.772
57.51000 127.015
57.52000 126.734
57.53000 128.704
57.54000 130.964
57.55000 131.871
57.56000 128.471
57.57000 124.750
57.58000 122.175
57.59000 125.306
57.60000 127.812
57.61000 129.926
57.62000 131.463
57.63000 132.994
57.64000 131.577
57.65000 127.300
57.66000 123.054
57.67000 123.690
57.68000 127.392
57.69000 130.939
57.70000 130.552
57.71000 128.450
57.72000 126.558
57.73000 127.251
57.74000 128.715
57.75000 130.027
57.76000 129.609
57.77000 128.942
57.78000 128.273
57.79000 127.592
57.80000 126.910
57.81000 127.170
57.82000 130.374
57.83000 133.790
57.84000 136.141
57.85000 129.329
57.86000 123.988
57.87000 122.323
57.88000 125.992
57.89000 129.705
57.90000 128.560
57.91000 122.797
57.92000 117.079
57.93000 118.976
57.94000 125.550
57.95000 131.807
57.96000 130.341
57.97000 125.564
57.98000 121.056
57.99000 119.776
58.00000 119.440
58.01000 119.140
58.02000 118.928
58.03000 118.759
58.04000 118.478
58.05000 117.688
58.06000 116.836
58.07000 116.230
58.08000 116.379
58.09000 116.581
58.10000 116.720
58.11000 118.785
58.12000 120.376
58.13000 122.809
58.14000 126.440
58.15000 130.079
58.16000 131.285
58.17000 130.224
58.18000 129.171
58.19000 127.211
58.20000 124.736
58.21000 122.388
58.22000 123.041
58.23000 124.958
58.24000 126.666
58.25000 125.929
58.26000 124.491
58.27000 123.207
58.28000 122.451
58.29000 121.881
58.30000 120.992
58.31000 118.670
58.32000 116.176
58.33000 115.382
58.34000 119.722
58.35000 124.413
58.36000 127.604
58.37000 124.932
58.38000 122.803
58.39000 122.283
58.40000 124.013
58.41000 125.757
58.42000 125.507
58.43000 123.434
58.44000 121.380
58.45000 122.781
58.46000 126.211
58.47000 129.426
58.48000 127.795
58.49000 124.155
58.50000 120.722
58.51000 119.631
58.52000 119.202
58.53000 118.821
58.54000 118.381
58.55000 117.989
58.56000 117.703
58.57000 117.883
58.58000 118.118
58.59000 117.826
58.60000 115.972
58.61000 114.015
58.62000 112.691
58.63000 116.968
58.64000 120.275
58.65000 121.951
58.66000 121.386
58.67000 120.807
58.68000 119.591
58.69000 117.806
58.70000 116.038
58.71000 113.319
58.72000 110.101
58.73000 107.149
58.74000 109.984
58.75000 115.176
58.76000 120.250
58.77000 124.013
58.78000 127.412
58.79000 130.427
58.80000 128.563
58.81000 126.170
58.82000 123.636
58.83000 120.496
58.84000 117.287
58.85000 115.297
58.86000 116.865
58.87000 118.661
58.88000 119.868
58.89000 118.049
58.90000 116.636
58.91000 116.680
58.92000 118.690
58.93000 120.710
58.94000 122.388
58.95000 123.766
58.96000 125.128
58.97000 127.062
58.98000 129.279
58.99000 131.312
59.00000 129.471
59.01000 126.080
59.02000 122.754
59.03000 120.144
59.04000 117.730
59.05000 115.593
59.06000 118.943
59.07000 122.696
59.08000 125.731
59.09000 125.720
59.10000 125.366
59.11000 124.908
59.12000 124.154
59.13000 123.382
59.14000 122.865
59.15000 122.515
59.16000 122.259
59.17000 122.281
59.18000 122.670
59.19000 123.060
59.20000 122.151
59.21000 120.122
59.22000 118.117
59.23000 119.942
59.24000 123.879
59.25000 127.470
59.26000 124.050
59.27000 117.871
59.28000 112.440
59.29000 114.902
59.30000 119.476
59.31000 123.513
59.32000 123.968
59.33000 123.813
59.34000 123.825
59.35000 124.528
59.36000 125.307
59.37000 124.868
59.38000 120.994
59.39000 116.913
59.40000 114.203
59.41000 116.063
59.42000 117.523
59.43000 118.319
59.44000 118.250
59.45000 118.177
59.46000 117.890
59.47000 117.423
59.48000 116.960
59.49000 118.205
59.50000 120.360
59.51000 122.369
59.52000 121.510
59.53000 119.541
59.54000 117.505
59.55000 114.780
59.56000 111.874
59.57000 109.317
59.58000 112.036
59.59000 115.166
59.60000 117.649
59.61000 117.489
59.62000 117.045
59.63000 116.274
59.64000 114.596
59.65000 112.866
59.66000 111.723
59.67000 111.802
59.68000 111.882
59.69000 113.112
59.70000 115.808
59.71000 118.506
59.72000 119.977
59.73000 120.427
59.74000 120.872
59.75000 119.200
59.76000 116.424
59.77000 113.757
59.78000 113.133
59.79000 113.286
59.80000 113.557
59.81000 115.008
59.82000 116.764
59.83000 118.306
59.84000 114.753
59.85000 110.957
59.86000 108.401
59.87000 110.828
59.88000 113.776
59.89000 115.248
59.90000 112.699
59.91000 109.923
59.92000 108.103
59.93000 108.380
59.94000 108.619
59.95000 111.259
59.96000 116.905
59.97000 122.547
59.98000 123.054
59.99000 119.378
60.00000 115.752
60.01000 113.360
60.02000 111.691
60.03000 110.190
60.04000 111.792
60.05000 114.554
60.06000 117.272
60.07000 119.550
60.08000 121.717
60.09000 123.613
60.10000 124.191
60.11000 124.498
60.12000 124.390
60.13000 122.647
60.14000 120.737
60.15000 118.532
60.16000 115.535
60.17000 112.496
60.18000 110.516
60.19000 118.175
60.20000 123.943
60.21000 124.688
60.22000 119.260
60.23000 113.824
60.24000 110.898
60.25000 109.979
60.26000 109.073
60.27000 111.714
60.28000 116.128
60.29000 120.223
60.30000 118.677
60.31000 115.059
60.32000 111.886
60.33000 112.965
60.34000 115.105
60.35000 116.971
60.36000 121.664
60.37000 126.073
60.38000 129.182
60.39000 127.253
60.40000 124.822
60.41000 122.580
60.42000 120.833
60.43000 119.112
60.44000 117.999
60.45000 115.230
60.46000 113.180
60.47000 113.109
60.48000 115.424
60.49000 117.741
60.50000 119.053
60.51000 119.575
60.52000 120.088
60.53000 120.920
60.54000 121.888
60.55000 122.761
60.56000 121.999
60.57000 120.646
60.58000 119.481
60.59000 120.067
60.60000 121.081
60.61000 121.964
60.62000 118.833
60.63000 115.612
60.64000 113.619
60.65000 116.297
60.66000 119.431
60.67000 121.533
60.68000 120.970
60.69000 120.270
60.70000 119.820
60.71000 116.843
60.72000 114.635
60.73000 117.991
60.74000 127.929
60.75000 137.843
60.76000 139.141
60.77000 133.804
60.78000 128.554
60.79000 124.467
60.80000 121.096
60.81000 118.136
60.82000 122.003
60.83000 128.295
60.84000 133.941
60.85000 133.704
60.86000 132.053
60.87000 130.621
60.88000 125.965
60.89000 121.568
60.90000 119.406
60.91000 125.595
60.92000 132.576
60.93000 135.470
60.94000 127.968
60.95000 119.952
60.96000 114.832
60.97000 114.726
60.98000 114.715
60.99000 116.329
61.00000 119.830
61.01000 123.331
61.02000 126.046
61.03000 128.167
61.04000 130.252
61.05000 128.638
61.06000 125.253
61.07000 121.998
61.08000 120.827
61.09000 120.385
61.10000 119.774
61.11000 117.665
61.12000 115.202
61.13000 113.073
61.14000 116.452
61.15000 120.043
61.16000 123.055
61.17000 123.938
61.18000 124.625
61.19000 125.785
61.20000 128.128
61.21000 130.528
61.22000 132.050
61.23000 125.025
61.24000 119.822
61.25000 117.878
61.26000 119.646
61.27000 121.405
61.28000 120.785
61.29000 118.400
61.30000 116.057
61.31000 117.821
61.32000 121.510
61.33000 125.045
61.34000 126.175
61.35000 126.479
61.36000 126.767
61.37000 126.909
61.38000 127.018
61.39000 127.111
61.40000 126.566
61.41000 126.022
61.42000 126.319
61.43000 129.646
61.44000 133.247
61.45000 136.815
61.46000 140.305
61.47000 143.792
61.48000 145.988
61.49000 148.495
61.50000 150.313
61.51000 155.953
61.52000 165.862
61.53000 175.782
61.54000 187.110
61.55000 199.463
61.56000 211.582
61.57000 222.934
61.58000 233.508
61.59000 243.981
61.60000 252.929
61.61000 261.362
61.62000 269.452
61.63000 274.638
61.64000 279.164
61.65000 283.053
61.66000 280.334
61.67000 277.209
61.68000 275.333
61.69000 277.881
61.70000 280.817
61.71000 281.727
61.72000 277.740
61.73000 273.537
61.74000 270.907
61.75000 269.584
61.76000 268.643
61.77000 259.578
61.78000 241.613
61.79000 223.664
61.80000 208.827
61.81000 196.216
61.82000 183.858
61.83000 175.165
61.84000 168.511
61.85000 161.754
61.86000 153.480
61.87000 144.705
61.88000 136.832
61.89000 136.456
61.90000 137.753
61.91000 138.864
61.92000 133.946
61.93000 129.059
61.94000 125.871
61.95000 128.598
61.96000 131.831
61.97000 133.241
61.98000 130.322
61.99000 127.217
62.00000 125.288
62.01000 129.875
62.02000 133.242
62.03000 133.074
62.04000 129.109
62.05000 125.171
62.06000 125.107
62.07000 127.765
62.08000 130.368
62.09000 128.413
62.10000 124.452
62.11000 120.860
62.12000 122.537
62.13000 125.930
62.14000 128.822
62.15000 127.650
62.16000 125.588
62.17000 123.826
62.18000 122.697
62.19000 121.822
62.20000 122.027
62.21000 125.925
62.22000 130.131
62.23000 131.322
62.24000 125.476
62.25000 119.342
62.26000 115.557
62.27000 125.040
62.28000 131.970
62.29000 134.820
62.30000 133.373
62.31000 131.936
62.32000 131.779
62.33000 132.505
62.34000 133.215
62.35000 134.821
62.36000 136.764
62.37000 138.440
62.38000 136.430
62.39000 133.241
62.40000 130.249
62.41000 128.828
62.42000 127.744
62.43000 126.822
62.44000 123.465
62.45000 120.361
62.46000 119.184
62.47000 124.484
62.48000 130.309
62.49000 133.848
62.50000 132.140
62.51000 130.224
62.52000 129.051
62.53000 131.305
62.54000 132.949
62.55000 131.632
62.56000 127.259
62.57000 122.908
62.58000 120.999
62.59000 120.744
62.60000 120.495
62.61000 122.380
62.62000 125.124
62.63000 127.806
62.64000 129.641
62.65000 131.210
62.66000 132.324
62.67000 129.900
62.68000 126.729
62.69000 124.039
62.70000 127.949
62.71000 131.977
62.72000 135.259
62.73000 136.075
62.74000 136.697
62.75000 136.344
62.76000 133.790
62.77000 131.152
62.78000 129.548
62.79000 127.191
62.80000 125.503
62.81000 128.436
62.82000 136.045
62.83000 143.588
62.84000 144.363
62.85000 140.635
62.86000 136.997
62.87000 134.231
62.88000 131.964
62.89000 130.093
62.90000 133.413
62.91000 138.338
62.92000 142.402
62.93000 139.935
62.94000 136.115
62.95000 132.884
62.96000 132.803
62.97000 133.084
62.98000 133.250
62.99000 133.041
63.00000 132.802
63.01000 133.561
63.02000 136.531
63.03000 139.581
63.04000 141.422
63.05000 134.403
63.06000 129.341
63.07000 126.304
63.08000 125.275
63.09000 124.246
63.10000 123.166
63.11000 122.052
63.12000 120.966
63.13000 124.979
63.14000 130.974
63.15000 136.679
63.16000 138.700
63.17000 139.603
63.18000 140.277
63.19000 139.253
63.20000 137.883
63.21000 136.728
63.22000 132.392
63.23000 128.428
63.24000 125.577
63.25000 126.281
63.26000 127.249
63.27000 127.343
63.28000 125.532
63.29000 123.655
63.30000 122.530
63.31000 137.184
63.32000 147.692
63.33000 149.123
63.34000 141.729
63.35000 134.425
63.36000 134.765
63.37000 140.015
63.38000 145.126
63.39000 139.943
63.40000 130.718
63.41000 122.463
63.42000 126.219
63.43000 133.559
63.44000 139.581
63.45000 136.029
63.46000 130.568
63.47000 125.979
63.48000 126.932
63.49000 128.310
63.50000 129.145
63.51000 128.276
63.52000 127.283
63.53000 127.912
63.54000 132.014
63.55000 136.233
63.56000 138.741
63.57000 143.034
63.58000 146.083
63.59000 145.244
63.60000 140.699
63.61000 136.209
63.62000 136.070
63.63000 138.678
63.64000 141.213
63.65000 139.183
63.66000 135.386
63.67000 132.188
63.68000 136.201
63.69000 142.330
63.70000 147.349
63.71000 144.474
63.72000 140.054
63.73000 136.354
63.74000 139.836
63.75000 143.469
63.76000 145.781
63.77000 144.019
63.78000 141.971
63.79000 140.939
63.80000 142.047
63.81000 143.223
63.82000 143.917
63.83000 144.156
63.84000 144.322
63.85000 144.704
63.86000 145.286
63.87000 145.855
63.88000 145.484
63.89000 144.529
63.90000 143.602
63.91000 143.827
63.92000 144.503
63.93000 145.225
63.94000 146.504
63.95000 147.942
63.96000 148.822
63.97000 145.819
63.98000 142.071
63.99000 138.944
64.00000 140.866
64.01000 142.967
64.02000 144.643
64.03000 145.028
64.04000 145.325
64.05000 145.815
64.06000 146.704
64.07000 147.606
64.08000 148.134
64.09000 151.764
64.10000 154.333
64.11000 154.308
64.12000 151.905
64.13000 149.497
64.14000 146.766
64.15000 143.838
64.16000 140.998
64.17000 138.786
64.18000 136.936
64.19000 135.504
64.20000 138.858
64.21000 143.566
64.22000 147.737
64.23000 148.243
64.24000 148.059
64.25000 147.906
64.26000 151.271
64.27000 154.399
64.28000 155.087
64.29000 148.510
64.30000 141.451
64.31000 138.038
64.32000 142.046
64.33000 146.270
64.34000 148.723
64.35000 150.020
64.36000 150.924
64.37000 150.203
64.38000 148.021
64.39000 145.878
64.40000 146.273
64.41000 148.187
64.42000 150.041
64.43000 148.809
64.44000 146.452
64.45000 144.423
64.46000 146.041
64.47000 148.673
64.48000 151.430
64.49000 155.013
64.50000 158.749
64.51000 161.844
64.52000 160.533
64.53000 159.031
64.54000 158.280
64.55000 159.727
64.56000 161.316
64.57000 162.265
64.58000 161.932
64.59000 161.564
64.60000 161.352
64.61000 157.051
64.62000 154.028
64.63000 154.535
64.64000 158.156
64.65000 161.732
64.66000 162.663
64.67000 162.041
64.68000 161.438
64.69000 163.898
64.70000 167.382
64.71000 170.616
64.72000 171.134
64.73000 170.910
64.74000 170.808
64.75000 171.506
64.76000 172.348
64.77000 173.044
64.78000 174.825
64.79000 176.394
64.80000 177.518
64.81000 177.365
64.82000 177.132
64.83000 177.189
64.84000 177.817
64.85000 178.460
64.86000 178.828
64.87000 181.250
64.88000 182.947
64.89000 183.598
64.90000 183.346
64.91000 183.049
64.92000 180.264
64.93000 176.041
64.94000 171.962
64.95000 174.399
64.96000 179.120
64.97000 183.434
64.98000 183.438
64.99000 182.284
65.00000 181.831
65.01000 185.863
65.02000 190.691
65.03000 194.662
65.04000 192.217
65.05000 189.625
65.06000 189.075
65.07000 194.292
65.08000 199.859
65.09000 202.071
65.10000 197.800
65.11000 193.366
65.12000 190.851
65.13000 193.068
65.14000 194.626
65.15000 196.987
65.16000 200.028
65.17000 203.111
65.18000 208.384
65.19000 214.902
65.20000 221.189
65.21000 222.995
65.22000 223.060
65.23000 223.015
65.24000 221.845
65.25000 220.377
65.26000 219.075
65.27000 218.811
65.28000 218.727
65.29000 218.658
65.30000 232.828
65.31000 245.708
65.32000 254.221
65.33000 250.605
65.34000 246.278
65.35000 244.051
65.36000 245.812
65.37000 247.669
65.38000 248.713
65.39000 257.194
65.40000 263.093
65.41000 266.344
65.42000 267.391
65.43000 268.489
65.44000 272.116
65.45000 277.154
65.46000 282.007
65.47000 282.572
65.48000 281.567
65.49000 281.309
65.50000 288.575
65.51000 297.790
65.52000 306.845
65.53000 314.923
65.54000 322.833
65.55000 329.293
65.56000 328.203
65.57000 326.661
65.58000 329.872
65.59000 346.059
65.60000 362.983
65.61000 379.787
65.62000 396.367
65.63000 412.943
65.64000 422.183
65.65000 470.670
65.66000 504.340
65.67000 552.700
65.68000 613.057
65.69000 673.939
65.70000 759.668
65.71000 859.018
65.72000 954.590
65.73000 1073.919
65.74000 1194.149
65.75000 1312.421
65.76000 1411.446
65.77000 1505.575
65.78000 1595.017
65.79000 1656.238
65.80000 1712.740
65.81000 1758.701
65.82000 1799.722
65.83000 1832.799
65.84000 1859.062
65.85000 1867.034
65.86000 1874.000
65.87000 1869.648
65.88000 1844.530
65.89000 1818.964
65.90000 1804.833
65.91000 1736.404
65.92000 1689.031
65.93000 1618.016
65.94000 1528.054
65.95000 1437.626
65.96000 1326.370
65.97000 1203.890
65.98000 1086.240
65.99000 977.694
66.00000 879.243
66.01000 783.041
66.02000 708.390
66.03000 639.124
66.04000 573.138
66.05000 526.506
66.06000 483.045
66.07000 447.827
66.08000 430.933
66.09000 418.667
66.10000 405.507
66.11000 389.990
66.12000 374.348
66.13000 365.463
66.14000 368.762
66.15000 372.309
66.16000 374.253
66.17000 369.948
66.18000 366.976
66.19000 363.585
66.20000 359.864
66.21000 356.287
66.22000 358.792
66.23000 364.517
66.24000 370.008
66.25000 387.867
66.26000 408.733
66.27000 429.410
66.28000 448.306
66.29000 466.765
66.30000 485.009
66.31000 502.002
66.32000 518.794
66.33000 532.350
66.34000 547.649
66.35000 560.221
66.36000 573.171
66.37000 587.100
66.38000 601.079
66.39000 610.238
66.40000 610.859
66.41000 611.315
66.42000 611.563
66.43000 602.908
66.44000 596.966
66.45000 591.802
66.46000 587.240
66.47000 582.373
66.48000 565.202
66.49000 541.628
66.50000 519.052
66.51000 498.430
66.52000 479.848
66.53000 461.373
66.54000 443.874
66.55000 426.609
66.56000 410.883
66.57000 403.883
66.58000 398.256
66.59000 393.731
66.60000 379.188
66.61000 366.621
66.62000 355.872
66.63000 349.755
66.64000 343.869
66.65000 338.556
66.66000 334.243
66.67000 329.948
66.68000 327.636
66.69000 335.246
66.70000 340.438
66.71000 341.261
66.72000 338.775
66.73000 336.392
66.74000 337.928
66.75000 341.468
66.76000 344.854
66.77000 348.047
66.78000 350.955
66.79000 353.160
66.80000 349.083
66.81000 343.520
66.82000 338.955
66.83000 339.937
66.84000 341.774
66.85000 343.246
66.86000 347.115
66.87000 350.426
66.88000 351.342
66.89000 346.255
66.90000 340.881
66.91000 338.702
66.92000 341.989
66.93000 345.368
66.94000 347.171
66.95000 343.731
66.96000 341.414
66.97000 345.184
66.98000 353.483
66.99000 361.606
67.00000 363.327
67.01000 361.828
67.02000 360.398
67.03000 355.636
67.04000 350.148
67.05000 345.735
67.06000 350.685
67.07000 357.811
67.08000 363.946
67.09000 364.680
67.10000 364.598
67.11000 364.534
67.12000 373.800
67.13000 381.962
67.14000 388.088
67.15000 389.199
67.16000 390.078
67.17000 388.125
67.18000 381.411
67.19000 374.621
67.20000 371.033
67.21000 376.871
67.22000 380.818
67.23000 380.847
67.24000 378.012
67.25000 375.268
67.26000 375.688
67.27000 377.671
67.28000 379.561
67.29000 381.839
67.30000 384.073
67.31000 386.038
67.32000 385.707
67.33000 384.852
67.34000 384.597
67.35000 387.551
67.36000 390.980
67.37000 393.705
67.38000 395.174
67.39000 396.268
67.40000 396.723
67.41000 395.629
67.42000 394.465
67.43000 396.555
67.44000 404.019
67.45000 411.562
67.46000 415.512
67.47000 416.515
67.48000 417.189
67.49000 417.315
67.50000 417.048
67.51000 416.730
67.52000 414.766
67.53000 412.001
67.54000 409.371
67.55000 413.294
67.56000 418.941
67.57000 424.916
67.58000 433.623
67.59000 442.943
67.60000 448.805
67.61000 436.533
67.62000 421.636
67.63000 409.849
67.64000 418.773
67.65000 427.374
67.66000 433.122
67.67000 432.083
67.68000 430.752
67.69000 429.183
67.70000 427.226
67.71000 425.264
67.72000 424.247
67.73000 435.746
67.74000 443.462
67.75000 444.556
67.76000 440.986
67.77000 437.572
67.78000 439.126
67.79000 443.052
67.80000 446.781
67.81000 446.968
67.82000 446.073
67.83000 445.724
67.84000 449.829
67.85000 454.912
67.86000 459.281
67.87000 459.972
67.88000 460.142
67.89000 460.276
67.90000 457.679
67.91000 455.414
67.92000 455.299
67.93000 460.218
67.94000 465.344
67.95000 470.009
67.96000 473.936
67.97000 477.854
67.98000 479.867
67.99000 480.193
68.00000 480.416
68.01000 481.022
68.02000 481.893
68.03000 482.723
68.04000 482.282
68.05000 481.245
68.06000 480.261
68.07000 492.190
68.08000 507.006
68.09000 520.274
68.10000 521.212
68.11000 519.490
68.12000 519.024
68.13000 524.897
68.14000 531.649
68.15000 536.947
68.16000 527.598
68.17000 519.167
68.18000 514.920
68.19000 520.299
68.20000 526.060
68.21000 530.030
68.22000 531.195
68.23000 532.327
68.24000 532.903
68.25000 534.848
68.26000 536.162
68.27000 538.508
68.28000 541.555
68.29000 544.855
68.30000 555.491
68.31000 569.511
68.32000 582.784
68.33000 584.481
68.34000 582.683
68.35000 581.764
68.36000 587.687
68.37000 595.060
68.38000 600.603
68.39000 597.094
68.40000 592.356
68.41000 588.655
68.42000 610.665
68.43000 629.853
68.44000 640.426
68.45000 631.514
68.46000 621.859
68.47000 626.445
68.48000 652.950
68.49000 679.696
68.50000 693.169
68.51000 688.433
68.52000 685.337
68.53000 689.433
68.54000 698.328
68.55000 707.510
68.56000 724.698
68.57000 745.515
68.58000 765.191
68.59000 787.707
68.60000 809.195
68.61000 831.991
68.62000 864.754
68.63000 899.587
68.64000 936.246
68.65000 981.773
68.66000 1028.478
68.67000 1064.815
68.68000 1124.380
68.69000 1173.223
68.70000 1214.128
68.71000 1237.386
68.72000 1259.998
68.73000 1286.352
68.74000 1318.362
68.75000 1350.431
68.76000 1394.650
68.77000 1450.958
68.78000 1507.219
68.79000 1559.030
68.80000 1607.926
68.81000 1657.042
68.82000 1712.057
68.83000 1769.702
68.84000 1824.087
68.85000 1911.408
68.86000 2000.638
68.87000 2103.705
68.88000 2309.819
68.89000 2536.942
68.90000 2829.886
68.91000 3436.549
68.92000 4083.959
68.93000 4585.479
68.94000 6581.696
68.95000 8256.071
68.96000 10331.286
68.97000 13282.472
68.98000 16264.443
68.99000 19362.961
69.00000 22634.523
69.01000 25907.635
69.02000 28839.924
69.03000 31439.740
69.04000 34030.453
69.05000 35831.336
69.06000 37123.684
69.07000 38396.176
69.08000 39159.184
69.09000 39698.887
69.10000 40207.148
69.11000 40868.293
69.12000 41514.961
69.13000 42180.445
69.14000 42983.035
69.15000 43813.051
69.16000 44498.910
69.17000 44510.457
69.18000 44436.344
69.19000 44379.188
69.20000 42089.863
69.21000 40147.082
69.22000 37930.816
69.23000 35127.063
69.24000 32303.521
69.25000 29779.428
69.26000 27692.010
69.27000 25608.447
69.28000 23979.219
69.29000 22784.486
69.30000 21596.879
69.31000 20981.332
69.32000 20727.617
69.33000 20470.568
69.34000 20131.283
69.35000 19756.566
69.36000 19404.332
69.37000 18648.531
69.38000 17850.137
69.39000 16954.912
69.40000 15369.121
69.41000 13647.808
69.42000 11926.137
69.43000 10202.829
69.44000 8479.318
69.45000 7155.945
69.46000 5760.003
69.47000 4652.454
69.48000 3704.579
69.49000 3093.881
69.50000 2494.052
69.51000 2041.370
69.52000 1799.427
69.53000 1559.146
69.54000 1394.011
69.55000 1299.333
69.56000 1204.980
69.57000 1134.923
69.58000 1079.963
69.59000 1025.631
69.60000 986.229
69.61000 953.150
69.62000 922.114
69.63000 894.163
69.64000 869.506
69.65000 843.997
69.66000 812.536
69.67000 779.929
69.68000 751.293
69.69000 740.547
69.70000 731.973
69.71000 725.420
69.72000 706.016
69.73000 690.017
69.74000 671.263
69.75000 646.791
69.76000 622.143
69.77000 608.421
69.78000 610.064
69.79000 611.814
69.80000 608.857
69.81000 601.580
69.82000 594.278
69.83000 585.282
69.84000 575.251
69.85000 565.119
69.86000 552.669
69.87000 539.255
69.88000 526.693
69.89000 528.776
69.90000 534.451
69.91000 538.660
69.92000 532.855
69.93000 525.159
69.94000 518.501
69.95000 516.435
69.96000 514.914
69.97000 513.756
69.98000 514.125
69.99000 514.496
70.00000 508.142
