20.00000 479.283
20.01000 477.881
20.02000 476.279
20.03000 475.737
20.04000 479.375
20.05000 483.440
20.06000 486.441
20.07000 495.360
20.08000 502.523
20.09000 505.274
20.10000 499.952
20.11000 494.457
20.12000 492.525
20.13000 494.968
20.14000 497.419
20.15000 495.992
20.16000 491.488
20.17000 487.012
20.18000 483.807
20.19000 481.286
20.20000 478.811
20.21000 477.155
20.22000 475.801
20.23000 474.551
20.24000 479.127
20.25000 484.529
20.26000 488.643
20.27000 485.182
20.28000 480.483
20.29000 475.584
20.30000 469.911
20.31000 464.160
20.32000 459.935
20.33000 463.852
20.34000 467.213
20.35000 469.282
20.36000 469.028
20.37000 468.727
20.38000 467.687
20.39000 465.756
20.40000 463.827
20.41000 465.641
20.42000 470.368
20.43000 474.957
20.44000 473.824
20.45000 469.667
20.46000 465.933
20.47000 469.435
20.48000 475.550
20.49000 481.179
20.50000 475.900
20.51000 468.793
20.52000 462.881
20.53000 463.855
20.54000 465.931
20.55000 467.755
20.56000 468.620
20.57000 469.393
20.58000 469.957
20.59000 467.604
20.60000 465.675
20.61000 465.543
20.62000 468.588
20.63000 471.694
20.64000 475.342
20.65000 479.633
20.66000 483.914
20.67000 480.587
20.68000 471.459
20.69000 462.579
20.70000 463.632
20.71000 469.840
20.72000 475.676
20.73000 475.332
20.74000 472.795
20.75000 470.464
20.76000 473.501
20.77000 477.363
20.78000 479.721
20.79000 473.580
20.80000 466.106
20.81000 461.045
20.82000 464.997
20.83000 469.805
20.84000 473.301
20.85000 477.509
20.86000 480.773
20.87000 484.235
20.88000 488.040
20.89000 491.851
20.90000 487.801
20.91000 474.630
20.92000 461.482
20.93000 461.020
20.94000 470.080
20.95000 478.845
20.96000 476.379
20.97000 468.185
20.98000 460.619
20.99000 463.153
21.00000 469.211
21.01000 474.763
21.02000 470.866
21.03000 465.409
21.04000 462.150
21.05000 471.075
21.06000 481.870
21.07000 490.580
21.08000 491.637
21.09000 491.986
21.10000 492.239
21.11000 480.458
21.12000 470.974
21.13000 467.394
21.14000 473.882
21.15000 480.541
21.16000 486.290
21.17000 491.006
21.18000 495.706
21.19000 497.494
21.20000 497.125
21.21000 496.614
21.22000 490.955
21.23000 482.715
21.24000 475.057
21.25000 476.482
21.26000 481.022
21.27000 485.173
21.28000 477.939
21.29000 469.165
21.30000 462.388
21.31000 466.459
21.32000 472.161
21.33000 475.534
21.34000 470.511
21.35000 464.730
21.36000 460.569
21.37000 473.878
21.38000 484.684
21.39000 489.897
21.40000 485.735
21.41000 481.426
21.42000 478.152
21.43000 476.033
21.44000 473.923
21.45000 469.086
21.46000 462.322
21.47000 455.985
21.48000 464.338
21.49000 479.930
21.50000 494.422
21.51000 492.264
21.52000 484.493
21.53000 477.404
21.54000 475.728
21.55000 475.333
21.56000 473.591
21.57000 464.666
21.58000 454.684
21.59000 449.027
21.60000 458.692
21.61000 469.702
21.62000 477.587
21.63000 475.828
21.64000 474.158
21.65000 474.238
21.66000 477.200
21.67000 480.204
21.68000 481.326
21.69000 480.389
21.70000 479.454
21.71000 482.069
21.72000 487.173
21.73000 492.110
21.74000 491.551
21.75000 488.330
21.76000 485.679
21.77000 491.408
21.78000 499.911
21.79000 507.652
21.80000 507.744
21.81000 506.313
21.82000 503.843
21.83000 495.941
21.84000 487.255
21.85000 480.004
21.86000 477.750
21.87000 475.924
21.88000 474.623
21.89000 492.114
21.90000 506.052
21.91000 512.449
21.92000 506.643
21.93000 500.668
21.94000 501.544
21.95000 509.773
21.96000 517.969
21.97000 518.124
21.98000 512.691
21.99000 507.307
22.00000 503.449
22.01000 500.318
22.02000 497.568
22.03000 500.254
22.04000 504.709
22.05000 508.755
22.06000 510.169
22.07000 510.908
22.08000 511.080
22.09000 508.346
22.10000 505.201
22.11000 502.131
22.12000 499.316
22.13000 496.523
22.14000 494.544
22.15000 484.844
22.16000 477.229
22.17000 475.161
22.18000 481.910
22.19000 488.773
22.20000 492.525
22.21000 493.004
22.22000 493.480
22.23000 498.794
22.24000 507.344
22.25000 515.482
22.26000 511.186
22.27000 501.072
22.28000 491.328
22.29000 486.717
22.30000 483.747
22.31000 481.057
22.32000 480.516
22.33000 480.446
22.34000 479.445
22.35000 473.767
22.36000 467.442
22.37000 462.943
22.38000 464.578
22.39000 466.711
22.40000 468.214
22.41000 469.061
22.42000 469.684
22.43000 466.175
22.44000 456.213
22.45000 446.175
22.46000 445.257
22.47000 453.750
22.48000 462.198
22.49000 464.756
22.50000 463.344
22.51000 462.042
22.52000 463.934
22.53000 467.294
22.54000 469.820
22.55000 461.122
22.56000 448.894
22.57000 437.844
22.58000 442.535
22.59000 449.583
22.60000 455.742
22.61000 457.511
22.62000 458.687
22.63000 460.259
22.64000 463.140
22.65000 466.125
22.66000 468.216
22.67000 464.977
22.68000 462.374
22.69000 460.603
22.70000 460.107
22.71000 459.625
22.72000 455.863
22.73000 448.781
22.74000 441.741
22.75000 440.861
22.76000 444.036
22.77000 447.436
22.78000 457.100
22.79000 469.597
22.80000 480.764
22.81000 474.525
22.82000 462.909
22.83000 452.436
22.84000 451.858
22.85000 453.150
22.86000 454.856
22.87000 458.567
22.88000 462.543
22.89000 466.958
22.90000 472.798
22.91000 478.747
22.92000 482.892
22.93000 466.602
22.94000 453.749
22.95000 448.159
22.96000 453.513
22.97000 458.976
22.98000 455.357
22.99000 442.731
23.00000 430.188
23.01000 430.760
23.02000 439.769
23.03000 448.535
23.04000 450.867
23.05000 450.340
23.06000 449.369
23.07000 442.760
23.08000 434.438
23.09000 426.955
23.10000 425.282
23.11000 424.851
23.12000 425.718
23.13000 432.755
23.14000 440.591
23.15000 447.766
23.16000 452.831
23.17000 457.739
23.18000 461.139
23.19000 449.709
23.20000 440.717
23.21000 433.984
23.22000 430.596
23.23000 427.238
23.24000 430.777
23.25000 441.018
23.26000 451.187
23.27000 457.427
23.28000 461.085
23.29000 464.424
23.30000 459.609
23.31000 451.230
23.32000 444.105
23.33000 452.506
23.34000 465.539
23.35000 477.230
23.36000 470.682
23.37000 461.781
23.38000 454.071
23.39000 451.918
23.40000 450.469
23.41000 450.516
23.42000 455.256
23.43000 460.336
23.44000 463.835
23.45000 465.850
23.46000 467.326
23.47000 465.460
23.48000 458.736
23.49000 451.972
23.50000 449.531
23.51000 451.208
23.52000 452.873
23.53000 457.015
23.54000 462.622
23.55000 467.722
23.56000 460.406
23.57000 447.755
23.58000 436.379
23.59000 440.361
23.60000 448.847
23.61000 456.439
23.62000 464.919
23.63000 472.467
23.64000 478.929
23.65000 480.424
23.66000 481.304
23.67000 481.213
23.68000 478.134
23.69000 474.845
23.70000 472.592
23.71000 486.627
23.72000 497.527
23.73000 502.927
23.74000 500.471
23.75000 497.957
23.76000 500.479
23.77000 507.703
23.78000 514.867
23.79000 519.690
23.80000 523.000
23.81000 526.066
23.82000 523.350
23.83000 518.194
23.84000 514.009
23.85000 521.219
23.86000 531.711
23.87000 541.074
23.88000 540.692
23.89000 538.733
23.90000 536.941
23.91000 535.903
23.92000 534.957
23.93000 535.513
23.94000 540.618
23.95000 546.033
23.96000 549.719
23.97000 553.752
23.98000 556.773
23.99000 554.844
24.00000 545.975
24.01000 537.059
24.02000 530.165
24.03000 525.122
24.04000 520.125
24.05000 522.476
24.06000 529.168
24.07000 535.719
24.08000 539.067
24.09000 541.087
24.10000 542.370
24.11000 535.237
24.12000 525.721
24.13000 517.251
24.14000 512.695
24.15000 509.378
24.16000 505.202
24.17000 497.239
24.18000 488.827
24.19000 483.405
24.20000 486.876
24.21000 490.938
24.22000 493.687
24.23000 487.734
24.24000 483.110
24.25000 476.687
24.26000 467.788
24.27000 458.878
24.28000 455.496
24.29000 457.078
24.30000 458.645
24.31000 458.005
24.32000 456.086
24.33000 454.342
24.34000 456.432
24.35000 460.087
24.36000 463.393
24.37000 462.818
24.38000 461.163
24.39000 459.694
24.40000 460.084
24.41000 460.720
24.42000 460.082
24.43000 453.928
24.44000 447.137
24.45000 440.920
24.46000 436.381
24.47000 431.951
24.48000 428.971
24.49000 436.145
24.50000 441.687
24.51000 444.347
24.52000 443.111
24.53000 441.855
24.54000 442.167
24.55000 443.860
24.56000 445.536
24.57000 442.877
24.58000 437.786
24.59000 433.024
24.60000 435.213
24.61000 440.192
24.62000 444.334
24.63000 439.400
24.64000 431.985
24.65000 425.422
24.66000 427.755
24.67000 431.165
24.68000 433.938
24.69000 434.003
24.70000 433.763
24.71000 432.473
24.72000 428.170
24.73000 423.678
24.74000 420.674
24.75000 416.815
24.76000 413.937
24.77000 415.971
24.78000 424.526
24.79000 433.096
24.80000 430.184
24.81000 417.348
24.82000 404.654
24.83000 403.434
24.84000 408.713
24.85000 413.679
24.86000 412.272
24.87000 408.351
24.88000 405.101
24.89000 408.939
24.90000 414.680
24.91000 419.748
24.92000 416.164
24.93000 411.745
24.94000 408.143
24.95000 407.951
24.96000 408.136
24.97000 407.818
24.98000 406.081
24.99000 404.259
25.00000 403.047
25.01000 402.786
25.02000 402.610
25.03000 405.748
25.04000 413.204
25.05000 420.673
25.06000 425.572
25.07000 428.293
25.08000 430.981
25.09000 424.884
25.10000 414.078
25.11000 404.215
25.12000 412.935
25.13000 428.857
25.14000 442.368
25.15000 431.001
25.16000 413.076
25.17000 397.295
25.18000 401.909
25.19000 408.938
25.20000 414.722
25.21000 415.405
25.22000 415.539
25.23000 415.211
25.24000 413.602
25.25000 411.919
25.26000 410.807
25.27000 415.156
25.28000 418.460
25.29000 417.562
25.30000 411.290
25.31000 404.998
25.32000 398.806
25.33000 392.696
25.34000 386.663
25.35000 393.925
25.36000 408.217
25.37000 421.732
25.38000 420.478
25.39000 413.595
25.40000 407.131
25.41000 404.875
25.42000 403.710
25.43000 402.686
25.44000 413.793
25.45000 425.115
25.46000 431.343
25.47000 417.071
25.48000 400.645
25.49000 389.093
25.50000 390.850
25.51000 393.362
25.52000 395.010
25.53000 401.123
25.54000 405.694
25.55000 405.979
25.56000 400.885
25.57000 395.785
25.58000 395.363
25.59000 398.760
25.60000 402.111
25.61000 401.850
25.62000 399.670
25.63000 397.798
25.64000 401.605
25.65000 407.539
25.66000 412.928
25.67000 412.970
25.68000 411.653
25.69000 410.500
25.70000 408.861
25.71000 407.385
25.72000 405.905
25.73000 404.402
25.74000 402.897
25.75000 402.341
25.76000 404.332
25.77000 406.462
25.78000 407.852
25.79000 399.686
25.80000 393.544
25.81000 391.746
25.82000 395.298
25.83000 398.863
25.84000 402.133
25.85000 405.166
25.86000 408.156
25.87000 410.028
25.88000 411.261
25.89000 412.540
25.90000 414.636
25.91000 417.034
25.92000 418.749
25.93000 413.932
25.94000 407.483
25.95000 401.854
25.96000 397.203
25.97000 393.359
25.98000 391.820
25.99000 399.224
26.00000 407.523
26.01000 411.352
26.02000 403.393
26.03000 394.808
26.04000 389.247
26.05000 397.547
26.06000 403.826
26.07000 405.732
26.08000 402.351
26.09000 398.974
26.10000 400.069
26.11000 404.681
26.12000 409.222
26.13000 405.274
26.14000 397.087
26.15000 389.196
26.16000 386.390
26.17000 385.425
26.18000 384.348
26.19000 382.220
26.20000 379.834
26.21000 377.758
26.22000 381.107
26.23000 384.709
26.24000 389.437
26.25000 398.457
26.26000 407.896
26.27000 413.796
26.28000 410.520
26.29000 406.774
26.30000 404.363
26.31000 401.780
26.32000 399.892
26.33000 401.341
26.34000 406.747
26.35000 412.126
26.36000 409.012
26.37000 399.343
26.38000 389.829
26.39000 387.851
26.40000 389.732
26.41000 391.517
26.42000 391.709
26.43000 391.335
26.44000 390.964
26.45000 390.623
26.46000 390.289
26.47000 390.000
26.48000 395.731
26.49000 401.420
26.50000 404.638
26.51000 398.601
26.52000 391.683
26.53000 386.461
26.54000 385.562
26.55000 384.879
26.56000 384.441
26.57000 389.479
26.58000 393.217
26.59000 390.040
26.60000 378.814
26.61000 367.646
26.62000 371.223
26.63000 385.971
26.64000 400.469
26.65000 401.291
26.66000 395.325
26.67000 389.375
26.68000 383.677
26.69000 378.067
26.70000 372.772
26.71000 370.293
26.72000 368.478
26.73000 366.909
26.74000 372.004
26.75000 377.208
26.76000 382.450
26.77000 387.827
26.78000 393.217
26.79000 396.670
26.80000 395.272
26.81000 393.641
26.82000 392.606
26.83000 397.697
26.84000 401.468
26.85000 402.281
26.86000 399.718
26.87000 397.154
26.88000 395.088
26.89000 393.394
26.90000 391.730
26.91000 385.812
26.92000 378.036
26.93000 370.989
26.94000 375.373
26.95000 383.687
26.96000 390.873
26.97000 388.234
26.98000 383.313
26.99000 379.069
27.00000 374.519
27.01000 370.622
27.02000 369.055
27.03000 375.910
27.04000 383.527
27.05000 389.834
27.06000 392.915
27.07000 395.848
27.08000 397.697
27.09000 403.570
27.10000 407.869
27.11000 405.954
27.12000 397.083
27.13000 388.258
27.14000 388.063
27.15000 394.169
27.16000 400.160
27.17000 400.566
27.18000 398.298
27.19000 395.962
27.20000 392.581
27.21000 388.848
27.22000 385.825
27.23000 388.855
27.24000 393.266
27.25000 397.058
27.26000 390.219
27.27000 383.102
27.28000 378.674
27.29000 383.797
27.30000 389.761
27.31000 392.666
27.32000 388.164
27.33000 383.332
27.34000 380.306
27.35000 390.650
27.36000 398.263
27.37000 399.053
27.38000 392.351
27.39000 385.653
27.40000 380.071
27.41000 375.289
27.42000 370.603
27.43000 371.901
27.44000 375.946
27.45000 379.537
27.46000 376.421
27.47000 371.080
27.48000 367.012
27.49000 373.547
27.50000 382.455
27.51000 390.090
27.52000 391.359
27.53000 391.652
27.54000 391.339
27.55000 388.909
27.56000 386.297
27.57000 383.963
27.58000 382.294
27.59000 380.653
27.60000 379.633
27.61000 386.683
27.62000 391.840
27.63000 391.293
27.64000 384.603
27.65000 377.946
27.66000 376.049
27.67000 377.504
27.68000 378.929
27.69000 378.457
27.70000 377.135
27.71000 375.866
27.72000 375.379
27.73000 375.146
27.74000 375.427
27.75000 379.896
27.76000 385.283
27.77000 389.887
27.78000 394.567
27.79000 398.519
27.80000 400.653
27.81000 396.553
27.82000 391.932
27.83000 386.108
27.84000 377.467
27.85000 368.711
27.86000 363.303
27.87000 376.153
27.88000 385.551
27.89000 388.265
27.90000 383.924
27.91000 379.572
27.92000 374.130
27.93000 367.935
27.94000 361.876
27.95000 364.414
27.96000 370.716
27.97000 376.610
27.98000 376.837
27.99000 375.247
28.00000 373.629
28.01000 371.797
28.02000 369.918
28.03000 368.318
28.04000 370.331
28.05000 372.445
28.06000 374.784
28.07000 377.882
28.08000 381.042
28.09000 381.531
28.10000 375.878
28.11000 369.982
28.12000 366.367
28.13000 375.616
28.14000 382.351
28.15000 384.122
28.16000 380.756
28.17000 377.368
28.18000 371.580
28.19000 364.163
28.20000 356.917
28.21000 360.195
28.22000 367.983
28.23000 375.284
28.24000 376.002
28.25000 374.645
28.26000 373.963
28.27000 378.528
28.28000 384.205
28.29000 389.023
28.30000 375.586
28.31000 362.237
28.32000 353.724
28.33000 361.222
28.34000 369.988
28.35000 376.468
28.36000 377.781
28.37000 378.897
28.38000 379.576
28.39000 383.402
28.40000 386.160
28.41000 384.875
28.42000 379.487
28.43000 374.151
28.44000 374.069
28.45000 377.491
28.46000 380.830
28.47000 382.288
28.48000 382.866
28.49000 383.031
28.50000 377.753
28.51000 370.790
28.52000 364.847
28.53000 366.663
28.54000 370.091
28.55000 372.991
28.56000 376.669
28.57000 379.835
28.58000 381.008
28.59000 375.700
28.60000 369.893
28.61000 365.973
28.62000 366.243
28.63000 366.667
28.64000 366.923
28.65000 363.053
28.66000 360.266
28.67000 359.158
28.68000 359.718
28.69000 360.258
28.70000 358.793
28.71000 356.016
28.72000 353.310
28.73000 355.221
28.74000 359.011
28.75000 362.395
28.76000 360.598
28.77000 357.224
28.78000 354.944
28.79000 360.804
28.80000 368.322
28.81000 374.663
28.82000 379.226
28.83000 382.844
28.84000 383.358
28.85000 373.946
28.86000 363.791
28.87000 359.846
28.88000 369.466
28.89000 379.563
28.90000 385.618
28.91000 384.939
28.92000 384.413
28.93000 379.324
28.94000 369.791
28.95000 360.361
28.96000 359.929
28.97000 365.287
28.98000 370.504
28.99000 370.713
29.00000 368.822
29.01000 366.875
29.02000 364.236
29.03000 361.391
29.04000 359.445
29.05000 364.050
29.06000 369.966
29.07000 374.938
29.08000 380.275
29.09000 384.761
29.10000 387.850
29.11000 386.551
29.12000 384.932
29.13000 380.994
29.14000 372.078
29.15000 362.995
29.16000 357.588
29.17000 365.240
29.18000 370.738
29.19000 372.378
29.20000 370.334
29.21000 368.317
29.22000 368.474
29.23000 370.006
29.24000 371.496
29.25000 369.834
29.26000 366.962
29.27000 364.369
29.28000 365.149
29.29000 366.922
29.30000 368.524
29.31000 368.908
29.32000 369.053
29.33000 369.175
29.34000 370.467
29.35000 371.662
29.36000 372.757
29.37000 373.541
29.38000 374.304
29.39000 375.114
29.40000 376.023
29.41000 376.936
29.42000 377.474
29.43000 364.788
29.44000 355.756
29.45000 352.929
29.46000 355.915
29.47000 358.899
29.48000 361.724
29.49000 364.451
29.50000 367.100
29.51000 365.055
29.52000 361.227
29.53000 357.663
29.54000 357.217
29.55000 357.673
29.56000 358.313
29.57000 360.250
29.58000 362.436
29.59000 364.260
29.60000 369.326
29.61000 373.855
29.62000 376.952
29.63000 375.704
29.64000 374.156
29.65000 371.467
29.66000 366.408
29.67000 361.275
29.68000 358.268
29.69000 357.544
29.70000 357.048
29.71000 362.701
29.72000 374.001
29.73000 385.170
29.74000 387.232
29.75000 383.735
29.76000 380.344
29.77000 374.586
29.78000 368.196
29.79000 363.007
29.80000 371.609
29.81000 384.124
29.82000 394.582
29.83000 390.980
29.84000 384.725
29.85000 379.523
29.86000 384.494
29.87000 389.608
29.88000 393.056
29.89000 391.533
29.90000 389.679
29.91000 389.796
29.92000 393.933
29.93000 398.187
29.94000 400.661
29.95000 398.339
29.96000 396.685
29.97000 391.109
29.98000 381.998
29.99000 373.056
30.00000 375.028
30.01000 383.543
30.02000 391.792
30.03000 395.022
30.04000 396.137
30.05000 396.785
30.06000 392.228
30.07000 386.220
30.08000 380.723
30.09000 378.644
30.10000 377.198
30.11000 376.000
30.12000 379.686
30.13000 383.198
30.14000 386.036
30.15000 386.900
30.16000 387.636
30.17000 389.446
30.18000 393.410
30.19000 397.434
30.20000 399.755
30.21000 388.457
30.22000 380.498
30.23000 378.872
30.24000 382.843
30.25000 386.740
30.26000 386.189
30.27000 383.019
30.28000 379.952
30.29000 381.875
30.30000 385.588
30.31000 389.056
30.32000 389.851
30.33000 389.915
30.34000 389.904
30.35000 389.410
30.36000 388.827
30.37000 388.346
30.38000 386.327
30.39000 384.519
30.40000 382.048
30.41000 377.669
30.42000 373.171
30.43000 371.587
30.44000 375.748
30.45000 380.063
30.46000 382.531
30.47000 391.138
30.48000 397.159
30.49000 395.302
30.50000 386.618
30.51000 378.058
30.52000 376.501
30.53000 379.000
30.54000 381.414
30.55000 380.732
30.56000 378.934
30.57000 377.557
30.58000 380.648
30.59000 384.941
30.60000 388.807
30.61000 389.926
30.62000 390.557
30.63000 391.077
30.64000 389.567
30.65000 388.142
30.66000 387.510
30.67000 389.124
30.68000 390.875
30.69000 392.522
30.70000 393.967
30.71000 395.407
30.72000 396.224
30.73000 396.128
30.74000 396.061
30.75000 397.072
30.76000 399.002
30.77000 400.891
30.78000 400.621
30.79000 399.122
30.80000 397.676
30.81000 399.167
30.82000 401.644
30.83000 403.977
30.84000 404.809
30.85000 405.246
30.86000 407.298
30.87000 419.506
30.88000 433.487
30.89000 444.950
30.90000 446.348
30.91000 446.602
30.92000 447.125
30.93000 448.391
30.94000 449.702
30.95000 455.703
30.96000 470.631
30.97000 485.775
30.98000 494.297
30.99000 514.032
31.00000 527.756
31.01000 538.611
31.02000 547.074
31.03000 555.477
31.04000 560.816
31.05000 564.444
31.06000 567.939
31.07000 579.353
31.08000 592.920
31.09000 606.571
31.10000 621.071
31.11000 635.793
31.12000 652.133
31.13000 678.441
31.14000 706.455
31.15000 729.339
31.16000 747.836
31.17000 762.596
31.18000 779.213
31.19000 800.907
31.20000 822.891
31.21000 848.036
31.22000 879.094
31.23000 910.288
31.24000 927.695
31.25000 956.937
31.26000 977.191
31.27000 992.722
31.28000 1004.386
31.29000 1016.033
31.30000 1026.843
31.31000 1037.192
31.32000 1047.150
31.33000 1047.762
31.34000 1045.044
31.35000 1041.881
31.36000 1034.339
31.37000 1025.679
31.38000 1018.452
31.39000 1019.870
31.40000 1022.737
31.41000 1025.070
31.42000 988.114
31.43000 954.630
31.44000 928.898
31.45000 924.016
31.46000 920.284
31.47000 907.644
31.48000 878.623
31.49000 849.247
31.50000 832.994
31.51000 798.261
31.52000 774.279
31.53000 757.256
31.54000 745.824
31.55000 734.216
31.56000 714.666
31.57000 690.826
31.58000 667.923
31.59000 649.147
31.60000 632.997
31.61000 616.713
31.62000 599.152
31.63000 581.271
31.64000 564.246
31.65000 552.290
31.66000 541.166
31.67000 532.148
31.68000 516.201
31.69000 502.641
31.70000 491.385
31.71000 486.221
31.72000 481.382
31.73000 475.423
31.74000 467.439
31.75000 459.414
31.76000 455.012
31.77000 452.341
31.78000 450.499
31.79000 446.758
31.80000 441.520
31.81000 436.211
31.82000 427.923
31.83000 418.054
31.84000 408.586
31.85000 401.530
31.86000 395.754
31.87000 390.596
31.88000 391.225
31.89000 393.278
31.90000 395.149
31.91000 395.958
31.92000 396.598
31.93000 397.114
31.94000 387.065
31.95000 378.053
31.96000 374.542
31.97000 385.325
31.98000 396.846
31.99000 400.442
32.00000 389.964
32.01000 379.214
32.02000 373.370
32.03000 360.019
32.04000 350.888
32.05000 350.606
32.06000 357.170
32.07000 363.560
32.08000 362.873
32.09000 358.495
32.10000 354.301
32.11000 360.166
32.12000 368.982
32.13000 376.725
32.14000 374.623
32.15000 370.143
32.16000 366.262
32.17000 365.780
32.18000 365.834
32.19000 365.877
32.20000 363.131
32.21000 360.688
32.22000 359.192
32.23000 360.116
32.24000 361.161
32.25000 359.331
32.26000 352.482
32.27000 345.542
32.28000 341.803
32.29000 353.858
32.30000 362.070
32.31000 360.254
32.32000 350.818
32.33000 341.533
32.34000 338.020
32.35000 337.467
32.36000 336.938
32.37000 338.705
32.38000 341.098
32.39000 343.290
32.40000 343.669
32.41000 343.619
32.42000 342.812
32.43000 337.788
32.44000 332.112
32.45000 327.564
32.46000 323.754
32.47000 320.726
32.48000 322.440
32.49000 336.062
32.50000 350.257
32.51000 356.944
32.52000 350.758
32.53000 344.352
32.54000 340.931
32.55000 342.118
32.56000 342.914
32.57000 340.439
32.58000 335.526
32.59000 330.473
32.60000 320.309
32.61000 307.570
32.62000 295.406
32.63000 300.276
32.64000 310.257
32.65000 320.016
32.66000 327.840
32.67000 335.214
32.68000 340.930
32.69000 337.592
32.70000 332.883
32.71000 329.125
32.72000 323.205
32.73000 318.266
32.74000 317.822
32.75000 328.473
32.76000 339.639
32.77000 344.277
32.78000 337.916
32.79000 331.378
32.80000 327.919
32.81000 323.594
32.82000 320.678
32.83000 321.901
32.84000 326.154
32.85000 330.254
32.86000 329.040
32.87000 325.193
32.88000 321.526
32.89000 318.830
32.90000 316.634
32.91000 314.393
32.92000 311.761
32.93000 309.039
32.94000 307.036
32.95000 308.883
32.96000 311.300
32.97000 313.222
32.98000 310.438
32.99000 307.860
33.00000 305.552
33.01000 303.901
33.02000 302.280
33.03000 303.642
33.04000 309.943
33.05000 316.319
33.06000 319.661
33.07000 322.956
33.08000 325.130
33.09000 318.532
33.10000 305.629
33.11000 293.098
33.12000 292.994
33.13000 298.940
33.14000 304.600
33.15000 308.382
33.16000 311.303
33.17000 313.673
33.18000 311.440
33.19000 308.175
33.20000 305.664
33.21000 307.122
33.22000 309.156
33.23000 310.766
33.24000 302.668
33.25000 295.487
33.26000 291.151
33.27000 293.605
33.28000 296.352
33.29000 298.383
33.30000 299.251
33.31000 300.103
33.32000 300.545
33.33000 300.100
33.34000 299.782
33.35000 297.071
33.36000 292.670
33.37000 288.522
33.38000 292.445
33.39000 300.231
33.40000 307.630
33.41000 308.472
33.42000 307.269
33.43000 305.959
33.44000 303.779
33.45000 301.407
33.46000 298.959
33.47000 296.117
33.48000 293.220
33.49000 290.936
33.50000 302.492
33.51000 312.690
33.52000 318.097
33.53000 312.268
33.54000 305.973
33.55000 303.192
33.56000 306.029
33.57000 308.938
33.58000 310.434
33.59000 303.226
33.60000 298.378
33.61000 294.230
33.62000 290.565
33.63000 287.066
33.64000 288.583
33.65000 292.459
33.66000 296.137
33.67000 302.611
33.68000 309.411
33.69000 314.628
33.70000 307.221
33.71000 297.084
33.72000 289.049
33.73000 291.645
33.74000 295.719
33.75000 298.918
33.76000 303.016
33.77000 306.353
33.78000 308.899
33.79000 309.622
33.80000 310.273
33.81000 309.993
33.82000 308.253
33.83000 306.495
33.84000 305.600
33.85000 306.806
33.86000 307.598
33.87000 306.507
33.88000 304.133
33.89000 301.972
33.90000 306.013
33.91000 312.921
33.92000 319.463
33.93000 319.032
33.94000 316.608
33.95000 314.340
33.96000 313.290
33.97000 312.500
33.98000 312.247
33.99000 314.668
34.00000 317.453
34.01000 319.630
34.02000 316.398
34.03000 313.474
34.04000 313.420
34.05000 319.869
34.06000 326.568
34.07000 328.900
34.08000 324.499
34.09000 320.023
34.10000 317.766
34.11000 321.601
34.12000 324.192
34.13000 329.532
34.14000 336.710
34.15000 343.518
34.16000 339.958
34.17000 331.686
34.18000 323.866
34.19000 317.720
34.20000 312.551
34.21000 308.384
34.22000 311.865
34.23000 316.939
34.24000 322.205
34.25000 328.411
34.26000 334.742
34.27000 339.671
34.28000 336.196
34.29000 332.911
34.30000 329.741
34.31000 326.827
34.32000 323.922
34.33000 324.742
34.34000 331.208
34.35000 337.731
34.36000 340.104
34.37000 338.338
34.38000 336.550
34.39000 332.740
34.40000 327.601
34.41000 322.570
34.42000 320.432
34.43000 319.587
34.44000 318.789
34.45000 315.275
34.46000 311.294
34.47000 308.000
34.48000 309.843
34.49000 312.736
34.50000 315.600
34.51000 318.327
34.52000 321.035
34.53000 323.134
34.54000 313.750
34.55000 305.608
34.56000 301.036
34.57000 304.283
34.58000 307.806
34.59000 309.851
34.60000 309.697
34.61000 309.522
34.62000 306.177
34.63000 299.732
34.64000 293.354
34.65000 292.781
34.66000 295.954
34.67000 299.092
34.68000 301.310
34.69000 303.125
34.70000 304.834
34.71000 305.309
34.72000 305.405
34.73000 305.039
34.74000 301.298
34.75000 296.880
34.76000 293.336
34.77000 293.889
34.78000 294.964
34.79000 295.793
34.80000 293.196
34.81000 290.940
34.82000 290.696
34.83000 294.786
34.84000 299.023
34.85000 298.597
34.86000 291.356
34.87000 284.056
34.88000 280.879
34.89000 281.652
34.90000 282.401
34.91000 281.217
34.92000 278.806
34.93000 276.403
34.94000 274.167
34.95000 272.003
34.96000 269.969
34.97000 271.461
34.98000 273.772
34.99000 275.851
35.00000 276.266
35.01000 276.354
35.02000 277.060
35.03000 280.606
35.04000 284.505
35.05000 287.502
35.06000 279.581
35.07000 272.705
35.08000 266.638
35.09000 262.284
35.10000 257.984
35.11000 260.428
35.12000 272.550
35.13000 284.746
35.14000 286.632
35.15000 278.835
35.16000 271.105
35.17000 268.403
35.18000 268.832
35.19000 269.154
35.20000 266.938
35.21000 263.645
35.22000 260.555
35.23000 261.301
35.24000 262.993
35.25000 264.355
35.26000 263.407
35.27000 262.013
35.28000 261.797
35.29000 266.904
35.30000 272.659
35.31000 277.061
35.32000 276.051
35.33000 274.960
35.34000 271.723
35.35000 264.020
35.36000 256.178
35.37000 252.814
35.38000 255.760
35.39000 258.749
35.40000 261.310
35.41000 263.474
35.42000 265.570
35.43000 262.939
35.44000 257.416
35.45000 252.181
35.46000 253.571
35.47000 257.726
35.48000 261.617
35.49000 266.040
35.50000 270.200
35.51000 273.568
35.52000 271.506
35.53000 268.416
35.54000 265.988
35.55000 266.500
35.56000 267.361
35.57000 268.016
35.58000 270.510
35.59000 272.570
35.60000 272.994
35.61000 270.072
35.62000 267.050
35.63000 267.783
35.64000 273.713
35.65000 279.674
35.66000 279.752
35.67000 274.521
35.68000 269.346
35.69000 267.799
35.70000 268.434
35.71000 269.116
35.72000 270.847
35.73000 273.007
35.74000 275.027
35.75000 269.492
35.76000 262.550
35.77000 256.051
35.78000 252.526
35.79000 249.554
35.80000 248.604
35.81000 256.464
35.82000 265.348
35.83000 272.080
35.84000 270.232
35.85000 268.343
35.86000 267.187
35.87000 267.505
35.88000 267.864
35.89000 265.269
35.90000 258.660
35.91000 252.032
35.92000 252.562
35.93000 259.424
35.94000 266.140
35.95000 263.948
35.96000 256.494
35.97000 249.506
35.98000 252.465
35.99000 259.433
36.00000 265.935
36.01000 266.032
36.02000 264.527
36.03000 263.537
36.04000 265.930
36.05000 268.939
36.06000 270.002
36.07000 262.749
36.08000 254.551
36.09000 248.368
36.10000 257.129
36.11000 264.730
36.12000 268.679
36.13000 265.415
36.14000 261.957
36.15000 257.837
36.16000 252.833
36.17000 247.828
36.18000 249.986
36.19000 258.355
36.20000 266.650
36.21000 270.721
36.22000 272.341
36.23000 273.729
36.24000 270.364
36.25000 265.116
36.26000 260.228
36.27000 262.369
36.28000 266.019
36.29000 269.765
36.30000 274.127
36.31000 278.600
36.32000 280.350
36.33000 270.677
36.34000 259.736
36.35000 251.522
36.36000 253.793
36.37000 256.067
36.38000 258.523
36.39000 261.330
36.40000 264.147
36.41000 264.589
36.42000 261.923
36.43000 259.246
36.44000 258.860
36.45000 260.423
36.46000 262.051
36.47000 267.161
36.48000 274.257
36.49000 280.706
36.50000 274.287
36.51000 262.854
36.52000 252.229
36.53000 257.301
36.54000 265.630
36.55000 272.264
36.56000 268.207
36.57000 262.280
36.58000 257.532
36.59000 257.646
36.60000 258.288
36.61000 258.767
36.62000 254.308
36.63000 250.603
36.64000 248.673
36.65000 250.129
36.66000 251.668
36.67000 253.036
36.68000 254.186
36.69000 255.334
36.70000 258.344
36.71000 262.899
36.72000 267.368
36.73000 267.474
36.74000 265.135
36.75000 262.856
36.76000 261.750
36.77000 261.094
36.78000 260.484
36.79000 257.912
36.80000 255.136
36.81000 253.506
36.82000 258.962
36.83000 265.634
36.84000 270.770
36.85000 269.693
36.86000 267.959
36.87000 266.669
36.88000 269.078
36.89000 271.116
36.90000 272.505
36.91000 272.676
36.92000 272.818
36.93000 273.383
36.94000 274.480
36.95000 275.578
36.96000 275.049
36.97000 273.191
36.98000 271.325
36.99000 269.012
37.00000 266.454
37.01000 263.958
37.02000 262.616
37.03000 261.709
37.04000 260.870
37.05000 261.651
37.06000 262.725
37.07000 263.467
37.08000 262.194
37.09000 260.582
37.10000 259.104
37.11000 258.158
37.12000 257.266
37.13000 256.605
37.14000 264.843
37.15000 271.617
37.16000 273.607
37.17000 266.779
37.18000 259.758
37.19000 256.569
37.20000 258.124
37.21000 259.691
37.22000 258.503
37.23000 255.112
37.24000 251.879
37.25000 255.890
37.26000 263.822
37.27000 271.200
37.28000 268.632
37.29000 262.383
37.30000 256.612
37.31000 259.576
37.32000 264.202
37.33000 267.238
37.34000 260.841
37.35000 252.889
37.36000 246.345
37.37000 245.295
37.38000 244.800
37.39000 244.435
37.40000 248.126
37.41000 251.152
37.42000 254.426
37.43000 258.147
37.44000 261.878
37.45000 260.384
37.46000 252.541
37.47000 244.698
37.48000 241.871
37.49000 243.006
37.50000 244.148
37.51000 245.591
37.52000 247.195
37.53000 248.850
37.54000 251.376
37.55000 254.219
37.56000 256.840
37.57000 261.171
37.58000 265.426
37.59000 268.773
37.60000 266.837
37.61000 264.048
37.62000 260.193
37.63000 252.254
37.64000 243.912
37.65000 237.801
37.66000 240.282
37.67000 242.542
37.68000 247.150
37.69000 255.941
37.70000 264.812
37.71000 268.065
37.72000 264.616
37.73000 261.162
37.74000 258.371
37.75000 256.106
37.76000 254.009
37.77000 258.741
37.78000 267.044
37.79000 274.450
37.80000 266.767
37.81000 253.688
37.82000 241.662
37.83000 243.081
37.84000 247.256
37.85000 251.564
37.86000 256.634
37.87000 261.823
37.88000 265.739
37.89000 264.856
37.90000 263.512
37.91000 262.533
37.92000 264.028
37.93000 265.274
37.94000 265.674
37.95000 264.591
37.96000 263.482
37.97000 261.087
37.98000 257.188
37.99000 253.297
38.00000 255.316
38.01000 261.795
38.02000 268.104
38.03000 267.793
38.04000 264.081
38.05000 260.704
38.06000 262.795
38.07000 266.807
38.08000 270.488
38.09000 265.435
38.10000 259.079
38.11000 254.473
38.12000 259.641
38.13000 266.325
38.14000 270.595
38.15000 265.940
38.16000 260.450
38.17000 256.468
38.18000 263.104
38.19000 268.599
38.20000 272.338
38.21000 273.061
38.22000 273.731
38.23000 276.921
38.24000 283.005
38.25000 289.073
38.26000 291.768
38.27000 291.939
38.28000 292.139
38.29000 293.402
38.30000 295.202
38.31000 297.508
38.32000 307.815
38.33000 320.885
38.34000 332.850
38.35000 335.966
38.36000 336.900
38.37000 338.141
38.38000 341.065
38.39000 344.245
38.40000 348.008
38.41000 353.889
38.42000 359.964
38.43000 364.347
38.44000 378.663
38.45000 389.992
38.46000 402.774
38.47000 418.010
38.48000 433.285
38.49000 449.783
38.50000 467.659
38.51000 485.477
38.52000 503.140
38.53000 520.547
38.54000 537.832
38.55000 550.839
38.56000 561.722
38.57000 572.398
38.58000 579.891
38.59000 586.303
38.60000 592.159
38.61000 610.295
38.62000 628.893
38.63000 647.370
38.64000 665.193
38.65000 682.918
38.66000 694.128
38.67000 682.081
38.68000 667.968
38.69000 657.839
38.70000 654.286
38.71000 651.795
38.72000 643.012
38.73000 623.787
38.74000 604.404
38.75000 596.180
38.76000 600.280
38.77000 604.372
38.78000 589.880
38.79000 562.243
38.80000 535.050
38.81000 522.768
38.82000 517.763
38.83000 511.872
38.84000 492.790
38.85000 469.307
38.86000 447.908
38.87000 426.820
38.88000 408.200
38.89000 391.379
38.90000 384.042
38.91000 378.086
38.92000 371.359
38.93000 361.925
38.94000 352.258
38.95000 345.356
38.96000 327.231
38.97000 313.033
38.98000 302.626
38.99000 298.403
39.00000 294.267
39.01000 290.537
39.02000 287.248
39.03000 283.973
39.04000 284.410
39.05000 287.445
39.06000 290.230
39.07000 285.009
39.08000 275.947
39.09000 267.341
39.10000 265.315
39.11000 265.448
39.12000 265.568
39.13000 258.898
39.14000 251.676
39.15000 246.092
39.16000 248.980
39.17000 253.076
39.18000 256.795
39.19000 259.215
39.20000 261.526
39.21000 263.167
39.22000 261.813
39.23000 260.687
39.24000 259.374
39.25000 257.761
39.26000 256.144
39.27000 255.568
39.28000 256.099
39.29000 256.627
39.30000 258.060
39.31000 260.099
39.32000 262.047
39.33000 261.213
39.34000 259.067
39.35000 256.424
39.36000 246.797
39.37000 234.919
39.38000 224.147
39.39000 233.569
39.40000 245.744
39.41000 255.047
39.42000 249.778
39.43000 242.477
39.44000 237.513
39.45000 240.465
39.46000 244.067
39.47000 246.610
39.48000 246.479
39.49000 246.297
39.50000 247.932
39.51000 252.426
39.52000 256.955
39.53000 255.986
39.54000 249.294
39.55000 242.636
39.56000 239.281
39.57000 238.194
39.58000 237.203
39.59000 239.019
39.60000 242.134
39.61000 245.075
39.62000 245.629
39.63000 245.427
39.64000 245.245
39.65000 244.202
39.66000 243.122
39.67000 242.832
39.68000 246.468
39.69000 250.641
39.70000 252.942
39.71000 249.017
39.72000 244.596
39.73000 241.490
39.74000 237.500
39.75000 234.453
39.76000 231.666
39.77000 229.281
39.78000 226.901
39.79000 226.958
39.80000 229.503
39.81000 232.034
39.82000 236.715
39.83000 242.757
39.84000 248.505
39.85000 245.946
39.86000 239.603
39.87000 233.538
39.88000 231.157
39.89000 229.922
39.90000 228.809
39.91000 233.808
39.92000 239.321
39.93000 242.957
39.94000 237.427
39.95000 230.672
39.96000 225.358
39.97000 224.757
39.98000 224.522
39.99000 224.358
40.00000 222.070
40.01000 220.283
40.02000 222.084
40.03000 229.335
40.04000 236.642
40.05000 238.749
40.06000 235.652
40.07000 232.575
40.08000 230.509
40.09000 229.129
40.10000 227.841
40.11000 229.022
40.12000 231.310
40.13000 233.566
40.14000 235.405
40.15000 237.117
40.16000 238.658
40.17000 234.837
40.18000 230.524
40.19000 227.118
40.20000 228.057
40.21000 229.564
40.22000 230.701
40.23000 230.648
40.24000 230.507
40.25000 230.408
40.26000 236.267
40.27000 240.842
40.28000 240.476
40.29000 232.741
40.30000 224.935
40.31000 220.808
40.32000 220.286
40.33000 219.767
40.34000 221.756
40.35000 225.312
40.36000 228.662
40.37000 226.690
40.38000 222.374
40.39000 218.554
40.40000 220.945
40.41000 225.204
40.42000 229.029
40.43000 222.621
40.44000 215.215
40.45000 209.152
40.46000 209.404
40.47000 210.463
40.48000 211.528
40.49000 212.611
40.50000 213.695
40.51000 214.444
40.52000 220.177
40.53000 224.613
40.54000 228.331
40.55000 230.998
40.56000 233.656
40.57000 236.132
40.58000 238.433
40.59000 240.717
40.60000 237.207
40.61000 230.134
40.62000 223.312
40.63000 222.742
40.64000 224.880
40.65000 226.719
40.66000 224.921
40.67000 222.048
40.68000 219.475
40.69000 220.543
40.70000 222.103
40.71000 223.725
40.72000 225.640
40.73000 227.591
40.74000 228.549
40.75000 226.429
40.76000 224.090
40.77000 222.483
40.78000 216.559
40.79000 212.011
40.80000 214.616
40.81000 227.512
40.82000 240.488
40.83000 240.140
40.84000 227.241
40.85000 214.446
40.86000 210.610
40.87000 212.337
40.88000 214.155
40.89000 218.155
40.90000 223.082
40.91000 227.561
40.92000 226.709
40.93000 224.310
40.94000 222.166
40.95000 218.609
40.96000 215.271
40.97000 212.448
40.98000 211.957
40.99000 211.751
41.00000 212.078
41.01000 214.030
41.02000 216.094
41.03000 217.503
41.04000 224.296
41.05000 229.501
41.06000 230.671
41.07000 226.137
41.08000 221.563
41.09000 217.254
41.10000 213.191
41.11000 209.163
41.12000 211.444
41.13000 217.478
41.14000 223.223
41.15000 222.290
41.16000 218.564
41.17000 215.194
41.18000 215.939
41.19000 217.858
41.20000 219.567
41.21000 217.295
41.22000 214.664
41.23000 212.917
41.24000 215.106
41.25000 217.765
41.26000 219.480
41.27000 218.365
41.28000 217.059
41.29000 216.173
41.30000 214.283
41.31000 212.850
41.32000 212.789
41.33000 214.630
41.34000 216.482
41.35000 216.605
41.36000 215.162
41.37000 213.732
41.38000 209.988
41.39000 204.954
41.40000 200.118
41.41000 199.688
41.42000 201.069
41.43000 202.753
41.44000 207.846
41.45000 213.896
41.46000 219.271
41.47000 214.281
41.48000 208.277
41.49000 204.594
41.50000 211.040
41.51000 218.668
41.52000 223.499
41.53000 220.093
41.54000 216.150
41.55000 213.490
41.56000 214.008
41.57000 214.461
41.58000 213.915
41.59000 212.010
41.60000 210.097
41.61000 208.456
41.62000 207.055
41.63000 205.668
41.64000 205.714
41.65000 206.588
41.66000 207.469
41.67000 208.499
41.68000 209.590
41.69000 210.765
41.70000 212.869
41.71000 215.228
41.72000 217.319
41.73000 214.976
41.74000 212.248
41.75000 210.408
41.76000 212.372
41.77000 214.769
41.78000 217.272
41.79000 220.078
41.80000 222.903
41.81000 224.797
41.82000 220.997
41.83000 218.063
41.84000 216.044
41.85000 215.248
41.86000 214.462
41.87000 216.014
41.88000 219.604
41.89000 223.155
41.90000 221.744
41.91000 217.544
41.92000 213.496
41.93000 212.612
41.94000 212.984
41.95000 213.341
41.96000 213.542
41.97000 213.700
41.98000 213.840
41.99000 218.565
42.00000 223.356
42.01000 226.840
42.02000 224.831
42.03000 222.210
42.04000 219.615
42.05000 217.093
42.06000 214.576
42.07000 212.899
42.08000 217.890
42.09000 221.712
42.10000 225.573
42.11000 229.483
42.12000 233.388
42.13000 233.420
42.14000 230.142
42.15000 226.902
42.16000 227.851
42.17000 231.115
42.18000 234.094
42.19000 231.392
42.20000 226.472
42.21000 222.070
42.22000 223.080
42.23000 225.527
42.24000 227.684
42.25000 227.180
42.26000 226.343
42.27000 225.511
42.28000 224.701
42.29000 223.892
42.30000 223.009
42.31000 221.917
42.32000 220.813
42.33000 220.082
42.34000 233.269
42.35000 243.258
42.36000 246.233
42.37000 240.165
42.38000 234.070
42.39000 232.179
42.40000 233.815
42.41000 235.431
42.42000 232.967
42.43000 228.333
42.44000 223.726
42.45000 219.653
42.46000 215.786
42.47000 212.312
42.48000 212.846
42.49000 214.427
42.50000 215.816
42.51000 212.738
42.52000 209.430
42.53000 207.893
42.54000 213.541
42.55000 219.951
42.56000 223.285
42.57000 218.157
42.58000 212.542
42.59000 208.847
42.60000 213.454
42.61000 216.989
42.62000 216.243
42.63000 210.077
42.64000 203.907
42.65000 203.576
42.66000 208.051
42.67000 212.467
42.68000 214.130
42.69000 214.268
42.70000 214.343
42.71000 213.213
42.72000 211.628
42.73000 210.484
42.74000 213.713
42.75000 218.063
42.76000 221.876
42.77000 221.369
42.78000 220.310
42.79000 218.162
42.80000 211.676
42.81000 204.741
42.82000 200.666
42.83000 204.324
42.84000 208.414
42.85000 211.088
42.86000 210.945
42.87000 210.794
42.88000 212.453
42.89000 216.358
42.90000 220.262
42.91000 221.479
42.92000 220.526
42.93000 219.586
42.94000 216.453
42.95000 212.252
42.96000 208.016
42.97000 203.147
42.98000 198.043
42.99000 193.539
43.00000 194.850
43.01000 197.623
43.02000 200.048
43.03000 200.621
43.04000 200.850
43.05000 201.430
43.06000 203.385
43.07000 205.479
43.08000 206.295
43.09000 203.715
43.10000 200.952
43.11000 199.157
43.12000 198.027
43.13000 197.208
43.14000 197.394
43.15000 198.802
43.16000 200.214
43.17000 201.702
43.18000 203.251
43.19000 204.776
43.20000 206.146
43.21000 207.395
43.22000 208.724
43.23000 211.441
43.24000 214.665
43.25000 216.721
43.26000 207.750
43.27000 196.052
43.28000 185.858
43.29000 193.771
43.30000 203.039
43.31000 209.243
43.32000 203.670
43.33000 196.934
43.34000 192.463
43.35000 193.908
43.36000 195.661
43.37000 196.793
43.38000 198.086
43.39000 199.033
43.40000 198.975
43.41000 197.713
43.42000 196.453
43.43000 196.211
43.44000 196.761
43.45000 197.302
43.46000 197.446
43.47000 197.382
43.48000 197.251
43.49000 195.979
43.50000 194.298
43.51000 193.108
43.52000 196.449
43.53000 200.891
43.54000 204.749
43.55000 200.056
43.56000 194.898
43.57000 191.760
43.58000 196.252
43.59000 201.478
43.60000 205.025
43.61000 204.262
43.62000 203.282
43.63000 202.653
43.64000 195.236
43.65000 189.739
43.66000 188.080
43.67000 190.924
43.68000 193.771
43.69000 195.800
43.70000 197.205
43.71000 198.586
43.72000 199.750
43.73000 200.768
43.74000 201.684
43.75000 200.940
43.76000 199.610
43.77000 198.541
43.78000 199.816
43.79000 201.650
43.80000 203.239
43.81000 197.621
43.82000 191.887
43.83000 189.713
43.84000 200.738
43.85000 213.001
43.86000 218.437
43.87000 206.637
43.88000 193.999
43.89000 185.951
43.90000 193.268
43.91000 198.781
43.92000 201.966
43.93000 202.471
43.94000 202.952
43.95000 199.437
43.96000 192.927
43.97000 186.531
43.98000 187.613
43.99000 192.316
44.00000 196.828
44.01000 198.301
44.02000 198.722
44.03000 199.058
44.04000 198.650
44.05000 198.067
44.06000 197.564
44.07000 199.219
44.08000 200.903
44.09000 203.069
44.10000 206.991
44.11000 211.073
44.12000 211.990
44.13000 205.055
44.14000 197.750
44.15000 193.130
44.16000 194.900
44.17000 196.258
44.18000 199.138
44.19000 203.734
44.20000 208.316
44.21000 209.960
44.22000 209.443
44.23000 208.934
44.24000 208.186
44.25000 207.349
44.26000 206.615
44.27000 207.465
44.28000 208.854
44.29000 209.804
44.30000 206.988
44.31000 203.305
44.32000 200.135
44.33000 201.191
44.34000 202.619
44.35000 204.253
44.36000 206.622
44.37000 209.056
44.38000 209.319
44.39000 204.283
44.40000 199.007
44.41000 195.692
44.42000 199.288
44.43000 201.965
44.44000 203.509
44.45000 203.799
44.46000 204.100
44.47000 206.113
44.48000 209.364
44.49000 212.551
44.50000 211.685
44.51000 208.941
44.52000 206.511
44.53000 208.776
44.54000 212.612
44.55000 216.031
44.56000 215.948
44.57000 215.075
44.58000 214.326
44.59000 217.993
44.60000 221.638
44.61000 223.510
44.62000 219.153
44.63000 214.254
44.64000 211.328
44.65000 213.134
44.66000 215.147
44.67000 216.402
44.68000 226.932
44.69000 234.619
44.70000 237.035
44.71000 233.725
44.72000 230.423
44.73000 228.623
44.74000 227.890
44.75000 227.171
44.76000 228.681
44.77000 231.162
44.78000 233.610
44.79000 235.565
44.80000 237.358
44.81000 239.007
44.82000 239.468
44.83000 239.666
44.84000 239.836
44.85000 237.320
44.86000 234.875
44.87000 233.264
44.88000 234.539
44.89000 236.058
44.90000 236.634
44.91000 234.985
44.92000 233.243
44.93000 232.163
44.94000 241.986
44.95000 249.153
44.96000 248.382
44.97000 239.155
44.98000 229.993
44.99000 229.452
45.00000 234.919
45.01000 240.269
45.02000 241.670
45.03000 241.224
45.04000 240.699
45.05000 239.076
45.06000 237.097
45.07000 235.324
45.08000 235.206
45.09000 235.447
45.10000 235.652
45.11000 239.395
45.12000 242.961
45.13000 243.432
45.14000 233.400
45.15000 222.502
45.16000 216.779
45.17000 223.048
45.18000 229.801
45.19000 233.954
45.20000 232.230
45.21000 230.941
45.22000 228.931
45.23000 226.167
45.24000 223.419
45.25000 222.638
45.26000 223.201
45.27000 223.752
45.28000 226.147
45.29000 229.265
45.30000 231.953
45.31000 228.765
45.32000 223.710
45.33000 219.642
45.34000 223.316
45.35000 228.643
45.36000 233.171
45.37000 227.645
45.38000 221.848
45.39000 216.557
45.40000 212.950
45.41000 209.478
45.42000 207.205
45.43000 207.660
45.44000 208.222
45.45000 208.564
45.46000 208.421
45.47000 208.315
45.48000 205.873
45.49000 201.041
45.50000 196.259
45.51000 196.760
45.52000 200.812
45.53000 204.767
45.54000 204.898
45.55000 203.351
45.56000 201.852
45.57000 200.991
45.58000 200.329
45.59000 199.370
45.60000 196.125
45.61000 192.401
45.62000 189.245
45.63000 188.843
45.64000 188.815
45.65000 188.598
45.66000 187.761
45.67000 186.875
45.68000 185.505
45.69000 183.049
45.70000 180.552
45.71000 179.039
45.72000 180.677
45.73000 181.868
45.74000 183.191
45.75000 184.644
45.76000 186.108
45.77000 188.681
45.78000 191.987
45.79000 195.210
45.80000 196.172
45.81000 196.121
45.82000 195.991
45.83000 194.837
45.84000 193.369
45.85000 191.539
45.86000 186.995
45.87000 181.893
45.88000 177.584
45.89000 183.569
45.90000 189.701
45.91000 192.730
45.92000 185.761
45.93000 178.034
45.94000 174.111
45.95000 178.560
45.96000 183.309
45.97000 186.166
45.98000 187.448
45.99000 188.349
46.00000 190.712
46.01000 194.512
46.02000 198.250
46.03000 196.437
46.04000 191.025
46.05000 185.752
46.06000 181.794
46.07000 178.572
46.08000 175.539
46.09000 174.879
46.10000 174.935
46.11000 175.255
46.12000 177.513
46.13000 180.162
46.14000 182.392
46.15000 184.264
46.16000 185.787
46.17000 186.013
46.18000 182.129
46.19000 177.943
46.20000 175.180
46.21000 175.500
46.22000 175.925
46.23000 176.179
46.24000 177.642
46.25000 178.687
46.26000 180.341
46.27000 182.581
46.28000 184.809
46.29000 186.074
46.30000 186.725
46.31000 187.359
46.32000 185.483
46.33000 182.661
46.34000 180.364
46.35000 184.486
46.36000 190.509
46.37000 195.729
46.38000 195.173
46.39000 193.475
46.40000 192.050
46.41000 186.837
46.42000 182.102
46.43000 178.674
46.44000 179.310
46.45000 180.237
46.46000 181.212
46.47000 182.290
46.48000 183.372
46.49000 184.013
46.50000 185.335
46.51000 186.274
46.52000 185.067
46.53000 181.834
46.54000 178.652
46.55000 179.513
46.56000 182.903
46.57000 186.198
46.58000 187.573
46.59000 188.101
46.60000 188.507
46.61000 187.464
46.62000 185.999
46.63000 184.616
46.64000 183.816
46.65000 183.129
46.66000 182.554
46.67000 184.908
46.68000 187.162
46.69000 188.502
46.70000 187.049
46.71000 185.402
46.72000 182.807
46.73000 178.231
46.74000 173.592
46.75000 170.864
46.76000 184.725
46.77000 194.582
46.78000 194.953
46.79000 186.536
46.80000 178.159
46.81000 172.655
46.82000 168.916
46.83000 165.288
46.84000 163.190
46.85000 161.809
46.86000 160.970
46.87000 166.421
46.88000 173.672
46.89000 179.672
46.90000 177.048
46.91000 172.783
46.92000 169.230
46.93000 170.664
46.94000 172.347
46.95000 172.754
46.96000 169.326
46.97000 165.638
46.98000 164.115
46.99000 167.040
47.00000 170.099
47.01000 171.884
47.02000 172.993
47.03000 173.768
47.04000 172.036
47.05000 168.026
47.06000 164.072
47.07000 163.816
47.08000 165.795
47.09000 167.713
47.10000 166.266
47.11000 163.583
47.12000 161.330
47.13000 163.952
47.14000 167.944
47.15000 171.476
47.16000 171.909
47.17000 171.763
47.18000 171.642
47.19000 170.355
47.20000 169.178
47.21000 168.616
47.22000 169.872
47.23000 171.247
47.24000 172.706
47.25000 174.337
47.26000 175.973
47.27000 176.919
47.28000 173.676
47.29000 171.385
47.30000 169.660
47.31000 168.442
47.32000 167.211
47.33000 165.212
47.34000 162.757
47.35000 160.381
47.36000 162.292
47.37000 165.741
47.38000 169.114
47.39000 171.664
47.40000 173.986
47.41000 176.404
47.42000 179.459
47.43000 182.631
47.44000 185.254
47.45000 178.721
47.46000 172.467
47.47000 166.247
47.48000 160.121
47.49000 154.001
47.50000 151.241
47.51000 155.152
47.52000 159.245
47.53000 161.595
47.54000 161.055
47.55000 160.667
47.56000 160.600
47.57000 160.815
47.58000 161.026
47.59000 161.028
47.60000 160.908
47.61000 160.793
47.62000 162.584
47.63000 164.991
47.64000 167.295
47.65000 168.485
47.66000 169.374
47.67000 169.874
47.68000 167.863
47.69000 165.401
47.70000 163.372
47.71000 162.263
47.72000 161.435
47.73000 160.518
47.74000 159.346
47.75000 158.157
47.76000 157.706
47.77000 158.694
47.78000 159.719
47.79000 160.303
47.80000 162.910
47.81000 164.731
47.82000 164.856
47.83000 163.526
47.84000 162.184
47.85000 160.156
47.86000 157.735
47.87000 155.397
47.88000 154.497
47.89000 154.179
47.90000 154.114
47.91000 156.688
47.92000 159.966
47.93000 162.566
47.94000 160.869
47.95000 158.416
47.96000 156.400
47.97000 158.036
47.98000 159.706
47.99000 162.014
48.00000 166.110
48.01000 170.313
48.02000 170.765
48.03000 164.022
48.04000 157.102
48.05000 153.193
48.06000 158.970
48.07000 163.006
48.08000 163.509
48.09000 161.042
48.10000 158.637
48.11000 159.478
48.12000 162.148
48.13000 164.722
48.14000 166.292
48.15000 167.403
48.16000 168.333
48.17000 167.410
48.18000 166.003
48.19000 164.738
48.20000 164.361
48.21000 164.139
48.22000 163.956
48.23000 166.490
48.24000 168.802
48.25000 170.675
48.26000 171.334
48.27000 171.922
48.28000 170.674
48.29000 165.964
48.30000 161.173
48.31000 158.489
48.32000 155.345
48.33000 153.177
48.34000 156.071
48.35000 163.143
48.36000 170.115
48.37000 172.186
48.38000 171.543
48.39000 170.925
48.40000 165.368
48.41000 158.399
48.42000 151.985
48.43000 151.097
48.44000 151.629
48.45000 152.562
48.46000 155.943
48.47000 159.738
48.48000 162.832
48.49000 163.653
48.50000 164.130
48.51000 164.278
48.52000 163.531
48.53000 162.734
48.54000 162.434
48.55000 163.057
48.56000 163.700
48.57000 164.058
48.58000 155.541
48.59000 149.647
48.60000 146.837
48.61000 146.526
48.62000 146.298
48.63000 149.874
48.64000 155.521
48.65000 160.950
48.66000 165.345
48.67000 169.102
48.68000 172.123
48.69000 167.995
48.70000 162.063
48.71000 156.562
48.72000 153.639
48.73000 151.144
48.74000 149.117
48.75000 151.293
48.76000 153.415
48.77000 155.741
48.78000 158.609
48.79000 161.506
48.80000 161.508
48.81000 156.239
48.82000 150.860
48.83000 147.898
48.84000 151.886
48.85000 154.649
48.86000 158.282
48.87000 162.608
48.88000 166.900
48.89000 169.719
48.90000 171.751
48.91000 173.702
48.92000 171.217
48.93000 167.376
48.94000 163.722
48.95000 161.845
48.96000 160.408
48.97000 158.735
48.98000 155.682
48.99000 152.406
49.00000 149.755
49.01000 157.448
49.02000 164.543
49.03000 169.123
49.04000 167.120
49.05000 164.771
49.06000 162.282
49.07000 159.539
49.08000 156.792
49.09000 155.292
49.10000 157.897
49.11000 159.697
49.12000 162.750
49.13000 166.780
49.14000 170.665
49.15000 168.498
49.16000 163.151
49.17000 158.026
49.18000 157.053
49.19000 157.539
49.20000 158.329
49.21000 161.940
49.22000 166.237
49.23000 169.765
49.24000 168.875
49.25000 167.283
49.26000 166.000
49.27000 163.258
49.28000 160.916
49.29000 159.324
49.30000 159.661
49.31000 160.096
49.32000 159.494
49.33000 157.069
49.34000 154.611
49.35000 153.281
49.36000 155.958
49.37000 157.801
49.38000 160.833
49.39000 164.775
49.40000 168.533
49.41000 164.991
49.42000 157.679
49.43000 150.682
49.44000 151.683
49.45000 155.248
49.46000 158.389
49.47000 157.703
49.48000 156.102
49.49000 155.202
49.50000 158.251
49.51000 161.914
49.52000 164.855
49.53000 161.653
49.54000 158.591
49.55000 156.817
49.56000 158.307
49.57000 159.955
49.58000 161.545
49.59000 163.034
49.60000 164.521
49.61000 165.318
49.62000 160.673
49.63000 157.495
49.64000 153.839
49.65000 149.825
49.66000 145.978
49.67000 148.366
49.68000 153.921
49.69000 159.228
49.70000 160.482
49.71000 160.338
49.72000 160.454
49.73000 162.868
49.74000 165.822
49.75000 167.624
49.76000 163.078
49.77000 157.564
49.78000 153.155
49.79000 153.373
49.80000 153.894
49.81000 153.924
49.82000 152.738
49.83000 151.494
49.84000 150.712
49.85000 150.712
49.86000 150.726
49.87000 150.733
49.88000 153.486
49.89000 155.346
49.90000 154.667
49.91000 152.113
49.92000 149.645
49.93000 150.241
49.94000 152.365
49.95000 154.392
49.96000 154.831
49.97000 154.736
49.98000 154.611
49.99000 154.227
50.00000 153.783
50.01000 153.950
50.02000 157.419
50.03000 161.381
50.04000 164.536
50.05000 160.338
50.06000 156.422
50.07000 154.206
50.08000 156.144
50.09000 158.272
50.10000 158.615
50.11000 155.981
50.12000 153.301
50.13000 151.891
50.14000 161.730
50.15000 168.353
50.16000 166.095
50.17000 157.400
50.18000 148.944
50.19000 148.608
50.20000 152.256
50.21000 155.730
50.22000 161.471
50.23000 167.495
50.24000 172.505
50.25000 168.973
50.26000 163.508
50.27000 158.848
50.28000 158.450
50.29000 158.676
50.30000 158.855
50.31000 160.068
50.32000 161.117
50.33000 160.537
50.34000 156.042
50.35000 151.374
50.36000 150.248
50.37000 154.927
50.38000 159.691
50.39000 162.174
50.40000 161.752
50.41000 161.475
50.42000 162.453
50.43000 164.325
50.44000 166.252
50.45000 169.950
50.46000 174.504
50.47000 178.834
50.48000 175.096
50.49000 169.181
50.50000 164.029
50.51000 165.165
50.52000 167.697
50.53000 169.663
50.54000 168.680
50.55000 167.274
50.56000 166.164
50.57000 166.419
50.58000 166.716
50.59000 168.517
50.60000 173.871
50.61000 179.374
50.62000 183.103
50.63000 183.973
50.64000 184.806
50.65000 185.235
50.66000 184.324
50.67000 183.656
50.68000 175.993
50.69000 163.441
50.70000 151.429
50.71000 156.183
50.72000 168.884
50.73000 180.941
50.74000 181.939
50.75000 179.552
50.76000 177.116
50.77000 174.277
50.78000 171.351
50.79000 168.610
50.80000 166.811
50.81000 165.145
50.82000 163.835
50.83000 170.866
50.84000 177.049
50.85000 179.103
50.86000 171.570
50.87000 163.647
50.88000 158.112
50.89000 156.356
50.90000 154.647
50.91000 153.772
50.92000 154.992
50.93000 155.830
50.94000 158.868
50.95000 163.416
50.96000 167.817
50.97000 167.859
50.98000 165.870
50.99000 163.985
51.00000 160.323
51.01000 156.429
51.02000 152.934
51.03000 152.580
51.04000 152.898
51.05000 153.212
51.06000 153.501
51.07000 153.788
51.08000 154.012
51.09000 153.286
51.10000 152.645
51.11000 152.808
51.12000 154.807
51.13000 156.878
51.14000 157.741
51.15000 156.728
51.16000 155.692
51.17000 155.168
51.18000 153.510
51.19000 152.397
51.20000 150.985
51.21000 149.374
51.22000 147.797
51.23000 147.229
51.24000 147.122
51.25000 147.022
51.26000 147.577
51.27000 148.277
51.28000 149.504
51.29000 154.787
51.30000 160.922
51.31000 164.902
51.32000 158.308
51.33000 150.291
51.34000 144.039
51.35000 149.373
51.36000 154.347
51.37000 155.845
51.38000 149.539
51.39000 142.941
51.40000 141.444
51.41000 147.735
51.42000 154.109
51.43000 157.305
51.44000 146.312
51.45000 139.036
51.46000 137.785
51.47000 140.524
51.48000 143.283
51.49000 146.607
51.50000 150.185
51.51000 153.565
51.52000 154.448
51.53000 154.554
51.54000 154.583
51.55000 154.033
51.56000 153.364
51.57000 152.317
51.58000 149.455
51.59000 146.353
51.60000 143.944
51.61000 147.347
51.62000 150.404
51.63000 152.457
51.64000 152.293
51.65000 152.050
51.66000 148.756
51.67000 140.886
51.68000 132.971
51.69000 133.792
51.70000 143.227
51.71000 152.584
51.72000 154.961
51.73000 152.799
51.74000 150.715
51.75000 150.673
51.76000 151.535
51.77000 152.348
51.78000 148.635
51.79000 143.982
51.80000 139.582
51.81000 137.040
51.82000 134.873
51.83000 133.534
51.84000 136.106
51.85000 139.181
51.86000 141.558
51.87000 142.176
51.88000 142.562
51.89000 142.581
51.90000 141.802
51.91000 140.995
51.92000 142.016
51.93000 145.731
51.94000 149.470
51.95000 149.263
51.96000 145.242
51.97000 141.267
51.98000 141.110
51.99000 143.394
52.00000 145.542
52.01000 144.294
52.02000 141.568
52.03000 139.002
52.04000 139.370
52.05000 140.501
52.06000 141.346
52.07000 140.117
52.08000 138.477
52.09000 137.504
52.10000 139.627
52.11000 142.138
52.12000 144.071
52.13000 145.706
52.14000 146.983
52.15000 147.204
52.16000 145.171
52.17000 143.064
52.18000 142.952
52.19000 145.727
52.20000 148.525
52.21000 146.510
52.22000 139.935
52.23000 133.434
52.24000 132.743
52.25000 135.699
52.26000 138.603
52.27000 140.288
52.28000 141.451
52.29000 142.543
52.30000 144.482
52.31000 146.476
52.32000 148.186
52.33000 147.882
52.34000 147.188
52.35000 146.574
52.36000 146.334
52.37000 146.138
52.38000 145.989
52.39000 146.056
52.40000 146.121
52.41000 144.798
52.42000 140.567
52.43000 136.244
52.44000 136.390
52.45000 142.889
52.46000 149.433
52.47000 148.992
52.48000 142.064
52.49000 135.235
52.50000 135.489
52.51000 140.112
52.52000 144.679
52.53000 147.960
52.54000 150.701
52.55000 153.270
52.56000 151.317
52.57000 148.358
52.58000 145.677
52.59000 144.913
52.60000 144.515
52.61000 143.657
52.62000 140.740
52.63000 137.575
52.64000 135.161
52.65000 134.124
52.66000 133.382
52.67000 133.778
52.68000 136.520
52.69000 139.334
52.70000 141.209
52.71000 141.775
52.72000 142.332
52.73000 146.246
52.74000 153.212
52.75000 160.036
52.76000 157.285
52.77000 148.734
52.78000 140.475
52.79000 138.794
52.80000 139.830
52.81000 140.799
52.82000 138.736
52.83000 136.085
52.84000 134.308
52.85000 138.454
52.86000 143.708
52.87000 148.019
52.88000 148.190
52.89000 147.875
52.90000 147.636
52.91000 144.754
52.92000 142.352
52.93000 139.938
52.94000 137.500
52.95000 135.061
52.96000 135.588
52.97000 140.177
52.98000 144.788
52.99000 148.680
53.00000 151.925
53.01000 155.118
53.02000 155.026
53.03000 152.978
53.04000 150.673
53.05000 142.795
53.06000 132.652
53.07000 123.181
53.08000 127.399
53.09000 134.659
53.10000 141.080
53.11000 141.943
53.12000 141.785
53.13000 142.213
53.14000 145.167
53.15000 148.411
53.16000 150.862
53.17000 152.516
53.18000 153.773
53.19000 155.083
53.20000 156.499
53.21000 157.917
53.22000 157.458
53.23000 154.475
53.24000 151.480
53.25000 150.980
53.26000 152.662
53.27000 154.304
53.28000 153.562
53.29000 151.424
53.30000 149.368
53.31000 149.000
53.32000 149.307
53.33000 149.594
53.34000 153.129
53.35000 157.129
53.36000 160.130
53.37000 156.649
53.38000 152.001
53.39000 148.534
53.40000 150.066
53.41000 152.159
53.42000 153.734
53.43000 147.313
53.44000 141.902
53.45000 139.827
53.46000 144.278
53.47000 148.899
53.48000 151.949
53.49000 152.924
53.50000 153.889
53.51000 151.420
53.52000 146.010
53.53000 140.674
53.54000 139.495
53.55000 140.704
53.56000 141.815
53.57000 140.930
53.58000 139.262
53.59000 137.710
53.60000 140.195
53.61000 143.414
53.62000 145.471
53.63000 140.141
53.64000 133.508
53.65000 129.461
53.66000 136.157
53.67000 144.030
53.68000 149.925
53.69000 142.934
53.70000 136.876
53.71000 134.289
53.72000 138.379
53.73000 142.635
53.74000 145.209
53.75000 145.603
53.76000 145.988
53.77000 142.888
53.78000 136.863
53.79000 130.969
53.80000 131.858
53.81000 136.579
53.82000 141.053
53.83000 140.702
53.84000 138.489
53.85000 136.436
53.86000 135.471
53.87000 134.860
53.88000 134.059
53.89000 132.081
53.90000 129.899
53.91000 129.155
53.92000 134.277
53.93000 140.027
53.94000 144.311
53.95000 144.830
53.96000 145.063
53.97000 145.265
53.98000 145.407
53.99000 145.548
54.00000 144.070
54.01000 140.531
54.02000 136.990
54.03000 133.965
54.04000 131.374
54.05000 128.888
54.06000 131.536
54.07000 137.033
54.08000 142.295
54.09000 143.107
54.10000 142.231
54.11000 141.419
54.12000 142.556
54.13000 144.031
54.14000 145.177
54.15000 144.312
54.16000 143.106
54.17000 142.085
54.18000 141.808
54.19000 141.609
54.20000 141.460
54.21000 140.582
54.22000 139.868
54.23000 139.686
54.24000 140.492
54.25000 141.320
54.26000 140.871
54.27000 138.828
54.28000 136.783
54.29000 137.219
54.30000 139.659
54.31000 142.022
54.32000 140.771
54.33000 137.549
54.34000 134.542
54.35000 135.456
54.36000 137.833
54.37000 140.029
54.38000 139.153
54.39000 137.668
54.40000 136.600
54.41000 138.023
54.42000 139.861
54.43000 141.042
54.44000 139.643
54.45000 137.981
54.46000 136.755
54.47000 138.477
54.48000 139.936
54.49000 139.963
54.50000 137.377
54.51000 134.735
54.52000 134.239
54.53000 136.371
54.54000 138.506
54.55000 139.048
54.56000 138.323
54.57000 137.648
54.58000 139.137
54.59000 141.786
54.60000 144.338
54.61000 145.166
54.62000 145.364
54.63000 145.546
54.64000 143.991
54.65000 142.211
54.66000 141.125
54.67000 144.112
54.68000 147.763
54.69000 149.838
54.70000 145.822
54.71000 141.201
54.72000 137.807
54.73000 139.040
54.74000 140.182
54.75000 140.745
54.76000 140.271
54.77000 139.776
54.78000 141.059
54.79000 144.480
54.80000 147.899
54.81000 148.599
54.82000 147.181
54.83000 145.820
54.84000 146.897
54.85000 149.259
54.86000 151.307
54.87000 148.016
54.88000 142.800
54.89000 138.000
54.90000 137.457
54.91000 137.900
54.92000 138.680
54.93000 141.397
54.94000 144.422
54.95000 146.453
54.96000 144.708
54.97000 142.598
54.98000 141.056
54.99000 142.021
55.00000 142.864
55.01000 143.849
55.02000 145.088
55.03000 146.331
55.04000 146.481
55.05000 145.340
55.06000 144.200
55.07000 146.046
55.08000 150.161
55.09000 154.208
55.10000 155.525
55.11000 155.428
55.12000 155.302
55.13000 154.685
55.14000 153.893
55.15000 153.167
55.16000 151.356
55.17000 149.509
55.18000 148.031
55.19000 148.627
55.20000 149.547
55.21000 150.533
55.22000 151.762
55.23000 153.014
55.24000 153.923
55.25000 156.371
55.26000 158.311
55.27000 159.889
55.28000 160.836
55.29000 161.771
55.30000 161.657
55.31000 160.328
55.32000 159.000
55.33000 159.621
55.34000 161.695
55.35000 163.734
55.36000 164.454
55.37000 164.501
55.38000 164.616
55.39000 165.814
55.40000 167.390
55.41000 168.833
55.42000 171.869
55.43000 174.905
55.44000 177.384
55.45000 176.788
55.46000 175.720
55.47000 176.472
55.48000 183.887
55.49000 191.917
55.50000 197.724
55.51000 201.456
55.52000 204.245
55.53000 205.904
55.54000 205.640
55.55000 205.344
55.56000 205.390
55.57000 205.823
55.58000 206.256
55.59000 209.826
55.60000 215.672
55.61000 221.423
55.62000 223.775
55.63000 224.425
55.64000 225.500
55.65000 233.189
55.66000 243.140
55.67000 252.238
55.68000 255.718
55.69000 257.656
55.70000 259.570
55.71000 261.349
55.72000 263.108
55.73000 265.653
55.74000 271.027
55.75000 276.655
55.76000 280.704
55.77000 279.109
55.78000 277.690
55.79000 276.967
55.80000 277.407
55.81000 277.866
55.82000 277.191
55.83000 275.253
55.84000 273.320
55.85000 275.516
55.86000 280.666
55.87000 285.813
55.88000 290.836
55.89000 295.798
55.90000 300.405
55.91000 299.652
55.92000 297.095
55.93000 294.764
55.94000 293.610
55.95000 292.823
55.96000 292.779
55.97000 296.680
55.98000 301.160
55.99000 303.860
56.00000 300.272
56.01000 296.134
56.02000 293.172
56.03000 286.986
56.04000 282.154
56.05000 277.229
56.06000 272.154
56.07000 267.077
56.08000 263.390
56.09000 261.220
56.10000 259.060
56.11000 254.097
56.12000 247.199
56.13000 240.370
56.14000 235.757
56.15000 232.214
56.16000 228.674
56.17000 225.180
56.18000 221.700
56.19000 218.533
56.20000 212.493
56.21000 206.582
56.22000 201.171
56.23000 198.365
56.24000 195.934
56.25000 194.618
56.26000 197.171
56.27000 200.055
56.28000 202.107
56.29000 198.021
56.30000 194.711
56.31000 188.371
56.32000 177.138
56.33000 165.838
56.34000 165.970
56.35000 178.346
56.36000 190.671
56.37000 190.434
56.38000 181.491
56.39000 172.665
56.40000 167.512
56.41000 164.103
56.42000 161.008
56.43000 162.356
56.44000 165.147
56.45000 167.681
56.46000 165.224
56.47000 162.092
56.48000 159.069
56.49000 156.603
56.50000 154.217
56.51000 152.396
56.52000 152.507
56.53000 152.779
56.54000 152.971
56.55000 148.913
56.56000 145.698
56.57000 142.532
56.58000 139.444
56.59000 136.357
56.60000 137.500
56.61000 143.087
56.62000 148.648
56.63000 152.170
56.64000 154.266
56.65000 156.194
56.66000 153.116
56.67000 147.699
56.68000 142.467
56.69000 139.789
56.70000 137.926
56.71000 136.238
56.72000 134.550
56.73000 133.063
56.74000 132.230
56.75000 134.688
56.76000 137.599
56.77000 139.786
56.78000 139.545
56.79000 139.108
56.80000 138.801
56.81000 141.360
56.82000 143.385
56.83000 144.383
56.84000 143.781
56.85000 143.160
56.86000 141.186
56.87000 137.818
56.88000 134.468
56.89000 135.775
56.90000 140.172
56.91000 144.374
56.92000 142.962
56.93000 138.971
56.94000 135.296
56.95000 135.843
56.96000 137.714
56.97000 139.406
56.98000 134.092
56.99000 128.122
57.00000 123.699
57.01000 126.893
57.02000 131.114
57.03000 134.552
57.04000 135.413
57.05000 136.070
57.06000 136.531
57.07000 131.296
57.08000 127.175
57.09000 123.844
57.10000 121.723
57.11000 119.615
57.12000 119.948
57.13000 122.743
57.14000 125.522
57.15000 127.953
57.16000 130.124
57.17000 132.181
57.18000 131.118
57.19000 128.647
57.20000 126.397
57.21000 127.019
57.22000 128.526
57.23000 129.885
57.24000 130.711
57.25000 131.339
57.26000 132.122
57.27000 133.650
57.28000 135.277
57.29000 135.340
57.30000 130.344
57.31000 124.961
57.32000 121.213
57.33000 127.134
57.34000 131.864
57.35000 133.495
57.36000 130.468
57.37000 127.395
57.38000 126.939
57.39000 129.073
57.40000 131.192
57.41000 133.765
57.42000 136.591
57.43000 139.259
57.44000 137.738
57.45000 134.359
57.46000 130.972
57.47000 127.472
57.48000 123.939
57.49000 120.763
57.50000 125.379
57.51000 130.804
57.52000 135.034
57.53000 133.600
57.54000 131.436
57.55000 129.696
57.56000 129.308
57.57000 129.020
57.58000 128.821
57.59000 123.133
57.60000 118.710
57.61000 118.948
57.62000 126.071
57.63000 133.256
57.64000 134.831
57.65000 130.968
57.66000 127.132
57.67000 125.713
57.68000 125.840
57.69000 125.899
57.70000 124.237
57.71000 121.824
57.72000 119.608
57.73000 119.820
57.74000 120.755
57.75000 121.594
57.76000 121.408
57.77000 121.066
57.78000 121.047
57.79000 122.527
57.80000 124.196
57.81000 125.485
57.82000 125.583
57.83000 125.595
57.84000 125.603
57.85000 125.518
57.86000 125.451
57.87000 125.355
57.88000 125.216
57.89000 125.077
57.90000 125.205
57.91000 125.588
57.92000 125.967
57.93000 123.799
57.94000 120.091
57.95000 116.592
57.96000 118.159
57.97000 121.897
57.98000 125.667
57.99000 129.823
58.00000 134.091
58.01000 137.909
58.02000 129.360
58.03000 119.801
58.04000 112.815
58.05000 117.580
58.06000 123.796
58.07000 128.029
58.08000 126.171
58.09000 123.886
58.10000 122.321
58.11000 122.471
58.12000 122.624
58.13000 124.314
58.14000 128.194
58.15000 132.090
58.16000 135.127
58.17000 137.366
58.18000 139.585
58.19000 133.689
58.20000 122.977
58.21000 112.691
58.22000 112.405
58.23000 116.333
58.24000 120.163
58.25000 122.854
58.26000 125.217
58.27000 127.325
58.28000 123.059
58.29000 118.286
58.30000 114.213
58.31000 113.277
58.32000 112.719
58.33000 113.343
58.34000 117.541
58.35000 121.982
58.36000 125.003
58.37000 124.732
58.38000 124.455
58.39000 124.582
58.40000 125.272
58.41000 125.965
58.42000 125.485
58.43000 123.932
58.44000 122.394
58.45000 121.398
58.46000 120.744
58.47000 120.236
58.48000 123.023
58.49000 127.175
58.50000 130.907
58.51000 129.845
58.52000 127.430
58.53000 125.280
58.54000 124.966
58.55000 124.991
58.56000 125.300
58.57000 126.852
58.58000 128.552
58.59000 128.845
58.60000 124.962
58.61000 120.804
58.62000 117.992
58.63000 120.418
58.64000 122.339
58.65000 121.933
58.66000 118.332
58.67000 114.713
58.68000 114.328
58.69000 116.840
58.70000 119.328
58.71000 118.786
58.72000 116.486
58.73000 114.310
58.74000 114.831
58.75000 116.450
58.76000 118.173
58.77000 121.038
58.78000 124.220
58.79000 127.044
58.80000 126.464
58.81000 125.418
58.82000 124.850
58.83000 126.345
58.84000 128.077
58.85000 128.390
58.86000 124.558
58.87000 120.461
58.88000 117.707
58.89000 119.621
58.90000 121.140
58.91000 120.740
58.92000 117.754
58.93000 114.758
58.94000 115.793
58.95000 120.371
58.96000 124.900
58.97000 124.974
58.98000 122.491
58.99000 120.186
59.00000 121.625
59.01000 124.564
59.02000 127.146
59.03000 125.874
59.04000 123.551
59.05000 121.496
59.06000 121.598
59.07000 122.024
59.08000 122.251
59.09000 121.636
59.10000 120.925
59.11000 120.680
59.12000 121.767
59.13000 122.937
59.14000 123.718
59.15000 125.816
59.16000 127.397
59.17000 126.609
59.18000 122.684
59.19000 118.746
59.20000 115.280
59.21000 112.223
59.22000 109.200
59.23000 109.985
59.24000 112.894
59.25000 115.582
59.26000 113.791
59.27000 110.238
59.28000 107.428
59.29000 112.461
59.30000 119.594
59.31000 125.889
59.32000 123.757
59.33000 120.631
59.34000 118.746
59.35000 122.033
59.36000 125.889
59.37000 128.121
59.38000 125.775
59.39000 123.154
59.40000 121.413
59.41000 126.050
59.42000 129.595
59.43000 131.138
59.44000 130.079
59.45000 129.008
59.46000 126.924
59.47000 123.985
59.48000 121.081
59.49000 121.116
59.50000 122.773
59.51000 124.422
59.52000 125.921
59.53000 127.361
59.54000 128.458
59.55000 126.032
59.56000 122.680
59.57000 119.730
59.58000 117.538
59.59000 115.763
59.60000 115.270
59.61000 120.012
59.62000 125.317
59.63000 128.855
59.64000 127.499
59.65000 125.856
59.66000 124.772
59.67000 125.654
59.68000 126.338
59.69000 125.463
59.70000 122.599
59.71000 119.730
59.72000 117.753
59.73000 116.516
59.74000 115.295
59.75000 114.226
59.76000 113.267
59.77000 112.472
59.78000 114.768
59.79000 118.241
59.80000 121.359
59.81000 120.928
59.82000 119.580
59.83000 118.397
59.84000 119.684
59.85000 121.150
59.86000 121.996
59.87000 120.348
59.88000 118.438
59.89000 118.073
59.90000 121.916
59.91000 125.997
59.92000 128.673
59.93000 126.771
59.94000 125.296
59.95000 123.084
59.96000 119.948
59.97000 116.816
59.98000 116.207
59.99000 117.654
60.00000 119.081
60.01000 116.418
60.02000 111.654
60.03000 107.250
60.04000 109.453
60.05000 114.124
60.06000 118.350
60.07000 118.215
60.08000 116.973
60.09000 115.886
60.10000 115.888
60.11000 116.045
60.12000 115.523
60.13000 112.319
60.14000 108.840
60.15000 107.315
60.16000 111.018
60.17000 115.008
60.18000 117.607
60.19000 118.730
60.20000 119.530
60.21000 120.367
60.22000 121.247
60.23000 122.129
60.24000 123.731
60.25000 125.908
60.26000 128.053
60.27000 126.012
60.28000 121.846
60.29000 117.857
60.30000 117.011
60.31000 117.319
60.32000 117.474
60.33000 116.156
60.34000 114.471
60.35000 113.002
60.36000 116.153
60.37000 119.495
60.38000 121.577
60.39000 118.777
60.40000 115.491
60.41000 114.542
60.42000 119.744
60.43000 125.272
60.44000 128.850
60.45000 122.999
60.46000 118.580
60.47000 115.972
60.48000 115.547
60.49000 115.131
60.50000 116.121
60.51000 118.213
60.52000 120.272
60.53000 118.993
60.54000 116.042
60.55000 113.254
60.56000 113.271
60.57000 114.301
60.58000 115.573
60.59000 119.115
60.60000 123.213
60.61000 126.777
60.62000 125.676
60.63000 124.098
60.64000 123.004
60.65000 123.752
60.66000 124.679
60.67000 125.934
60.68000 128.036
60.69000 130.181
60.70000 131.560
60.71000 124.265
60.72000 118.821
60.73000 115.803
60.74000 115.653
60.75000 115.515
60.76000 117.254
60.77000 120.437
60.78000 123.568
60.79000 124.729
60.80000 124.863
60.81000 124.819
60.82000 121.827
60.83000 117.789
60.84000 114.444
60.85000 117.421
60.86000 121.917
60.87000 125.817
60.88000 128.141
60.89000 129.908
60.90000 131.013
60.91000 129.639
60.92000 128.030
60.93000 126.055
60.94000 123.152
60.95000 120.202
60.96000 118.318
60.97000 121.763
60.98000 124.338
60.99000 126.377
61.00000 127.794
61.01000 129.201
61.02000 129.001
61.03000 127.586
61.04000 126.194
61.05000 128.443
61.06000 132.411
61.07000 136.042
61.08000 134.251
61.09000 130.567
61.10000 127.061
61.11000 125.146
61.12000 123.607
61.13000 122.275
61.14000 126.469
61.15000 130.755
61.16000 133.617
61.17000 131.255
61.18000 128.409
61.19000 126.715
61.20000 127.899
61.21000 129.220
61.22000 130.058
61.23000 127.220
61.24000 125.116
61.25000 125.262
61.26000 127.971
61.27000 130.676
61.28000 132.373
61.29000 133.319
61.30000 134.249
61.31000 132.860
61.32000 130.396
61.33000 127.795
61.34000 123.038
61.35000 117.542
61.36000 113.240
61.37000 119.312
61.38000 127.787
61.39000 135.094
61.40000 132.771
61.41000 129.572
61.42000 126.920
61.43000 126.241
61.44000 125.739
61.45000 128.143
61.46000 137.684
61.47000 147.554
61.48000 153.773
61.49000 156.410
61.50000 158.278
61.51000 164.825
61.52000 176.598
61.53000 188.369
61.54000 199.198
61.55000 209.342
61.56000 219.293
61.57000 228.913
61.58000 238.027
61.59000 247.167
61.60000 256.719
61.61000 266.410
61.62000 275.212
61.63000 276.473
61.64000 276.017
61.65000 275.626
61.66000 279.862
61.67000 284.024
61.68000 288.208
61.69000 292.476
61.70000 296.751
61.71000 297.143
61.72000 288.156
61.73000 278.754
61.74000 272.870
61.75000 257.082
61.76000 245.579
61.77000 233.001
61.78000 219.245
61.79000 205.502
61.80000 193.754
61.81000 183.434
61.82000 173.321
61.83000 167.726
61.84000 164.449
61.85000 160.900
61.86000 153.358
61.87000 144.492
61.88000 136.162
61.89000 132.281
61.90000 129.394
61.91000 126.919
61.92000 131.733
61.93000 136.684
61.94000 139.290
61.95000 133.730
61.96000 127.471
61.97000 124.294
61.98000 128.435
61.99000 132.889
62.00000 135.656
62.01000 133.136
62.02000 131.269
62.03000 130.120
62.04000 129.741
62.05000 129.360
62.06000 128.537
62.07000 127.405
62.08000 126.296
62.09000 126.692
62.10000 127.759
62.11000 129.040
62.12000 133.365
62.13000 138.680
62.14000 143.021
62.15000 139.458
62.16000 134.162
62.17000 129.639
62.18000 132.014
62.19000 134.835
62.20000 136.795
62.21000 135.810
62.22000 134.579
62.23000 133.904
62.24000 134.527
62.25000 135.202
62.26000 135.619
62.27000 135.450
62.28000 135.324
62.29000 133.157
62.30000 128.843
62.31000 124.583
62.32000 126.937
62.33000 133.854
62.34000 140.617
62.35000 138.790
62.36000 133.181
62.37000 127.921
62.38000 127.501
62.39000 128.629
62.40000 129.457
62.41000 127.908
62.42000 125.848
62.43000 124.094
62.44000 130.901
62.45000 137.616
62.46000 141.984
62.47000 138.462
62.48000 134.300
62.49000 131.515
62.50000 131.892
62.51000 132.393
62.52000 132.701
62.53000 133.020
62.54000 133.249
62.55000 135.839
62.56000 140.868
62.57000 145.846
62.58000 145.346
62.59000 141.133
62.60000 137.018
62.61000 135.622
62.62000 135.485
62.63000 135.257
62.64000 133.804
62.65000 131.966
62.66000 130.625
62.67000 133.137
62.68000 136.463
62.69000 139.285
62.70000 136.124
62.71000 132.794
62.72000 130.516
62.73000 131.710
62.74000 133.178
62.75000 134.130
62.76000 133.917
62.77000 133.659
62.78000 133.503
62.79000 130.674
62.80000 128.633
62.81000 128.542
62.82000 130.422
62.83000 132.300
62.84000 133.884
62.85000 135.272
62.86000 136.627
62.87000 135.870
62.88000 134.234
62.89000 132.739
62.90000 133.095
62.91000 134.023
62.92000 134.750
62.93000 133.952
62.94000 132.839
62.95000 131.896
62.96000 132.670
62.97000 133.508
62.98000 134.185
62.99000 134.336
63.00000 134.448
63.01000 134.792
63.02000 135.653
63.03000 136.532
63.04000 137.063
63.05000 134.925
63.06000 133.384
63.07000 133.633
63.08000 135.659
63.09000 137.688
63.10000 140.072
63.11000 142.687
63.12000 145.235
63.13000 143.829
63.14000 140.809
63.15000 137.902
63.16000 136.434
63.17000 135.403
63.18000 134.565
63.19000 135.163
63.20000 136.052
63.21000 136.801
63.22000 139.410
63.23000 141.789
63.24000 142.773
63.25000 139.310
63.26000 135.514
63.27000 133.711
63.28000 136.252
63.29000 138.944
63.30000 140.556
63.31000 140.315
63.32000 140.132
63.33000 141.049
63.34000 143.036
63.35000 144.969
63.36000 142.253
63.37000 136.552
63.38000 131.002
63.39000 129.846
63.40000 130.576
63.41000 131.338
63.42000 132.515
63.43000 133.816
63.44000 134.726
63.45000 132.801
63.46000 130.310
63.47000 128.217
63.48000 132.343
63.49000 136.436
63.50000 139.249
63.51000 138.051
63.52000 136.562
63.53000 135.800
63.54000 136.593
63.55000 137.438
63.56000 137.941
63.57000 136.833
63.58000 136.040
63.59000 137.222
63.60000 140.287
63.61000 143.303
63.62000 142.372
63.63000 138.952
63.64000 135.626
63.65000 135.834
63.66000 137.476
63.67000 139.151
63.68000 141.216
63.69000 143.395
63.70000 145.418
63.71000 146.329
63.72000 147.024
63.73000 147.605
63.74000 146.090
63.75000 144.614
63.76000 143.503
63.77000 143.511
63.78000 143.598
63.79000 143.764
63.80000 144.098
63.81000 144.438
63.82000 144.638
63.83000 144.320
63.84000 144.093
63.85000 144.502
63.86000 145.505
63.87000 146.493
63.88000 146.388
63.89000 145.604
63.90000 144.843
63.91000 147.426
63.92000 151.218
63.93000 154.632
63.94000 153.586
63.95000 151.255
63.96000 149.328
63.97000 150.208
63.98000 151.627
63.99000 152.811
64.00000 149.304
64.01000 145.925
64.02000 143.470
64.03000 143.810
64.04000 144.341
64.05000 145.672
64.06000 148.659
64.07000 151.697
64.08000 153.475
64.09000 148.487
64.10000 144.944
64.11000 145.865
64.12000 150.877
64.13000 155.801
64.14000 154.736
64.15000 150.024
64.16000 145.455
64.17000 146.652
64.18000 150.056
64.19000 153.181
64.20000 153.102
64.21000 152.116
64.22000 151.151
64.23000 150.328
64.24000 149.531
64.25000 148.869
64.26000 150.174
64.27000 151.447
64.28000 152.140
64.29000 151.107
64.30000 149.959
64.31000 150.844
64.32000 155.863
64.33000 161.003
64.34000 163.989
64.35000 162.463
64.36000 161.374
64.37000 162.094
64.38000 164.440
64.39000 166.750
64.40000 166.689
64.41000 165.210
64.42000 163.778
64.43000 157.405
64.44000 149.468
64.45000 142.731
64.46000 149.364
64.47000 159.716
64.48000 168.455
64.49000 166.429
64.50000 162.414
64.51000 159.088
64.52000 160.902
64.53000 162.890
64.54000 165.301
64.55000 168.951
64.56000 172.680
64.57000 173.610
64.58000 168.939
64.59000 164.112
64.60000 161.330
64.61000 170.211
64.62000 176.470
64.63000 178.980
64.64000 178.186
64.65000 177.376
64.66000 175.597
64.67000 173.249
64.68000 170.977
64.69000 170.692
64.70000 171.176
64.71000 171.698
64.72000 172.630
64.73000 173.674
64.74000 174.342
64.75000 172.553
64.76000 170.319
64.77000 168.475
64.78000 172.112
64.79000 175.618
64.80000 177.643
64.81000 175.413
64.82000 172.916
64.83000 172.022
64.84000 174.279
64.85000 176.619
64.86000 177.957
64.87000 179.878
64.88000 181.220
64.89000 182.104
64.90000 182.593
64.91000 183.037
64.92000 180.941
64.93000 177.378
64.94000 173.936
64.95000 180.765
64.96000 191.022
64.97000 200.439
64.98000 200.960
64.99000 199.093
65.00000 197.770
65.01000 199.928
65.02000 202.704
65.03000 204.987
65.04000 203.325
65.05000 201.600
65.06000 200.768
65.07000 202.455
65.08000 204.295
65.09000 205.547
65.10000 205.665
65.11000 205.754
65.12000 205.805
65.13000 201.140
65.14000 197.888
65.15000 199.514
65.16000 205.277
65.17000 211.046
65.18000 217.103
65.19000 223.322
65.20000 229.322
65.21000 227.676
65.22000 223.336
65.23000 219.266
65.24000 217.973
65.25000 217.413
65.26000 217.752
65.27000 223.727
65.28000 230.684
65.29000 236.385
65.30000 234.068
65.31000 231.460
65.32000 232.019
65.33000 241.376
65.34000 251.249
65.35000 259.780
65.36000 265.759
65.37000 271.678
65.38000 275.005
65.39000 268.102
65.40000 263.290
65.41000 260.207
65.42000 258.563
65.43000 257.048
65.44000 262.012
65.45000 270.591
65.46000 278.855
65.47000 282.630
65.48000 284.569
65.49000 286.919
65.50000 293.406
65.51000 300.966
65.52000 307.932
65.53000 311.250
65.54000 313.945
65.55000 316.146
65.56000 331.408
65.57000 345.019
65.58000 358.220
65.59000 370.298
65.60000 382.312
65.61000 397.420
65.62000 418.305
65.63000 439.321
65.64000 451.037
65.65000 512.233
65.66000 554.716
65.67000 610.929
65.68000 678.353
65.69000 746.495
65.70000 848.579
65.71000 969.272
65.72000 1085.375
65.73000 1216.401
65.74000 1344.497
65.75000 1469.592
65.76000 1565.208
65.77000 1653.324
65.78000 1737.590
65.79000 1798.680
65.80000 1855.894
65.81000 1902.434
65.82000 1933.181
65.83000 1956.960
65.84000 1977.458
65.85000 1989.153
65.86000 2000.363
65.87000 1996.953
65.88000 1966.717
65.89000 1935.903
65.90000 1918.873
65.91000 1807.468
65.92000 1730.401
65.93000 1637.924
65.94000 1533.099
65.95000 1427.759
65.96000 1299.448
65.97000 1158.760
65.98000 1023.620
65.99000 914.040
66.00000 820.297
66.01000 729.390
66.02000 665.677
66.03000 608.757
66.04000 553.401
66.05000 507.266
66.06000 462.642
66.07000 426.480
66.08000 415.433
66.09000 408.483
66.10000 403.239
66.11000 402.495
66.12000 401.990
66.13000 397.878
66.14000 387.259
66.15000 376.509
66.16000 370.618
66.17000 372.792
66.18000 374.296
66.19000 374.754
66.20000 374.388
66.21000 374.218
66.22000 382.338
66.23000 394.848
66.24000 406.846
66.25000 431.686
66.26000 459.235
66.27000 485.812
66.28000 503.297
66.29000 518.551
66.30000 533.611
66.31000 547.548
66.32000 561.305
66.33000 572.411
66.34000 602.294
66.35000 628.073
66.36000 645.478
66.37000 641.169
66.38000 635.744
66.39000 630.705
66.40000 626.350
66.41000 622.009
66.42000 619.651
66.43000 617.789
66.44000 616.493
66.45000 610.373
66.46000 600.528
66.47000 590.405
66.48000 569.058
66.49000 541.870
66.50000 515.832
66.51000 502.405
66.52000 494.070
66.53000 484.821
66.54000 467.218
66.55000 447.602
66.56000 428.543
66.57000 412.639
66.58000 397.232
66.59000 384.843
66.60000 381.544
66.61000 379.571
66.62000 375.960
66.63000 368.174
66.64000 360.180
66.65000 355.106
66.66000 355.118
66.67000 355.221
66.68000 355.277
66.69000 351.160
66.70000 348.353
66.71000 347.936
66.72000 349.330
66.73000 350.693
66.74000 350.841
66.75000 350.368
66.76000 349.916
66.77000 348.515
66.78000 346.902
66.79000 345.412
66.80000 345.020
66.81000 344.889
66.82000 345.009
66.83000 346.530
66.84000 348.266
66.85000 349.657
66.86000 350.264
66.87000 350.697
66.88000 353.214
66.89000 360.954
66.90000 368.944
66.91000 374.475
66.92000 375.799
66.93000 377.051
66.94000 377.719
66.95000 379.884
66.96000 381.347
66.97000 380.131
66.98000 376.922
66.99000 373.724
67.00000 370.937
67.01000 368.356
67.02000 365.892
67.03000 373.878
67.04000 384.635
67.05000 393.751
67.06000 388.555
67.07000 380.035
67.08000 373.414
67.09000 377.148
67.10000 382.444
67.11000 386.669
67.12000 390.393
67.13000 393.363
67.14000 395.155
67.15000 394.049
67.16000 392.809
67.17000 395.115
67.18000 403.385
67.19000 411.750
67.20000 416.171
67.21000 402.148
67.22000 392.660
67.23000 390.960
67.24000 394.951
67.25000 398.912
67.26000 401.833
67.27000 404.241
67.28000 406.535
67.29000 406.454
67.30000 405.634
67.31000 405.269
67.32000 408.780
67.33000 413.175
67.34000 416.243
67.35000 412.220
67.36000 407.149
67.37000 403.120
67.38000 413.522
67.39000 422.924
67.40000 430.006
67.41000 431.468
67.42000 432.680
67.43000 431.220
67.44000 425.345
67.45000 419.404
67.46000 416.293
67.47000 421.841
67.48000 425.589
67.49000 427.617
67.50000 428.410
67.51000 429.426
67.52000 437.856
67.53000 449.887
67.54000 461.335
67.55000 455.850
67.56000 445.569
67.57000 436.701
67.58000 439.609
67.59000 445.153
67.60000 450.090
67.61000 451.844
67.62000 453.138
67.63000 454.161
67.64000 455.139
67.65000 455.921
67.66000 454.689
67.67000 448.662
67.68000 442.430
67.69000 443.299
67.70000 455.695
67.71000 468.251
67.72000 474.764
67.73000 467.411
67.74000 462.473
67.75000 461.300
67.76000 462.780
67.77000 464.288
67.78000 466.675
67.79000 469.483
67.80000 472.150
67.81000 465.951
67.82000 457.550
67.83000 451.406
67.84000 463.629
67.85000 479.888
67.86000 493.766
67.87000 495.400
67.88000 495.299
67.89000 495.219
67.90000 491.453
67.91000 488.187
67.92000 489.332
67.93000 500.797
67.94000 512.689
67.95000 517.303
67.96000 510.311
67.97000 503.170
67.98000 499.501
67.99000 500.430
68.00000 501.093
68.01000 506.265
68.02000 514.556
68.03000 522.454
68.04000 518.407
68.05000 508.754
68.06000 499.598
68.07000 505.870
68.08000 516.216
68.09000 526.292
68.10000 534.227
68.11000 541.699
68.12000 548.384
68.13000 551.091
68.14000 553.246
68.15000 554.938
68.16000 541.820
68.17000 530.365
68.18000 525.678
68.19000 536.562
68.20000 548.064
68.21000 556.331
68.22000 559.527
68.23000 562.662
68.24000 564.257
68.25000 581.024
68.26000 592.180
68.27000 593.534
68.28000 588.228
68.29000 583.285
68.30000 588.855
68.31000 599.276
68.32000 609.143
68.33000 614.681
68.34000 618.522
68.35000 621.530
68.36000 618.062
68.37000 613.224
68.38000 610.129
68.39000 615.667
68.40000 622.376
68.41000 627.618
68.42000 633.103
68.43000 637.494
68.44000 649.596
68.45000 679.136
68.46000 709.341
68.47000 728.982
68.48000 732.365
68.49000 735.568
68.50000 737.181
68.51000 734.400
68.52000 732.649
68.53000 742.006
68.54000 758.775
68.55000 775.965
68.56000 804.864
68.57000 839.075
68.58000 871.408
68.59000 893.855
68.60000 911.655
68.61000 931.589
68.62000 967.759
68.63000 1007.303
68.64000 1046.270
68.65000 1082.436
68.66000 1118.230
68.67000 1146.078
68.68000 1204.698
68.69000 1253.251
68.70000 1297.008
68.71000 1330.100
68.72000 1362.802
68.73000 1404.465
68.74000 1459.674
68.75000 1515.020
68.76000 1567.089
68.77000 1615.896
68.78000 1664.677
68.79000 1710.973
68.80000 1755.640
68.81000 1801.111
68.82000 1868.086
68.83000 1944.648
68.84000 2016.880
68.85000 2146.557
68.86000 2281.451
68.87000 2436.047
68.88000 2737.365
68.89000 3068.596
68.90000 3505.403
68.91000 4445.411
68.92000 5450.775
68.93000 6229.587
68.94000 8978.759
68.95000 11279.448
68.96000 13928.622
68.97000 17339.355
68.98000 20776.852
68.99000 24174.105
69.00000 27511.605
69.01000 30848.480
69.02000 33646.691
69.03000 35919.543
69.04000 38183.918
69.05000 39713.039
69.06000 40768.766
69.07000 41809.574
69.08000 42467.570
69.09000 42957.785
69.10000 43419.438
69.11000 44185.414
69.12000 44969.441
69.13000 45747.758
69.14000 46484.477
69.15000 47212.879
69.16000 47731.801
69.17000 47270.875
69.18000 46685.477
69.19000 46233.984
69.20000 43142.270
69.21000 40540.156
69.22000 37807.402
69.23000 34793.996
69.24000 31771.141
69.25000 29226.402
69.26000 27378.885
69.27000 25537.424
69.28000 24200.438
69.29000 23345.801
69.30000 22495.266
69.31000 21974.189
69.32000 21661.498
69.33000 21345.289
69.34000 20942.318
69.35000 20501.965
69.36000 20088.033
69.37000 19017.535
69.38000 17863.896
69.39000 16628.703
69.40000 14811.857
69.41000 12880.864
69.42000 10985.493
69.43000 9253.661
69.44000 7542.143
69.45000 6227.979
69.46000 4964.726
69.47000 3968.975
69.48000 3144.011
69.49000 2679.688
69.50000 2226.989
69.51000 1883.659
69.52000 1696.961
69.53000 1511.501
69.54000 1376.732
69.55000 1289.502
69.56000 1202.529
69.57000 1134.746
69.58000 1078.888
69.59000 1023.810
69.60000 987.245
69.61000 958.522
69.62000 931.573
69.63000 910.508
69.64000 892.864
69.65000 874.429
69.66000 850.482
69.67000 825.474
69.68000 800.630
69.69000 776.530
69.70000 752.519
69.71000 734.165
69.72000 720.565
69.73000 710.096
69.74000 698.412
69.75000 684.204
69.76000 669.918
69.77000 655.640
69.78000 641.374
69.79000 627.111
69.80000 613.883
69.81000 601.612
69.82000 589.430
69.83000 583.342
69.84000 580.974
69.85000 578.415
69.86000 571.477
69.87000 562.717
69.88000 554.513
69.89000 550.395
69.90000 547.705
69.91000 544.748
69.92000 539.972
69.93000 534.852
69.94000 529.823
69.95000 525.196
69.96000 520.616
69.97000 517.131
69.98000 507.849
69.99000 500.242
70.00000 492.570
