20.00000 455.225
20.01000 459.244
20.02000 463.838
20.03000 468.772
20.04000 475.053
20.05000 481.470
20.06000 486.209
20.07000 488.860
20.08000 490.826
20.09000 490.609
20.10000 486.400
20.11000 482.104
20.12000 479.731
20.13000 479.719
20.14000 479.713
20.15000 480.380
20.16000 481.579
20.17000 482.636
20.18000 477.348
20.19000 468.652
20.20000 460.700
20.21000 465.909
20.22000 475.953
20.23000 485.220
20.24000 489.125
20.25000 491.428
20.26000 492.259
20.27000 484.431
20.28000 475.190
20.29000 467.327
20.30000 464.802
20.31000 462.810
20.32000 461.347
20.33000 458.811
20.34000 456.807
20.35000 457.018
20.36000 461.212
20.37000 465.486
20.38000 468.884
20.39000 471.225
20.40000 473.559
20.41000 477.719
20.42000 483.283
20.43000 488.684
20.44000 487.280
20.45000 482.282
20.46000 477.369
20.47000 473.916
20.48000 470.990
20.49000 468.297
20.50000 465.170
20.51000 462.278
20.52000 460.831
20.53000 467.706
20.54000 475.914
20.55000 481.441
20.56000 476.770
20.57000 471.107
20.58000 466.968
20.59000 475.713
20.60000 482.967
20.61000 485.565
20.62000 479.938
20.63000 474.155
20.64000 468.526
20.65000 463.080
20.66000 457.646
20.67000 458.594
20.68000 464.419
20.69000 470.195
20.70000 474.020
20.71000 476.834
20.72000 478.708
20.73000 464.977
20.74000 445.708
20.75000 428.008
20.76000 441.055
20.77000 459.291
20.78000 474.767
20.79000 474.643
20.80000 472.074
20.81000 469.121
20.82000 464.731
20.83000 460.205
20.84000 456.913
20.85000 457.513
20.86000 458.123
20.87000 461.897
20.88000 471.166
20.89000 480.534
20.90000 487.515
20.91000 491.726
20.92000 495.923
20.93000 490.952
20.94000 479.134
20.95000 467.480
20.96000 462.037
20.97000 459.761
20.98000 457.734
20.99000 459.700
21.00000 463.058
21.01000 466.137
21.02000 462.948
21.03000 458.791
21.04000 455.595
21.05000 457.717
21.06000 460.655
21.07000 463.694
21.08000 467.102
21.09000 470.544
21.10000 473.035
21.11000 475.444
21.12000 477.290
21.13000 476.187
21.14000 470.054
21.15000 463.835
21.16000 460.911
21.17000 461.735
21.18000 462.560
21.19000 469.440
21.20000 480.723
21.21000 491.587
21.22000 487.267
21.23000 475.334
21.24000 463.885
21.25000 459.995
21.26000 458.696
21.27000 457.508
21.28000 453.860
21.29000 450.112
21.30000 447.227
21.31000 449.039
21.32000 451.556
21.33000 452.599
21.34000 448.326
21.35000 443.573
21.36000 440.152
21.37000 445.176
21.38000 449.320
21.39000 454.313
21.40000 460.726
21.41000 467.162
21.42000 466.452
21.43000 457.765
21.44000 449.102
21.45000 451.455
21.46000 461.742
21.47000 471.808
21.48000 474.255
21.49000 472.947
21.50000 471.529
21.51000 468.456
21.52000 464.825
21.53000 461.512
21.54000 464.227
21.55000 467.851
21.56000 469.384
21.57000 459.778
21.58000 448.531
21.59000 441.402
21.60000 448.856
21.61000 457.590
21.62000 463.845
21.63000 460.823
21.64000 458.200
21.65000 455.035
21.66000 450.975
21.67000 446.902
21.68000 449.022
21.69000 457.923
21.70000 466.793
21.71000 471.821
21.72000 474.080
21.73000 476.414
21.74000 481.199
21.75000 487.172
21.76000 492.619
21.77000 490.343
21.78000 485.509
21.79000 481.109
21.80000 486.151
21.81000 492.479
21.82000 497.928
21.83000 498.781
21.84000 498.970
21.85000 499.888
21.86000 503.343
21.87000 507.014
21.88000 509.629
21.89000 508.027
21.90000 506.669
21.91000 510.166
21.92000 521.520
21.93000 532.982
21.94000 541.925
21.95000 548.163
21.96000 554.372
21.97000 557.543
21.98000 558.569
21.99000 559.477
22.00000 556.656
22.01000 552.061
22.02000 547.463
22.03000 542.842
22.04000 538.213
22.05000 534.010
22.06000 537.145
22.07000 541.335
22.08000 544.277
22.09000 540.822
22.10000 536.464
22.11000 533.452
22.12000 535.040
22.13000 537.011
22.14000 538.407
22.15000 535.710
22.16000 533.532
22.17000 530.849
22.18000 527.362
22.19000 523.866
22.20000 520.657
22.21000 517.751
22.22000 514.859
22.23000 518.504
22.24000 526.562
22.25000 534.055
22.26000 524.512
22.27000 506.995
22.28000 491.014
22.29000 496.311
22.30000 508.414
22.31000 519.379
22.32000 508.783
22.33000 495.358
22.34000 484.530
22.35000 486.768
22.36000 490.811
22.37000 491.621
22.38000 481.572
22.39000 470.641
22.40000 462.941
22.41000 469.475
22.42000 474.857
22.43000 475.260
22.44000 467.889
22.45000 460.425
22.46000 465.205
22.47000 482.619
22.48000 499.940
22.49000 496.389
22.50000 478.922
22.51000 461.944
22.52000 459.068
22.53000 462.681
22.54000 465.651
22.55000 459.978
22.56000 451.587
22.57000 444.004
22.58000 449.577
22.59000 456.922
22.60000 463.042
22.61000 463.120
22.62000 462.380
22.63000 458.583
22.64000 444.691
22.65000 430.003
22.66000 419.712
22.67000 432.501
22.68000 442.836
22.69000 448.086
22.70000 445.534
22.71000 442.897
22.72000 438.571
22.73000 432.534
22.74000 426.533
22.75000 428.502
22.76000 435.675
22.77000 442.702
22.78000 445.683
22.79000 446.835
22.80000 447.434
22.81000 440.789
22.82000 431.907
22.83000 423.899
22.84000 430.317
22.85000 438.574
22.86000 445.601
22.87000 446.676
22.88000 446.963
22.89000 447.350
22.90000 448.064
22.91000 448.802
22.92000 449.317
22.93000 439.903
22.94000 432.527
22.95000 430.630
22.96000 436.988
22.97000 443.428
22.98000 446.239
22.99000 445.450
23.00000 444.666
23.01000 441.696
23.02000 437.361
23.03000 432.994
23.04000 427.747
23.05000 422.109
23.06000 416.989
23.07000 418.457
23.08000 421.926
23.09000 425.046
23.10000 425.048
23.11000 424.494
23.12000 424.875
23.13000 429.698
23.14000 435.095
23.15000 439.476
23.16000 440.619
23.17000 441.521
23.18000 442.146
23.19000 433.273
23.20000 426.345
23.21000 424.722
23.22000 430.949
23.23000 437.249
23.24000 436.975
23.25000 430.314
23.26000 423.699
23.27000 427.332
23.28000 437.380
23.29000 446.651
23.30000 436.102
23.31000 416.891
23.32000 399.389
23.33000 403.036
23.34000 412.994
23.35000 421.926
23.36000 423.935
23.37000 424.485
23.38000 426.021
23.39000 432.156
23.40000 438.873
23.41000 442.082
23.42000 434.296
23.43000 425.713
23.44000 419.801
23.45000 431.045
23.46000 439.918
23.47000 444.929
23.48000 444.325
23.49000 443.673
23.50000 440.517
23.51000 434.974
23.52000 429.474
23.53000 430.149
23.54000 434.642
23.55000 438.939
23.56000 438.443
23.57000 435.887
23.58000 433.283
23.59000 430.087
23.60000 426.719
23.61000 423.705
23.62000 419.220
23.63000 415.058
23.64000 414.406
23.65000 429.817
23.66000 447.215
23.67000 459.024
23.68000 453.615
23.69000 446.994
23.70000 442.460
23.71000 447.929
23.72000 452.265
23.73000 455.208
23.74000 456.163
23.75000 457.102
23.76000 456.081
23.77000 453.228
23.78000 450.398
23.79000 446.534
23.80000 442.110
23.81000 437.892
23.82000 438.520
23.83000 441.195
23.84000 443.577
23.85000 442.523
23.86000 440.479
23.87000 438.655
23.88000 445.867
23.89000 453.654
23.90000 460.844
23.91000 465.357
23.92000 469.547
23.93000 472.739
23.94000 472.912
23.95000 472.879
23.96000 472.856
23.97000 470.501
23.98000 468.688
23.99000 464.013
24.00000 455.327
24.01000 446.616
24.02000 444.688
24.03000 448.972
24.04000 453.217
24.05000 455.937
24.06000 457.694
24.07000 459.486
24.08000 462.085
24.09000 465.020
24.10000 467.443
24.11000 464.015
24.12000 458.930
24.13000 454.405
24.14000 456.488
24.15000 459.378
24.16000 459.532
24.17000 447.622
24.18000 434.285
24.19000 425.684
24.20000 431.172
24.21000 437.594
24.22000 441.941
24.23000 443.991
24.24000 445.468
24.25000 444.673
24.26000 440.751
24.27000 436.813
24.28000 436.928
24.29000 440.685
24.30000 444.406
24.31000 444.230
24.32000 441.776
24.33000 439.367
24.34000 437.943
24.35000 436.921
24.36000 435.635
24.37000 431.416
24.38000 426.381
24.39000 421.912
24.40000 427.650
24.41000 434.254
24.42000 439.372
24.43000 438.048
24.44000 435.980
24.45000 431.437
24.46000 419.660
24.47000 407.417
24.48000 399.182
24.49000 405.003
24.50000 409.621
24.51000 410.295
24.52000 405.639
24.53000 400.959
24.54000 401.347
24.55000 406.201
24.56000 411.004
24.57000 417.442
24.58000 424.676
24.59000 431.615
24.60000 432.325
24.61000 430.535
24.62000 428.483
24.63000 423.580
24.64000 417.899
24.65000 412.870
24.66000 406.728
24.67000 401.243
24.68000 398.522
24.69000 407.548
24.70000 417.901
24.71000 423.062
24.72000 413.301
24.73000 402.608
24.74000 395.459
24.75000 405.850
24.76000 413.899
24.77000 419.991
24.78000 423.487
24.79000 426.965
24.80000 425.897
24.81000 420.902
24.82000 415.961
24.83000 411.556
24.84000 407.556
24.85000 403.804
24.86000 405.084
24.87000 408.349
24.88000 411.655
24.89000 415.388
24.90000 419.236
24.91000 422.633
24.92000 416.469
24.93000 409.686
24.94000 403.007
24.95000 396.762
24.96000 390.565
24.97000 388.171
24.98000 396.518
24.99000 405.515
25.00000 411.494
25.01000 408.818
25.02000 406.679
25.03000 408.722
25.04000 416.216
25.05000 423.726
25.06000 426.336
25.07000 424.793
25.08000 423.268
25.09000 417.127
25.10000 408.583
25.11000 400.222
25.12000 395.459
25.13000 392.091
25.14000 388.891
25.15000 387.433
25.16000 386.434
25.17000 385.555
25.18000 392.390
25.19000 399.431
25.20000 406.089
25.21000 411.177
25.22000 416.096
25.23000 417.665
25.24000 409.934
25.25000 401.657
25.26000 396.192
25.27000 393.471
25.28000 391.513
25.29000 391.185
25.30000 392.942
25.31000 394.711
25.32000 398.485
25.33000 403.927
25.34000 409.300
25.35000 407.141
25.36000 400.948
25.37000 394.927
25.38000 392.158
25.39000 390.629
25.40000 389.105
25.41000 387.626
25.42000 386.159
25.43000 384.871
25.44000 390.081
25.45000 395.509
25.46000 399.269
25.47000 396.316
25.48000 392.658
25.49000 391.102
25.50000 395.284
25.51000 399.792
25.52000 402.750
25.53000 395.507
25.54000 390.009
25.55000 387.337
25.56000 388.212
25.57000 389.105
25.58000 392.378
25.59000 397.594
25.60000 402.739
25.61000 399.226
25.62000 391.194
25.63000 383.655
25.64000 385.158
25.65000 390.049
25.66000 393.872
25.67000 387.225
25.68000 377.914
25.69000 369.763
25.70000 369.526
25.71000 370.457
25.72000 372.253
25.73000 377.470
25.74000 383.037
25.75000 388.516
25.76000 393.755
25.77000 398.982
25.78000 402.390
25.79000 400.823
25.80000 399.595
25.81000 394.917
25.82000 385.989
25.83000 377.080
25.84000 377.998
25.85000 386.790
25.86000 395.456
25.87000 395.230
25.88000 390.360
25.89000 385.737
25.90000 385.529
25.91000 386.946
25.92000 388.123
25.93000 387.002
25.94000 385.308
25.95000 383.828
25.96000 385.499
25.97000 387.370
25.98000 388.687
25.99000 387.852
26.00000 386.802
26.01000 387.752
26.02000 393.975
26.03000 400.478
26.04000 404.691
26.05000 405.922
26.06000 406.779
26.07000 404.500
26.08000 398.430
26.09000 392.369
26.10000 391.168
26.11000 393.788
26.12000 396.368
26.13000 390.735
26.14000 381.056
26.15000 371.726
26.16000 368.392
26.17000 367.228
26.18000 366.630
26.19000 371.329
26.20000 377.327
26.21000 382.547
26.22000 382.585
26.23000 381.907
26.24000 382.475
26.25000 387.794
26.26000 393.577
26.27000 397.752
26.28000 397.759
26.29000 397.552
26.30000 397.418
26.31000 389.806
26.32000 384.146
26.33000 378.823
26.34000 373.900
26.35000 368.996
26.36000 368.211
26.37000 370.606
26.38000 372.963
26.39000 373.131
26.40000 372.192
26.41000 371.743
26.42000 379.482
26.43000 390.134
26.44000 399.335
26.45000 395.279
26.46000 388.031
26.47000 381.742
26.48000 382.514
26.49000 384.118
26.50000 384.284
26.51000 379.063
26.52000 373.330
26.53000 370.065
26.54000 373.089
26.55000 376.426
26.56000 378.558
26.57000 381.770
26.58000 384.122
26.59000 382.622
26.60000 376.639
26.61000 370.679
26.62000 370.798
26.63000 375.524
26.64000 380.169
26.65000 385.970
26.66000 392.150
26.67000 397.511
26.68000 389.645
26.69000 377.153
26.70000 365.937
26.71000 366.102
26.72000 368.960
26.73000 371.431
26.74000 372.535
26.75000 373.294
26.76000 375.585
26.77000 383.513
26.78000 391.965
26.79000 395.335
26.80000 385.973
26.81000 376.002
26.82000 369.671
26.83000 372.390
26.84000 374.476
26.85000 373.320
26.86000 368.465
26.87000 363.639
26.88000 365.109
26.89000 371.262
26.90000 377.305
26.91000 375.647
26.92000 370.311
26.93000 365.503
26.94000 368.959
26.95000 375.255
26.96000 381.112
26.97000 383.134
26.98000 384.265
26.99000 385.240
27.00000 383.457
27.01000 381.592
27.02000 379.249
27.03000 375.182
27.04000 370.958
27.05000 369.150
27.06000 373.293
27.07000 377.710
27.08000 380.496
27.09000 379.999
27.10000 379.602
27.11000 378.740
27.12000 377.355
27.13000 375.953
27.14000 371.617
27.15000 365.138
27.16000 358.782
27.17000 365.586
27.18000 378.409
27.19000 390.248
27.20000 387.126
27.21000 378.949
27.22000 372.161
27.23000 377.192
27.24000 384.918
27.25000 391.561
27.26000 393.938
27.27000 395.416
27.28000 395.779
27.29000 392.184
27.30000 388.240
27.31000 386.739
27.32000 391.155
27.33000 395.835
27.34000 398.765
27.35000 387.903
27.36000 379.911
27.37000 375.013
27.38000 373.515
27.39000 372.012
27.40000 369.601
27.41000 366.539
27.42000 363.537
27.43000 368.069
27.44000 375.949
27.45000 383.243
27.46000 381.873
27.47000 377.627
27.48000 373.823
27.49000 373.695
27.50000 374.390
27.51000 374.986
27.52000 369.039
27.53000 363.217
27.54000 360.311
27.55000 367.582
27.56000 375.727
27.57000 377.773
27.58000 365.302
27.59000 352.209
27.60000 344.066
27.61000 355.767
27.62000 364.392
27.63000 367.354
27.64000 364.217
27.65000 361.102
27.66000 361.165
27.67000 363.466
27.68000 365.718
27.69000 368.109
27.70000 370.469
27.71000 372.927
27.72000 376.793
27.73000 381.119
27.74000 384.377
27.75000 378.946
27.76000 371.606
27.77000 365.334
27.78000 368.988
27.79000 373.251
27.80000 377.016
27.81000 379.077
27.82000 380.995
27.83000 381.421
27.84000 378.353
27.85000 375.141
27.86000 373.158
27.87000 374.808
27.88000 376.027
27.89000 377.119
27.90000 378.075
27.91000 379.023
27.92000 378.987
27.93000 378.270
27.94000 377.569
27.95000 376.072
27.96000 374.279
27.97000 372.483
27.98000 370.653
27.99000 368.812
28.00000 366.986
28.01000 365.276
28.02000 363.590
28.03000 362.155
28.04000 365.283
28.05000 368.445
28.06000 369.925
28.07000 365.741
28.08000 361.096
28.09000 358.626
28.10000 361.158
28.11000 363.890
28.12000 365.564
28.13000 370.798
28.14000 374.578
28.15000 373.109
28.16000 366.209
28.17000 359.344
28.18000 356.395
28.19000 356.107
28.20000 355.825
28.21000 361.246
28.22000 368.956
28.23000 375.917
28.24000 372.761
28.25000 366.416
28.26000 360.616
28.27000 359.055
28.28000 358.393
28.29000 357.830
28.30000 364.309
28.31000 370.546
28.32000 374.147
28.33000 369.025
28.34000 363.213
28.35000 359.832
28.36000 361.949
28.37000 364.275
28.38000 365.691
28.39000 365.831
28.40000 365.921
28.41000 361.173
28.42000 351.519
28.43000 342.005
28.44000 346.917
28.45000 361.452
28.46000 375.636
28.47000 377.605
28.48000 374.193
28.49000 370.863
28.50000 368.624
28.51000 366.722
28.52000 365.139
28.53000 365.976
28.54000 367.316
28.55000 368.450
28.56000 364.896
28.57000 361.401
28.58000 357.752
28.59000 353.606
28.60000 349.422
28.61000 346.362
28.62000 345.802
28.63000 345.333
28.64000 345.049
28.65000 337.688
28.66000 332.394
28.67000 332.726
28.68000 338.653
28.69000 344.576
28.70000 350.048
28.71000 355.225
28.72000 360.272
28.73000 363.056
28.74000 364.751
28.75000 366.266
28.76000 365.492
28.77000 364.021
28.78000 362.449
28.79000 360.125
28.80000 357.647
28.81000 355.558
28.82000 359.835
28.83000 364.098
28.84000 365.697
28.85000 358.785
28.86000 351.235
28.87000 347.156
28.88000 350.660
28.89000 354.430
28.90000 356.691
28.91000 360.888
28.92000 363.882
28.93000 364.233
28.94000 362.008
28.95000 359.791
28.96000 358.205
28.97000 357.025
28.98000 355.877
28.99000 359.016
29.00000 363.797
29.01000 367.881
29.02000 363.297
29.03000 356.119
29.04000 350.055
29.05000 352.098
29.06000 355.762
29.07000 358.842
29.08000 355.527
29.09000 352.087
29.10000 349.882
29.11000 351.556
29.12000 353.512
29.13000 352.514
29.14000 345.169
29.15000 337.611
29.16000 333.113
29.17000 350.231
29.18000 362.485
29.19000 367.081
29.20000 364.361
29.21000 361.589
29.22000 354.728
29.23000 345.280
29.24000 336.093
29.25000 342.843
29.26000 355.792
29.27000 367.647
29.28000 366.265
29.29000 360.992
29.30000 355.502
29.31000 348.464
29.32000 341.122
29.33000 334.973
29.34000 341.442
29.35000 348.124
29.36000 353.661
29.37000 355.661
29.38000 357.411
29.39000 357.119
29.40000 352.519
29.41000 347.780
29.42000 344.981
29.43000 344.347
29.44000 343.912
29.45000 348.133
29.46000 356.716
29.47000 365.189
29.48000 365.540
29.49000 360.846
29.50000 356.287
29.51000 354.689
29.52000 354.361
29.53000 354.290
29.54000 357.249
29.55000 361.083
29.56000 364.089
29.57000 361.322
29.58000 357.443
29.59000 354.206
29.60000 358.546
29.61000 362.910
29.62000 366.628
29.63000 368.387
29.64000 370.011
29.65000 369.017
29.66000 362.589
29.67000 355.994
29.68000 352.129
29.69000 353.792
29.70000 354.991
29.71000 356.796
29.72000 359.158
29.73000 361.455
29.74000 359.235
29.75000 354.259
29.76000 349.432
29.77000 347.697
29.78000 347.273
29.79000 347.608
29.80000 356.662
29.81000 368.190
29.82000 378.342
29.83000 379.086
29.84000 378.054
29.85000 377.196
29.86000 373.205
29.87000 369.594
29.88000 368.287
29.89000 373.853
29.90000 379.878
29.91000 383.840
29.92000 383.596
29.93000 383.228
29.94000 383.015
29.95000 378.919
29.96000 376.025
29.97000 374.477
29.98000 374.141
29.99000 373.883
30.00000 378.725
30.01000 386.624
30.02000 394.277
30.03000 391.632
30.04000 385.143
30.05000 379.608
30.06000 384.740
30.07000 392.846
30.08000 399.070
30.09000 392.704
30.10000 384.008
30.11000 376.801
30.12000 377.861
30.13000 379.528
30.14000 379.404
30.15000 374.029
30.16000 368.314
30.17000 366.467
30.18000 372.372
30.19000 378.495
30.20000 382.027
30.21000 375.061
30.22000 370.143
30.23000 366.771
30.24000 364.765
30.25000 362.787
30.26000 362.514
30.27000 363.247
30.28000 363.956
30.29000 360.424
30.30000 355.476
30.31000 351.338
30.32000 356.008
30.33000 363.092
30.34000 368.796
30.35000 365.459
30.36000 360.482
30.37000 356.371
30.38000 367.578
30.39000 378.242
30.40000 384.157
30.41000 376.385
30.42000 367.754
30.43000 362.692
30.44000 364.663
30.45000 366.821
30.46000 368.056
30.47000 358.614
30.48000 351.991
30.49000 351.038
30.50000 354.999
30.51000 358.869
30.52000 357.630
30.53000 353.434
30.54000 349.379
30.55000 351.655
30.56000 356.162
30.57000 360.203
30.58000 359.292
30.59000 357.050
30.60000 354.719
30.61000 351.820
30.62000 348.820
30.63000 346.351
30.64000 356.371
30.65000 365.746
30.66000 372.248
30.67000 370.615
30.68000 368.488
30.69000 365.401
30.70000 360.456
30.71000 355.464
30.72000 352.630
30.73000 363.866
30.74000 371.728
30.75000 376.942
30.76000 379.907
30.77000 382.698
30.78000 376.214
30.79000 364.454
30.80000 353.107
30.81000 359.379
30.82000 371.727
30.83000 382.963
30.84000 382.682
30.85000 379.357
30.86000 376.625
30.87000 377.620
30.88000 379.265
30.89000 380.613
30.90000 385.434
30.91000 389.697
30.92000 394.789
30.93000 402.189
30.94000 409.725
30.95000 420.837
30.96000 438.758
30.97000 456.843
30.98000 467.021
30.99000 474.454
31.00000 479.614
31.01000 488.087
31.02000 499.323
31.03000 510.555
31.04000 521.570
31.05000 532.466
31.06000 542.963
31.07000 574.802
31.08000 612.375
31.09000 648.987
31.10000 675.899
31.11000 700.292
31.12000 726.028
31.13000 760.030
31.14000 795.447
31.15000 824.378
31.16000 862.021
31.17000 893.583
31.18000 927.501
31.19000 967.864
31.20000 1008.594
31.21000 1050.205
31.22000 1093.463
31.23000 1136.759
31.24000 1160.919
31.25000 1212.403
31.26000 1248.086
31.27000 1279.232
31.28000 1306.663
31.29000 1334.186
31.30000 1366.023
31.31000 1400.230
31.32000 1433.143
31.33000 1453.295
31.34000 1467.699
31.35000 1480.842
31.36000 1481.545
31.37000 1479.077
31.38000 1473.786
31.39000 1451.464
31.40000 1426.286
31.41000 1405.795
31.42000 1392.449
31.43000 1382.151
31.44000 1362.726
31.45000 1318.751
31.46000 1273.421
31.47000 1225.847
31.48000 1174.146
31.49000 1122.356
31.50000 1093.701
31.51000 1028.498
31.52000 983.446
31.53000 942.357
31.54000 904.450
31.55000 866.597
31.56000 831.120
31.57000 796.928
31.58000 764.077
31.59000 725.863
31.60000 688.236
31.61000 652.207
31.62000 631.541
31.63000 614.723
31.64000 597.735
31.65000 579.741
31.66000 561.583
31.67000 546.861
31.68000 523.968
31.69000 504.647
31.70000 484.550
31.71000 462.406
31.72000 440.152
31.73000 425.804
31.74000 425.742
31.75000 425.973
31.76000 426.099
31.77000 414.181
31.78000 405.980
31.79000 402.723
31.80000 403.364
31.81000 403.845
31.82000 397.511
31.83000 387.559
31.84000 378.013
31.85000 376.409
31.86000 377.602
31.87000 378.448
31.88000 376.024
31.89000 372.796
31.90000 370.223
31.91000 371.441
31.92000 373.271
31.93000 374.749
31.94000 369.096
31.95000 363.932
31.96000 358.740
31.97000 353.474
31.98000 348.204
31.99000 346.710
32.00000 351.921
32.01000 357.262
32.02000 360.166
32.03000 342.019
32.04000 329.605
32.05000 331.865
32.06000 345.481
32.07000 358.897
32.08000 364.171
32.09000 365.198
32.10000 366.183
32.11000 353.098
32.12000 336.214
32.13000 321.277
32.14000 324.180
32.15000 331.391
32.16000 337.461
32.17000 337.043
32.18000 335.602
32.19000 334.443
32.20000 330.978
32.21000 327.989
32.22000 326.813
32.23000 330.269
32.24000 333.957
32.25000 337.652
32.26000 341.360
32.27000 345.069
32.28000 347.067
32.29000 338.830
32.30000 333.210
32.31000 332.665
32.32000 335.976
32.33000 339.158
32.34000 337.368
32.35000 333.028
32.36000 328.877
32.37000 330.830
32.38000 334.640
32.39000 337.649
32.40000 333.493
32.41000 327.638
32.42000 321.913
32.43000 316.913
32.44000 312.026
32.45000 308.109
32.46000 319.664
32.47000 330.181
32.48000 335.450
32.49000 327.538
32.50000 318.992
32.51000 313.851
32.52000 314.550
32.53000 315.348
32.54000 315.775
32.55000 323.442
32.56000 328.642
32.57000 327.601
32.58000 321.906
32.59000 316.241
32.60000 311.688
32.61000 307.695
32.62000 303.883
32.63000 303.877
32.64000 305.090
32.65000 306.479
32.66000 309.406
32.67000 312.691
32.68000 315.702
32.69000 317.220
32.70000 318.513
32.71000 319.544
32.72000 316.495
32.73000 313.733
32.74000 312.154
32.75000 313.493
32.76000 314.967
32.77000 315.900
32.78000 315.924
32.79000 315.932
32.80000 315.936
32.81000 307.355
32.82000 301.579
32.83000 306.132
32.84000 318.246
32.85000 329.876
32.86000 324.560
32.87000 310.852
32.88000 297.784
32.89000 297.256
32.90000 300.706
32.91000 304.054
32.92000 306.532
32.93000 308.810
32.94000 311.067
32.95000 313.212
32.96000 315.339
32.97000 317.031
32.98000 308.693
32.99000 301.261
33.00000 297.866
33.01000 304.267
33.02000 311.106
33.03000 313.894
33.04000 309.976
33.05000 305.958
33.06000 303.851
33.07000 301.780
33.08000 300.387
33.09000 300.531
33.10000 301.781
33.11000 303.042
33.12000 304.711
33.13000 306.578
33.14000 308.355
33.15000 313.382
33.16000 319.038
33.17000 323.216
33.18000 315.059
33.19000 304.134
33.20000 294.938
33.21000 294.829
33.22000 296.039
33.23000 296.997
33.24000 299.210
33.25000 301.076
33.26000 303.124
33.27000 305.603
33.28000 308.102
33.29000 307.147
33.30000 300.574
33.31000 293.922
33.32000 290.468
33.33000 292.776
33.34000 294.326
33.35000 294.459
33.36000 293.592
33.37000 292.834
33.38000 295.572
33.39000 299.984
33.40000 304.176
33.41000 301.125
33.42000 296.117
33.43000 292.006
33.44000 295.220
33.45000 300.048
33.46000 303.303
33.47000 298.445
33.48000 292.434
33.49000 287.696
33.50000 286.353
33.51000 285.505
33.52000 286.208
33.53000 290.548
33.54000 295.038
33.55000 297.207
33.56000 295.663
33.57000 294.070
33.58000 293.251
33.59000 296.507
33.60000 298.706
33.61000 301.743
33.62000 305.362
33.63000 308.941
33.64000 311.301
33.65000 313.086
33.66000 314.781
33.67000 310.571
33.68000 304.939
33.69000 299.300
33.70000 293.610
33.71000 287.910
33.72000 284.113
33.73000 289.949
33.74000 297.124
33.75000 302.757
33.76000 297.774
33.77000 293.093
33.78000 289.747
33.79000 289.477
33.80000 289.331
33.81000 290.398
33.82000 293.371
33.83000 296.367
33.84000 297.893
33.85000 310.869
33.86000 319.496
33.87000 319.326
33.88000 313.165
33.89000 306.973
33.90000 299.888
33.91000 292.390
33.92000 285.290
33.93000 292.082
33.94000 302.373
33.95000 312.025
33.96000 316.689
33.97000 320.295
33.98000 323.797
33.99000 326.785
34.00000 329.702
34.01000 331.983
34.02000 325.538
34.03000 319.840
34.04000 317.444
34.05000 322.530
34.06000 327.902
34.07000 330.130
34.08000 327.508
34.09000 324.831
34.10000 323.481
34.11000 328.637
34.12000 332.070
34.13000 333.942
34.14000 334.771
34.15000 335.548
34.16000 334.913
34.17000 333.635
34.18000 332.428
34.19000 336.258
34.20000 341.214
34.21000 344.997
34.22000 339.833
34.23000 332.806
34.24000 327.257
34.25000 328.900
34.26000 331.501
34.27000 333.525
34.28000 333.588
34.29000 333.517
34.30000 333.744
34.31000 334.633
34.32000 335.546
34.33000 338.325
34.34000 343.932
34.35000 349.568
34.36000 351.680
34.37000 350.276
34.38000 348.877
34.39000 347.901
34.40000 347.203
34.41000 346.556
34.42000 347.271
34.43000 348.593
34.44000 349.842
34.45000 342.646
34.46000 333.686
34.47000 325.727
34.48000 325.239
34.49000 326.278
34.50000 327.205
34.51000 327.594
34.52000 327.913
34.53000 328.160
34.54000 326.198
34.55000 324.506
34.56000 323.239
34.57000 322.900
34.58000 322.594
34.59000 323.371
34.60000 325.759
34.61000 328.163
34.62000 328.151
34.63000 325.776
34.64000 323.428
34.65000 323.342
34.66000 324.716
34.67000 325.979
34.68000 324.357
34.69000 321.469
34.70000 318.748
34.71000 312.030
34.72000 304.786
34.73000 298.493
34.74000 299.142
34.75000 301.182
34.76000 303.059
34.77000 304.167
34.78000 305.177
34.79000 305.956
34.80000 296.328
34.81000 288.094
34.82000 283.670
34.83000 287.448
34.84000 291.504
34.85000 294.302
34.86000 295.261
34.87000 296.205
34.88000 297.844
34.89000 300.147
34.90000 302.406
34.91000 301.004
34.92000 297.280
34.93000 293.534
34.94000 289.217
34.95000 284.654
34.96000 280.364
34.97000 278.819
34.98000 278.147
34.99000 277.570
35.00000 277.682
35.01000 277.929
35.02000 278.374
35.03000 279.736
35.04000 281.212
35.05000 282.346
35.06000 283.657
35.07000 284.704
35.08000 283.192
35.09000 276.261
35.10000 269.155
35.11000 266.619
35.12000 270.641
35.13000 274.714
35.14000 279.591
35.15000 285.221
35.16000 290.701
35.17000 284.857
35.18000 271.961
35.19000 259.514
35.20000 257.765
35.21000 260.558
35.22000 263.179
35.23000 270.160
35.24000 277.673
35.25000 284.251
35.26000 284.288
35.27000 283.062
35.28000 282.034
35.29000 281.903
35.30000 281.881
35.31000 281.864
35.32000 277.666
35.33000 274.128
35.34000 271.462
35.35000 270.613
35.36000 269.820
35.37000 270.189
35.38000 272.197
35.39000 274.217
35.40000 273.285
35.41000 269.639
35.42000 265.987
35.43000 262.042
35.44000 257.915
35.45000 253.939
35.46000 253.404
35.47000 254.305
35.48000 255.149
35.49000 256.397
35.50000 257.637
35.51000 259.014
35.52000 261.330
35.53000 263.824
35.54000 266.147
35.55000 267.713
35.56000 269.190
35.57000 270.314
35.58000 267.078
35.59000 264.301
35.60000 260.607
35.61000 255.037
35.62000 249.411
35.63000 247.208
35.64000 249.742
35.65000 252.306
35.66000 258.003
35.67000 266.523
35.68000 274.908
35.69000 274.508
35.70000 268.827
35.71000 263.219
35.72000 259.209
35.73000 255.855
35.74000 252.720
35.75000 257.839
35.76000 264.580
35.77000 270.356
35.78000 269.657
35.79000 267.756
35.80000 265.957
35.81000 264.604
35.82000 263.302
35.83000 262.315
35.84000 262.534
35.85000 262.768
35.86000 264.974
35.87000 271.147
35.88000 277.432
35.89000 278.831
35.90000 273.589
35.91000 268.313
35.92000 264.956
35.93000 263.303
35.94000 261.678
35.95000 261.751
35.96000 262.827
35.97000 263.835
35.98000 263.410
35.99000 262.407
36.00000 261.470
36.01000 262.738
36.02000 264.435
36.03000 265.163
36.04000 259.520
36.05000 252.717
36.06000 246.859
36.07000 245.038
36.08000 243.676
36.09000 242.649
36.10000 249.401
36.11000 255.073
36.12000 258.698
36.13000 258.277
36.14000 257.748
36.15000 256.075
36.16000 252.878
36.17000 249.675
36.18000 255.204
36.19000 268.296
36.20000 281.142
36.21000 279.783
36.22000 270.180
36.23000 260.680
36.24000 253.307
36.25000 246.777
36.26000 240.697
36.27000 245.261
36.28000 251.984
36.29000 257.751
36.30000 257.371
36.31000 255.893
36.32000 254.975
36.33000 256.403
36.34000 258.093
36.35000 259.361
36.36000 257.525
36.37000 255.942
36.38000 255.229
36.39000 256.204
36.40000 257.224
36.41000 257.706
36.42000 257.484
36.43000 257.260
36.44000 258.337
36.45000 260.518
36.46000 262.636
36.47000 261.327
36.48000 258.062
36.49000 254.975
36.50000 255.393
36.51000 257.177
36.52000 258.836
36.53000 260.390
36.54000 261.767
36.55000 262.140
36.56000 256.183
36.57000 249.117
36.58000 244.849
36.59000 252.106
36.60000 260.613
36.61000 266.969
36.62000 262.637
36.63000 258.766
36.64000 258.055
36.65000 263.373
36.66000 268.837
36.67000 267.330
36.68000 256.857
36.69000 246.362
36.70000 246.670
36.71000 255.989
36.72000 265.183
36.73000 268.027
36.74000 267.312
36.75000 266.788
36.76000 269.910
36.77000 274.430
36.78000 278.622
36.79000 279.406
36.80000 279.313
36.81000 278.845
36.82000 276.063
36.83000 272.884
36.84000 270.313
36.85000 270.206
36.86000 270.359
36.87000 270.474
36.88000 274.638
36.89000 278.057
36.90000 280.348
36.91000 280.525
36.92000 280.653
36.93000 282.004
36.94000 284.899
36.95000 287.795
36.96000 292.577
36.97000 298.885
36.98000 305.000
36.99000 301.839
37.00000 293.569
37.01000 285.535
37.02000 281.871
37.03000 279.852
37.04000 277.984
37.05000 281.567
37.06000 286.040
37.07000 289.304
37.08000 285.251
37.09000 279.969
37.10000 276.952
37.11000 282.935
37.12000 289.847
37.13000 294.963
37.14000 291.572
37.15000 288.575
37.16000 284.083
37.17000 276.834
37.18000 269.525
37.19000 266.026
37.20000 267.247
37.21000 268.479
37.22000 271.885
37.23000 277.022
37.24000 282.058
37.25000 282.523
37.26000 280.515
37.27000 278.315
37.28000 272.695
37.29000 265.809
37.30000 259.450
37.31000 262.463
37.32000 267.277
37.33000 270.670
37.34000 265.631
37.35000 259.203
37.36000 254.222
37.37000 254.889
37.38000 256.124
37.39000 257.034
37.40000 250.259
37.41000 244.696
37.42000 244.763
37.43000 255.029
37.44000 265.506
37.45000 268.951
37.46000 263.847
37.47000 258.734
37.48000 256.064
37.49000 255.328
37.50000 254.620
37.51000 255.056
37.52000 256.103
37.53000 256.793
37.54000 251.304
37.55000 243.567
37.56000 236.437
37.57000 240.960
37.58000 247.580
37.59000 253.300
37.60000 253.788
37.61000 253.431
37.62000 254.055
37.63000 258.441
37.64000 263.197
37.65000 266.682
37.66000 266.861
37.67000 266.867
37.68000 266.752
37.69000 266.423
37.70000 266.090
37.71000 265.547
37.72000 264.755
37.73000 263.964
37.74000 263.597
37.75000 263.558
37.76000 263.465
37.77000 261.131
37.78000 257.625
37.79000 254.311
37.80000 254.228
37.81000 255.301
37.82000 256.288
37.83000 252.075
37.84000 247.187
37.85000 243.805
37.86000 249.005
37.87000 255.562
37.88000 259.787
37.89000 255.229
37.90000 249.828
37.91000 245.890
37.92000 249.627
37.93000 252.801
37.94000 257.275
37.95000 264.025
37.96000 270.817
37.97000 270.997
37.98000 263.441
37.99000 255.892
38.00000 253.076
38.01000 253.861
38.02000 254.699
38.03000 257.635
38.04000 261.648
38.05000 265.509
38.06000 266.870
38.07000 267.353
38.08000 267.797
38.09000 263.747
38.10000 259.184
38.11000 255.069
38.12000 253.459
38.13000 252.238
38.14000 252.485
38.15000 258.166
38.16000 264.356
38.17000 268.845
38.18000 270.493
38.19000 271.655
38.20000 274.702
38.21000 280.992
38.22000 287.338
38.23000 291.697
38.24000 293.775
38.25000 295.845
38.26000 298.788
38.27000 302.357
38.28000 305.958
38.29000 310.717
38.30000 316.060
38.31000 321.544
38.32000 329.246
38.33000 337.713
38.34000 345.465
38.35000 360.011
38.36000 374.362
38.37000 388.883
38.38000 404.330
38.39000 419.919
38.40000 437.553
38.41000 462.623
38.42000 488.371
38.43000 506.948
38.44000 522.337
38.45000 534.019
38.46000 553.117
38.47000 584.742
38.48000 616.569
38.49000 651.169
38.50000 688.889
38.51000 726.487
38.52000 754.566
38.53000 775.484
38.54000 796.866
38.55000 834.566
38.56000 880.368
38.57000 925.676
38.58000 963.409
38.59000 998.571
38.60000 1030.684
38.61000 1046.769
38.62000 1057.787
38.63000 1072.044
38.64000 1103.710
38.65000 1137.964
38.66000 1169.353
38.67000 1190.517
38.68000 1210.772
38.69000 1225.309
38.70000 1228.237
38.71000 1230.077
38.72000 1224.098
38.73000 1205.140
38.74000 1185.986
38.75000 1161.416
38.76000 1130.863
38.77000 1100.421
38.78000 1081.782
38.79000 1071.745
38.80000 1061.355
38.81000 1039.134
38.82000 1011.140
38.83000 982.984
38.84000 952.403
38.85000 921.013
38.86000 892.411
38.87000 846.002
38.88000 801.338
38.89000 758.474
38.90000 725.100
38.91000 693.107
38.92000 659.626
38.93000 620.923
38.94000 581.768
38.95000 553.815
38.96000 528.728
38.97000 509.686
38.98000 484.588
38.99000 449.616
39.00000 414.504
39.01000 390.593
39.02000 378.812
39.03000 367.085
39.04000 353.126
39.05000 337.742
39.06000 322.626
39.07000 316.096
39.08000 313.686
39.09000 310.935
39.10000 303.259
39.11000 293.968
39.12000 285.522
39.13000 279.860
39.14000 275.399
39.15000 270.902
39.16000 266.223
39.17000 261.518
39.18000 256.222
39.19000 248.890
39.20000 241.387
39.21000 236.058
39.22000 239.938
39.23000 243.183
39.24000 244.143
39.25000 241.444
39.26000 238.697
39.27000 238.686
39.28000 241.579
39.29000 244.460
39.30000 242.582
39.31000 237.453
39.32000 232.374
39.33000 228.828
39.34000 226.006
39.35000 223.378
39.36000 223.484
39.37000 224.471
39.38000 225.366
39.39000 231.914
39.40000 238.771
39.41000 243.489
39.42000 237.354
39.43000 229.706
39.44000 224.172
39.45000 225.800
39.46000 228.015
39.47000 229.580
39.48000 236.467
39.49000 241.857
39.50000 243.422
39.51000 238.968
39.52000 234.440
39.53000 233.801
39.54000 237.211
39.55000 240.605
39.56000 239.489
39.57000 235.346
39.58000 231.442
39.59000 234.534
39.60000 240.870
39.61000 246.395
39.62000 240.874
39.63000 231.854
39.64000 223.693
39.65000 228.526
39.66000 235.214
39.67000 239.997
39.68000 235.301
39.69000 229.311
39.70000 225.336
39.71000 228.068
39.72000 231.336
39.73000 233.631
39.74000 239.092
39.75000 243.319
39.76000 243.886
39.77000 238.793
39.78000 233.636
39.79000 229.876
39.80000 227.543
39.81000 225.223
39.82000 222.846
39.83000 220.461
39.84000 218.313
39.85000 222.833
39.86000 230.392
39.87000 237.412
39.88000 237.284
39.89000 234.931
39.90000 232.808
39.91000 233.086
39.92000 233.771
39.93000 233.622
39.94000 229.407
39.95000 224.648
39.96000 220.775
39.97000 219.801
39.98000 219.052
39.99000 218.529
40.00000 224.168
40.01000 228.599
40.02000 227.304
40.03000 217.310
40.04000 207.226
40.05000 204.789
40.06000 210.001
40.07000 215.180
40.08000 218.626
40.09000 220.897
40.10000 223.213
40.11000 226.764
40.12000 230.867
40.13000 234.405
40.14000 230.664
40.15000 224.695
40.16000 219.321
40.17000 221.889
40.18000 225.566
40.19000 227.700
40.20000 222.435
40.21000 216.204
40.22000 212.168
40.23000 215.185
40.24000 218.736
40.25000 221.201
40.26000 222.640
40.27000 223.696
40.28000 225.634
40.29000 228.888
40.30000 232.155
40.31000 231.589
40.32000 227.266
40.33000 222.972
40.34000 223.020
40.35000 225.833
40.36000 228.462
40.37000 226.319
40.38000 222.077
40.39000 218.204
40.40000 218.977
40.41000 221.146
40.42000 223.093
40.43000 215.040
40.44000 206.236
40.45000 200.853
40.46000 211.554
40.47000 224.311
40.48000 233.118
40.49000 229.454
40.50000 224.875
40.51000 221.712
40.52000 213.980
40.53000 208.051
40.54000 207.453
40.55000 214.667
40.56000 221.949
40.57000 224.163
40.58000 221.508
40.59000 218.871
40.60000 217.893
40.61000 217.967
40.62000 218.114
40.63000 220.100
40.64000 222.881
40.65000 225.082
40.66000 220.199
40.67000 213.224
40.68000 206.976
40.69000 205.182
40.70000 204.382
40.71000 204.924
40.72000 211.660
40.73000 219.170
40.74000 223.818
40.75000 219.584
40.76000 214.716
40.77000 211.373
40.78000 215.949
40.79000 219.573
40.80000 221.477
40.81000 220.906
40.82000 220.315
40.83000 218.742
40.84000 216.243
40.85000 213.765
40.86000 212.403
40.87000 211.750
40.88000 211.044
40.89000 209.094
40.90000 206.613
40.91000 204.521
40.92000 207.046
40.93000 210.912
40.94000 214.366
40.95000 214.395
40.96000 213.843
40.97000 213.534
40.98000 214.322
40.99000 215.245
41.00000 215.213
41.01000 212.269
41.02000 209.123
41.03000 206.976
41.04000 209.072
41.05000 210.739
41.06000 208.750
41.07000 201.595
41.08000 194.406
41.09000 196.751
41.10000 207.904
41.11000 218.960
41.12000 222.183
41.13000 220.631
41.14000 219.210
41.15000 220.812
41.16000 223.679
41.17000 225.809
41.18000 219.414
41.19000 210.587
41.20000 202.722
41.21000 205.969
41.22000 210.625
41.23000 213.509
41.24000 208.509
41.25000 202.567
41.26000 199.103
41.27000 203.064
41.28000 207.524
41.29000 210.551
41.30000 209.302
41.31000 208.275
41.32000 206.411
41.33000 203.385
41.34000 200.355
41.35000 202.965
41.36000 210.685
41.37000 218.332
41.38000 219.398
41.39000 216.555
41.40000 213.792
41.41000 212.812
41.42000 212.566
41.43000 211.979
41.44000 207.564
41.45000 202.076
41.46000 197.200
41.47000 202.818
41.48000 209.387
41.49000 214.676
41.50000 214.383
41.51000 213.438
41.52000 212.725
41.53000 212.698
41.54000 212.715
41.55000 212.727
41.56000 214.065
41.57000 215.088
41.58000 214.129
41.59000 210.469
41.60000 206.796
41.61000 206.904
41.62000 210.371
41.63000 213.804
41.64000 217.389
41.65000 220.986
41.66000 224.332
41.67000 222.286
41.68000 218.061
41.69000 213.948
41.70000 211.064
41.71000 208.519
41.72000 206.263
41.73000 207.579
41.74000 209.283
41.75000 210.294
41.76000 208.334
41.77000 206.036
41.78000 204.283
41.79000 204.109
41.80000 204.036
41.81000 203.986
41.82000 200.609
41.83000 198.036
41.84000 195.515
41.85000 193.065
41.86000 190.619
41.87000 192.167
41.88000 197.195
41.89000 202.169
41.90000 210.432
41.91000 220.378
41.92000 229.577
41.93000 223.314
41.94000 210.908
41.95000 199.611
41.96000 200.187
41.97000 203.973
41.98000 207.320
41.99000 213.901
42.00000 220.086
42.01000 223.960
42.02000 218.111
42.03000 211.179
42.04000 207.076
42.05000 211.020
42.06000 215.459
42.07000 218.417
42.08000 219.977
42.09000 221.106
42.10000 217.275
42.11000 206.931
42.12000 196.570
42.13000 194.782
42.14000 200.321
42.15000 205.797
42.16000 205.389
42.17000 201.707
42.18000 198.169
42.19000 197.479
42.20000 197.903
42.21000 198.492
42.22000 200.814
42.23000 203.597
42.24000 206.050
42.25000 208.957
42.26000 211.532
42.27000 213.045
42.28000 210.169
42.29000 206.816
42.30000 205.044
42.31000 207.695
42.32000 210.610
42.33000 212.540
42.34000 209.856
42.35000 207.791
42.36000 208.171
42.37000 211.702
42.38000 215.237
42.39000 214.637
42.40000 210.569
42.41000 206.552
42.42000 206.680
42.43000 209.075
42.44000 211.347
42.45000 211.257
42.46000 210.260
42.47000 209.331
42.48000 209.093
42.49000 209.035
42.50000 208.985
42.51000 203.993
42.52000 198.969
42.53000 196.149
42.54000 202.273
42.55000 209.346
42.56000 214.219
42.57000 213.042
42.58000 211.518
42.59000 210.514
42.60000 200.683
42.61000 193.291
42.62000 190.238
42.63000 192.674
42.64000 195.127
42.65000 197.081
42.66000 198.625
42.67000 200.149
42.68000 200.538
42.69000 200.306
42.70000 200.108
42.71000 200.536
42.72000 201.201
42.73000 201.784
42.74000 201.549
42.75000 201.106
42.76000 200.717
42.77000 199.483
42.78000 198.303
42.79000 197.812
42.80000 200.072
42.81000 202.617
42.82000 204.480
42.83000 204.503
42.84000 204.424
42.85000 204.371
42.86000 201.552
42.87000 199.437
42.88000 199.460
42.89000 202.138
42.90000 204.816
42.91000 204.204
42.92000 200.935
42.93000 197.712
42.94000 195.587
42.95000 194.101
42.96000 192.801
42.97000 194.854
42.98000 198.150
42.99000 201.394
43.00000 204.129
43.01000 206.736
43.02000 209.014
43.03000 199.484
43.04000 189.652
43.05000 183.532
43.06000 191.943
43.07000 201.823
43.08000 207.965
43.09000 204.173
43.10000 199.845
43.11000 197.034
43.12000 195.437
43.13000 194.285
43.14000 194.672
43.15000 196.933
43.16000 199.196
43.17000 200.776
43.18000 201.814
43.19000 202.837
43.20000 205.509
43.21000 208.956
43.22000 212.027
43.23000 208.523
43.24000 202.622
43.25000 197.124
43.26000 195.439
43.27000 194.698
43.28000 194.052
43.29000 196.490
43.30000 199.001
43.31000 201.452
43.32000 203.677
43.33000 205.880
43.34000 207.551
43.35000 207.836
43.36000 208.048
43.37000 208.185
43.38000 207.228
43.39000 206.513
43.40000 203.427
43.41000 197.506
43.42000 191.599
43.43000 190.794
43.44000 193.959
43.45000 197.075
43.46000 196.337
43.47000 193.666
43.48000 190.937
43.49000 187.224
43.50000 183.157
43.51000 179.988
43.52000 185.094
43.53000 192.209
43.54000 198.390
43.55000 199.433
43.56000 199.628
43.57000 199.190
43.58000 196.368
43.59000 193.316
43.60000 190.933
43.61000 190.268
43.62000 189.690
43.63000 189.319
43.64000 194.484
43.65000 198.323
43.66000 197.538
43.67000 191.328
43.68000 185.122
43.69000 182.003
43.70000 181.243
43.71000 180.496
43.72000 180.387
43.73000 180.598
43.74000 180.775
43.75000 180.383
43.76000 179.790
43.77000 179.698
43.78000 184.111
43.79000 189.598
43.80000 194.351
43.81000 191.458
43.82000 187.985
43.83000 185.316
43.84000 185.628
43.85000 186.219
43.86000 186.917
43.87000 187.884
43.88000 188.864
43.89000 189.488
43.90000 190.514
43.91000 191.265
43.92000 192.734
43.93000 195.029
43.94000 197.313
43.95000 197.056
43.96000 194.896
43.97000 192.773
43.98000 189.486
43.99000 185.742
44.00000 182.264
44.01000 183.003
44.02000 185.202
44.03000 187.303
44.04000 188.538
44.05000 189.570
44.06000 190.462
44.07000 191.766
44.08000 192.928
44.09000 194.064
44.10000 195.110
44.11000 196.148
44.12000 196.749
44.13000 196.264
44.14000 195.728
44.15000 195.389
44.16000 192.420
44.17000 190.237
44.18000 190.414
44.19000 193.255
44.20000 196.093
44.21000 198.032
44.22000 199.308
44.23000 200.560
44.24000 200.763
44.25000 200.456
44.26000 199.936
44.27000 196.132
44.28000 191.211
44.29000 187.211
44.30000 191.124
44.31000 196.855
44.32000 201.790
44.33000 198.753
44.34000 195.174
44.35000 193.190
44.36000 196.915
44.37000 201.148
44.38000 205.658
44.39000 210.842
44.40000 216.057
44.41000 219.332
44.42000 217.114
44.43000 215.449
44.44000 214.721
44.45000 215.029
44.46000 215.331
44.47000 214.385
44.48000 212.539
44.49000 210.729
44.50000 212.897
44.51000 216.859
44.52000 220.290
44.53000 215.797
44.54000 208.653
44.55000 202.882
44.56000 208.660
44.57000 217.043
44.58000 224.239
44.59000 228.047
44.60000 230.848
44.61000 232.076
44.62000 227.771
44.63000 222.986
44.64000 220.199
44.65000 222.202
44.66000 224.414
44.67000 225.793
44.68000 221.560
44.69000 218.450
44.70000 219.579
44.71000 225.314
44.72000 231.020
44.73000 232.409
44.74000 230.735
44.75000 229.094
44.76000 227.994
44.77000 227.187
44.78000 226.683
44.79000 230.586
44.80000 235.939
44.81000 241.401
44.82000 247.768
44.83000 254.336
44.84000 259.955
44.85000 256.580
44.86000 252.649
44.87000 249.880
44.88000 251.129
44.89000 252.717
44.90000 255.937
44.91000 263.003
44.92000 270.230
44.93000 274.707
44.94000 268.888
44.95000 264.605
44.96000 262.481
44.97000 262.657
44.98000 262.823
44.99000 261.709
45.00000 259.703
45.01000 257.740
45.02000 260.713
45.03000 265.807
45.04000 270.820
45.05000 274.708
45.06000 278.232
45.07000 281.037
45.08000 278.064
45.09000 273.834
45.10000 270.227
45.11000 267.940
45.12000 266.170
45.13000 264.318
45.14000 262.188
45.15000 260.034
45.16000 257.467
45.17000 253.942
45.18000 250.378
45.19000 248.186
45.20000 246.230
45.21000 244.830
45.22000 244.345
45.23000 244.814
45.24000 245.272
45.25000 244.308
45.26000 242.373
45.27000 240.480
45.28000 239.814
45.29000 239.722
45.30000 239.613
45.31000 239.268
45.32000 238.850
45.33000 238.245
45.34000 236.179
45.35000 233.801
45.36000 231.779
45.37000 226.401
45.38000 221.499
45.39000 218.936
45.40000 224.178
45.41000 230.046
45.42000 232.107
45.43000 225.497
45.44000 218.551
45.45000 214.309
45.46000 221.753
45.47000 227.172
45.48000 228.875
45.49000 226.775
45.50000 224.678
45.51000 222.989
45.52000 221.574
45.53000 220.192
45.54000 216.282
45.55000 211.436
45.56000 206.735
45.57000 203.964
45.58000 201.797
45.59000 200.331
45.60000 204.259
45.61000 209.317
45.62000 213.603
45.63000 214.376
45.64000 214.629
45.65000 215.273
45.66000 217.196
45.67000 219.219
45.68000 218.546
45.69000 211.836
45.70000 204.902
45.71000 200.699
45.72000 202.929
45.73000 204.568
45.74000 204.322
45.75000 202.184
45.76000 200.043
45.77000 197.694
45.78000 195.206
45.79000 192.779
45.80000 190.354
45.81000 188.039
45.82000 186.001
45.83000 187.557
45.84000 190.215
45.85000 192.521
45.86000 192.187
45.87000 191.310
45.88000 190.569
45.89000 187.205
45.90000 184.106
45.91000 182.380
45.92000 185.081
45.93000 188.118
45.94000 189.299
45.95000 186.395
45.96000 183.345
45.97000 181.510
45.98000 180.529
45.99000 179.837
46.00000 180.113
46.01000 181.341
46.02000 182.571
46.03000 184.110
46.04000 185.849
46.05000 187.543
46.06000 184.163
46.07000 178.805
46.08000 173.959
46.09000 175.558
46.10000 179.098
46.11000 182.193
46.12000 182.008
46.13000 181.161
46.14000 180.449
46.15000 178.995
46.16000 177.703
46.17000 177.163
46.18000 179.005
46.19000 181.023
46.20000 181.135
46.21000 177.124
46.22000 172.970
46.23000 170.490
46.24000 171.834
46.25000 172.812
46.26000 174.367
46.27000 176.478
46.28000 178.564
46.29000 178.485
46.30000 177.026
46.31000 175.607
46.32000 175.419
46.33000 175.747
46.34000 176.107
46.35000 176.846
46.36000 177.696
46.37000 177.851
46.38000 173.001
46.39000 167.161
46.40000 162.262
46.41000 166.522
46.42000 171.023
46.43000 174.388
46.44000 174.222
46.45000 173.802
46.46000 173.808
46.47000 174.719
46.48000 175.659
46.49000 176.216
46.50000 179.440
46.51000 181.736
46.52000 182.041
46.53000 180.466
46.54000 178.882
46.55000 176.679
46.56000 174.089
46.57000 171.571
46.58000 172.259
46.59000 174.211
46.60000 176.278
46.61000 179.700
46.62000 183.518
46.63000 186.720
46.64000 185.589
46.65000 183.618
46.66000 181.970
46.67000 181.293
46.68000 180.830
46.69000 178.302
46.70000 169.463
46.71000 160.184
46.72000 155.874
46.73000 161.951
46.74000 168.353
46.75000 172.118
46.76000 174.754
46.77000 176.607
46.78000 177.551
46.79000 177.654
46.80000 177.705
46.81000 174.070
46.82000 168.169
46.83000 162.441
46.84000 162.140
46.85000 164.013
46.86000 165.849
46.87000 167.247
46.88000 168.520
46.89000 170.048
46.90000 173.334
46.91000 176.955
46.92000 179.971
46.93000 176.478
46.94000 172.938
46.95000 169.362
46.96000 165.680
46.97000 161.990
46.98000 161.399
46.99000 167.173
47.00000 173.138
47.01000 176.618
47.02000 178.806
47.03000 180.337
47.04000 179.826
47.05000 177.459
47.06000 175.091
47.07000 172.577
47.08000 169.977
47.09000 167.457
47.10000 168.811
47.11000 171.607
47.12000 173.858
47.13000 169.952
47.14000 164.316
47.15000 159.422
47.16000 159.536
47.17000 160.585
47.18000 161.457
47.19000 159.195
47.20000 157.022
47.21000 156.161
47.22000 159.175
47.23000 162.443
47.24000 165.170
47.25000 166.804
47.26000 168.408
47.27000 169.336
47.28000 165.429
47.29000 162.668
47.30000 158.399
47.31000 152.784
47.32000 147.293
47.33000 149.447
47.34000 156.142
47.35000 162.622
47.36000 163.903
47.37000 163.122
47.38000 162.426
47.39000 162.658
47.40000 163.147
47.41000 163.970
47.42000 167.005
47.43000 170.445
47.44000 173.290
47.45000 170.439
47.46000 167.550
47.47000 164.144
47.48000 159.240
47.49000 154.241
47.50000 152.405
47.51000 156.849
47.52000 161.464
47.53000 164.114
47.54000 163.199
47.55000 162.549
47.56000 164.668
47.57000 169.207
47.58000 173.638
47.59000 171.790
47.60000 166.278
47.61000 160.948
47.62000 163.508
47.63000 168.889
47.64000 173.582
47.65000 170.889
47.66000 166.194
47.67000 161.679
47.68000 158.329
47.69000 155.189
47.70000 152.601
47.71000 159.194
47.72000 165.466
47.73000 169.077
47.74000 165.094
47.75000 160.643
47.76000 158.423
47.77000 160.558
47.78000 162.805
47.79000 164.085
47.80000 161.982
47.81000 160.508
47.82000 161.752
47.83000 165.326
47.84000 168.804
47.85000 167.001
47.86000 162.171
47.87000 157.508
47.88000 157.217
47.89000 158.555
47.90000 160.017
47.91000 162.779
47.92000 165.887
47.93000 168.453
47.94000 167.579
47.95000 166.100
47.96000 164.885
47.97000 160.043
47.98000 155.742
47.99000 152.250
48.00000 151.024
48.01000 149.934
48.02000 151.501
48.03000 158.162
48.04000 164.950
48.05000 168.783
48.06000 159.506
48.07000 153.033
48.08000 152.994
48.09000 158.366
48.10000 163.678
48.11000 165.863
48.12000 166.287
48.13000 166.696
48.14000 167.614
48.15000 168.662
48.16000 169.363
48.17000 166.533
48.18000 162.778
48.19000 159.587
48.20000 159.901
48.21000 160.820
48.22000 161.571
48.23000 161.101
48.24000 160.610
48.25000 159.869
48.26000 158.444
48.27000 156.979
48.28000 157.295
48.29000 160.968
48.30000 164.720
48.31000 166.821
48.32000 159.993
48.33000 155.247
48.34000 154.124
48.35000 155.989
48.36000 157.949
48.37000 164.561
48.38000 173.747
48.39000 182.590
48.40000 174.705
48.41000 161.363
48.42000 149.358
48.43000 150.659
48.44000 155.381
48.45000 159.587
48.46000 160.649
48.47000 161.180
48.48000 161.613
48.49000 157.093
48.50000 152.977
48.51000 150.425
48.52000 152.112
48.53000 154.037
48.54000 156.335
48.55000 159.323
48.56000 162.327
48.57000 163.995
48.58000 158.834
48.59000 155.260
48.60000 153.655
48.61000 153.645
48.62000 153.652
48.63000 154.418
48.64000 155.599
48.65000 156.733
48.66000 155.474
48.67000 153.459
48.68000 151.958
48.69000 155.448
48.70000 160.198
48.71000 164.468
48.72000 165.870
48.73000 166.797
48.74000 167.550
48.75000 168.878
48.76000 170.008
48.77000 168.814
48.78000 161.426
48.79000 153.702
48.80000 150.033
48.81000 153.746
48.82000 157.615
48.83000 159.745
48.84000 161.223
48.85000 162.235
48.86000 161.601
48.87000 159.658
48.88000 157.738
48.89000 156.814
48.90000 156.424
48.91000 156.049
48.92000 155.095
48.93000 154.005
48.94000 153.410
48.95000 157.504
48.96000 162.760
48.97000 166.721
48.98000 163.109
48.99000 158.266
49.00000 154.348
49.01000 152.223
49.02000 150.639
49.03000 149.077
49.04000 147.577
49.05000 146.080
49.06000 145.985
49.07000 148.399
49.08000 150.864
49.09000 152.209
49.10000 155.268
49.11000 157.363
49.12000 157.362
49.13000 155.724
49.14000 154.075
49.15000 151.929
49.16000 149.522
49.17000 147.215
49.18000 144.223
49.19000 141.201
49.20000 138.764
49.21000 141.757
49.22000 146.071
49.23000 149.956
49.24000 151.379
49.25000 152.410
49.26000 153.241
49.27000 150.771
49.28000 148.507
49.29000 147.484
49.30000 149.659
49.31000 151.996
49.32000 154.100
49.33000 155.796
49.34000 157.484
49.35000 158.398
49.36000 151.236
49.37000 146.338
49.38000 144.841
49.39000 145.949
49.40000 147.194
49.41000 153.833
49.42000 163.258
49.43000 172.278
49.44000 167.220
49.45000 157.874
49.46000 149.516
49.47000 150.091
49.48000 152.800
49.49000 154.883
49.50000 153.440
49.51000 151.447
49.52000 149.848
49.53000 151.375
49.54000 152.851
49.55000 153.527
49.56000 152.179
49.57000 150.733
49.58000 150.793
49.59000 153.456
49.60000 156.165
49.61000 157.618
49.62000 160.576
49.63000 162.583
49.64000 161.685
49.65000 158.603
49.66000 155.557
49.67000 153.821
49.68000 152.751
49.69000 151.728
49.70000 151.529
49.71000 151.611
49.72000 151.497
49.73000 149.662
49.74000 147.423
49.75000 145.964
49.76000 148.803
49.77000 152.299
49.78000 155.093
49.79000 152.344
49.80000 149.711
49.81000 148.473
49.82000 150.709
49.83000 153.109
49.84000 153.002
49.85000 148.640
49.86000 144.207
49.87000 141.852
49.88000 145.174
49.89000 147.439
49.90000 149.710
49.91000 151.986
49.92000 154.269
49.93000 156.790
49.94000 159.429
49.95000 161.948
49.96000 161.205
49.97000 159.484
49.98000 158.056
49.99000 159.169
50.00000 160.867
50.01000 161.656
50.02000 157.528
50.03000 152.665
50.04000 148.793
50.05000 149.639
50.06000 150.661
50.07000 151.990
50.08000 154.071
50.09000 156.186
50.10000 158.428
50.11000 160.882
50.12000 163.338
50.13000 164.632
50.14000 158.263
50.15000 153.954
50.16000 152.088
50.17000 151.991
50.18000 151.921
50.19000 152.780
50.20000 154.094
50.21000 155.346
50.22000 158.766
50.23000 162.609
50.24000 165.954
50.25000 165.101
50.26000 163.299
50.27000 161.383
50.28000 158.867
50.29000 156.264
50.30000 154.199
50.31000 157.124
50.32000 159.828
50.33000 162.144
50.34000 163.529
50.35000 164.872
50.36000 165.399
50.37000 164.586
50.38000 163.754
50.39000 163.320
50.40000 166.784
50.41000 169.133
50.42000 172.295
50.43000 176.037
50.44000 179.666
50.45000 179.654
50.46000 177.887
50.47000 176.206
50.48000 175.407
50.49000 174.937
50.50000 174.491
50.51000 174.237
50.52000 174.027
50.53000 174.100
50.54000 175.647
50.55000 177.404
50.56000 178.792
50.57000 184.201
50.58000 188.816
50.59000 191.490
50.60000 189.578
50.61000 187.473
50.62000 187.397
50.63000 190.590
50.64000 193.827
50.65000 195.499
50.66000 184.017
50.67000 176.326
50.68000 175.133
50.69000 178.482
50.70000 181.765
50.71000 182.992
50.72000 183.246
50.73000 183.486
50.74000 185.385
50.75000 187.633
50.76000 189.249
50.77000 185.773
50.78000 181.186
50.79000 177.917
50.80000 181.367
50.81000 185.760
50.82000 189.216
50.83000 187.469
50.84000 185.726
50.85000 182.137
50.86000 174.262
50.87000 166.213
50.88000 161.467
50.89000 161.947
50.90000 162.493
50.91000 162.773
50.92000 161.523
50.93000 160.694
50.94000 161.024
50.95000 162.149
50.96000 163.283
50.97000 164.639
50.98000 166.100
50.99000 167.485
51.00000 162.697
51.01000 156.475
51.02000 151.433
51.03000 155.680
51.04000 161.915
51.05000 166.159
51.06000 160.450
51.07000 153.374
51.08000 147.831
51.09000 147.886
51.10000 148.289
51.11000 148.945
51.12000 150.179
51.13000 151.435
51.14000 151.169
51.15000 148.536
51.16000 145.876
51.17000 144.529
51.18000 149.118
51.19000 152.137
51.20000 149.302
51.21000 142.521
51.22000 136.005
51.23000 137.065
51.24000 141.595
51.25000 145.880
51.26000 148.333
51.27000 150.060
51.28000 151.283
51.29000 148.619
51.30000 145.139
51.31000 142.579
51.32000 144.540
51.33000 147.108
51.34000 149.111
51.35000 150.001
51.36000 150.640
51.37000 151.240
51.38000 151.747
51.39000 152.252
51.40000 151.759
51.41000 149.743
51.42000 147.711
51.43000 146.692
51.44000 141.751
51.45000 138.473
51.46000 137.087
51.47000 136.953
51.48000 136.735
51.49000 134.173
51.50000 130.557
51.51000 127.141
51.52000 129.352
51.53000 132.968
51.54000 136.379
51.55000 138.238
51.56000 139.778
51.57000 141.640
51.58000 145.053
51.59000 148.670
51.60000 151.479
51.61000 147.884
51.62000 144.637
51.63000 142.668
51.64000 143.517
51.65000 144.468
51.66000 146.576
51.67000 150.417
51.68000 154.276
51.69000 154.686
51.70000 151.693
51.71000 148.701
51.72000 145.662
51.73000 142.592
51.74000 139.632
51.75000 139.535
51.76000 140.705
51.77000 141.808
51.78000 141.241
51.79000 140.260
51.80000 139.717
51.81000 142.415
51.82000 145.768
51.83000 148.082
51.84000 145.483
51.85000 142.252
51.86000 139.754
51.87000 138.072
51.88000 136.786
51.89000 136.742
51.90000 139.394
51.91000 142.138
51.92000 141.980
51.93000 137.546
51.94000 133.073
51.95000 132.925
51.96000 136.956
51.97000 140.981
51.98000 144.486
51.99000 147.660
52.00000 150.627
52.01000 148.406
52.02000 143.929
52.03000 139.716
52.04000 138.352
52.05000 137.880
52.06000 138.076
52.07000 143.103
52.08000 149.089
52.09000 153.239
52.10000 148.872
52.11000 143.434
52.12000 139.248
52.13000 141.937
52.14000 144.457
52.15000 143.826
52.16000 136.474
52.17000 128.901
52.18000 127.288
52.19000 134.300
52.20000 141.381
52.21000 143.003
52.22000 139.451
52.23000 135.930
52.24000 134.763
52.25000 135.073
52.26000 135.441
52.27000 137.190
52.28000 139.530
52.29000 141.728
52.30000 142.047
52.31000 141.839
52.32000 141.718
52.33000 142.220
52.34000 142.844
52.35000 143.718
52.36000 145.739
52.37000 147.900
52.38000 149.557
52.39000 149.544
52.40000 149.441
52.41000 149.302
52.42000 149.084
52.43000 148.864
52.44000 147.751
52.45000 145.370
52.46000 142.981
52.47000 142.275
52.48000 143.134
52.49000 143.976
52.50000 143.563
52.51000 142.376
52.52000 141.240
52.53000 141.263
52.54000 141.775
52.55000 142.254
52.56000 139.557
52.57000 136.272
52.58000 133.749
52.59000 136.490
52.60000 140.237
52.61000 143.073
52.62000 141.834
52.63000 140.106
52.64000 138.788
52.65000 140.902
52.66000 142.752
52.67000 142.640
52.68000 138.487
52.69000 134.212
52.70000 132.936
52.71000 135.844
52.72000 138.778
52.73000 141.541
52.74000 144.144
52.75000 146.711
52.76000 146.741
52.77000 145.234
52.78000 143.770
52.79000 143.243
52.80000 143.103
52.81000 142.972
52.82000 147.275
52.83000 152.319
52.84000 156.018
52.85000 150.608
52.86000 143.492
52.87000 137.362
52.88000 135.558
52.89000 134.263
52.90000 133.279
52.91000 138.836
52.92000 143.541
52.93000 146.751
52.94000 146.932
52.95000 147.026
52.96000 146.847
52.97000 146.294
52.98000 145.740
52.99000 145.953
53.00000 146.853
53.01000 147.767
53.02000 149.554
53.03000 151.861
53.04000 153.925
53.05000 150.714
53.06000 145.360
53.07000 140.361
53.08000 138.708
53.09000 138.049
53.10000 137.668
53.11000 139.132
53.12000 140.935
53.13000 142.379
53.14000 142.273
53.15000 141.990
53.16000 141.775
53.17000 144.788
53.18000 147.312
53.19000 149.477
53.20000 150.928
53.21000 152.360
53.22000 153.817
53.23000 155.309
53.24000 156.801
53.25000 157.203
53.26000 156.650
53.27000 156.164
53.28000 159.555
53.29000 165.216
53.30000 170.630
53.31000 170.891
53.32000 169.095
53.33000 167.420
53.34000 165.890
53.35000 164.541
53.36000 163.586
53.37000 165.195
53.38000 167.266
53.39000 167.939
53.40000 162.700
53.41000 156.798
53.42000 152.357
53.43000 150.876
53.44000 149.860
53.45000 149.387
53.46000 149.975
53.47000 150.591
53.48000 151.235
53.49000 151.917
53.50000 152.599
53.51000 151.903
53.52000 150.026
53.53000 148.233
53.54000 151.068
53.55000 156.564
53.56000 161.662
53.57000 158.743
53.58000 152.677
53.59000 147.034
53.60000 143.824
53.61000 141.511
53.62000 140.037
53.63000 143.900
53.64000 148.705
53.65000 151.990
53.66000 148.957
53.67000 145.233
53.68000 142.444
53.69000 152.543
53.70000 161.027
53.71000 163.905
53.72000 155.999
53.73000 147.826
53.74000 145.827
53.75000 151.832
53.76000 157.863
53.77000 155.496
53.78000 146.070
53.79000 136.803
53.80000 135.855
53.81000 139.606
53.82000 143.167
53.83000 143.025
53.84000 141.456
53.85000 139.998
53.86000 145.263
53.87000 151.599
53.88000 156.358
53.89000 151.299
53.90000 144.541
53.91000 139.870
53.92000 143.715
53.93000 148.470
53.94000 152.014
53.95000 154.658
53.96000 156.675
53.97000 156.961
53.98000 153.974
53.99000 150.911
54.00000 148.710
54.01000 147.607
54.02000 146.509
54.03000 145.740
54.04000 145.246
54.05000 144.740
54.06000 143.659
54.07000 142.259
54.08000 140.923
54.09000 140.797
54.10000 141.130
54.11000 141.439
54.12000 140.312
54.13000 138.966
54.14000 138.174
54.15000 140.773
54.16000 143.946
54.17000 146.253
54.18000 145.089
54.19000 143.562
54.20000 142.430
54.21000 147.570
54.22000 151.837
54.23000 152.815
54.24000 147.687
54.25000 142.423
54.26000 140.079
54.27000 141.382
54.28000 142.694
54.29000 142.895
54.30000 142.196
54.31000 141.440
54.32000 137.997
54.33000 133.088
54.34000 128.468
54.35000 129.116
54.36000 131.727
54.37000 134.141
54.38000 137.580
54.39000 140.899
54.40000 143.615
54.41000 142.714
54.42000 141.212
54.43000 139.766
54.44000 138.540
54.45000 137.337
54.46000 136.449
54.47000 141.172
54.48000 145.068
54.49000 147.182
54.50000 146.044
54.51000 144.837
54.52000 143.221
54.53000 141.104
54.54000 138.990
54.55000 139.524
54.56000 142.156
54.57000 144.763
54.58000 146.238
54.59000 147.105
54.60000 147.866
54.61000 146.737
54.62000 144.916
54.63000 143.237
54.64000 141.691
54.65000 140.335
54.66000 139.715
54.67000 143.412
54.68000 147.812
54.69000 150.094
54.70000 144.194
54.71000 137.481
54.72000 132.552
54.73000 135.805
54.74000 138.653
54.75000 140.543
54.76000 140.716
54.77000 140.854
54.78000 140.726
54.79000 140.277
54.80000 139.828
54.81000 138.948
54.82000 137.738
54.83000 136.592
54.84000 138.097
54.85000 140.999
54.86000 143.622
54.87000 141.489
54.88000 137.643
54.89000 134.103
54.90000 135.420
54.91000 137.658
54.92000 140.033
54.93000 143.193
54.94000 146.479
54.95000 149.422
54.96000 151.068
54.97000 152.587
54.98000 153.697
54.99000 152.259
55.00000 151.050
55.01000 149.777
55.02000 148.391
55.03000 147.003
55.04000 147.072
55.05000 148.862
55.06000 150.651
55.07000 155.009
55.08000 161.302
55.09000 167.392
55.10000 165.392
55.11000 159.204
55.12000 153.265
55.13000 151.439
55.14000 151.071
55.15000 150.732
55.16000 151.255
55.17000 151.905
55.18000 152.830
55.19000 155.300
55.20000 158.013
55.21000 158.861
55.22000 152.761
55.23000 146.003
55.24000 141.090
55.25000 151.281
55.26000 159.691
55.27000 166.134
55.28000 169.168
55.29000 172.141
55.30000 173.019
55.31000 171.473
55.32000 169.928
55.33000 169.625
55.34000 170.253
55.35000 170.977
55.36000 175.313
55.37000 181.486
55.38000 187.381
55.39000 188.829
55.40000 188.728
55.41000 188.637
55.42000 193.064
55.43000 197.954
55.44000 203.577
55.45000 213.254
55.46000 223.551
55.47000 232.416
55.48000 236.030
55.49000 239.160
55.50000 241.423
55.51000 262.489
55.52000 279.338
55.53000 288.266
55.54000 283.707
55.55000 278.923
55.56000 283.782
55.57000 299.591
55.58000 315.361
55.59000 331.699
55.60000 348.330
55.61000 364.873
55.62000 378.302
55.63000 390.172
55.64000 402.089
55.65000 414.748
55.66000 427.661
55.67000 439.466
55.68000 455.882
55.69000 471.416
55.70000 487.285
55.71000 504.972
55.72000 522.931
55.73000 542.033
55.74000 565.244
55.75000 588.825
55.76000 605.788
55.77000 618.061
55.78000 627.293
55.79000 634.555
55.80000 638.523
55.81000 642.439
55.82000 649.612
55.83000 660.412
55.84000 671.177
55.85000 681.330
55.86000 690.955
55.87000 700.523
55.88000 708.131
55.89000 714.775
55.90000 720.756
55.91000 716.758
55.92000 709.403
55.93000 702.695
55.94000 705.266
55.95000 709.412
55.96000 711.399
55.97000 701.909
55.98000 690.732
55.99000 676.887
56.00000 653.609
56.01000 629.506
56.02000 612.258
56.03000 590.717
56.04000 574.123
56.05000 562.054
56.06000 557.422
56.07000 552.898
56.08000 545.014
56.09000 533.459
56.10000 521.948
56.11000 502.213
56.12000 476.854
56.13000 451.844
56.14000 438.247
56.15000 430.167
56.16000 421.983
56.17000 412.290
56.18000 402.098
56.19000 392.824
56.20000 376.001
56.21000 359.627
56.22000 343.799
56.23000 330.823
56.24000 318.256
56.25000 305.181
56.26000 290.339
56.27000 275.347
56.28000 264.675
56.29000 253.495
56.30000 244.962
56.31000 236.062
56.32000 226.572
56.33000 217.073
56.34000 207.939
56.35000 199.197
56.36000 190.493
56.37000 191.545
56.38000 199.349
56.39000 206.731
56.40000 200.918
56.41000 188.835
56.42000 177.473
56.43000 176.360
56.44000 178.575
56.45000 180.587
56.46000 174.794
56.47000 168.173
56.48000 162.349
56.49000 160.602
56.50000 159.429
56.51000 158.115
56.52000 156.318
56.53000 154.482
56.54000 153.182
56.55000 152.758
56.56000 152.464
56.57000 150.097
56.58000 144.444
56.59000 138.748
56.60000 136.946
56.61000 139.232
56.62000 141.507
56.63000 144.356
56.64000 147.564
56.65000 150.572
56.66000 147.570
56.67000 141.763
56.68000 136.309
56.69000 135.730
56.70000 136.708
56.71000 137.594
56.72000 135.751
56.73000 133.611
56.74000 132.173
56.75000 134.252
56.76000 136.817
56.77000 139.416
56.78000 142.128
56.79000 144.850
56.80000 146.767
56.81000 139.227
56.82000 133.229
56.83000 130.967
56.84000 134.526
56.85000 138.153
56.86000 138.691
56.87000 136.050
56.88000 133.424
56.89000 134.057
56.90000 136.856
56.91000 139.522
56.92000 138.324
56.93000 135.354
56.94000 132.520
56.95000 131.510
56.96000 131.072
56.97000 130.677
56.98000 129.656
56.99000 128.642
57.00000 127.705
57.01000 127.143
57.02000 126.633
57.03000 125.826
57.04000 124.042
57.05000 122.181
57.06000 120.878
57.07000 128.690
57.08000 134.856
57.09000 136.266
57.10000 130.391
57.11000 124.438
57.12000 124.732
57.13000 131.330
57.14000 137.888
57.15000 141.572
57.16000 143.324
57.17000 144.849
57.18000 140.116
57.19000 132.558
57.20000 125.452
57.21000 124.237
57.22000 124.837
57.23000 125.378
57.24000 125.243
57.25000 125.003
57.26000 124.885
57.27000 125.362
57.28000 125.917
57.29000 127.243
57.30000 131.066
57.31000 135.080
57.32000 137.874
57.33000 139.590
57.34000 140.855
57.35000 139.419
57.36000 133.919
57.37000 128.380
57.38000 126.005
57.39000 126.759
57.40000 127.509
57.41000 126.975
57.42000 125.626
57.43000 124.328
57.44000 124.377
57.45000 125.024
57.46000 125.669
57.47000 126.286
57.48000 126.894
57.49000 127.440
57.50000 127.232
57.51000 126.916
57.52000 126.430
57.53000 125.132
57.54000 123.730
57.55000 122.395
57.56000 121.270
57.57000 120.161
57.58000 119.393
57.59000 122.262
57.60000 124.515
57.61000 127.602
57.62000 131.922
57.63000 136.253
57.64000 136.675
57.65000 133.306
57.66000 129.962
57.67000 126.634
57.68000 123.372
57.69000 120.258
57.70000 120.920
57.71000 123.230
57.72000 125.233
57.73000 123.458
57.74000 120.557
57.75000 117.956
57.76000 118.496
57.77000 119.514
57.78000 120.407
57.79000 120.722
57.80000 120.963
57.81000 121.651
57.82000 123.731
57.83000 125.913
57.84000 127.414
57.85000 124.437
57.86000 122.091
57.87000 120.430
57.88000 119.763
57.89000 119.104
57.90000 120.240
57.91000 123.081
57.92000 125.900
57.93000 126.664
57.94000 126.143
57.95000 125.517
57.96000 122.323
57.97000 118.027
57.98000 114.133
57.99000 115.077
58.00000 117.437
58.01000 119.547
58.02000 117.978
58.03000 115.985
58.04000 115.389
58.05000 121.177
58.06000 127.753
58.07000 132.214
58.08000 130.174
58.09000 127.678
58.10000 125.970
58.11000 126.008
58.12000 126.078
58.13000 125.402
58.14000 123.664
58.15000 121.918
58.16000 120.118
58.17000 118.269
58.18000 116.435
58.19000 118.934
58.20000 124.016
58.21000 128.957
58.22000 130.594
58.23000 130.838
58.24000 131.030
58.25000 130.611
58.26000 130.016
58.27000 129.485
58.28000 124.750
58.29000 119.929
58.30000 116.291
58.31000 117.955
58.32000 120.259
58.33000 122.384
58.34000 123.970
58.35000 125.520
58.36000 126.574
58.37000 126.724
58.38000 126.815
58.39000 126.381
58.40000 125.212
58.41000 124.037
58.42000 121.755
58.43000 118.460
58.44000 115.196
58.45000 114.374
58.46000 115.022
58.47000 115.729
58.48000 117.765
58.49000 120.353
58.50000 122.927
58.51000 125.339
58.52000 127.705
58.53000 129.811
58.54000 130.132
58.55000 130.119
58.56000 128.792
58.57000 121.680
58.58000 113.886
58.59000 108.980
58.60000 112.643
58.61000 116.874
58.62000 119.734
58.63000 116.152
58.64000 113.344
58.65000 114.397
58.66000 120.752
58.67000 127.138
58.68000 130.392
58.69000 130.839
58.70000 131.282
58.71000 129.796
58.72000 127.214
58.73000 124.660
58.74000 122.710
58.75000 121.006
58.76000 119.536
58.77000 120.662
58.78000 122.507
58.79000 124.144
58.80000 121.447
58.81000 118.418
58.82000 116.200
58.83000 117.484
58.84000 119.171
58.85000 120.799
58.86000 122.249
58.87000 123.688
58.88000 124.656
58.89000 121.246
58.90000 118.623
58.91000 117.657
58.92000 118.927
58.93000 120.209
58.94000 121.907
58.95000 123.971
58.96000 126.013
58.97000 126.549
58.98000 126.211
58.99000 125.773
59.00000 123.261
59.01000 119.919
59.02000 116.989
59.03000 118.517
59.04000 121.259
59.05000 123.686
59.06000 119.677
59.07000 115.206
59.08000 111.259
59.09000 109.530
59.10000 108.050
59.11000 106.179
59.12000 103.184
59.13000 100.119
59.14000 98.071
59.15000 109.669
59.16000 118.530
59.17000 122.059
59.18000 118.525
59.19000 114.961
59.20000 114.531
59.21000 116.801
59.22000 119.047
59.23000 118.431
59.24000 116.221
59.25000 114.119
59.26000 114.197
59.27000 115.134
59.28000 116.099
59.29000 117.361
59.30000 118.703
59.31000 119.888
59.32000 115.704
59.33000 111.274
59.34000 108.848
59.35000 114.764
59.36000 121.598
59.37000 126.117
59.38000 124.109
59.39000 121.709
59.40000 120.115
59.41000 113.795
59.42000 109.035
59.43000 109.027
59.44000 115.195
59.45000 121.385
59.46000 125.119
59.47000 126.776
59.48000 128.413
59.49000 127.938
59.50000 126.309
59.51000 124.643
59.52000 122.242
59.53000 119.556
59.54000 117.163
59.55000 117.782
59.56000 119.193
59.57000 120.435
59.58000 116.372
59.59000 112.082
59.60000 109.527
59.61000 114.070
59.62000 119.374
59.63000 122.530
59.64000 119.734
59.65000 116.591
59.66000 114.517
59.67000 119.423
59.68000 123.163
59.69000 124.755
59.70000 123.606
59.71000 122.446
59.72000 120.558
59.73000 118.065
59.74000 115.604
59.75000 115.474
59.76000 116.609
59.77000 117.804
59.78000 120.124
59.79000 122.872
59.80000 124.985
59.81000 120.729
59.82000 114.826
59.83000 109.646
59.84000 111.360
59.85000 113.841
59.86000 115.729
59.87000 115.241
59.88000 114.504
59.89000 114.594
59.90000 116.934
59.91000 119.400
59.92000 121.018
59.93000 116.617
59.94000 113.281
59.95000 112.186
59.96000 113.895
59.97000 115.612
59.98000 116.833
59.99000 117.650
60.00000 118.455
60.01000 115.799
60.02000 111.374
60.03000 107.324
60.04000 110.112
60.05000 115.458
60.06000 120.384
60.07000 121.202
60.08000 120.977
60.09000 120.780
60.10000 118.439
60.11000 116.126
60.12000 114.102
60.13000 113.219
60.14000 112.452
60.15000 112.661
60.16000 115.485
60.17000 118.452
60.18000 120.385
60.19000 127.091
60.20000 132.084
60.21000 132.976
60.22000 128.826
60.23000 124.659
60.24000 119.116
60.25000 112.474
60.26000 105.927
60.27000 107.790
60.28000 113.987
60.29000 119.964
60.30000 122.043
60.31000 122.690
60.32000 123.128
60.33000 121.580
60.34000 119.536
60.35000 117.752
60.36000 115.210
60.37000 112.930
60.38000 111.051
60.39000 110.722
60.40000 110.549
60.41000 111.364
60.42000 114.779
60.43000 118.333
60.44000 120.633
60.45000 119.467
60.46000 118.562
60.47000 119.010
60.48000 121.088
60.49000 123.153
60.50000 120.709
60.51000 114.728
60.52000 108.839
60.53000 107.460
60.54000 108.434
60.55000 109.600
60.56000 114.040
60.57000 119.664
60.58000 124.546
60.59000 122.515
60.60000 118.793
60.61000 115.554
60.62000 114.741
60.63000 114.378
60.64000 114.089
60.65000 114.082
60.66000 114.102
60.67000 114.608
60.68000 116.372
60.69000 118.199
60.70000 119.374
60.71000 117.344
60.72000 115.818
60.73000 115.338
60.74000 116.095
60.75000 116.846
60.76000 115.465
60.77000 112.444
60.78000 109.472
60.79000 108.351
60.80000 108.196
60.81000 108.164
60.82000 110.164
60.83000 112.886
60.84000 115.255
60.85000 114.421
60.86000 112.817
60.87000 111.426
60.88000 116.692
60.89000 122.066
60.90000 125.870
60.91000 123.806
60.92000 121.184
60.93000 119.222
60.94000 118.937
60.95000 118.734
60.96000 118.605
60.97000 114.988
60.98000 112.311
60.99000 112.474
61.00000 115.934
61.01000 119.391
61.02000 121.559
61.03000 122.750
61.04000 123.921
61.05000 121.179
61.06000 116.599
61.07000 112.231
61.08000 111.283
61.09000 111.528
61.10000 112.498
61.11000 119.912
61.12000 128.845
61.13000 136.571
61.14000 133.616
61.15000 129.710
61.16000 126.067
61.17000 123.389
61.18000 120.801
61.19000 119.079
61.20000 119.525
61.21000 120.073
61.22000 120.421
61.23000 123.005
61.24000 124.908
61.25000 125.126
61.26000 123.424
61.27000 121.739
61.28000 123.425
61.29000 127.613
61.30000 131.725
61.31000 130.169
61.32000 125.925
61.33000 121.898
61.34000 121.269
61.35000 121.804
61.36000 122.238
61.37000 121.790
61.38000 121.138
61.39000 120.575
61.40000 122.532
61.41000 124.514
61.42000 126.521
61.43000 128.625
61.44000 130.737
61.45000 133.092
61.46000 136.046
61.47000 139.027
61.48000 140.906
61.49000 143.709
61.50000 145.748
61.51000 149.340
61.52000 154.668
61.53000 160.025
61.54000 169.991
61.55000 183.317
61.56000 196.389
61.57000 211.859
61.58000 227.906
61.59000 243.472
61.60000 251.744
61.61000 257.558
61.62000 263.499
61.63000 270.521
61.64000 277.789
61.65000 284.036
61.66000 290.207
61.67000 295.419
61.68000 299.365
61.69000 298.823
61.70000 297.887
61.71000 296.209
61.72000 292.738
61.73000 289.188
61.74000 286.967
61.75000 281.744
61.76000 277.942
61.77000 270.886
61.78000 260.263
61.79000 249.624
61.80000 236.781
61.81000 222.363
61.82000 208.233
61.83000 195.162
61.84000 183.080
61.85000 171.067
61.86000 160.066
61.87000 149.399
61.88000 139.636
61.89000 137.373
61.90000 136.785
61.91000 136.281
61.92000 134.314
61.93000 132.475
61.94000 131.054
61.95000 131.086
61.96000 131.243
61.97000 131.725
61.98000 132.981
61.99000 134.270
62.00000 135.071
62.01000 133.211
62.02000 131.845
62.03000 131.254
62.04000 131.496
62.05000 131.725
62.06000 130.242
62.07000 127.555
62.08000 124.926
62.09000 125.899
62.10000 128.481
62.11000 130.695
62.12000 127.657
62.13000 122.907
62.14000 118.681
62.15000 118.697
62.16000 119.643
62.17000 120.451
62.18000 125.019
62.19000 129.315
62.20000 132.970
62.21000 134.432
62.22000 135.712
62.23000 136.498
62.24000 136.131
62.25000 135.717
62.26000 135.462
62.27000 133.224
62.28000 131.600
62.29000 130.971
62.30000 131.393
62.31000 131.806
62.32000 131.109
62.33000 129.646
62.34000 128.215
62.35000 128.708
62.36000 130.044
62.37000 131.448
62.38000 133.781
62.39000 136.412
62.40000 138.724
62.41000 138.508
62.42000 137.748
62.43000 137.101
62.44000 134.181
62.45000 131.464
62.46000 129.393
62.47000 129.499
62.48000 129.781
62.49000 130.713
62.50000 133.136
62.51000 135.618
62.52000 137.138
62.53000 132.601
62.54000 129.301
62.55000 125.875
62.56000 122.318
62.57000 118.800
62.58000 119.506
62.59000 123.074
62.60000 126.560
62.61000 129.828
62.62000 132.860
62.63000 135.873
62.64000 138.623
62.65000 141.292
62.66000 142.900
62.67000 136.286
62.68000 127.936
62.69000 120.850
62.70000 121.479
62.71000 122.882
62.72000 124.120
62.73000 124.813
62.74000 125.463
62.75000 125.937
62.76000 126.011
62.77000 126.070
62.78000 126.107
62.79000 129.692
62.80000 132.281
62.81000 133.053
62.82000 131.988
62.83000 130.931
62.84000 130.768
62.85000 131.200
62.86000 131.621
62.87000 129.818
62.88000 127.133
62.89000 124.606
62.90000 124.143
62.91000 124.318
62.92000 124.228
62.93000 122.131
62.94000 119.618
62.95000 117.492
62.96000 124.676
62.97000 131.718
62.98000 137.030
62.99000 136.726
63.00000 135.992
63.01000 134.988
63.02000 133.388
63.03000 131.766
63.04000 130.787
63.05000 128.874
63.06000 127.505
63.07000 127.604
63.08000 129.159
63.09000 130.722
63.10000 132.939
63.11000 135.583
63.12000 138.161
63.13000 137.539
63.14000 135.589
63.15000 133.412
63.16000 128.366
63.17000 122.448
63.18000 117.697
63.19000 121.612
63.20000 127.289
63.21000 132.074
63.22000 129.096
63.23000 125.769
63.24000 124.295
63.25000 128.731
63.26000 133.609
63.27000 137.876
63.28000 140.813
63.29000 143.704
63.30000 145.436
63.31000 134.465
63.32000 126.592
63.33000 125.006
63.34000 129.533
63.35000 134.019
63.36000 134.990
63.37000 133.703
63.38000 132.451
63.39000 131.552
63.40000 130.843
63.41000 130.160
63.42000 129.790
63.43000 129.514
63.44000 129.547
63.45000 131.826
63.46000 134.553
63.47000 136.844
63.48000 138.619
63.49000 140.043
63.50000 140.833
63.51000 139.636
63.52000 138.295
63.53000 137.627
63.54000 138.402
63.55000 139.225
63.56000 139.715
63.57000 140.430
63.58000 140.937
63.59000 141.558
63.60000 142.286
63.61000 142.969
63.62000 140.016
63.63000 134.769
63.64000 129.667
63.65000 132.675
63.66000 138.849
63.67000 144.455
63.68000 143.217
63.69000 139.973
63.70000 136.981
63.71000 135.789
63.72000 134.950
63.73000 134.247
63.74000 137.431
63.75000 140.478
63.76000 143.062
63.77000 144.220
63.78000 145.277
63.79000 144.733
63.80000 140.813
63.81000 136.786
63.82000 134.409
63.83000 139.695
63.84000 143.468
63.85000 142.825
63.86000 138.056
63.87000 133.344
63.88000 132.830
63.89000 134.917
63.90000 136.945
63.91000 136.330
63.92000 134.688
63.93000 133.272
63.94000 134.524
63.95000 136.545
63.96000 138.359
63.97000 138.729
63.98000 138.822
63.99000 138.899
64.00000 143.264
64.01000 147.314
64.02000 150.415
64.03000 150.641
64.04000 150.670
64.05000 150.039
64.06000 148.041
64.07000 146.002
64.08000 144.808
64.09000 145.382
64.10000 145.795
64.11000 147.406
64.12000 150.114
64.13000 152.817
64.14000 155.186
64.15000 157.351
64.16000 159.450
64.17000 155.427
64.18000 149.204
64.19000 143.520
64.20000 143.982
64.21000 146.185
64.22000 148.152
64.23000 148.511
64.24000 148.568
64.25000 148.614
64.26000 151.022
64.27000 153.246
64.28000 153.148
64.29000 146.138
64.30000 138.669
64.31000 135.091
64.32000 139.434
64.33000 144.007
64.34000 146.664
64.35000 148.269
64.36000 149.392
64.37000 150.242
64.38000 150.848
64.39000 151.459
64.40000 152.365
64.41000 153.447
64.42000 154.495
64.43000 155.805
64.44000 157.147
64.45000 158.794
64.46000 163.852
64.47000 169.859
64.48000 174.767
64.49000 172.339
64.50000 168.557
64.51000 165.423
64.52000 162.451
64.53000 160.013
64.54000 158.257
64.55000 158.495
64.56000 158.862
64.57000 159.791
64.58000 161.845
64.59000 163.931
64.60000 165.132
64.61000 166.028
64.62000 166.652
64.63000 165.595
64.64000 163.058
64.65000 160.532
64.66000 158.690
64.67000 157.251
64.68000 155.859
64.69000 158.894
64.70000 163.438
64.71000 167.461
64.72000 165.841
64.73000 162.677
64.74000 160.436
64.75000 164.221
64.76000 169.097
64.77000 173.122
64.78000 172.219
64.79000 171.017
64.80000 169.666
64.81000 167.888
64.82000 166.084
64.83000 165.111
64.84000 165.775
64.85000 166.482
64.86000 166.886
64.87000 170.235
64.88000 172.584
64.89000 175.552
64.90000 179.055
64.91000 182.549
64.92000 185.564
64.93000 188.302
64.94000 190.946
64.95000 189.707
64.96000 187.095
64.97000 184.820
64.98000 186.116
64.99000 188.371
65.00000 190.628
65.01000 192.899
65.02000 195.173
65.03000 197.043
65.04000 197.318
65.05000 197.400
65.06000 197.760
65.07000 198.907
65.08000 200.102
65.09000 201.327
65.10000 202.609
65.11000 203.892
65.12000 204.619
65.13000 208.498
65.14000 211.213
65.15000 217.385
65.16000 226.491
65.17000 235.412
65.18000 234.562
65.19000 228.166
65.20000 221.995
65.21000 224.555
65.22000 230.150
65.23000 235.219
65.24000 234.864
65.25000 233.078
65.26000 232.463
65.27000 239.190
65.28000 247.195
65.29000 253.755
65.30000 251.156
65.31000 248.215
65.32000 247.637
65.33000 253.622
65.34000 259.991
65.35000 265.567
65.36000 269.636
65.37000 273.669
65.38000 275.936
65.39000 273.859
65.40000 272.412
65.41000 273.266
65.42000 276.037
65.43000 278.857
65.44000 284.112
65.45000 290.725
65.46000 297.096
65.47000 301.138
65.48000 304.100
65.49000 306.755
65.50000 306.313
65.51000 305.068
65.52000 304.716
65.53000 309.847
65.54000 315.913
65.55000 320.866
65.56000 333.736
65.57000 344.948
65.58000 355.638
65.59000 364.903
65.60000 374.087
65.61000 382.182
65.62000 388.246
65.63000 394.264
65.64000 397.619
65.65000 445.181
65.66000 478.184
65.67000 510.952
65.68000 543.529
65.69000 576.786
65.70000 642.208
65.71000 725.264
65.72000 805.161
65.73000 930.332
65.74000 1063.601
65.75000 1196.142
65.76000 1321.532
65.77000 1445.102
65.78000 1567.559
65.79000 1683.313
65.80000 1797.947
65.81000 1891.196
65.82000 1937.261
65.83000 1970.916
65.84000 1998.125
65.85000 2008.038
65.86000 2017.000
65.87000 2029.426
65.88000 2048.208
65.89000 2067.126
65.90000 2077.583
65.91000 2068.337
65.92000 2061.769
65.93000 2003.313
65.94000 1903.274
65.95000 1802.834
65.96000 1684.487
65.97000 1556.492
65.98000 1433.545
65.99000 1300.549
66.00000 1172.615
66.01000 1046.781
66.02000 941.078
66.03000 840.405
66.04000 744.395
66.05000 675.896
66.06000 611.907
66.07000 560.053
66.08000 510.689
66.09000 470.682
66.10000 438.168
66.11000 425.422
66.12000 413.727
66.13000 403.048
66.14000 394.203
66.15000 385.396
66.16000 380.570
66.17000 383.065
66.18000 384.783
66.19000 384.052
66.20000 381.393
66.21000 378.855
66.22000 381.477
66.23000 386.832
66.24000 391.967
66.25000 403.342
66.26000 416.079
66.27000 429.548
66.28000 449.865
66.29000 471.864
66.30000 493.240
66.31000 511.022
66.32000 528.227
66.33000 542.115
66.34000 567.791
66.35000 589.595
66.36000 609.030
66.37000 622.321
66.38000 635.297
66.39000 644.318
66.40000 646.332
66.41000 648.212
66.42000 649.232
66.43000 644.216
66.44000 640.774
66.45000 638.450
66.46000 636.991
66.47000 635.421
66.48000 629.379
66.49000 621.011
66.50000 612.997
66.51000 596.713
66.52000 578.785
66.53000 559.457
66.54000 527.331
66.55000 492.121
66.56000 459.167
66.57000 439.009
66.58000 420.864
66.59000 406.274
66.60000 401.863
66.61000 399.073
66.62000 395.001
66.63000 387.660
66.64000 380.156
66.65000 373.549
66.66000 368.500
66.67000 363.479
66.68000 360.777
66.69000 353.277
66.70000 348.158
66.71000 345.654
66.72000 345.132
66.73000 344.732
66.74000 349.029
66.75000 355.729
66.76000 362.135
66.77000 358.807
66.78000 352.540
66.79000 346.855
66.80000 346.369
66.81000 347.114
66.82000 347.575
66.83000 346.462
66.84000 345.107
66.85000 344.022
66.86000 345.529
66.87000 346.943
66.88000 349.060
66.89000 352.936
66.90000 356.896
66.91000 358.731
66.92000 356.928
66.93000 355.063
66.94000 354.068
66.95000 377.805
66.96000 393.905
66.97000 392.616
66.98000 378.389
66.99000 364.522
67.00000 363.814
67.01000 369.721
67.02000 375.361
67.03000 369.864
67.04000 361.200
67.05000 354.365
67.06000 363.482
67.07000 376.305
67.08000 387.303
67.09000 388.354
67.10000 387.904
67.11000 387.545
67.12000 379.314
67.13000 372.095
67.14000 370.688
67.15000 383.603
67.16000 397.180
67.17000 406.664
67.18000 409.269
67.19000 411.764
67.20000 413.083
67.21000 401.391
67.22000 393.445
67.23000 386.154
67.24000 379.341
67.25000 372.883
67.26000 378.748
67.27000 390.704
67.28000 402.100
67.29000 400.903
67.30000 395.847
67.31000 391.433
67.32000 392.494
67.33000 394.803
67.34000 398.374
67.35000 408.688
67.36000 419.998
67.37000 428.984
67.38000 428.569
67.39000 427.568
67.40000 426.989
67.41000 427.433
67.42000 427.923
67.43000 427.148
67.44000 424.285
67.45000 421.391
67.46000 419.876
67.47000 420.577
67.48000 421.079
67.49000 425.682
67.50000 433.226
67.51000 440.499
67.52000 438.748
67.53000 432.614
67.54000 426.777
67.55000 424.656
67.56000 423.837
67.57000 423.468
67.58000 426.851
67.59000 431.075
67.60000 433.833
67.61000 428.902
67.62000 422.858
67.63000 418.075
67.64000 432.986
67.65000 446.326
67.66000 455.881
67.67000 456.424
67.68000 456.580
67.69000 454.445
67.70000 448.592
67.71000 442.686
67.72000 439.623
67.73000 448.263
67.74000 454.045
67.75000 452.874
67.76000 446.805
67.77000 441.110
67.78000 447.254
67.79000 459.051
67.80000 470.259
67.81000 472.782
67.82000 472.493
67.83000 472.227
67.84000 472.151
67.85000 472.116
67.86000 471.694
67.87000 469.284
67.88000 466.591
67.89000 464.469
67.90000 461.581
67.91000 459.215
67.92000 459.711
67.93000 466.907
67.94000 474.379
67.95000 482.562
67.96000 491.878
67.97000 501.209
67.98000 506.002
67.99000 506.330
68.00000 506.542
68.01000 505.761
68.02000 504.294
68.03000 503.075
68.04000 509.368
68.05000 519.187
68.06000 528.499
68.07000 521.982
68.08000 511.290
68.09000 501.296
68.10000 496.842
68.11000 493.585
68.12000 492.451
68.13000 502.031
68.14000 513.098
68.15000 521.781
68.16000 519.346
68.17000 516.674
68.18000 519.106
68.19000 533.276
68.20000 547.913
68.21000 552.536
68.22000 541.472
68.23000 530.220
68.24000 524.496
68.25000 542.567
68.26000 554.672
68.27000 565.190
68.28000 574.630
68.29000 583.680
68.30000 581.401
68.31000 573.894
68.32000 566.787
68.33000 571.294
68.34000 578.810
68.35000 586.095
68.36000 591.574
68.37000 596.672
68.38000 601.915
68.39000 607.880
68.40000 613.943
68.41000 618.681
68.42000 627.297
68.43000 634.418
68.44000 641.282
68.45000 647.568
68.46000 653.832
68.47000 662.058
68.48000 673.303
68.49000 684.581
68.50000 690.262
68.51000 693.409
68.52000 695.593
68.53000 706.006
68.54000 721.912
68.55000 737.787
68.56000 752.808
68.57000 767.442
68.58000 781.273
68.59000 798.594
68.60000 815.493
68.61000 834.470
68.62000 869.266
68.63000 907.349
68.64000 947.077
68.65000 994.798
68.66000 1043.579
68.67000 1081.533
68.68000 1127.841
68.69000 1165.217
68.70000 1204.592
68.71000 1248.408
68.72000 1292.388
68.73000 1332.264
68.74000 1365.939
68.75000 1399.551
68.76000 1448.340
68.77000 1512.226
68.78000 1575.876
68.79000 1617.356
68.80000 1644.305
68.81000 1672.552
68.82000 1735.479
68.83000 1813.870
68.84000 1887.826
68.85000 1955.402
68.86000 2015.560
68.87000 2087.217
68.88000 2244.505
68.89000 2419.252
68.90000 2629.373
68.91000 3008.097
68.92000 3408.719
68.93000 3719.064
68.94000 5068.389
68.95000 6201.874
68.96000 7761.227
68.97000 10251.248
68.98000 12773.977
68.99000 15716.717
69.00000 19283.072
69.01000 22855.176
69.02000 26379.066
69.03000 29855.736
69.04000 33324.406
69.05000 36099.301
69.06000 38427.504
69.07000 40721.934
69.08000 42149.770
69.09000 43197.789
69.10000 44184.746
69.11000 44933.051
69.12000 45552.270
69.13000 46193.238
69.14000 46992.688
69.15000 47823.840
69.16000 48617.816
69.17000 49237.910
69.18000 49835.914
69.19000 50297.133
69.20000 49287.117
69.21000 48401.914
69.22000 46900.465
69.23000 44075.195
69.24000 41205.344
69.25000 38389.813
69.26000 35653.492
69.27000 32918.023
69.28000 30564.043
69.29000 28575.078
69.30000 26594.246
69.31000 25266.334
69.32000 24351.400
69.33000 23455.191
69.34000 23020.896
69.35000 22785.615
69.36000 22564.453
69.37000 21995.949
69.38000 21383.652
69.39000 20692.879
69.40000 19442.408
69.41000 18082.100
69.42000 16622.303
69.43000 14705.764
69.44000 12732.488
69.45000 11217.337
69.46000 9165.219
69.47000 7512.983
69.48000 6060.511
69.49000 5029.866
69.50000 4012.819
69.51000 3206.822
69.52000 2703.079
69.53000 2201.742
69.54000 1868.186
69.55000 1691.929
69.56000 1516.341
69.57000 1390.646
69.58000 1295.953
69.59000 1202.883
69.60000 1148.312
69.61000 1110.047
69.62000 1074.145
69.63000 1033.047
69.64000 994.231
69.65000 955.002
69.66000 912.885
69.67000 870.212
69.68000 831.796
69.69000 812.562
69.70000 795.657
69.71000 782.736
69.72000 761.929
69.73000 745.092
69.74000 728.186
69.75000 711.138
69.76000 694.085
69.77000 677.090
69.78000 660.174
69.79000 643.263
69.80000 634.776
69.81000 634.030
69.82000 633.207
69.83000 627.034
69.84000 617.596
69.85000 608.130
69.86000 598.025
69.87000 587.654
69.88000 577.943
69.89000 571.406
69.90000 566.281
69.91000 560.699
69.92000 551.992
69.93000 542.695
69.94000 536.034
69.95000 541.035
69.96000 547.421
69.97000 552.280
69.98000 537.046
69.99000 524.005
70.00000 513.202
