20.00000 456.042
20.01000 470.105
20.02000 486.178
20.03000 498.170
20.04000 494.079
20.05000 488.343
20.06000 484.108
20.07000 474.627
20.08000 467.057
20.09000 463.168
20.10000 466.015
20.11000 469.005
20.12000 468.291
20.13000 463.028
20.14000 457.762
20.15000 460.807
20.16000 470.448
20.17000 479.925
20.18000 482.114
20.19000 480.389
20.20000 478.907
20.21000 481.747
20.22000 486.173
20.23000 490.257
20.24000 488.833
20.25000 486.327
20.26000 483.861
20.27000 481.639
20.28000 479.456
20.29000 477.438
20.30000 476.061
20.31000 474.747
20.32000 473.782
20.33000 473.856
20.34000 473.955
20.35000 473.766
20.36000 473.061
20.37000 472.346
20.38000 475.034
20.39000 481.824
20.40000 488.610
20.41000 493.596
20.42000 497.153
20.43000 500.496
20.44000 494.808
20.45000 484.352
20.46000 474.200
20.47000 469.258
20.48000 466.197
20.49000 463.379
20.50000 464.781
20.51000 466.958
20.52000 468.530
20.53000 466.616
20.54000 464.144
20.55000 463.948
20.56000 472.405
20.57000 481.705
20.58000 488.503
20.59000 492.077
20.60000 494.706
20.61000 493.174
20.62000 484.292
20.63000 475.269
20.64000 471.102
20.65000 472.676
20.66000 474.257
20.67000 471.313
20.68000 464.923
20.69000 458.782
20.70000 462.583
20.71000 471.544
20.72000 480.137
20.73000 482.625
20.74000 482.948
20.75000 483.244
20.76000 477.155
20.77000 470.353
20.78000 465.078
20.79000 468.441
20.80000 473.158
20.81000 475.414
20.82000 468.480
20.83000 460.673
20.84000 454.995
20.85000 455.930
20.86000 456.900
20.87000 457.411
20.88000 457.123
20.89000 456.821
20.90000 458.127
20.91000 461.301
20.92000 464.468
20.93000 467.603
20.94000 470.693
20.95000 473.689
20.96000 473.127
20.97000 470.751
20.98000 468.626
20.99000 470.555
21.00000 473.898
21.01000 476.962
21.02000 481.904
21.03000 486.700
21.04000 490.025
21.05000 485.196
21.06000 479.114
21.07000 473.811
21.08000 471.363
21.09000 469.179
21.10000 467.599
21.11000 469.392
21.12000 470.892
21.13000 473.305
21.14000 477.273
21.15000 481.268
21.16000 477.718
21.17000 465.580
21.18000 453.471
21.19000 452.949
21.20000 460.960
21.21000 468.857
21.22000 472.629
21.23000 474.333
21.24000 475.738
21.25000 472.482
21.26000 467.628
21.27000 463.188
21.28000 471.922
21.29000 482.396
21.30000 490.607
21.31000 486.522
21.32000 480.586
21.33000 475.589
21.34000 473.974
21.35000 472.664
21.36000 471.721
21.37000 469.952
21.38000 468.568
21.39000 469.840
21.40000 475.565
21.41000 481.359
21.42000 483.841
21.43000 482.624
21.44000 481.409
21.45000 482.895
21.46000 486.320
21.47000 489.529
21.48000 485.334
21.49000 477.489
21.50000 469.788
21.51000 464.243
21.52000 459.425
21.53000 455.030
21.54000 463.559
21.55000 473.730
21.56000 482.806
21.57000 486.046
21.58000 488.426
21.59000 489.919
21.60000 488.270
21.61000 486.344
21.62000 484.966
21.63000 481.963
21.64000 479.614
21.65000 478.697
21.66000 480.138
21.67000 481.614
21.68000 480.280
21.69000 475.870
21.70000 471.476
21.71000 468.484
21.72000 466.515
21.73000 464.665
21.74000 466.726
21.75000 470.682
21.76000 474.826
21.77000 481.736
21.78000 489.561
21.79000 496.685
21.80000 487.527
21.81000 476.205
21.82000 466.384
21.83000 464.411
21.84000 463.570
21.85000 464.917
21.86000 473.876
21.87000 483.486
21.88000 490.330
21.89000 491.355
21.90000 491.947
21.91000 492.334
21.92000 492.389
21.93000 492.440
21.94000 491.011
21.95000 487.994
21.96000 484.990
21.97000 483.964
21.98000 484.323
21.99000 484.785
22.00000 488.465
22.01000 493.676
22.02000 498.778
22.03000 502.305
22.04000 505.319
22.05000 508.056
22.06000 503.072
22.07000 497.176
22.08000 491.809
22.09000 489.155
22.10000 486.884
22.11000 485.399
22.12000 486.601
22.13000 488.028
22.14000 489.038
22.15000 486.798
22.16000 484.993
22.17000 484.673
22.18000 486.713
22.19000 488.783
22.20000 487.627
22.21000 483.074
22.22000 478.542
22.23000 477.631
22.24000 479.199
22.25000 480.758
22.26000 482.035
22.27000 483.180
22.28000 484.197
22.29000 483.450
22.30000 482.139
22.31000 480.951
22.32000 483.475
22.33000 486.403
22.34000 488.454
22.35000 486.093
22.36000 483.122
22.37000 480.691
22.38000 480.073
22.39000 479.602
22.40000 479.270
22.41000 465.409
22.42000 454.494
22.43000 447.709
22.44000 447.374
22.45000 447.115
22.46000 446.512
22.47000 445.555
22.48000 444.603
22.49000 448.633
22.50000 455.945
22.51000 462.960
22.52000 461.386
22.53000 455.861
22.54000 450.835
22.55000 452.525
22.56000 456.327
22.57000 459.762
22.58000 462.510
22.59000 464.799
22.60000 465.279
22.61000 456.832
22.62000 447.177
22.63000 441.781
22.64000 450.444
22.65000 460.216
22.66000 467.063
22.67000 458.251
22.68000 451.136
22.69000 448.162
22.70000 451.539
22.71000 454.985
22.72000 455.915
22.73000 454.298
22.74000 452.692
22.75000 445.905
22.76000 435.811
22.77000 426.101
22.78000 426.985
22.79000 432.661
22.80000 437.979
22.81000 438.609
22.82000 437.792
22.83000 437.055
22.84000 441.200
22.85000 445.727
22.86000 450.157
22.87000 454.116
22.88000 458.013
22.89000 459.629
22.90000 453.844
22.91000 447.491
22.92000 443.065
22.93000 439.992
22.94000 437.710
22.95000 439.222
22.96000 446.449
22.97000 453.734
22.98000 458.622
22.99000 461.132
23.00000 463.626
23.01000 463.075
23.02000 460.571
23.03000 457.996
23.04000 453.537
23.05000 448.241
23.06000 443.001
23.07000 438.472
23.08000 434.158
23.09000 430.279
23.10000 437.037
23.11000 444.850
23.12000 450.789
23.13000 447.821
23.14000 443.701
23.15000 440.449
23.16000 439.964
23.17000 439.686
23.18000 439.493
23.19000 429.061
23.20000 420.940
23.21000 418.806
23.22000 425.533
23.23000 432.342
23.24000 434.372
23.25000 431.759
23.26000 429.164
23.27000 430.590
23.28000 434.533
23.29000 438.599
23.30000 445.797
23.31000 454.363
23.32000 462.283
23.33000 462.208
23.34000 459.748
23.35000 457.541
23.36000 453.659
23.37000 449.974
23.38000 447.787
23.39000 452.587
23.40000 458.271
23.41000 460.461
23.42000 451.701
23.43000 442.148
23.44000 435.567
23.45000 434.319
23.46000 433.516
23.47000 434.124
23.48000 436.781
23.49000 439.455
23.50000 438.450
23.51000 433.939
23.52000 429.464
23.53000 433.091
23.54000 441.680
23.55000 450.030
23.56000 452.546
23.57000 452.556
23.58000 452.756
23.59000 455.265
23.60000 458.449
23.61000 461.298
23.62000 457.705
23.63000 453.471
23.64000 450.740
23.65000 454.887
23.66000 459.885
23.67000 465.487
23.68000 472.948
23.69000 480.541
23.70000 485.740
23.71000 486.225
23.72000 486.476
23.73000 483.614
23.74000 476.309
23.75000 468.973
23.76000 472.834
23.77000 487.153
23.78000 501.353
23.79000 506.426
23.80000 505.856
23.81000 505.356
23.82000 506.489
23.83000 508.313
23.84000 509.794
23.85000 507.265
23.86000 503.581
23.87000 500.293
23.88000 508.104
23.89000 516.757
23.90000 523.182
23.91000 519.607
23.92000 514.821
23.93000 515.031
23.94000 530.363
23.95000 546.729
23.96000 557.872
23.97000 544.771
23.98000 534.432
23.99000 525.520
24.00000 518.609
24.01000 511.716
24.02000 511.820
24.03000 518.332
24.04000 524.785
24.05000 524.274
24.06000 519.617
24.07000 515.099
24.08000 513.771
24.09000 513.766
24.10000 513.205
24.11000 506.285
24.12000 497.566
24.13000 489.806
24.14000 493.728
24.15000 499.044
24.16000 502.594
24.17000 498.355
24.18000 493.196
24.19000 486.420
24.20000 474.834
24.21000 462.930
24.22000 454.873
24.23000 452.497
24.24000 450.851
24.25000 448.164
24.26000 444.046
24.27000 439.924
24.28000 443.208
24.29000 453.145
24.30000 462.986
24.31000 459.953
24.32000 449.443
24.33000 439.484
24.34000 441.568
24.35000 448.567
24.36000 454.766
24.37000 452.063
24.38000 446.885
24.39000 442.289
24.40000 430.083
24.41000 418.288
24.42000 409.009
24.43000 410.623
24.44000 413.496
24.45000 417.909
24.46000 426.825
24.47000 436.030
24.48000 442.222
24.49000 436.340
24.50000 431.718
24.51000 429.629
24.52000 430.962
24.53000 432.309
24.54000 429.306
24.55000 422.471
24.56000 415.706
24.57000 412.189
24.58000 410.618
24.59000 409.074
24.60000 408.107
24.61000 407.372
24.62000 406.618
24.63000 405.666
24.64000 404.660
24.65000 403.769
24.66000 402.098
24.67000 400.531
24.68000 401.148
24.69000 411.046
24.70000 421.992
24.71000 428.576
24.72000 422.624
24.73000 415.890
24.74000 411.387
24.75000 414.919
24.76000 417.695
24.77000 418.227
24.78000 415.780
24.79000 413.322
24.80000 413.302
24.81000 415.388
24.82000 417.451
24.83000 418.087
24.84000 417.903
24.85000 417.797
24.86000 419.260
24.87000 421.343
24.88000 423.065
24.89000 420.970
24.90000 417.851
24.91000 415.097
24.92000 409.660
24.93000 404.557
24.94000 401.624
24.95000 407.751
24.96000 414.877
24.97000 420.219
24.98000 420.519
24.99000 420.515
25.00000 420.512
25.01000 420.763
25.02000 420.953
25.03000 421.337
25.04000 421.972
25.05000 422.601
25.06000 419.250
25.07000 412.525
25.08000 405.880
25.09000 406.079
25.10000 410.059
25.11000 413.925
25.12000 415.520
25.13000 416.236
25.14000 417.063
25.15000 419.039
25.16000 421.319
25.17000 423.325
25.18000 417.481
25.19000 411.272
25.20000 407.149
25.21000 411.576
25.22000 416.924
25.23000 419.276
25.24000 413.308
25.25000 406.854
25.26000 402.591
25.27000 393.799
25.28000 387.235
25.29000 387.163
25.30000 395.395
25.31000 403.652
25.32000 409.536
25.33000 413.445
25.34000 417.306
25.35000 416.264
25.36000 412.588
25.37000 408.729
25.38000 401.394
25.39000 392.736
25.40000 385.405
25.41000 391.441
25.42000 400.937
25.43000 409.273
25.44000 409.377
25.45000 408.259
25.46000 407.414
25.47000 407.666
25.48000 408.033
25.49000 405.069
25.50000 393.014
25.51000 380.443
25.52000 372.195
25.53000 380.251
25.54000 386.450
25.55000 392.675
25.56000 398.932
25.57000 405.171
25.58000 404.387
25.59000 397.870
25.60000 391.441
25.61000 396.514
25.62000 407.578
25.63000 418.039
25.64000 417.424
25.65000 412.659
25.66000 408.935
25.67000 415.431
25.68000 424.526
25.69000 432.488
25.70000 418.428
25.71000 403.218
25.72000 389.809
25.73000 383.521
25.74000 377.964
25.75000 376.937
25.76000 388.062
25.77000 399.856
25.78000 407.545
25.79000 401.453
25.80000 396.766
25.81000 394.005
25.82000 393.618
25.83000 393.245
25.84000 395.597
25.85000 400.134
25.86000 404.605
25.87000 411.524
25.88000 419.524
25.89000 426.606
25.90000 417.368
25.91000 402.121
25.92000 387.749
25.93000 381.756
25.94000 377.856
25.95000 374.451
25.96000 388.590
25.97000 403.145
25.98000 414.478
25.99000 413.298
26.00000 410.865
26.01000 408.420
26.02000 405.940
26.03000 403.458
26.04000 401.851
26.05000 407.304
26.06000 411.400
26.07000 411.808
26.08000 407.758
26.09000 403.707
26.10000 402.270
26.11000 402.886
26.12000 403.494
26.13000 399.416
26.14000 393.058
26.15000 387.109
26.16000 388.200
26.17000 391.839
26.18000 395.346
26.19000 397.621
26.20000 399.594
26.21000 401.311
26.22000 392.239
26.23000 383.015
26.24000 378.239
26.25000 390.425
26.26000 404.267
26.27000 411.263
26.28000 400.507
26.29000 388.841
26.30000 381.333
26.31000 386.751
26.32000 390.887
26.33000 391.149
26.34000 386.815
26.35000 382.518
26.36000 389.068
26.37000 403.991
26.38000 418.673
26.39000 419.056
26.40000 412.224
26.41000 405.399
26.42000 398.707
26.43000 392.061
26.44000 385.576
26.45000 380.553
26.46000 375.883
26.47000 371.831
26.48000 376.498
26.49000 381.641
26.50000 385.687
26.51000 385.621
26.52000 385.163
26.53000 384.453
26.54000 383.104
26.55000 381.723
26.56000 380.840
26.57000 386.256
26.58000 390.282
26.59000 392.081
26.60000 391.291
26.61000 390.492
26.62000 388.745
26.63000 386.280
26.64000 383.856
26.65000 387.796
26.66000 394.750
26.67000 401.545
26.68000 405.774
26.69000 409.105
26.70000 411.025
26.71000 400.351
26.72000 386.699
26.73000 374.889
26.74000 371.052
26.75000 368.835
26.76000 367.822
26.77000 371.239
26.78000 375.068
26.79000 377.808
26.80000 377.823
26.81000 377.706
26.82000 377.633
26.83000 382.855
26.84000 386.711
26.85000 384.959
26.86000 376.806
26.87000 368.702
26.88000 371.256
26.89000 381.737
26.90000 392.030
26.91000 392.270
26.92000 387.625
26.93000 383.055
26.94000 379.638
26.95000 376.619
26.96000 374.129
26.97000 376.245
26.98000 379.432
26.99000 382.180
27.00000 379.890
27.01000 377.303
27.02000 376.304
27.03000 381.046
27.04000 386.306
27.05000 390.058
27.06000 390.094
27.07000 389.958
27.08000 389.872
27.09000 384.964
27.10000 381.355
27.11000 377.242
27.12000 372.565
27.13000 367.906
27.14000 366.309
27.15000 366.946
27.16000 367.572
27.17000 367.070
27.18000 366.051
27.19000 365.224
27.20000 367.333
27.21000 370.433
27.22000 373.320
27.23000 374.395
27.24000 375.056
27.25000 375.625
27.26000 373.973
27.27000 372.297
27.28000 371.321
27.29000 372.834
27.30000 374.566
27.31000 377.756
27.32000 384.478
27.33000 391.357
27.34000 395.665
27.35000 392.672
27.36000 390.433
27.37000 390.120
27.38000 391.922
27.39000 393.707
27.40000 392.536
27.41000 389.248
27.42000 386.025
27.43000 384.322
27.44000 383.393
27.45000 382.615
27.46000 384.063
27.47000 386.250
27.48000 388.344
27.49000 389.673
27.50000 390.830
27.51000 391.822
27.52000 389.111
27.53000 386.369
27.54000 384.222
27.55000 384.147
27.56000 384.251
27.57000 385.512
27.58000 389.530
27.59000 393.665
27.60000 396.237
27.61000 399.705
27.62000 402.212
27.63000 398.259
27.64000 387.348
27.65000 376.514
27.66000 376.286
27.67000 383.525
27.68000 390.613
27.69000 392.976
27.70000 393.080
27.71000 392.826
27.72000 387.466
27.73000 380.438
27.74000 374.273
27.75000 375.116
27.76000 377.499
27.77000 379.535
27.78000 373.853
27.79000 368.144
27.80000 363.794
27.81000 364.099
27.82000 364.794
27.83000 364.533
27.84000 362.038
27.85000 359.450
27.86000 357.852
27.87000 358.615
27.88000 359.184
27.89000 361.619
27.90000 366.022
27.91000 370.393
27.92000 370.774
27.93000 368.397
27.94000 366.071
27.95000 369.354
27.96000 375.026
27.97000 380.624
27.98000 385.177
27.99000 389.395
28.00000 392.466
28.01000 386.419
28.02000 378.406
28.03000 371.581
28.04000 367.246
28.05000 363.891
28.06000 361.699
28.07000 363.423
28.08000 365.466
28.09000 368.847
28.10000 375.307
28.11000 381.888
28.12000 385.923
28.13000 380.485
28.14000 376.509
28.15000 374.703
28.16000 375.143
28.17000 375.565
28.18000 373.932
28.19000 370.904
28.20000 367.946
28.21000 368.996
28.22000 371.773
28.23000 373.982
28.24000 368.511
28.25000 360.620
28.26000 354.956
28.27000 366.620
28.28000 381.950
28.29000 394.965
28.30000 393.734
28.31000 391.081
28.32000 388.014
28.33000 383.573
28.34000 379.024
28.35000 374.858
28.36000 371.561
28.37000 368.297
28.38000 366.310
28.39000 365.054
28.40000 364.163
28.41000 362.395
28.42000 359.738
28.43000 357.108
28.44000 357.233
28.45000 359.196
28.46000 361.111
28.47000 363.853
28.48000 366.832
28.49000 369.422
28.50000 366.901
28.51000 362.796
28.52000 359.623
28.53000 363.541
28.54000 368.933
28.55000 373.495
28.56000 372.113
28.57000 370.297
28.58000 368.972
28.59000 369.247
28.60000 369.646
28.61000 368.393
28.62000 363.469
28.63000 358.411
28.64000 355.354
28.65000 363.413
28.66000 369.235
28.67000 372.927
28.68000 374.504
28.69000 376.040
28.70000 373.814
28.71000 369.122
28.72000 364.548
28.73000 365.849
28.74000 369.588
28.75000 373.698
28.76000 382.542
28.77000 392.826
28.78000 401.180
28.79000 395.158
28.80000 386.207
28.81000 378.658
28.82000 377.351
28.83000 376.937
28.84000 374.481
28.85000 365.500
28.86000 356.030
28.87000 353.064
28.88000 364.303
28.89000 376.041
28.90000 383.080
28.91000 384.470
28.92000 385.419
28.93000 379.998
28.94000 368.369
28.95000 356.808
28.96000 351.156
28.97000 349.307
28.98000 347.506
28.99000 346.339
29.00000 345.493
29.01000 345.015
29.02000 349.131
29.03000 354.621
29.04000 360.294
29.05000 367.302
29.06000 374.578
29.07000 380.693
29.08000 375.148
29.09000 369.293
29.10000 363.663
29.11000 358.736
29.12000 353.861
29.13000 351.721
29.14000 355.457
29.15000 359.391
29.16000 361.732
29.17000 365.168
29.18000 367.609
29.19000 371.908
29.20000 377.982
29.21000 383.958
29.22000 382.033
29.23000 375.114
29.24000 368.385
29.25000 369.761
29.26000 374.391
29.27000 378.081
29.28000 370.410
29.29000 359.399
29.30000 349.579
29.31000 348.250
29.32000 348.588
29.33000 348.870
29.34000 362.853
29.35000 375.894
29.36000 383.699
29.37000 375.337
29.38000 365.831
29.39000 358.210
29.40000 354.569
29.41000 351.055
29.42000 348.980
29.43000 354.629
29.44000 358.661
29.45000 360.557
29.46000 360.452
29.47000 360.376
29.48000 362.486
29.49000 365.952
29.50000 369.319
29.51000 367.717
29.52000 364.198
29.53000 360.769
29.54000 358.397
29.55000 356.331
29.56000 355.246
29.57000 361.012
29.58000 368.096
29.59000 374.009
29.60000 371.952
29.61000 369.443
29.62000 368.612
29.63000 372.872
29.64000 377.482
29.65000 376.697
29.66000 364.721
29.67000 352.401
29.68000 345.180
29.69000 360.383
29.70000 371.198
29.71000 374.055
29.72000 369.604
29.73000 365.246
29.74000 367.331
29.75000 373.347
29.76000 379.182
29.77000 378.805
29.78000 375.996
29.79000 373.404
29.80000 373.298
29.81000 373.897
29.82000 374.537
29.83000 375.446
29.84000 376.407
29.85000 377.207
29.86000 379.666
29.87000 381.865
29.88000 383.767
29.89000 384.779
29.90000 385.733
29.91000 384.436
29.92000 378.548
29.93000 372.525
29.94000 369.023
29.95000 363.641
29.96000 359.860
29.97000 366.253
29.98000 381.811
29.99000 397.112
30.00000 395.777
30.01000 384.467
30.02000 373.510
30.03000 372.286
30.04000 374.897
30.05000 377.416
30.06000 378.916
30.07000 380.132
30.08000 381.186
30.09000 381.158
30.10000 380.929
30.11000 380.740
30.12000 380.342
30.13000 379.994
30.14000 381.676
30.15000 389.310
30.16000 397.328
30.17000 401.031
30.18000 396.080
30.19000 390.887
30.20000 387.891
30.21000 368.782
30.22000 355.347
30.23000 353.468
30.24000 361.798
30.25000 370.044
30.26000 373.230
30.27000 373.435
30.28000 373.633
30.29000 373.979
30.30000 374.363
30.31000 374.495
30.32000 371.889
30.33000 368.533
30.34000 366.746
30.35000 375.242
30.36000 385.605
30.37000 394.164
30.38000 382.220
30.39000 370.463
30.40000 361.433
30.41000 360.259
30.42000 359.577
30.43000 360.649
30.44000 365.175
30.45000 369.793
30.46000 372.435
30.47000 376.587
30.48000 379.488
30.49000 380.229
30.50000 379.096
30.51000 377.956
30.52000 376.374
30.53000 374.536
30.54000 372.761
30.55000 375.924
30.56000 380.747
30.57000 385.299
30.58000 386.968
30.59000 387.861
30.60000 388.662
30.61000 388.877
30.62000 388.987
30.63000 389.078
30.64000 385.725
30.65000 382.656
30.66000 380.679
30.67000 381.798
30.68000 383.106
30.69000 385.641
30.70000 390.555
30.71000 395.530
30.72000 398.353
30.73000 395.649
30.74000 393.747
30.75000 389.990
30.76000 384.655
30.77000 379.452
30.78000 381.340
30.79000 387.261
30.80000 392.974
30.81000 396.311
30.82000 398.582
30.83000 400.829
30.84000 402.831
30.85000 404.768
30.86000 407.120
30.87000 412.087
30.88000 417.510
30.89000 421.957
30.90000 433.378
30.91000 443.365
30.92000 450.714
30.93000 450.716
30.94000 450.285
30.95000 450.343
30.96000 451.331
30.97000 452.341
30.98000 452.910
30.99000 469.500
31.00000 481.044
31.01000 485.201
31.02000 483.195
31.03000 481.404
31.04000 490.452
31.05000 505.560
31.06000 520.117
31.07000 536.603
31.08000 552.785
31.09000 568.889
31.10000 584.216
31.11000 599.341
31.12000 613.899
31.13000 624.969
31.14000 635.441
31.15000 643.997
31.16000 675.502
31.17000 703.271
31.18000 727.729
31.19000 743.128
31.20000 758.011
31.21000 778.967
31.22000 811.284
31.23000 843.861
31.24000 862.040
31.25000 864.386
31.26000 866.013
31.27000 883.173
31.28000 913.048
31.29000 942.700
31.30000 961.731
31.31000 974.925
31.32000 987.620
31.33000 988.591
31.34000 985.371
31.35000 983.881
31.36000 999.433
31.37000 1019.331
31.38000 1034.994
31.39000 1025.098
31.40000 1010.917
31.41000 999.375
31.42000 988.930
31.43000 980.493
31.44000 971.507
31.45000 961.046
31.46000 950.504
31.47000 938.712
31.48000 924.625
31.49000 910.488
31.50000 902.666
31.51000 851.030
31.52000 815.336
31.53000 786.649
31.54000 763.591
31.55000 740.705
31.56000 725.592
31.57000 714.675
31.58000 704.186
31.59000 683.226
31.60000 659.985
31.61000 637.055
31.62000 617.107
31.63000 597.906
31.64000 578.139
31.65000 555.024
31.66000 531.359
31.67000 512.172
31.68000 506.251
31.69000 502.512
31.70000 495.435
31.71000 479.533
31.72000 463.160
31.73000 454.392
31.74000 459.367
31.75000 464.622
31.76000 467.505
31.77000 451.432
31.78000 440.349
31.79000 430.686
31.80000 422.142
31.81000 413.729
31.82000 410.866
31.83000 410.949
31.84000 411.029
31.85000 407.143
31.86000 402.169
31.87000 397.527
31.88000 396.010
31.89000 395.261
31.90000 394.126
31.91000 390.749
31.92000 387.013
31.93000 383.995
31.94000 386.049
31.95000 388.124
31.96000 387.482
31.97000 379.780
31.98000 371.713
31.99000 370.048
32.00000 379.754
32.01000 389.680
32.02000 395.077
32.03000 385.597
32.04000 379.088
32.05000 375.802
32.06000 375.008
32.07000 374.157
32.08000 370.995
32.09000 366.628
32.10000 362.446
32.11000 367.836
32.12000 376.049
32.13000 383.053
32.14000 378.990
32.15000 372.254
32.16000 365.849
32.17000 361.327
32.18000 357.102
32.19000 353.703
32.20000 356.244
32.21000 358.765
32.22000 360.170
32.23000 358.723
32.24000 357.133
32.25000 353.674
32.26000 346.950
32.27000 340.167
32.28000 336.512
32.29000 342.679
32.30000 346.887
32.31000 346.995
32.32000 343.990
32.33000 341.048
32.34000 340.573
32.35000 341.361
32.36000 342.115
32.37000 342.562
32.38000 342.879
32.39000 342.798
32.40000 339.163
32.41000 334.685
32.42000 331.589
32.43000 336.189
32.44000 341.979
32.45000 346.618
32.46000 340.181
32.47000 334.136
32.48000 329.972
32.49000 330.532
32.50000 331.320
32.51000 330.681
32.52000 327.597
32.53000 324.472
32.54000 322.802
32.55000 329.565
32.56000 334.165
32.57000 335.677
32.58000 334.887
32.59000 334.139
32.60000 334.964
32.61000 336.581
32.62000 338.125
32.63000 342.265
32.64000 346.943
32.65000 350.489
32.66000 344.146
32.67000 335.499
32.68000 328.030
32.69000 326.993
32.70000 326.929
32.71000 326.878
32.72000 318.691
32.73000 311.485
32.74000 308.172
32.75000 314.473
32.76000 321.220
32.77000 325.455
32.78000 325.457
32.79000 325.391
32.80000 325.356
32.81000 319.629
32.82000 315.756
32.83000 315.631
32.84000 318.251
32.85000 320.826
32.86000 321.840
32.87000 322.082
32.88000 322.313
32.89000 322.621
32.90000 322.931
32.91000 322.581
32.92000 316.583
32.93000 309.296
32.94000 304.765
32.95000 315.012
32.96000 327.449
32.97000 337.335
32.98000 332.261
32.99000 327.107
33.00000 323.034
33.01000 321.583
33.02000 320.249
33.03000 319.982
33.04000 321.483
33.05000 323.010
33.06000 323.811
33.07000 321.603
33.08000 320.122
33.09000 321.091
33.10000 323.822
33.11000 326.311
33.12000 320.728
33.13000 311.216
33.14000 302.163
33.15000 299.032
33.16000 297.960
33.17000 297.288
33.18000 299.968
33.19000 303.399
33.20000 306.616
33.21000 308.701
33.22000 310.622
33.23000 312.143
33.24000 304.042
33.25000 296.865
33.26000 291.789
33.27000 291.728
33.28000 291.883
33.29000 295.476
33.30000 304.664
33.31000 313.930
33.32000 318.742
33.33000 304.609
33.34000 295.121
33.35000 293.778
33.36000 298.184
33.37000 302.562
33.38000 306.052
33.39000 309.116
33.40000 312.028
33.41000 308.265
33.42000 302.770
33.43000 297.286
33.44000 291.891
33.45000 286.515
33.46000 283.436
33.47000 292.197
33.48000 302.640
33.49000 310.873
33.50000 302.801
33.51000 295.232
33.52000 289.875
33.53000 289.708
33.54000 289.756
33.55000 290.886
33.56000 293.744
33.57000 296.625
33.58000 298.107
33.59000 296.929
33.60000 296.137
33.61000 295.391
33.62000 294.676
33.63000 294.056
33.64000 296.296
33.65000 299.881
33.66000 303.282
33.67000 307.208
33.68000 310.984
33.69000 313.899
33.70000 309.945
33.71000 304.505
33.72000 299.724
33.73000 298.269
33.74000 297.277
33.75000 296.499
33.76000 290.354
33.77000 285.088
33.78000 282.606
33.79000 286.543
33.80000 290.737
33.81000 293.241
33.82000 293.093
33.83000 292.913
33.84000 292.822
33.85000 292.625
33.86000 292.530
33.87000 296.721
33.88000 303.831
33.89000 310.789
33.90000 313.361
33.91000 313.904
33.92000 314.418
33.93000 315.474
33.94000 316.603
33.95000 317.239
33.96000 314.020
33.97000 309.983
33.98000 307.014
33.99000 309.340
34.00000 312.388
34.01000 314.770
34.02000 313.319
34.03000 311.918
34.04000 312.783
34.05000 318.784
34.06000 324.982
34.07000 327.908
34.08000 325.786
34.09000 323.609
34.10000 322.510
34.11000 329.230
34.12000 333.682
34.13000 333.905
34.14000 331.300
34.15000 328.709
34.16000 326.487
34.17000 324.433
34.18000 322.491
34.19000 327.290
34.20000 333.621
34.21000 338.756
34.22000 334.759
34.23000 328.861
34.24000 324.609
34.25000 328.374
34.26000 333.205
34.27000 336.967
34.28000 333.417
34.29000 330.140
34.30000 327.922
34.31000 328.066
34.32000 328.296
34.33000 329.193
34.34000 331.102
34.35000 333.021
34.36000 332.610
34.37000 329.877
34.38000 327.141
34.39000 324.167
34.40000 321.038
34.41000 318.136
34.42000 321.317
34.43000 327.217
34.44000 332.784
34.45000 328.884
34.46000 322.659
34.47000 316.725
34.48000 312.954
34.49000 309.625
34.50000 307.260
34.51000 309.496
34.52000 312.332
34.53000 314.530
34.54000 307.320
34.55000 301.031
34.56000 298.907
34.57000 305.905
34.58000 313.225
34.59000 315.642
34.60000 310.761
34.61000 305.811
34.62000 303.793
34.63000 304.640
34.64000 305.533
34.65000 310.485
34.66000 318.057
34.67000 325.083
34.68000 318.023
34.69000 304.777
34.70000 292.300
34.71000 292.168
34.72000 295.434
34.73000 298.647
34.74000 301.468
34.75000 304.211
34.76000 305.515
34.77000 300.079
34.78000 293.783
34.79000 288.925
34.80000 291.534
34.81000 294.034
34.82000 295.439
34.83000 294.489
34.84000 293.459
34.85000 290.948
34.86000 286.272
34.87000 281.578
34.88000 280.474
34.89000 282.808
34.90000 285.148
34.91000 287.957
34.92000 291.062
34.93000 293.724
34.94000 285.402
34.95000 272.338
34.96000 260.054
34.97000 263.342
34.98000 270.534
34.99000 276.896
35.00000 277.320
35.01000 276.577
35.02000 275.681
35.03000 274.083
35.04000 272.398
35.05000 271.103
35.06000 266.543
35.07000 262.754
35.08000 261.362
35.09000 265.043
35.10000 268.889
35.11000 269.998
35.12000 267.180
35.13000 264.332
35.14000 263.595
35.15000 264.840
35.16000 266.121
35.17000 270.001
35.18000 275.500
35.19000 280.713
35.20000 279.119
35.21000 274.635
35.22000 270.427
35.23000 269.406
35.24000 269.318
35.25000 269.247
35.26000 269.298
35.27000 269.374
35.28000 269.202
35.29000 267.912
35.30000 266.486
35.31000 265.395
35.32000 270.498
35.33000 274.860
35.34000 276.935
35.35000 274.251
35.36000 271.419
35.37000 269.556
35.38000 269.056
35.39000 268.566
35.40000 271.017
35.41000 276.173
35.42000 281.247
35.43000 280.597
35.44000 276.446
35.45000 272.554
35.46000 274.639
35.47000 279.217
35.48000 283.505
35.49000 280.853
35.50000 276.644
35.51000 271.599
35.52000 260.819
35.53000 248.953
35.54000 240.631
35.55000 248.023
35.56000 257.287
35.57000 264.339
35.58000 271.985
35.59000 278.034
35.60000 279.881
35.61000 273.136
35.62000 266.137
35.63000 262.437
35.64000 263.304
35.65000 264.200
35.66000 263.790
35.67000 262.202
35.68000 260.638
35.69000 260.639
35.70000 261.582
35.71000 262.621
35.72000 265.787
35.73000 269.825
35.74000 273.600
35.75000 268.836
35.76000 262.344
35.77000 256.809
35.78000 257.694
35.79000 259.771
35.80000 261.228
35.81000 259.982
35.82000 258.422
35.83000 257.240
35.84000 254.551
35.85000 252.363
35.86000 252.146
35.87000 255.890
35.88000 259.746
35.89000 262.171
35.90000 262.651
35.91000 263.120
35.92000 264.949
35.93000 267.981
35.94000 270.935
35.95000 269.149
35.96000 264.562
35.97000 260.162
35.98000 259.735
35.99000 260.909
36.00000 262.004
36.01000 266.246
36.02000 270.872
36.03000 274.445
36.04000 271.100
36.05000 266.495
36.06000 262.876
36.07000 263.471
36.08000 264.545
36.09000 265.356
36.10000 265.918
36.11000 266.346
36.12000 264.737
36.13000 259.101
36.14000 253.357
36.15000 252.183
36.16000 257.108
36.17000 262.061
36.18000 264.362
36.19000 264.360
36.20000 264.350
36.21000 263.866
36.22000 263.108
36.23000 262.498
36.24000 264.950
36.25000 268.616
36.26000 272.030
36.27000 269.289
36.28000 265.309
36.29000 261.992
36.30000 262.935
36.31000 264.639
36.32000 265.726
36.33000 264.223
36.34000 262.432
36.35000 261.088
36.36000 256.784
36.37000 253.279
36.38000 249.353
36.39000 244.608
36.40000 239.842
36.41000 240.603
36.42000 248.602
36.43000 256.627
36.44000 258.652
36.45000 255.569
36.46000 252.558
36.47000 253.476
36.48000 256.634
36.49000 259.648
36.50000 259.800
36.51000 258.837
36.52000 257.943
36.53000 256.541
36.54000 255.154
36.55000 253.709
36.56000 251.895
36.57000 250.016
36.58000 248.056
36.59000 245.762
36.60000 243.431
36.61000 241.690
36.62000 242.821
36.63000 243.835
36.64000 245.691
36.65000 249.154
36.66000 252.656
36.67000 255.106
36.68000 256.203
36.69000 257.293
36.70000 255.440
36.71000 251.137
36.72000 247.004
36.73000 251.480
36.74000 260.783
36.75000 269.724
36.76000 271.733
36.77000 271.088
36.78000 270.490
36.79000 268.461
36.80000 266.298
36.81000 263.645
36.82000 257.957
36.83000 251.749
36.84000 247.287
36.85000 249.893
36.86000 253.247
36.87000 255.741
36.88000 263.526
36.89000 269.817
36.90000 273.159
36.91000 270.972
36.92000 268.657
36.93000 267.018
36.94000 266.231
36.95000 265.448
36.96000 268.727
36.97000 275.319
36.98000 281.788
36.99000 282.430
37.00000 279.862
37.01000 277.171
37.02000 272.201
37.03000 266.373
37.04000 260.979
37.05000 265.142
37.06000 271.079
37.07000 275.322
37.08000 269.310
37.09000 261.574
37.10000 255.708
37.11000 257.268
37.12000 259.596
37.13000 261.318
37.14000 258.085
37.15000 255.363
37.16000 253.973
37.17000 255.041
37.18000 256.162
37.19000 257.220
37.20000 258.199
37.21000 259.177
37.22000 259.606
37.23000 259.593
37.24000 259.500
37.25000 255.771
37.26000 250.073
37.27000 244.913
37.28000 249.417
37.29000 257.497
37.30000 264.959
37.31000 266.047
37.32000 265.587
37.33000 264.705
37.34000 261.319
37.35000 257.519
37.36000 254.391
37.37000 253.886
37.38000 253.645
37.39000 253.467
37.40000 252.217
37.41000 251.204
37.42000 249.139
37.43000 245.168
37.44000 241.158
37.45000 239.412
37.46000 240.418
37.47000 241.428
37.48000 245.328
37.49000 251.483
37.50000 257.546
37.51000 259.668
37.52000 259.694
37.53000 259.483
37.54000 255.157
37.55000 249.335
37.56000 243.970
37.57000 250.423
37.58000 258.807
37.59000 265.500
37.60000 262.363
37.61000 257.639
37.62000 254.613
37.63000 258.094
37.64000 262.216
37.65000 265.236
37.66000 261.583
37.67000 258.494
37.68000 253.370
37.69000 244.622
37.70000 235.802
37.71000 230.998
37.72000 230.981
37.73000 230.974
37.74000 235.418
37.75000 243.272
37.76000 251.013
37.77000 254.163
37.78000 254.911
37.79000 255.365
37.80000 250.860
37.81000 244.582
37.82000 238.809
37.83000 244.518
37.84000 252.100
37.85000 258.352
37.86000 257.014
37.87000 254.476
37.88000 253.224
37.89000 256.814
37.90000 260.868
37.91000 263.823
37.92000 258.077
37.93000 253.315
37.94000 251.184
37.95000 253.657
37.96000 256.214
37.97000 258.562
37.98000 260.664
37.99000 262.761
38.00000 261.436
38.01000 257.529
38.02000 253.784
38.03000 256.329
38.04000 262.106
38.05000 267.417
38.06000 265.131
38.07000 260.173
38.08000 255.625
38.09000 254.518
38.10000 254.261
38.11000 254.013
38.12000 253.816
38.13000 253.628
38.14000 254.508
38.15000 259.341
38.16000 264.544
38.17000 268.317
38.18000 268.671
38.19000 268.816
38.20000 269.028
38.21000 269.358
38.22000 269.690
38.23000 272.373
38.24000 277.756
38.25000 283.127
38.26000 281.328
38.27000 274.220
38.28000 267.292
38.29000 267.014
38.30000 270.096
38.31000 273.337
38.32000 279.088
38.33000 285.707
38.34000 291.765
38.35000 296.128
38.36000 299.657
38.37000 302.727
38.38000 303.284
38.39000 303.460
38.40000 304.810
38.41000 310.431
38.42000 316.440
38.43000 320.776
38.44000 336.190
38.45000 348.403
38.46000 359.827
38.47000 369.921
38.48000 379.993
38.49000 391.268
38.50000 403.897
38.51000 416.486
38.52000 424.318
38.53000 428.623
38.54000 433.070
38.55000 442.513
38.56000 454.437
38.57000 466.494
38.58000 480.605
38.59000 495.413
38.60000 508.938
38.61000 524.821
38.62000 539.401
38.63000 552.130
38.64000 554.913
38.65000 556.216
38.66000 557.504
38.67000 558.735
38.68000 559.960
38.69000 560.840
38.70000 570.493
38.71000 578.177
38.72000 580.003
38.73000 572.106
38.74000 564.062
38.75000 554.592
38.76000 543.549
38.77000 532.545
38.78000 522.339
38.79000 512.795
38.80000 503.116
38.81000 488.914
38.82000 472.504
38.83000 456.473
38.84000 446.092
38.85000 437.595
38.86000 429.854
38.87000 415.825
38.88000 402.144
38.89000 389.111
38.90000 379.495
38.91000 370.377
38.92000 360.801
38.93000 349.620
38.94000 338.300
38.95000 330.218
38.96000 316.286
38.97000 305.464
38.98000 297.675
38.99000 294.830
39.00000 292.055
39.01000 288.142
39.02000 282.996
39.03000 277.872
39.04000 272.672
39.05000 267.473
39.06000 262.544
39.07000 266.274
39.08000 274.158
39.09000 281.033
39.10000 273.335
39.11000 260.858
39.12000 249.514
39.13000 245.450
39.14000 243.277
39.15000 241.894
39.16000 244.592
39.17000 247.872
39.18000 251.124
39.19000 254.279
39.20000 257.426
39.21000 259.660
39.22000 253.647
39.23000 248.809
39.24000 243.757
39.25000 238.362
39.26000 232.962
39.27000 231.248
39.28000 233.449
39.29000 235.640
39.30000 233.214
39.31000 227.640
39.32000 222.465
39.33000 229.503
39.34000 242.302
39.35000 254.169
39.36000 252.972
39.37000 247.564
39.38000 242.660
39.39000 243.557
39.40000 245.459
39.41000 247.319
39.42000 248.973
39.43000 250.598
39.44000 250.729
39.45000 245.803
39.46000 240.462
39.47000 236.690
39.48000 236.377
39.49000 236.245
39.50000 235.761
39.51000 234.725
39.52000 233.682
39.53000 236.203
39.54000 242.434
39.55000 248.634
39.56000 248.792
39.57000 244.873
39.58000 241.056
39.59000 240.275
39.60000 240.901
39.61000 241.389
39.62000 240.013
39.63000 238.046
39.64000 236.266
39.65000 236.930
39.66000 237.971
39.67000 238.638
39.68000 237.445
39.69000 235.997
39.70000 234.790
39.71000 234.386
39.72000 234.046
39.73000 233.807
39.74000 239.069
39.75000 243.213
39.76000 244.094
39.77000 239.928
39.78000 235.705
39.79000 232.956
39.80000 231.714
39.81000 230.478
39.82000 232.232
39.83000 235.943
39.84000 239.608
39.85000 242.009
39.86000 243.833
39.87000 245.333
39.88000 242.551
39.89000 238.434
39.90000 234.719
39.91000 231.459
39.92000 228.678
39.93000 227.393
39.94000 233.416
39.95000 240.415
39.96000 244.796
39.97000 240.618
39.98000 235.775
39.99000 232.392
40.00000 227.760
40.01000 224.227
40.02000 223.155
40.03000 225.822
40.04000 228.528
40.05000 230.162
40.06000 230.724
40.07000 231.282
40.08000 232.457
40.09000 234.015
40.10000 235.581
40.11000 237.375
40.12000 239.270
40.13000 240.788
40.14000 237.460
40.15000 232.648
40.16000 228.316
40.17000 230.118
40.18000 232.800
40.19000 234.025
40.20000 228.269
40.21000 221.601
40.22000 217.639
40.23000 222.373
40.24000 227.763
40.25000 231.507
40.26000 231.572
40.27000 231.522
40.28000 230.884
40.29000 229.370
40.30000 227.848
40.31000 224.862
40.32000 220.440
40.33000 216.048
40.34000 214.219
40.35000 214.051
40.36000 214.002
40.37000 217.035
40.38000 221.424
40.39000 225.511
40.40000 225.796
40.41000 224.937
40.42000 224.166
40.43000 218.752
40.44000 213.199
40.45000 209.129
40.46000 212.030
40.47000 215.822
40.48000 218.353
40.49000 216.900
40.50000 215.154
40.51000 213.949
40.52000 218.632
40.53000 222.303
40.54000 225.718
40.55000 228.757
40.56000 231.792
40.57000 229.688
40.58000 222.646
40.59000 215.657
40.60000 213.960
40.61000 215.600
40.62000 217.312
40.63000 220.808
40.64000 225.076
40.65000 229.064
40.66000 229.617
40.67000 229.157
40.68000 228.744
40.69000 221.437
40.70000 213.869
40.71000 207.828
40.72000 208.829
40.73000 210.710
40.74000 212.584
40.75000 214.439
40.76000 216.293
40.77000 217.566
40.78000 220.509
40.79000 222.757
40.80000 224.335
40.81000 224.950
40.82000 225.557
40.83000 222.770
40.84000 216.786
40.85000 210.849
40.86000 212.470
40.87000 218.697
40.88000 224.505
40.89000 220.253
40.90000 211.722
40.91000 204.076
40.92000 206.946
40.93000 212.867
40.94000 218.157
40.95000 221.313
40.96000 223.703
40.97000 225.391
40.98000 223.899
40.99000 222.018
41.00000 220.864
41.01000 221.926
41.02000 223.141
41.03000 223.970
41.04000 212.020
41.05000 202.785
41.06000 198.777
41.07000 202.156
41.08000 205.588
41.09000 210.518
41.10000 216.831
41.11000 223.090
41.12000 226.720
41.13000 228.699
41.14000 230.513
41.15000 228.532
41.16000 224.964
41.17000 221.480
41.18000 218.971
41.19000 216.740
41.20000 214.752
41.21000 213.720
41.22000 212.981
41.23000 212.636
41.24000 214.044
41.25000 215.661
41.26000 216.873
41.27000 216.870
41.28000 216.785
41.29000 216.727
41.30000 218.507
41.31000 219.874
41.32000 217.834
41.33000 211.062
41.34000 204.265
41.35000 206.342
41.36000 216.457
41.37000 226.477
41.38000 230.405
41.39000 230.654
41.40000 230.713
41.41000 226.534
41.42000 220.612
41.43000 214.934
41.44000 212.006
41.45000 209.849
41.46000 207.932
41.47000 200.484
41.48000 193.130
41.49000 189.399
41.50000 201.479
41.51000 215.404
41.52000 223.526
41.53000 214.554
41.54000 204.466
41.55000 197.662
41.56000 198.524
41.57000 199.327
41.58000 201.613
41.59000 205.918
41.60000 210.234
41.61000 214.825
41.62000 219.659
41.63000 224.444
41.64000 224.594
41.65000 222.055
41.66000 219.499
41.67000 216.564
41.68000 213.476
41.69000 210.719
41.70000 211.597
41.71000 213.476
41.72000 215.142
41.73000 215.156
41.74000 214.908
41.75000 214.086
41.76000 210.812
41.77000 207.257
41.78000 205.740
41.79000 210.124
41.80000 214.881
41.81000 218.070
41.82000 211.536
41.83000 206.492
41.84000 203.255
41.85000 202.437
41.86000 201.633
41.87000 202.584
41.88000 205.063
41.89000 207.515
41.90000 210.800
41.91000 214.484
41.92000 218.015
41.93000 218.364
41.94000 217.449
41.95000 216.464
41.96000 214.740
41.97000 212.815
41.98000 211.114
41.99000 211.525
42.00000 212.207
42.01000 212.543
42.02000 211.428
42.03000 210.151
42.04000 209.302
42.05000 209.672
42.06000 210.117
42.07000 210.414
42.08000 218.778
42.09000 225.123
42.10000 226.303
42.11000 220.697
42.12000 215.069
42.13000 215.323
42.14000 220.606
42.15000 225.827
42.16000 226.311
42.17000 224.139
42.18000 222.097
42.19000 222.635
42.20000 224.180
42.21000 225.212
42.22000 220.902
42.23000 215.171
42.24000 210.120
42.25000 208.651
42.26000 207.926
42.27000 207.876
42.28000 210.614
42.29000 213.654
42.30000 216.229
42.31000 217.500
42.32000 218.693
42.33000 219.483
42.34000 220.090
42.35000 220.534
42.36000 219.733
42.37000 217.326
42.38000 214.916
42.39000 214.686
42.40000 216.282
42.41000 217.859
42.42000 216.282
42.43000 213.018
42.44000 210.038
42.45000 212.555
42.46000 217.181
42.47000 221.066
42.48000 217.414
42.49000 211.796
42.50000 206.858
42.51000 212.278
42.52000 218.473
42.53000 223.048
42.54000 221.055
42.55000 218.365
42.56000 216.603
42.57000 217.397
42.58000 218.337
42.59000 218.956
42.60000 220.640
42.61000 221.899
42.62000 219.770
42.63000 213.354
42.64000 206.939
42.65000 207.286
42.66000 213.199
42.67000 219.034
42.68000 220.366
42.69000 219.244
42.70000 218.164
42.71000 217.895
42.72000 217.930
42.73000 217.812
42.74000 216.164
42.75000 214.123
42.76000 212.334
42.77000 209.654
42.78000 207.224
42.79000 204.744
42.80000 202.065
42.81000 199.364
42.82000 197.682
42.83000 198.751
42.84000 199.973
42.85000 200.773
42.86000 208.651
42.87000 214.553
42.88000 216.135
42.89000 212.353
42.90000 208.565
42.91000 207.998
42.92000 210.032
42.93000 212.038
42.94000 209.375
42.95000 204.324
42.96000 199.401
42.97000 196.761
42.98000 194.970
42.99000 193.757
43.00000 198.141
43.01000 203.935
43.02000 208.999
43.03000 205.131
43.04000 200.554
43.05000 197.799
43.06000 202.171
43.07000 207.265
43.08000 211.123
43.09000 211.700
43.10000 212.100
43.11000 212.360
43.12000 204.261
43.13000 198.199
43.14000 198.257
43.15000 205.772
43.16000 213.289
43.17000 215.722
43.18000 214.125
43.19000 212.552
43.20000 207.832
43.21000 201.624
43.22000 195.795
43.23000 196.587
43.24000 199.792
43.25000 202.321
43.26000 198.452
43.27000 193.002
43.28000 188.252
43.29000 190.199
43.30000 192.790
43.31000 194.265
43.32000 191.448
43.33000 188.208
43.34000 184.221
43.35000 178.280
43.36000 172.238
43.37000 168.339
43.38000 182.652
43.39000 193.373
43.40000 199.971
43.41000 201.639
43.42000 203.293
43.43000 203.889
43.44000 203.660
43.45000 203.435
43.46000 200.382
43.47000 195.988
43.48000 191.771
43.49000 190.567
43.50000 190.443
43.51000 190.512
43.52000 192.360
43.53000 194.641
43.54000 196.622
43.55000 194.723
43.56000 192.579
43.57000 191.488
43.58000 194.375
43.59000 197.645
43.60000 199.699
43.61000 198.630
43.62000 197.404
43.63000 196.618
43.64000 196.663
43.65000 196.708
43.66000 197.659
43.67000 199.676
43.68000 201.679
43.69000 200.354
43.70000 196.486
43.71000 192.683
43.72000 192.293
43.73000 193.617
43.74000 194.732
43.75000 192.404
43.76000 188.865
43.77000 186.104
43.78000 190.364
43.79000 196.297
43.80000 201.436
43.81000 196.682
43.82000 191.330
43.83000 187.986
43.84000 192.091
43.85000 196.896
43.86000 200.736
43.87000 202.141
43.88000 203.427
43.89000 204.246
43.90000 203.498
43.91000 202.934
43.92000 200.584
43.93000 196.176
43.94000 191.798
43.95000 194.047
43.96000 201.264
43.97000 208.355
43.98000 208.837
43.99000 206.070
44.00000 203.374
44.01000 201.806
44.02000 200.630
44.03000 199.352
44.04000 197.181
44.05000 194.799
44.06000 192.743
44.07000 188.409
44.08000 184.434
44.09000 181.151
44.10000 180.383
44.11000 179.845
44.12000 182.342
44.13000 192.372
44.14000 202.754
44.15000 209.322
44.16000 206.127
44.17000 203.696
44.18000 200.334
44.19000 195.921
44.20000 191.534
44.21000 192.079
44.22000 196.254
44.23000 200.352
44.24000 200.882
44.25000 199.681
44.26000 198.512
44.27000 197.841
44.28000 197.339
44.29000 197.048
44.30000 198.575
44.31000 200.520
44.32000 202.195
44.33000 205.450
44.34000 208.406
44.35000 209.726
44.36000 205.183
44.37000 200.118
44.38000 195.859
44.39000 193.566
44.40000 191.361
44.41000 189.977
44.42000 200.011
44.43000 207.391
44.44000 211.952
44.45000 213.389
44.46000 214.818
44.47000 215.451
44.48000 215.507
44.49000 215.563
44.50000 213.491
44.51000 210.493
44.52000 207.668
44.53000 207.419
44.54000 208.031
44.55000 208.511
44.56000 207.881
44.57000 207.001
44.58000 206.245
44.59000 209.241
44.60000 212.236
44.61000 214.617
44.62000 214.840
44.63000 214.876
44.64000 215.249
44.65000 216.431
44.66000 217.648
44.67000 218.407
44.68000 220.043
44.69000 221.232
44.70000 221.437
44.71000 220.573
44.72000 219.710
44.73000 218.977
44.74000 218.336
44.75000 217.709
44.76000 219.443
44.77000 222.203
44.78000 224.436
44.79000 219.029
44.80000 211.109
44.81000 204.601
44.82000 209.684
44.83000 217.336
44.84000 223.882
44.85000 224.360
44.86000 224.031
44.87000 222.997
44.88000 219.522
44.89000 215.840
44.90000 214.433
44.91000 218.385
44.92000 222.563
44.93000 225.150
44.94000 225.239
44.95000 225.278
44.96000 225.605
44.97000 226.238
44.98000 226.881
44.99000 228.808
45.00000 231.630
45.01000 234.390
45.02000 232.309
45.03000 228.115
45.04000 224.322
45.05000 226.183
45.06000 229.871
45.07000 232.744
45.08000 229.072
45.09000 223.978
45.10000 219.633
45.11000 221.071
45.12000 222.962
45.13000 224.540
45.14000 225.059
45.15000 225.489
45.16000 226.477
45.17000 228.755
45.18000 231.084
45.19000 232.517
45.20000 222.813
45.21000 215.756
45.22000 212.673
45.23000 213.739
45.24000 214.783
45.25000 213.192
45.26000 209.798
45.27000 206.479
45.28000 207.698
45.29000 210.886
45.30000 213.830
45.31000 213.422
45.32000 211.950
45.33000 210.557
45.34000 209.791
45.35000 209.158
45.36000 208.620
45.37000 205.414
45.38000 202.415
45.39000 200.657
45.40000 203.042
45.41000 205.758
45.42000 207.401
45.43000 206.600
45.44000 205.704
45.45000 205.156
45.46000 205.732
45.47000 206.153
45.48000 204.750
45.49000 201.480
45.50000 198.215
45.51000 195.528
45.52000 193.229
45.53000 190.985
45.54000 193.901
45.55000 198.947
45.56000 203.499
45.57000 201.474
45.58000 197.397
45.59000 193.697
45.60000 192.896
45.61000 192.702
45.62000 192.538
45.63000 185.583
45.64000 178.993
45.65000 175.057
45.66000 179.819
45.67000 185.258
45.68000 188.798
45.69000 188.083
45.70000 187.210
45.71000 186.680
45.72000 190.045
45.73000 192.474
45.74000 194.976
45.75000 197.553
45.76000 200.050
45.77000 194.900
45.78000 184.699
45.79000 174.751
45.80000 177.636
45.81000 185.897
45.82000 193.495
45.83000 192.534
45.84000 188.947
45.85000 185.890
45.86000 186.808
45.87000 188.544
45.88000 190.010
45.89000 187.258
45.90000 184.496
45.91000 181.624
45.92000 178.401
45.93000 175.150
45.94000 173.020
45.95000 173.356
45.96000 173.781
45.97000 174.036
45.98000 176.903
45.99000 178.960
46.00000 178.955
46.01000 176.922
46.02000 174.939
46.03000 177.428
46.04000 182.818
46.05000 188.067
46.06000 186.738
46.07000 182.701
46.08000 178.895
46.09000 177.999
46.10000 177.981
46.11000 177.960
46.12000 177.915
46.13000 177.865
46.14000 177.823
46.15000 175.389
46.16000 173.103
46.17000 171.126
46.18000 170.127
46.19000 169.200
46.20000 169.445
46.21000 172.228
46.22000 175.097
46.23000 176.810
46.24000 181.204
46.25000 184.337
46.26000 183.860
46.27000 179.903
46.28000 175.952
46.29000 172.465
46.30000 169.272
46.31000 166.166
46.32000 166.554
46.33000 168.366
46.34000 170.012
46.35000 169.611
46.36000 168.605
46.37000 168.476
46.38000 174.662
46.39000 182.096
46.40000 188.334
46.41000 185.990
46.42000 183.144
46.43000 180.356
46.44000 177.748
46.45000 175.154
46.46000 173.834
46.47000 175.227
46.48000 176.708
46.49000 177.586
46.50000 180.383
46.51000 182.372
46.52000 180.737
46.53000 175.680
46.54000 170.665
46.55000 168.906
46.56000 169.185
46.57000 169.456
46.58000 169.310
46.59000 169.002
46.60000 169.076
46.61000 173.707
46.62000 179.664
46.63000 184.646
46.64000 182.759
46.65000 179.539
46.66000 176.847
46.67000 175.463
46.68000 174.447
46.69000 174.317
46.70000 176.898
46.71000 179.667
46.72000 180.143
46.73000 175.825
46.74000 171.356
46.75000 168.728
46.76000 174.151
46.77000 178.017
46.78000 178.598
46.79000 176.137
46.80000 173.693
46.81000 172.485
46.82000 172.036
46.83000 171.600
46.84000 174.494
46.85000 178.564
46.86000 182.404
46.87000 183.582
46.88000 183.998
46.89000 184.151
46.90000 182.498
46.91000 180.500
46.92000 178.836
46.93000 179.967
46.94000 181.181
46.95000 179.987
46.96000 171.555
46.97000 162.634
46.98000 158.436
46.99000 163.943
47.00000 169.741
47.01000 173.124
47.02000 173.776
47.03000 174.220
47.04000 172.422
47.05000 168.587
47.06000 164.754
47.07000 161.042
47.08000 157.402
47.09000 153.874
47.10000 155.174
47.11000 158.290
47.12000 161.367
47.13000 164.001
47.14000 166.510
47.15000 168.717
47.16000 168.882
47.17000 168.667
47.18000 168.488
47.19000 167.628
47.20000 166.850
47.21000 165.387
47.22000 161.900
47.23000 158.281
47.24000 155.073
47.25000 152.696
47.26000 150.343
47.27000 148.981
47.28000 160.281
47.29000 168.253
47.30000 171.315
47.31000 170.003
47.32000 168.713
47.33000 168.831
47.34000 169.785
47.35000 170.709
47.36000 169.543
47.37000 167.640
47.38000 165.656
47.39000 162.771
47.40000 159.637
47.41000 157.003
47.42000 157.673
47.43000 158.949
47.44000 160.004
47.45000 165.082
47.46000 169.650
47.47000 171.821
47.48000 167.032
47.49000 161.801
47.50000 160.369
47.51000 166.480
47.52000 172.797
47.53000 176.424
47.54000 173.540
47.55000 171.498
47.56000 167.081
47.57000 160.589
47.58000 154.152
47.59000 150.917
47.60000 149.551
47.61000 148.231
47.62000 151.084
47.63000 155.345
47.64000 159.522
47.65000 162.791
47.66000 165.815
47.67000 168.029
47.68000 165.000
47.69000 161.030
47.70000 157.758
47.71000 159.706
47.72000 161.789
47.73000 163.336
47.74000 163.353
47.75000 163.275
47.76000 162.478
47.77000 160.277
47.78000 158.039
47.79000 156.764
47.80000 159.968
47.81000 162.215
47.82000 163.465
47.83000 163.862
47.84000 164.213
47.85000 162.103
47.86000 158.581
47.87000 155.181
47.88000 155.142
47.89000 156.344
47.90000 157.431
47.91000 157.314
47.92000 156.877
47.93000 156.645
47.94000 157.721
47.95000 159.028
47.96000 160.101
47.97000 161.526
47.98000 162.727
47.99000 163.788
48.00000 164.453
48.01000 165.095
48.02000 165.142
48.03000 164.046
48.04000 162.921
48.05000 162.286
48.06000 158.402
48.07000 155.698
48.08000 155.799
48.09000 158.260
48.10000 160.664
48.11000 160.163
48.12000 158.024
48.13000 155.962
48.14000 156.513
48.15000 157.976
48.16000 159.393
48.17000 160.340
48.18000 161.165
48.19000 162.408
48.20000 166.259
48.21000 170.559
48.22000 174.077
48.23000 170.693
48.24000 167.317
48.25000 165.440
48.26000 167.695
48.27000 170.188
48.28000 170.312
48.29000 165.969
48.30000 161.521
48.31000 159.030
48.32000 160.898
48.33000 162.201
48.34000 162.824
48.35000 162.887
48.36000 162.946
48.37000 162.888
48.38000 162.765
48.39000 162.646
48.40000 160.411
48.41000 157.561
48.42000 155.164
48.43000 157.270
48.44000 160.535
48.45000 163.308
48.46000 163.093
48.47000 162.373
48.48000 161.786
48.49000 158.726
48.50000 156.013
48.51000 154.828
48.52000 157.780
48.53000 160.964
48.54000 163.441
48.55000 164.606
48.56000 165.742
48.57000 166.373
48.58000 157.871
48.59000 151.992
48.60000 151.533
48.61000 155.463
48.62000 159.271
48.63000 157.468
48.64000 152.612
48.65000 147.943
48.66000 153.474
48.67000 162.211
48.68000 170.067
48.69000 169.372
48.70000 166.519
48.71000 163.770
48.72000 161.649
48.73000 159.631
48.74000 157.993
48.75000 152.843
48.76000 148.352
48.77000 146.477
48.78000 151.571
48.79000 157.041
48.80000 160.116
48.81000 158.828
48.82000 157.449
48.83000 156.689
48.84000 158.109
48.85000 159.084
48.86000 157.816
48.87000 154.765
48.88000 151.822
48.89000 153.564
48.90000 157.811
48.91000 161.889
48.92000 163.755
48.93000 164.745
48.94000 165.245
48.95000 161.104
48.96000 155.811
48.97000 152.031
48.98000 157.095
48.99000 163.595
49.00000 168.854
49.01000 162.751
49.02000 156.869
49.03000 154.022
49.04000 159.127
49.05000 164.648
49.06000 166.468
49.07000 161.667
49.08000 156.734
49.09000 154.041
49.10000 153.390
49.11000 152.951
49.12000 154.042
49.13000 156.327
49.14000 158.583
49.15000 159.680
49.16000 160.168
49.17000 160.635
49.18000 160.485
49.19000 160.137
49.20000 159.957
49.21000 161.325
49.22000 163.069
49.23000 164.075
49.24000 160.844
49.25000 156.939
49.26000 153.792
49.27000 149.864
49.28000 146.614
49.29000 145.068
49.30000 147.908
49.31000 150.971
49.32000 152.765
49.33000 152.330
49.34000 151.853
49.35000 151.594
49.36000 150.967
49.37000 150.544
49.38000 151.962
49.39000 154.790
49.40000 157.542
49.41000 157.312
49.42000 155.543
49.43000 153.849
49.44000 154.861
49.45000 156.693
49.46000 158.505
49.47000 160.126
49.48000 161.702
49.49000 162.160
49.50000 156.334
49.51000 149.528
49.52000 144.065
49.53000 144.677
49.54000 145.637
49.55000 146.674
49.56000 147.910
49.57000 149.156
49.58000 149.877
49.59000 149.694
49.60000 149.495
49.61000 149.388
49.62000 153.826
49.63000 156.850
49.64000 158.094
49.65000 157.998
49.66000 157.911
49.67000 158.137
49.68000 158.521
49.69000 158.888
49.70000 158.657
49.71000 158.248
49.72000 157.435
49.73000 153.047
49.74000 147.821
49.75000 144.358
49.76000 150.615
49.77000 158.357
49.78000 164.547
49.79000 163.824
49.80000 162.726
49.81000 160.929
49.82000 157.395
49.83000 153.779
49.84000 151.669
49.85000 152.115
49.86000 152.604
49.87000 152.864
49.88000 156.598
49.89000 159.126
49.90000 158.912
49.91000 156.675
49.92000 154.532
49.93000 155.781
49.94000 158.721
49.95000 161.526
49.96000 157.198
49.97000 150.920
49.98000 145.456
49.99000 147.005
50.00000 150.171
50.01000 152.808
50.02000 152.582
50.03000 151.928
50.04000 151.408
50.05000 155.731
50.06000 159.567
50.07000 162.955
50.08000 165.248
50.09000 167.491
50.10000 167.521
50.11000 163.859
50.12000 160.139
50.13000 158.181
50.14000 160.556
50.15000 162.145
50.16000 159.830
50.17000 154.687
50.18000 149.651
50.19000 148.281
50.20000 148.709
50.21000 149.116
50.22000 151.658
50.23000 154.675
50.24000 157.378
50.25000 157.427
50.26000 156.876
50.27000 156.158
50.28000 154.549
50.29000 152.811
50.30000 151.432
50.31000 153.106
50.32000 154.667
50.33000 156.107
50.34000 157.255
50.35000 158.391
50.36000 159.934
50.37000 162.148
50.38000 164.370
50.39000 165.530
50.40000 161.709
50.41000 159.148
50.42000 160.059
50.43000 163.443
50.44000 166.780
50.45000 168.633
50.46000 169.770
50.47000 170.852
50.48000 170.952
50.49000 170.746
50.50000 170.631
50.51000 171.263
50.52000 172.062
50.53000 173.265
50.54000 176.569
50.55000 180.175
50.56000 183.023
50.57000 179.994
50.58000 177.163
50.59000 175.235
50.60000 175.444
50.61000 175.743
50.62000 175.531
50.63000 174.498
50.64000 173.454
50.65000 172.914
50.66000 164.514
50.67000 158.909
50.68000 160.736
50.69000 167.757
50.70000 174.656
50.71000 177.742
50.72000 179.022
50.73000 180.237
50.74000 180.754
50.75000 181.023
50.76000 181.152
50.77000 180.160
50.78000 178.924
50.79000 176.907
50.80000 170.908
50.81000 164.351
50.82000 159.194
50.83000 162.838
50.84000 166.340
50.85000 168.621
50.86000 168.065
50.87000 167.393
50.88000 166.030
50.89000 163.571
50.90000 161.099
50.91000 159.834
50.92000 158.578
50.93000 157.746
50.94000 158.313
50.95000 159.840
50.96000 161.278
50.97000 160.080
50.98000 157.654
50.99000 155.355
51.00000 157.588
51.01000 160.974
51.02000 163.696
51.03000 161.182
51.04000 157.548
51.05000 154.571
51.06000 154.879
51.07000 155.638
51.08000 156.233
51.09000 147.125
51.10000 139.225
51.11000 135.331
51.12000 140.588
51.13000 146.201
51.14000 150.098
51.15000 151.328
51.16000 152.526
51.17000 153.134
51.18000 155.975
51.19000 157.836
51.20000 155.296
51.21000 149.789
51.22000 144.477
51.23000 144.736
51.24000 147.546
51.25000 150.205
51.26000 151.944
51.27000 153.277
51.28000 154.403
51.29000 153.929
51.30000 153.119
51.31000 151.681
51.32000 147.158
51.33000 142.220
51.34000 138.369
51.35000 140.075
51.36000 141.782
51.37000 145.855
51.38000 155.242
51.39000 164.829
51.40000 164.838
51.41000 150.226
51.42000 135.457
51.43000 128.050
51.44000 136.307
51.45000 141.787
51.46000 144.281
51.47000 144.797
51.48000 145.238
51.49000 143.643
51.50000 141.132
51.51000 138.760
51.52000 142.197
51.53000 146.991
51.54000 151.095
51.55000 149.989
51.56000 147.810
51.57000 146.462
51.58000 149.114
51.59000 152.292
51.60000 154.760
51.61000 151.771
51.62000 149.063
51.63000 146.674
51.64000 144.992
51.65000 143.335
51.66000 143.607
51.67000 146.773
51.68000 149.966
51.69000 150.722
51.70000 149.073
51.71000 147.434
51.72000 146.690
51.73000 146.528
51.74000 146.185
51.75000 141.102
51.76000 133.921
51.77000 127.152
51.78000 131.485
51.79000 138.525
51.80000 144.648
51.81000 144.000
51.82000 141.984
51.83000 140.317
51.84000 140.305
51.85000 140.505
51.86000 140.660
51.87000 144.138
51.88000 147.093
51.89000 148.303
51.90000 145.731
51.91000 143.027
51.92000 141.615
51.93000 142.106
51.94000 142.613
51.95000 140.548
51.96000 135.997
51.97000 131.519
51.98000 133.132
51.99000 138.635
52.00000 144.020
52.01000 146.413
52.02000 147.506
52.03000 148.534
52.04000 144.793
52.05000 140.080
52.06000 135.886
52.07000 135.441
52.08000 135.740
52.09000 136.569
52.10000 139.860
52.11000 143.460
52.12000 146.231
52.13000 147.475
52.14000 148.373
52.15000 147.696
52.16000 143.659
52.17000 139.512
52.18000 136.983
52.19000 136.797
52.20000 136.631
52.21000 138.383
52.22000 141.951
52.23000 145.474
52.24000 145.432
52.25000 143.153
52.26000 140.891
52.27000 139.044
52.28000 137.374
52.29000 135.805
52.30000 138.135
52.31000 141.298
52.32000 143.845
52.33000 142.037
52.34000 139.381
52.35000 137.432
52.36000 138.694
52.37000 140.352
52.38000 141.623
52.39000 142.299
52.40000 142.800
52.41000 142.986
52.42000 142.515
52.43000 142.024
52.44000 143.609
52.45000 148.147
52.46000 152.705
52.47000 151.988
52.48000 146.374
52.49000 140.847
52.50000 141.671
52.51000 146.411
52.52000 150.824
52.53000 147.613
52.54000 141.196
52.55000 135.181
52.56000 137.416
52.57000 141.605
52.58000 145.174
52.59000 144.453
52.60000 142.914
52.61000 141.542
52.62000 140.921
52.63000 140.389
52.64000 139.984
52.65000 136.937
52.66000 134.395
52.67000 134.041
52.68000 138.195
52.69000 142.486
52.70000 145.470
52.71000 146.629
52.72000 147.775
52.73000 148.098
52.74000 147.670
52.75000 147.251
52.76000 147.393
52.77000 147.874
52.78000 148.216
52.79000 145.425
52.80000 141.340
52.81000 137.517
52.82000 138.432
52.83000 140.477
52.84000 141.795
52.85000 138.198
52.86000 133.680
52.87000 130.013
52.88000 130.080
52.89000 130.586
52.90000 130.970
52.91000 137.720
52.92000 143.354
52.93000 146.866
52.94000 146.081
52.95000 145.172
52.96000 144.664
52.97000 144.704
52.98000 144.748
52.99000 145.222
53.00000 146.078
53.01000 146.878
53.02000 144.078
53.03000 139.136
53.04000 134.396
53.05000 134.032
53.06000 135.445
53.07000 136.765
53.08000 137.597
53.09000 138.228
53.10000 139.337
53.11000 143.610
53.12000 148.464
53.13000 151.493
53.14000 146.655
53.15000 140.914
53.16000 136.575
53.17000 140.014
53.18000 143.100
53.19000 144.122
53.20000 141.035
53.21000 137.836
53.22000 138.765
53.23000 145.249
53.24000 151.758
53.25000 153.693
53.26000 151.621
53.27000 149.561
53.28000 148.213
53.29000 147.281
53.30000 146.439
53.31000 147.455
53.32000 149.214
53.33000 150.853
53.34000 149.623
53.35000 147.804
53.36000 146.085
53.37000 145.013
53.38000 144.058
53.39000 143.387
53.40000 143.919
53.41000 144.586
53.42000 145.088
53.43000 144.996
53.44000 144.896
53.45000 143.304
53.46000 138.795
53.47000 134.209
53.48000 132.987
53.49000 136.207
53.50000 139.445
53.51000 139.575
53.52000 137.038
53.53000 134.554
53.54000 135.004
53.55000 137.140
53.56000 139.212
53.57000 140.011
53.58000 140.310
53.59000 140.588
53.60000 142.980
53.61000 145.651
53.62000 147.454
53.63000 143.745
53.64000 139.062
53.65000 135.366
53.66000 135.767
53.67000 136.617
53.68000 137.253
53.69000 136.443
53.70000 135.742
53.71000 135.725
53.72000 137.021
53.73000 138.350
53.74000 140.862
53.75000 144.905
53.76000 148.951
53.77000 149.871
53.78000 148.159
53.79000 146.464
53.80000 145.720
53.81000 145.512
53.82000 145.256
53.83000 144.062
53.84000 142.507
53.85000 141.062
53.86000 140.818
53.87000 140.881
53.88000 140.998
53.89000 141.452
53.90000 141.964
53.91000 142.135
53.92000 140.910
53.93000 139.537
53.94000 138.513
53.95000 136.472
53.96000 134.837
53.97000 133.728
53.98000 133.612
53.99000 133.519
54.00000 135.464
54.01000 140.001
54.02000 144.541
54.03000 146.577
54.04000 146.540
54.05000 146.477
54.06000 145.132
54.07000 143.077
54.08000 141.224
54.09000 143.187
54.10000 146.599
54.11000 149.758
54.12000 143.780
54.13000 136.284
54.14000 130.034
54.15000 131.389
54.16000 134.034
54.17000 135.892
54.18000 134.593
54.19000 132.965
54.20000 131.758
54.21000 133.468
54.22000 134.924
54.23000 135.627
54.24000 134.930
54.25000 134.201
54.26000 134.721
54.27000 136.801
54.28000 138.883
54.29000 141.157
54.30000 143.580
54.31000 145.889
54.32000 142.874
54.33000 136.955
54.34000 131.312
54.35000 130.701
54.36000 131.965
54.37000 133.134
54.38000 137.931
54.39000 143.061
54.40000 146.958
54.41000 143.476
54.42000 138.767
54.43000 134.618
54.44000 132.671
54.45000 130.949
54.46000 129.678
54.47000 129.054
54.48000 128.598
54.49000 129.377
54.50000 132.411
54.51000 135.492
54.52000 136.719
54.53000 135.672
54.54000 134.621
54.55000 136.977
54.56000 142.025
54.57000 146.909
54.58000 144.535
54.59000 138.271
54.60000 132.446
54.61000 134.359
54.62000 139.108
54.63000 143.488
54.64000 139.695
54.65000 134.476
54.66000 130.438
54.67000 133.330
54.68000 137.351
54.69000 141.323
54.70000 145.105
54.71000 148.869
54.72000 151.632
54.73000 149.918
54.74000 148.410
54.75000 147.108
54.76000 146.174
54.77000 145.247
54.78000 143.419
54.79000 140.509
54.80000 137.602
54.81000 134.456
54.82000 131.142
54.83000 127.960
54.84000 130.335
54.85000 135.638
54.86000 140.773
54.87000 143.031
54.88000 144.254
54.89000 145.379
54.90000 145.309
54.91000 144.986
54.92000 144.434
54.93000 142.570
54.94000 140.497
54.95000 138.906
54.96000 139.144
54.97000 139.559
54.98000 139.862
54.99000 138.269
55.00000 136.967
55.01000 138.673
55.02000 145.684
55.03000 152.796
55.04000 154.170
55.05000 148.776
55.06000 143.383
55.07000 140.142
55.08000 138.564
55.09000 137.102
55.10000 140.281
55.11000 145.862
55.12000 151.163
55.13000 151.823
55.14000 150.840
55.15000 149.938
55.16000 147.460
55.17000 144.911
55.18000 142.827
55.19000 143.359
55.20000 144.299
55.21000 145.124
55.22000 145.515
55.23000 145.865
55.24000 146.120
55.25000 147.734
55.26000 149.028
55.27000 149.977
55.28000 150.331
55.29000 150.674
55.30000 152.272
55.31000 155.325
55.32000 158.370
55.33000 157.941
55.34000 154.912
55.35000 152.033
55.36000 154.842
55.37000 160.546
55.38000 166.007
55.39000 167.584
55.40000 167.808
55.41000 168.013
55.42000 165.328
55.43000 162.332
55.44000 160.269
55.45000 163.366
55.46000 167.255
55.47000 170.129
55.48000 169.287
55.49000 168.103
55.50000 167.246
55.51000 178.187
55.52000 187.013
55.53000 190.939
55.54000 186.526
55.55000 181.974
55.56000 179.972
55.57000 180.866
55.58000 181.761
55.59000 185.197
55.60000 190.473
55.61000 195.702
55.62000 199.246
55.63000 201.946
55.64000 204.667
55.65000 207.708
55.66000 210.857
55.67000 213.736
55.68000 210.352
55.69000 206.058
55.70000 202.969
55.71000 206.412
55.72000 210.834
55.73000 215.524
55.74000 221.181
55.75000 226.924
55.76000 231.056
55.77000 232.306
55.78000 233.162
55.79000 234.802
55.80000 237.751
55.81000 240.721
55.82000 245.807
55.83000 253.249
55.84000 260.667
55.85000 265.937
55.86000 269.614
55.87000 273.220
55.88000 274.374
55.89000 274.322
55.90000 274.179
55.91000 272.653
55.92000 270.662
55.93000 268.846
55.94000 273.100
55.95000 278.092
55.96000 282.340
55.97000 282.632
55.98000 282.342
55.99000 280.699
56.00000 274.269
56.01000 267.421
56.02000 262.520
56.03000 257.316
56.04000 253.332
56.05000 249.874
56.06000 247.280
56.07000 244.698
56.08000 241.900
56.09000 238.867
56.10000 235.845
56.11000 232.268
56.12000 228.331
56.13000 224.444
56.14000 222.190
56.15000 220.725
56.16000 219.278
56.17000 218.093
56.18000 216.995
56.19000 215.995
56.20000 212.022
56.21000 207.920
56.22000 204.587
56.23000 205.265
56.24000 206.520
56.25000 206.822
56.26000 203.817
56.27000 200.529
56.28000 198.190
56.29000 189.179
56.30000 182.099
56.31000 176.355
56.32000 172.770
56.33000 169.214
56.34000 168.112
56.35000 169.640
56.36000 171.161
56.37000 172.283
56.38000 173.116
56.39000 173.730
56.40000 167.532
56.41000 158.096
56.42000 149.306
56.43000 149.680
56.44000 153.030
56.45000 156.072
56.46000 156.227
56.47000 155.807
56.48000 155.248
56.49000 153.986
56.50000 152.624
56.51000 150.967
56.52000 148.299
56.53000 145.547
56.54000 143.599
56.55000 143.089
56.56000 142.746
56.57000 143.049
56.58000 144.377
56.59000 145.718
56.60000 146.073
56.61000 145.392
56.62000 144.715
56.63000 143.612
56.64000 142.233
56.65000 140.806
56.66000 137.935
56.67000 134.389
56.68000 131.133
56.69000 131.890
56.70000 133.928
56.71000 135.774
56.72000 136.561
56.73000 137.054
56.74000 137.692
56.75000 139.050
56.76000 140.508
56.77000 141.743
56.78000 142.228
56.79000 142.653
56.80000 142.952
56.81000 134.958
56.82000 128.652
56.83000 128.523
56.84000 138.024
56.85000 147.637
56.86000 149.808
56.87000 144.319
56.88000 138.860
56.89000 133.828
56.90000 129.144
56.91000 124.545
56.92000 122.374
56.93000 121.319
56.94000 120.628
56.95000 124.826
56.96000 130.560
56.97000 135.739
56.98000 131.020
56.99000 125.036
57.00000 120.734
57.01000 124.706
57.02000 129.793
57.03000 134.423
57.04000 137.546
57.05000 140.550
57.06000 142.654
57.07000 140.595
57.08000 138.919
57.09000 138.151
57.10000 138.775
57.11000 139.413
57.12000 137.789
57.13000 133.883
57.14000 130.000
57.15000 128.074
57.16000 127.456
57.17000 126.871
57.18000 127.210
57.19000 127.965
57.20000 128.908
57.21000 132.288
57.22000 136.420
57.23000 140.144
57.24000 133.963
57.25000 126.743
57.26000 120.678
57.27000 120.188
57.28000 120.433
57.29000 121.727
57.30000 126.415
57.31000 131.363
57.32000 134.808
57.33000 130.931
57.34000 127.806
57.35000 126.258
57.36000 127.079
57.37000 127.924
57.38000 129.449
57.39000 131.647
57.40000 133.831
57.41000 133.295
57.42000 131.019
57.43000 128.776
57.44000 127.384
57.45000 126.370
57.46000 125.471
57.47000 126.040
57.48000 127.052
57.49000 127.963
57.50000 128.709
57.51000 129.333
57.52000 130.187
57.53000 132.134
57.54000 134.222
57.55000 134.920
57.56000 131.199
57.57000 127.150
57.58000 124.347
57.59000 128.143
57.60000 131.172
57.61000 131.693
57.62000 128.510
57.63000 125.293
57.64000 124.933
57.65000 127.343
57.66000 129.736
57.67000 131.256
57.68000 132.200
57.69000 133.074
57.70000 132.152
57.71000 130.447
57.72000 128.782
57.73000 127.619
57.74000 126.604
57.75000 125.694
57.76000 123.478
57.77000 121.314
57.78000 119.780
57.79000 121.175
57.80000 122.940
57.81000 123.612
57.82000 120.868
57.83000 117.877
57.84000 115.818
57.85000 117.059
57.86000 118.073
57.87000 120.666
57.88000 125.550
57.89000 130.454
57.90000 133.031
57.91000 133.397
57.92000 133.761
57.93000 132.977
57.94000 131.496
57.95000 130.056
57.96000 129.606
57.97000 129.581
57.98000 129.572
57.99000 129.755
58.00000 129.995
58.01000 130.209
58.02000 133.853
58.03000 137.614
58.04000 139.726
58.05000 134.307
58.06000 127.959
58.07000 123.017
58.08000 122.398
58.09000 122.083
58.10000 121.867
58.11000 121.394
58.12000 121.034
58.13000 119.195
58.14000 115.248
58.15000 111.287
58.16000 111.932
58.17000 116.871
58.18000 121.768
58.19000 122.696
58.20000 121.199
58.21000 119.788
58.22000 120.375
58.23000 121.805
58.24000 123.300
58.25000 125.560
58.26000 128.040
58.27000 130.253
58.28000 125.741
58.29000 120.696
58.30000 117.642
58.31000 123.512
58.32000 130.459
58.33000 134.936
58.34000 131.951
58.35000 128.457
58.36000 126.081
58.37000 125.575
58.38000 125.239
58.39000 125.828
58.40000 127.708
58.41000 129.597
58.42000 128.735
58.43000 125.361
58.44000 122.018
58.45000 121.201
58.46000 121.904
58.47000 122.509
58.48000 120.884
58.49000 118.336
58.50000 116.269
58.51000 119.680
58.52000 124.638
58.53000 129.050
58.54000 132.451
58.55000 135.239
58.56000 136.800
58.57000 132.963
58.58000 128.490
58.59000 125.477
58.60000 126.801
58.61000 128.411
58.62000 129.500
58.63000 124.943
58.64000 121.427
58.65000 119.348
58.66000 119.242
58.67000 119.148
58.68000 119.196
58.69000 119.372
58.70000 119.546
58.71000 121.541
58.72000 124.559
58.73000 127.473
58.74000 128.124
58.75000 127.855
58.76000 127.422
58.77000 125.180
58.78000 122.435
58.79000 120.000
58.80000 122.709
58.81000 125.877
58.82000 127.838
58.83000 124.584
58.84000 120.729
58.85000 117.306
58.86000 115.143
58.87000 113.061
58.88000 111.661
58.89000 117.012
58.90000 121.125
58.91000 123.066
58.92000 122.076
58.93000 121.071
58.94000 121.124
58.95000 122.105
58.96000 123.076
58.97000 121.516
58.98000 118.540
58.99000 115.704
59.00000 115.822
59.01000 117.122
59.02000 118.406
59.03000 119.506
59.04000 120.557
59.05000 121.487
59.06000 120.084
59.07000 118.508
59.08000 116.975
59.09000 115.622
59.10000 114.290
59.11000 114.613
59.12000 119.678
59.13000 125.039
59.14000 128.621
59.15000 127.173
59.16000 126.002
59.17000 123.582
59.18000 119.509
59.19000 115.434
59.20000 115.531
59.21000 119.225
59.22000 122.877
59.23000 126.062
59.24000 128.909
59.25000 131.446
59.26000 127.706
59.27000 121.494
59.28000 115.784
59.29000 115.356
59.30000 116.342
59.31000 117.213
59.32000 119.903
59.33000 122.503
59.34000 124.165
59.35000 121.928
59.36000 119.263
59.37000 117.505
59.38000 118.309
59.39000 119.267
59.40000 119.903
59.41000 119.405
59.42000 119.016
59.43000 119.871
59.44000 122.342
59.45000 124.816
59.46000 124.775
59.47000 122.605
59.48000 120.462
59.49000 117.777
59.50000 114.860
59.51000 112.055
59.52000 111.434
59.53000 111.658
59.54000 111.940
59.55000 112.812
59.56000 113.840
59.57000 114.744
59.58000 117.560
59.59000 120.269
59.60000 122.365
59.61000 121.953
59.62000 121.272
59.63000 120.952
59.64000 121.634
59.65000 122.374
59.66000 122.862
59.67000 119.097
59.68000 116.246
59.69000 115.180
59.70000 116.393
59.71000 117.613
59.72000 118.184
59.73000 118.217
59.74000 118.250
59.75000 120.604
59.76000 124.154
59.77000 127.450
59.78000 125.944
59.79000 122.612
59.80000 119.551
59.81000 119.217
59.82000 119.587
59.83000 119.912
59.84000 119.411
59.85000 118.861
59.86000 118.488
59.87000 118.831
59.88000 119.249
59.89000 120.039
59.90000 121.843
59.91000 123.705
59.92000 124.925
59.93000 119.281
59.94000 115.016
59.95000 114.925
59.96000 120.059
59.97000 125.198
59.98000 126.029
59.99000 123.351
60.00000 120.710
60.01000 120.781
60.02000 122.291
60.03000 123.666
60.04000 122.539
60.05000 120.477
60.06000 118.334
60.07000 115.389
60.08000 112.240
60.09000 109.485
60.10000 115.036
60.11000 120.981
60.12000 126.358
60.13000 129.493
60.14000 132.398
60.15000 133.113
60.16000 127.965
60.17000 122.495
60.18000 118.932
60.19000 117.332
60.20000 116.190
60.21000 115.546
60.22000 115.515
60.23000 115.485
60.24000 115.225
60.25000 114.782
60.26000 114.345
60.27000 114.839
60.28000 115.806
60.29000 116.830
60.30000 118.873
60.31000 121.292
60.32000 123.588
60.33000 124.722
60.34000 125.566
60.35000 126.302
60.36000 119.955
60.37000 113.536
60.38000 109.483
60.39000 114.593
60.40000 120.618
60.41000 124.912
60.42000 124.651
60.43000 124.149
60.44000 123.824
60.45000 124.438
60.46000 124.900
60.47000 124.662
60.48000 123.580
60.49000 122.503
60.50000 123.227
60.51000 125.364
60.52000 127.468
60.53000 125.580
60.54000 121.705
60.55000 117.981
60.56000 116.839
60.57000 116.631
60.58000 116.386
60.59000 115.807
60.60000 115.145
60.61000 114.569
60.62000 113.512
60.63000 112.545
60.64000 112.272
60.65000 114.643
60.66000 117.272
60.67000 118.897
60.68000 117.923
60.69000 116.816
60.70000 116.105
60.71000 119.550
60.72000 122.122
60.73000 121.446
60.74000 116.926
60.75000 112.417
60.76000 112.167
60.77000 115.196
60.78000 118.176
60.79000 118.722
60.80000 118.029
60.81000 117.467
60.82000 119.085
60.83000 121.477
60.84000 123.493
60.85000 122.079
60.86000 119.842
60.87000 117.901
60.88000 118.186
60.89000 118.726
60.90000 120.195
60.91000 125.136
60.92000 130.406
60.93000 132.822
60.94000 127.980
60.95000 122.780
60.96000 119.458
60.97000 124.713
60.98000 128.648
60.99000 130.833
61.00000 130.986
61.01000 131.129
61.02000 129.759
61.03000 127.246
61.04000 124.775
61.05000 121.181
61.06000 117.153
61.07000 113.475
61.08000 115.418
61.09000 119.323
61.10000 123.205
61.11000 126.881
61.12000 130.508
61.13000 133.645
61.14000 133.070
61.15000 132.096
61.16000 130.735
61.17000 127.948
61.18000 125.029
61.19000 123.995
61.20000 127.672
61.21000 131.575
61.22000 134.051
61.23000 138.352
61.24000 141.496
61.25000 139.365
61.26000 131.225
61.27000 123.113
61.28000 121.365
61.29000 124.338
61.30000 127.257
61.31000 127.540
61.32000 126.538
61.33000 125.563
61.34000 125.027
61.35000 124.642
61.36000 124.601
61.37000 127.541
61.38000 131.173
61.39000 134.304
61.40000 133.863
61.41000 133.034
61.42000 131.752
61.43000 128.837
61.44000 125.776
61.45000 125.281
61.46000 131.092
61.47000 137.194
61.48000 141.038
61.49000 148.339
61.50000 153.663
61.51000 158.560
61.52000 162.979
61.53000 167.440
61.54000 179.000
61.55000 195.730
61.56000 212.142
61.57000 225.940
61.58000 237.993
61.59000 249.652
61.60000 255.342
61.61000 259.020
61.62000 263.609
61.63000 275.931
61.64000 290.012
61.65000 302.114
61.66000 295.930
61.67000 288.418
61.68000 282.370
61.69000 281.510
61.70000 281.106
61.71000 282.309
61.72000 287.394
61.73000 292.650
61.74000 295.940
61.75000 284.353
61.76000 275.830
61.77000 262.011
61.78000 242.389
61.79000 222.799
61.80000 208.385
61.81000 197.675
61.82000 187.179
61.83000 179.355
61.84000 173.075
61.85000 166.569
61.86000 156.736
61.87000 145.802
61.88000 136.331
61.89000 139.010
61.90000 144.401
61.91000 149.020
61.92000 146.097
61.93000 142.710
61.94000 138.803
61.95000 133.087
61.96000 127.217
61.97000 123.718
61.98000 125.849
61.99000 128.221
62.00000 129.695
62.01000 132.346
62.02000 134.265
62.03000 134.744
62.04000 133.673
62.05000 132.602
62.06000 131.515
62.07000 130.417
62.08000 129.342
62.09000 125.845
62.10000 121.378
62.11000 117.293
62.12000 118.656
62.13000 121.794
62.14000 124.585
62.15000 124.573
62.16000 123.946
62.17000 123.410
62.18000 127.675
62.19000 131.840
62.20000 134.202
62.21000 130.400
62.22000 126.084
62.23000 124.901
62.24000 131.030
62.25000 137.460
62.26000 141.427
62.27000 135.038
62.28000 130.355
62.29000 128.771
62.30000 130.448
62.31000 132.113
62.32000 132.179
62.33000 131.142
62.34000 130.128
62.35000 131.460
62.36000 133.790
62.37000 135.951
62.38000 135.768
62.39000 134.835
62.40000 133.847
62.41000 132.429
62.42000 130.918
62.43000 129.631
62.44000 126.846
62.45000 124.331
62.46000 124.002
62.47000 131.024
62.48000 138.642
62.49000 142.244
62.50000 136.631
62.51000 130.654
62.52000 126.992
62.53000 126.505
62.54000 126.183
62.55000 126.029
62.56000 126.048
62.57000 126.084
62.58000 127.903
62.59000 130.932
62.60000 133.890
62.61000 134.632
62.62000 134.366
62.63000 134.085
62.64000 133.611
62.65000 133.076
62.66000 132.742
62.67000 133.971
62.68000 135.531
62.69000 136.854
62.70000 135.880
62.71000 134.803
62.72000 133.663
62.73000 132.320
62.74000 130.960
62.75000 129.422
62.76000 127.485
62.77000 125.533
62.78000 124.346
62.79000 126.396
62.80000 127.884
62.81000 128.242
62.82000 127.456
62.83000 126.721
62.84000 131.175
62.85000 139.082
62.86000 146.798
62.87000 147.796
62.88000 145.847
62.89000 144.091
62.90000 144.878
62.91000 146.451
62.92000 147.399
62.93000 143.607
62.94000 138.831
62.95000 134.792
62.96000 135.210
62.97000 136.053
62.98000 135.805
62.99000 132.018
63.00000 127.959
63.01000 126.204
63.02000 129.557
63.03000 133.097
63.04000 135.233
63.05000 133.499
63.06000 132.236
63.07000 131.507
63.08000 131.305
63.09000 131.111
63.10000 131.639
63.11000 132.639
63.12000 133.612
63.13000 137.443
63.14000 142.311
63.15000 146.797
63.16000 146.422
63.17000 144.569
63.18000 142.656
63.19000 140.290
63.20000 137.833
63.21000 135.761
63.22000 140.701
63.23000 145.584
63.24000 147.916
63.25000 142.110
63.26000 135.696
63.27000 131.210
63.28000 130.928
63.29000 130.794
63.30000 130.713
63.31000 137.131
63.32000 141.730
63.33000 142.487
63.34000 139.507
63.35000 136.543
63.36000 135.018
63.37000 134.416
63.38000 133.831
63.39000 134.242
63.40000 135.049
63.41000 135.999
63.42000 138.733
63.43000 142.000
63.44000 144.649
63.45000 142.817
63.46000 140.092
63.47000 137.802
63.48000 137.888
63.49000 138.211
63.50000 138.579
63.51000 139.092
63.52000 139.616
63.53000 139.325
63.54000 137.287
63.55000 135.192
63.56000 133.945
63.57000 141.769
63.58000 147.362
63.59000 147.436
63.60000 142.251
63.61000 137.120
63.62000 136.262
63.63000 138.100
63.64000 139.886
63.65000 139.437
63.66000 138.096
63.67000 136.880
63.68000 137.179
63.69000 137.921
63.70000 138.866
63.71000 141.245
63.72000 143.906
63.73000 146.133
63.74000 145.760
63.75000 145.183
63.76000 144.074
63.77000 141.325
63.78000 138.461
63.79000 136.899
63.80000 138.079
63.81000 139.347
63.82000 140.095
63.83000 143.948
63.84000 146.684
63.85000 147.572
63.86000 146.731
63.87000 145.897
63.88000 145.523
63.89000 145.434
63.90000 145.348
63.91000 144.601
63.92000 143.627
63.93000 142.894
63.94000 144.985
63.95000 147.889
63.96000 149.913
63.97000 145.807
63.98000 140.524
63.99000 136.116
64.00000 141.494
64.01000 146.938
64.02000 150.495
64.03000 148.338
64.04000 145.791
64.05000 145.423
64.06000 149.569
64.07000 153.853
64.08000 156.362
64.09000 152.189
64.10000 149.222
64.11000 150.613
64.12000 155.999
64.13000 161.285
64.14000 159.750
64.15000 154.061
64.16000 148.543
64.17000 151.670
64.18000 158.037
64.19000 163.476
64.20000 158.316
64.21000 150.154
64.22000 143.864
64.23000 150.324
64.24000 159.185
64.25000 166.552
64.26000 164.846
64.27000 162.546
64.28000 159.746
64.29000 155.459
64.30000 151.073
64.31000 147.907
64.32000 147.224
64.33000 146.614
64.34000 146.259
64.35000 150.572
64.36000 153.617
64.37000 153.749
64.38000 151.263
64.39000 148.853
64.40000 151.346
64.41000 156.772
64.42000 162.028
64.43000 165.193
64.44000 167.379
64.45000 169.392
64.46000 169.470
64.47000 169.011
64.48000 168.665
64.49000 169.077
64.50000 169.629
64.51000 170.086
64.52000 169.551
64.53000 169.014
64.54000 168.919
64.55000 170.118
64.56000 171.399
64.57000 172.596
64.58000 173.621
64.59000 174.642
64.60000 175.230
64.61000 172.068
64.62000 169.842
64.63000 169.096
64.64000 169.656
64.65000 170.262
64.66000 173.681
64.67000 178.754
64.68000 183.661
64.69000 180.568
64.70000 174.614
64.71000 169.232
64.72000 170.052
64.73000 172.567
64.74000 175.163
64.75000 178.294
64.76000 181.521
64.77000 184.185
64.78000 187.264
64.79000 189.839
64.80000 190.032
64.81000 183.374
64.82000 176.289
64.83000 172.024
64.84000 173.306
64.85000 174.735
64.86000 175.552
64.87000 182.845
64.88000 187.951
64.89000 187.790
64.90000 183.075
64.91000 178.417
64.92000 176.984
64.93000 177.414
64.94000 177.829
64.95000 181.719
64.96000 186.678
64.97000 191.146
64.98000 190.414
64.99000 188.287
65.00000 186.601
65.01000 187.735
65.02000 189.371
65.03000 190.717
65.04000 191.612
65.05000 192.306
65.06000 192.881
65.07000 193.117
65.08000 193.333
65.09000 195.044
65.10000 199.646
65.11000 204.321
65.12000 206.972
65.13000 199.216
65.14000 193.801
65.15000 196.942
65.16000 207.341
65.17000 217.615
65.18000 221.294
65.19000 221.228
65.20000 221.165
65.21000 221.518
65.22000 222.003
65.23000 222.641
65.24000 224.856
65.25000 227.488
65.26000 229.680
65.27000 229.110
65.28000 228.060
65.29000 227.200
65.30000 227.831
65.31000 228.480
65.32000 230.065
65.33000 234.248
65.34000 238.584
65.35000 243.475
65.36000 249.424
65.37000 255.397
65.38000 258.755
65.39000 248.998
65.40000 242.208
65.41000 242.604
65.42000 248.979
65.43000 255.396
65.44000 263.854
65.45000 273.452
65.46000 282.698
65.47000 286.473
65.48000 288.059
65.49000 289.069
65.50000 284.276
65.51000 277.980
65.52000 274.251
65.53000 286.296
65.54000 301.033
65.55000 313.066
65.56000 324.236
65.57000 333.302
65.58000 343.184
65.59000 355.295
65.60000 367.533
65.61000 381.385
65.62000 398.250
65.63000 415.183
65.64000 424.622
65.65000 473.889
65.66000 508.095
65.67000 555.590
65.68000 613.936
65.69000 672.751
65.70000 753.743
65.71000 846.894
65.72000 936.502
65.73000 1063.308
65.74000 1195.274
65.75000 1326.868
65.76000 1454.819
65.77000 1581.843
65.78000 1700.474
65.79000 1768.577
65.80000 1828.229
65.81000 1876.753
65.82000 1928.137
65.83000 1970.328
65.84000 2000.451
65.85000 1998.182
65.86000 1994.134
65.87000 1987.816
65.88000 1977.336
65.89000 1966.766
65.90000 1960.924
65.91000 1925.381
65.92000 1900.662
65.93000 1826.900
65.94000 1713.832
65.95000 1600.398
65.96000 1470.559
65.97000 1331.882
65.98000 1198.675
65.99000 1082.578
66.00000 979.823
66.01000 877.221
66.02000 776.086
66.03000 675.319
66.04000 582.671
66.05000 537.938
66.06000 501.056
66.07000 471.169
66.08000 454.140
66.09000 441.317
66.10000 427.827
66.11000 412.577
66.12000 397.233
66.13000 386.189
66.14000 382.899
66.15000 379.767
66.16000 378.051
66.17000 374.696
66.18000 372.388
66.19000 370.733
66.20000 369.592
66.21000 368.701
66.22000 378.389
66.23000 393.678
66.24000 408.343
66.25000 424.175
66.26000 439.359
66.27000 454.672
66.28000 471.182
66.29000 487.987
66.30000 505.467
66.31000 526.857
66.32000 548.876
66.33000 566.650
66.34000 586.744
66.35000 603.259
66.36000 613.909
66.37000 609.349
66.38000 604.006
66.39000 606.673
66.40000 623.532
66.41000 640.664
66.42000 649.968
66.43000 629.440
66.44000 615.379
66.45000 613.788
66.46000 621.825
66.47000 629.364
66.48000 616.864
66.49000 593.936
66.50000 571.977
66.51000 548.625
66.52000 526.388
66.53000 504.208
66.54000 482.546
66.55000 461.009
66.56000 440.999
66.57000 429.640
66.58000 419.643
66.59000 411.604
66.60000 391.703
66.61000 374.649
66.62000 364.984
66.63000 374.154
66.64000 384.258
66.65000 387.300
66.66000 378.045
66.67000 368.567
66.68000 363.466
66.69000 358.130
66.70000 354.483
66.71000 350.934
66.72000 347.459
66.73000 344.201
66.74000 349.245
66.75000 358.537
66.76000 367.422
66.77000 367.873
66.78000 365.546
66.79000 363.523
66.80000 364.206
66.81000 365.530
66.82000 367.019
66.83000 369.428
66.84000 371.978
66.85000 374.020
66.86000 363.595
66.87000 354.224
66.88000 350.501
66.89000 360.936
66.90000 372.049
66.91000 379.913
66.92000 382.219
66.93000 384.431
66.94000 385.611
66.95000 381.810
66.96000 379.217
66.97000 376.730
66.98000 374.321
66.99000 371.857
67.00000 367.393
67.01000 361.924
67.02000 356.703
67.03000 364.746
67.04000 376.456
67.05000 386.875
67.06000 386.037
67.07000 382.585
67.08000 379.766
67.09000 380.392
67.10000 381.539
67.11000 382.454
67.12000 390.480
67.13000 397.479
67.14000 402.702
67.15000 403.553
67.16000 404.202
67.17000 402.947
67.18000 398.488
67.19000 393.978
67.20000 391.595
67.21000 396.790
67.22000 400.330
67.23000 405.000
67.24000 410.496
67.25000 415.900
67.26000 418.092
67.27000 418.697
67.28000 419.274
67.29000 413.026
67.30000 405.094
67.31000 398.554
67.32000 403.878
67.33000 411.907
67.34000 418.751
67.35000 419.260
67.36000 418.832
67.37000 418.492
67.38000 420.828
67.39000 422.900
67.40000 426.178
67.41000 432.380
67.42000 438.713
67.43000 440.185
67.44000 433.626
67.45000 426.949
67.46000 423.452
67.47000 428.635
67.48000 432.130
67.49000 433.060
67.50000 432.149
67.51000 431.203
67.52000 429.053
67.53000 426.319
67.54000 423.718
67.55000 425.363
67.56000 428.192
67.57000 430.867
67.58000 432.266
67.59000 433.379
67.60000 434.242
67.61000 433.797
67.62000 433.162
67.63000 432.660
67.64000 437.635
67.65000 442.010
67.66000 447.758
67.67000 456.773
67.68000 465.929
67.69000 469.656
67.70000 464.573
67.71000 459.368
67.72000 456.668
67.73000 467.430
67.74000 474.640
67.75000 474.175
67.76000 468.304
67.77000 462.651
67.78000 463.928
67.79000 468.514
67.80000 472.871
67.81000 476.002
67.82000 478.525
67.83000 480.471
67.84000 477.726
67.85000 473.949
67.86000 471.520
67.87000 476.017
67.88000 481.495
67.89000 485.812
67.90000 490.169
67.91000 493.664
67.92000 498.160
67.93000 504.995
67.94000 511.928
67.95000 515.069
67.96000 512.165
67.97000 509.182
67.98000 507.650
67.99000 515.175
68.00000 520.245
68.01000 526.065
68.02000 532.404
68.03000 538.590
68.04000 540.144
68.05000 539.524
68.06000 538.935
68.07000 535.706
68.08000 531.948
68.09000 528.808
68.10000 530.592
68.11000 533.438
68.12000 538.031
68.13000 551.444
68.14000 566.079
68.15000 577.563
68.16000 574.707
68.17000 571.490
68.18000 569.400
68.19000 569.905
68.20000 570.514
68.21000 574.068
68.22000 582.236
68.23000 590.458
68.24000 594.641
68.25000 591.870
68.26000 590.046
68.27000 592.127
68.28000 596.862
68.29000 601.525
68.30000 604.122
68.31000 605.765
68.32000 607.320
68.33000 612.027
68.34000 617.272
68.35000 622.457
68.36000 627.180
68.37000 631.804
68.38000 635.901
68.39000 637.388
68.40000 638.521
68.41000 639.406
68.42000 650.425
68.43000 659.857
68.44000 669.084
68.45000 677.846
68.46000 686.590
68.47000 692.320
68.48000 693.411
68.49000 694.451
68.50000 694.974
68.51000 710.901
68.52000 721.573
68.53000 735.017
68.54000 750.311
68.55000 765.827
68.56000 787.510
68.57000 811.990
68.58000 835.127
68.59000 860.957
68.60000 885.445
68.61000 911.043
68.62000 945.084
68.63000 980.880
68.64000 1019.302
68.65000 1070.487
68.66000 1123.366
68.67000 1164.508
68.68000 1222.261
68.69000 1269.256
68.70000 1314.432
68.71000 1355.563
68.72000 1396.545
68.73000 1425.415
68.74000 1435.975
68.75000 1446.348
68.76000 1482.598
68.77000 1544.590
68.78000 1606.421
68.79000 1653.059
68.80000 1689.739
68.81000 1727.912
68.82000 1806.004
68.83000 1901.892
68.84000 1992.358
68.85000 2096.974
68.86000 2196.814
68.87000 2307.557
68.88000 2499.497
68.89000 2707.993
68.90000 2986.901
68.91000 3601.417
68.92000 4259.523
68.93000 4769.329
68.94000 6776.359
68.95000 8459.473
68.96000 10569.837
68.97000 13613.889
68.98000 16690.754
68.99000 19997.674
69.00000 23646.170
69.01000 27297.779
69.02000 30554.824
69.03000 33426.980
69.04000 36289.836
69.05000 38346.055
69.06000 39882.906
69.07000 41398.266
69.08000 42361.965
69.09000 43083.879
69.10000 43763.734
69.11000 44505.711
69.12000 45201.473
69.13000 45904.883
69.14000 46663.980
69.15000 47434.215
69.16000 48095.215
69.17000 48245.234
69.18000 48330.344
69.19000 48395.988
69.20000 46345.770
69.21000 44599.152
69.22000 42404.137
69.23000 39245.875
69.24000 36055.172
69.25000 33192.148
69.26000 30806.965
69.27000 28426.006
69.28000 26587.227
69.29000 25266.928
69.30000 23953.154
69.31000 23163.252
69.32000 22704.701
69.33000 22249.855
69.34000 21886.385
69.35000 21562.283
69.36000 21257.627
69.37000 20465.473
69.38000 19611.354
69.39000 18676.609
69.40000 17166.869
69.41000 15544.283
69.42000 13860.883
69.43000 11898.279
69.44000 9900.993
69.45000 8367.405
69.46000 6702.342
69.47000 5378.756
69.48000 4253.181
69.49000 3545.731
69.50000 2851.759
69.51000 2325.127
69.52000 2038.151
69.53000 1753.067
69.54000 1558.001
69.55000 1447.336
69.56000 1336.926
69.57000 1245.519
69.58000 1165.921
69.59000 1087.833
69.60000 1045.600
69.61000 1018.553
69.62000 993.176
69.63000 961.690
69.64000 931.391
69.65000 900.443
69.66000 864.958
69.67000 828.599
69.68000 797.079
69.69000 787.364
69.70000 780.296
69.71000 774.894
69.72000 764.735
69.73000 756.465
69.74000 741.289
69.75000 711.780
69.76000 681.829
69.77000 657.395
69.78000 640.723
69.79000 624.108
69.80000 620.002
69.81000 627.386
69.82000 634.557
69.83000 626.967
69.84000 610.364
69.85000 593.753
69.86000 576.935
69.87000 560.031
69.88000 544.201
69.89000 549.051
69.90000 558.800
69.91000 567.077
69.92000 565.291
69.93000 561.606
69.94000 555.742
69.95000 540.244
69.96000 523.601
69.97000 510.938
69.98000 504.120
69.99000 499.063
70.00000 495.093
