20.00000 456.065
20.01000 463.567
20.02000 472.141
20.03000 478.767
20.04000 477.709
20.05000 475.865
20.06000 474.504
20.07000 470.383
20.08000 467.072
20.09000 466.326
20.10000 470.272
20.11000 474.318
20.12000 476.708
20.13000 477.062
20.14000 477.411
20.15000 473.516
20.16000 466.263
20.17000 459.130
20.18000 457.335
20.19000 458.408
20.20000 459.719
20.21000 465.232
20.22000 472.288
20.23000 478.799
20.24000 475.743
20.25000 470.869
20.26000 467.159
20.27000 470.300
20.28000 474.560
20.29000 476.758
20.30000 470.967
20.31000 464.381
20.32000 459.541
20.33000 463.803
20.34000 467.469
20.35000 471.866
20.36000 477.574
20.37000 483.309
20.38000 482.667
20.39000 474.339
20.40000 466.010
20.41000 462.487
20.42000 462.730
20.43000 463.018
20.44000 465.166
20.45000 468.296
20.46000 471.269
20.47000 471.557
20.48000 470.875
20.49000 470.247
20.50000 469.506
20.51000 468.819
20.52000 468.285
20.53000 468.630
20.54000 469.115
20.55000 469.610
20.56000 470.142
20.57000 470.678
20.58000 471.070
20.59000 472.994
20.60000 474.539
20.61000 476.691
20.62000 479.915
20.63000 483.160
20.64000 479.143
20.65000 466.536
20.66000 453.945
20.67000 450.112
20.68000 453.004
20.69000 455.903
20.70000 459.076
20.71000 462.392
20.72000 465.543
20.73000 465.955
20.74000 465.395
20.75000 464.880
20.76000 466.636
20.77000 468.691
20.78000 469.820
20.79000 465.718
20.80000 460.796
20.81000 457.628
20.82000 461.012
20.83000 465.019
20.84000 467.933
20.85000 462.340
20.86000 457.714
20.87000 454.074
20.88000 452.146
20.89000 450.249
20.90000 449.900
20.91000 451.346
20.92000 452.792
20.93000 456.742
20.94000 462.546
20.95000 468.245
20.96000 469.967
20.97000 469.660
20.98000 469.342
20.99000 468.831
21.00000 468.254
21.01000 467.724
21.02000 470.018
21.03000 472.655
21.04000 475.073
21.05000 476.283
21.06000 477.308
21.07000 476.332
21.08000 468.010
21.09000 459.008
21.10000 452.495
21.11000 450.112
21.12000 448.434
21.13000 451.072
21.14000 461.074
21.15000 471.201
21.16000 475.658
21.17000 473.663
21.18000 471.666
21.19000 463.929
21.20000 452.025
21.21000 440.513
21.22000 443.226
21.23000 453.069
21.24000 462.339
21.25000 462.671
21.26000 459.939
21.27000 457.440
21.28000 458.143
21.29000 459.426
21.30000 460.278
21.31000 458.785
21.32000 456.939
21.33000 455.577
21.34000 455.961
21.35000 456.503
21.36000 456.893
21.37000 459.315
21.38000 461.241
21.39000 462.104
21.40000 461.184
21.41000 460.237
21.42000 459.875
21.43000 460.167
21.44000 460.459
21.45000 460.992
21.46000 461.695
21.47000 462.407
21.48000 463.444
21.49000 464.641
21.50000 465.818
21.51000 466.681
21.52000 467.438
21.53000 468.128
21.54000 470.791
21.55000 473.551
21.56000 474.537
21.57000 466.078
21.58000 456.227
21.59000 450.336
21.60000 458.473
21.61000 467.841
21.62000 474.549
21.63000 479.135
21.64000 482.567
21.65000 484.267
21.66000 483.114
21.67000 481.919
21.68000 482.924
21.69000 486.337
21.70000 489.737
21.71000 483.534
21.72000 470.588
21.73000 457.942
21.74000 455.192
21.75000 457.234
21.76000 459.599
21.77000 466.705
21.78000 475.380
21.79000 483.277
21.80000 487.184
21.81000 489.854
21.82000 492.493
21.83000 494.972
21.84000 497.428
21.85000 497.926
21.86000 491.609
21.87000 484.710
21.88000 479.795
21.89000 486.289
21.90000 491.608
21.91000 499.436
21.92000 511.327
21.93000 523.273
21.94000 527.053
21.95000 522.065
21.96000 517.095
21.97000 516.084
21.98000 517.833
21.99000 519.740
22.00000 526.598
22.01000 535.814
22.02000 544.748
22.03000 549.661
22.04000 553.267
22.05000 556.540
22.06000 556.825
22.07000 556.497
22.08000 555.311
22.09000 549.725
22.10000 543.518
22.11000 538.785
22.12000 539.096
22.13000 539.826
22.14000 540.344
22.15000 543.782
22.16000 546.486
22.17000 547.159
22.18000 544.601
22.19000 542.002
22.20000 535.445
22.21000 524.722
22.22000 514.051
22.23000 508.534
22.24000 506.594
22.25000 504.661
22.26000 502.908
22.27000 501.239
22.28000 499.368
22.29000 494.686
22.30000 489.105
22.31000 484.049
22.32000 488.717
22.33000 494.674
22.34000 498.909
22.35000 494.485
22.36000 488.864
22.37000 485.319
22.38000 488.749
22.39000 492.744
22.40000 495.558
22.41000 485.198
22.42000 476.949
22.43000 472.460
22.44000 473.844
22.45000 475.298
22.46000 473.082
22.47000 467.080
22.48000 461.110
22.49000 462.485
22.50000 468.757
22.51000 474.737
22.52000 472.319
22.53000 466.036
22.54000 460.008
22.55000 457.416
22.56000 455.904
22.57000 454.538
22.58000 450.739
22.59000 446.946
22.60000 444.391
22.61000 447.949
22.62000 452.333
22.63000 454.681
22.64000 450.308
22.65000 445.405
22.66000 441.969
22.67000 444.876
22.68000 447.257
22.69000 448.104
22.70000 446.597
22.71000 445.065
22.72000 443.009
22.73000 440.422
22.74000 437.851
22.75000 438.073
22.76000 440.126
22.77000 442.274
22.78000 447.062
22.79000 453.043
22.80000 458.155
22.81000 451.878
22.82000 442.082
22.83000 433.251
22.84000 431.654
22.85000 431.568
22.86000 431.767
22.87000 433.346
22.88000 435.108
22.89000 438.192
22.90000 445.564
22.91000 453.265
22.92000 458.630
22.93000 446.585
22.94000 437.019
22.95000 430.313
22.96000 427.918
22.97000 425.567
22.98000 428.085
22.99000 435.430
23.00000 442.728
23.01000 442.954
23.02000 438.624
23.03000 434.557
23.04000 437.502
23.05000 443.564
23.06000 449.075
23.07000 447.567
23.08000 443.929
23.09000 440.657
23.10000 441.680
23.11000 443.340
23.12000 444.913
23.13000 446.074
23.14000 447.181
23.15000 446.326
23.16000 439.211
23.17000 431.630
23.18000 426.378
23.19000 427.251
23.20000 428.070
23.21000 428.828
23.22000 429.497
23.23000 430.166
23.24000 430.850
23.25000 431.549
23.26000 432.244
23.27000 434.724
23.28000 438.294
23.29000 441.689
23.30000 440.603
23.31000 437.560
23.32000 434.928
23.33000 437.379
23.34000 441.346
23.35000 444.905
23.36000 438.494
23.37000 431.152
23.38000 424.696
23.39000 422.366
23.40000 420.558
23.41000 421.769
23.42000 432.441
23.43000 443.799
23.44000 451.622
23.45000 439.494
23.46000 429.888
23.47000 427.182
23.48000 434.508
23.49000 441.918
23.50000 443.441
23.51000 439.357
23.52000 435.304
23.53000 430.190
23.54000 424.505
23.55000 419.097
23.56000 420.462
23.57000 424.736
23.58000 428.732
23.59000 429.359
23.60000 428.999
23.61000 428.678
23.62000 433.465
23.63000 438.513
23.64000 441.463
23.65000 434.815
23.66000 426.979
23.67000 423.261
23.68000 432.226
23.69000 442.085
23.70000 448.836
23.71000 435.385
23.72000 424.828
23.73000 425.636
23.74000 442.670
23.75000 459.823
23.76000 462.966
23.77000 453.021
23.78000 443.159
23.79000 444.448
23.80000 452.497
23.81000 460.254
23.82000 461.140
23.83000 459.124
23.84000 457.798
23.85000 464.559
23.86000 473.651
23.87000 481.763
23.88000 477.570
23.89000 471.865
23.90000 467.893
23.91000 471.708
23.92000 476.465
23.93000 481.704
23.94000 488.402
23.95000 495.200
23.96000 499.828
23.97000 484.125
23.98000 471.930
23.99000 471.192
24.00000 486.516
24.01000 501.944
24.02000 505.212
24.03000 497.342
24.04000 489.543
24.05000 485.031
24.06000 482.569
24.07000 480.193
24.08000 479.774
24.09000 480.166
24.10000 480.507
24.11000 480.252
24.12000 479.828
24.13000 479.451
24.14000 473.252
24.15000 466.916
24.16000 461.367
24.17000 459.291
24.18000 457.626
24.19000 455.611
24.20000 452.556
24.21000 449.431
24.22000 447.316
24.23000 431.735
24.24000 419.832
24.25000 418.532
24.26000 431.828
24.27000 445.205
24.28000 445.682
24.29000 434.572
24.30000 423.569
24.31000 421.774
24.32000 425.408
24.33000 429.074
24.34000 433.453
24.35000 438.122
24.36000 441.742
24.37000 433.680
24.38000 422.371
24.39000 412.332
24.40000 411.449
24.41000 412.149
24.42000 412.582
24.43000 411.861
24.44000 411.007
24.45000 409.604
24.46000 406.594
24.47000 403.481
24.48000 401.386
24.49000 397.742
24.50000 395.001
24.51000 395.545
24.52000 400.529
24.53000 405.533
24.54000 407.634
24.55000 407.175
24.56000 406.721
24.57000 407.157
24.58000 408.095
24.59000 408.983
24.60000 408.805
24.61000 408.199
24.62000 407.976
24.63000 411.908
24.64000 416.974
24.65000 421.460
24.66000 418.186
24.67000 414.141
24.68000 410.603
24.69000 409.221
24.70000 408.083
24.71000 407.082
24.72000 406.477
24.73000 405.897
24.74000 405.509
24.75000 399.641
24.76000 395.183
24.77000 395.572
24.78000 402.395
24.79000 409.239
24.80000 408.260
24.81000 400.521
24.82000 392.868
24.83000 392.844
24.84000 397.122
24.85000 401.286
24.86000 403.105
24.87000 404.000
24.88000 404.694
24.89000 403.263
24.90000 401.263
24.91000 399.497
24.92000 401.462
24.93000 403.729
24.94000 405.366
24.95000 404.371
24.96000 403.085
24.97000 402.484
24.98000 403.813
24.99000 405.258
25.00000 406.219
25.01000 407.035
25.02000 407.636
25.03000 406.730
25.04000 403.864
25.05000 400.992
25.06000 400.236
25.07000 401.274
25.08000 402.300
25.09000 402.201
25.10000 401.482
25.11000 401.069
25.12000 406.672
25.13000 414.607
25.14000 420.838
25.15000 409.498
25.16000 393.525
25.17000 379.464
25.18000 392.701
25.19000 408.189
25.20000 419.779
25.21000 415.390
25.22000 409.281
25.23000 405.577
25.24000 408.551
25.25000 411.918
25.26000 414.141
25.27000 413.329
25.28000 412.677
25.29000 411.710
25.30000 410.339
25.31000 408.961
25.32000 404.723
25.33000 398.105
25.34000 391.571
25.35000 390.581
25.36000 392.626
25.37000 394.616
25.38000 395.552
25.39000 396.086
25.40000 396.827
25.41000 399.649
25.42000 403.009
25.43000 405.959
25.44000 401.684
25.45000 396.951
25.46000 393.942
25.47000 397.873
25.48000 402.534
25.49000 404.496
25.50000 399.092
25.51000 393.271
25.52000 389.451
25.53000 387.771
25.54000 386.572
25.55000 385.015
25.56000 383.009
25.57000 381.021
25.58000 386.401
25.59000 397.796
25.60000 409.037
25.61000 414.169
25.62000 415.903
25.63000 417.366
25.64000 413.843
25.65000 408.451
25.66000 403.711
25.67000 405.367
25.68000 408.649
25.69000 411.522
25.70000 410.006
25.71000 408.077
25.72000 405.913
25.73000 402.820
25.74000 399.633
25.75000 394.927
25.76000 386.151
25.77000 377.151
25.78000 371.283
25.79000 384.467
25.80000 394.441
25.81000 399.403
25.82000 398.191
25.83000 396.961
25.84000 394.987
25.85000 392.416
25.86000 389.881
25.87000 390.957
25.88000 393.889
25.89000 396.343
25.90000 390.294
25.91000 381.113
25.92000 372.869
25.93000 373.606
25.94000 376.586
25.95000 379.187
25.96000 386.261
25.97000 392.940
25.98000 396.508
25.99000 387.994
26.00000 378.272
26.01000 371.109
26.02000 370.696
26.03000 370.643
26.04000 370.608
26.05000 385.493
26.06000 396.607
26.07000 398.605
26.08000 389.582
26.09000 380.546
26.10000 374.835
26.11000 371.738
26.12000 368.688
26.13000 368.517
26.14000 369.827
26.15000 371.072
26.16000 371.187
26.17000 370.893
26.18000 370.962
26.19000 374.431
26.20000 378.734
26.21000 382.479
26.22000 385.263
26.23000 387.508
26.24000 387.552
26.25000 379.206
26.26000 370.039
26.27000 365.394
26.28000 372.466
26.29000 380.140
26.30000 385.078
26.31000 385.770
26.32000 386.216
26.33000 385.131
26.34000 382.229
26.35000 379.337
26.36000 379.681
26.37000 382.522
26.38000 385.317
26.39000 386.087
26.40000 385.811
26.41000 385.340
26.42000 381.623
26.43000 376.750
26.44000 373.308
26.45000 382.922
26.46000 395.682
26.47000 406.753
26.48000 396.618
26.49000 385.143
26.50000 375.497
26.51000 372.698
26.52000 370.551
26.53000 369.673
26.54000 372.031
26.55000 374.549
26.56000 376.158
26.57000 379.540
26.58000 382.025
26.59000 385.740
26.60000 390.886
26.61000 395.996
26.62000 392.641
26.63000 382.873
26.64000 373.271
26.65000 370.240
26.66000 370.556
26.67000 371.048
26.68000 374.373
26.69000 378.689
26.70000 382.379
26.71000 380.491
26.72000 377.284
26.73000 374.510
26.74000 372.982
26.75000 371.847
26.76000 371.413
26.77000 373.558
26.78000 375.943
26.79000 378.541
26.80000 381.672
26.81000 384.828
26.82000 386.832
26.83000 380.233
26.84000 375.336
26.85000 376.672
26.86000 385.121
26.87000 393.534
26.88000 393.620
26.89000 387.513
26.90000 381.516
26.91000 378.770
26.92000 377.696
26.93000 376.763
26.94000 378.040
26.95000 380.077
26.96000 381.678
26.97000 379.486
26.98000 376.412
26.99000 373.761
27.00000 367.919
27.01000 362.556
27.02000 360.111
27.03000 368.215
27.04000 377.273
27.05000 383.255
27.06000 381.662
27.07000 379.720
27.08000 378.495
27.09000 381.736
27.10000 384.134
27.11000 385.929
27.12000 387.048
27.13000 388.147
27.14000 386.063
27.15000 381.654
27.16000 377.328
27.17000 378.405
27.18000 382.014
27.19000 385.174
27.20000 381.518
27.21000 375.559
27.22000 370.095
27.23000 368.851
27.24000 368.568
27.25000 368.325
27.26000 375.909
27.27000 383.306
27.28000 388.023
27.29000 383.220
27.30000 377.578
27.31000 374.300
27.32000 376.745
27.33000 379.445
27.34000 381.136
27.35000 377.162
27.36000 374.231
27.37000 369.477
27.38000 362.720
27.39000 356.031
27.40000 359.759
27.41000 370.955
27.42000 381.929
27.43000 383.753
27.44000 381.233
27.45000 378.567
27.46000 373.750
27.47000 368.219
27.48000 363.164
27.49000 362.071
27.50000 361.865
27.51000 361.687
27.52000 362.199
27.53000 362.715
27.54000 364.275
27.55000 369.474
27.56000 374.987
27.57000 379.457
27.58000 381.447
27.59000 383.331
27.60000 384.502
27.61000 376.366
27.62000 370.414
27.63000 370.146
27.64000 375.998
27.65000 381.805
27.66000 381.172
27.67000 376.004
27.68000 370.945
27.69000 371.866
27.70000 375.494
27.71000 378.800
27.72000 377.489
27.73000 374.671
27.74000 372.436
27.75000 374.951
27.76000 378.509
27.77000 381.549
27.78000 381.133
27.79000 380.369
27.80000 377.522
27.81000 367.533
27.82000 356.947
27.83000 350.022
27.84000 351.664
27.85000 353.658
27.86000 354.890
27.87000 357.378
27.88000 359.176
27.89000 357.952
27.90000 353.536
27.91000 349.171
27.92000 351.125
27.93000 357.448
27.94000 363.631
27.95000 369.664
27.96000 375.384
27.97000 380.793
27.98000 381.898
27.99000 381.621
28.00000 381.166
28.01000 379.295
28.02000 377.119
28.03000 375.265
28.04000 365.211
28.05000 355.803
28.06000 350.586
28.07000 359.487
28.08000 369.538
28.09000 375.068
28.10000 370.205
28.11000 364.930
28.12000 361.695
28.13000 367.216
28.14000 371.245
28.15000 368.326
28.16000 358.215
28.17000 348.216
28.18000 350.785
28.19000 361.889
28.20000 372.737
28.21000 376.005
28.22000 375.787
28.23000 375.514
28.24000 374.499
28.25000 373.250
28.26000 371.996
28.27000 370.704
28.28000 369.403
28.29000 368.299
28.30000 363.118
28.31000 358.309
28.32000 354.867
28.33000 355.953
28.34000 357.397
28.35000 356.400
28.36000 349.885
28.37000 343.160
28.38000 339.067
28.39000 342.717
28.40000 345.385
28.41000 349.847
28.42000 356.129
28.43000 362.382
28.44000 365.762
28.45000 367.225
28.46000 368.652
28.47000 369.794
28.48000 370.761
28.49000 371.223
28.50000 365.045
28.51000 356.810
28.52000 350.107
28.53000 355.062
28.54000 362.437
28.55000 368.678
28.56000 361.396
28.57000 353.799
28.58000 347.198
28.59000 343.839
28.60000 340.730
28.61000 340.281
28.62000 345.746
28.63000 351.426
28.64000 354.859
28.65000 364.859
28.66000 372.031
28.67000 373.643
28.68000 369.727
28.69000 365.824
28.70000 363.171
28.71000 361.336
28.72000 359.547
28.73000 360.709
28.74000 363.072
28.75000 365.076
28.76000 362.489
28.77000 358.503
28.78000 354.742
28.79000 352.651
28.80000 350.899
28.81000 349.422
28.82000 345.230
28.83000 341.435
28.84000 338.898
28.85000 340.387
28.86000 342.177
28.87000 343.156
28.88000 342.366
28.89000 341.513
28.90000 341.001
28.91000 351.691
28.92000 359.358
28.93000 363.764
28.94000 364.991
28.95000 366.255
28.96000 370.740
28.97000 377.299
28.98000 383.685
28.99000 372.623
29.00000 354.801
29.01000 338.493
29.02000 341.016
29.03000 349.172
29.04000 356.286
29.05000 355.811
29.06000 353.818
29.07000 352.143
29.08000 355.142
29.09000 358.135
29.10000 358.807
29.11000 352.185
29.12000 345.033
29.13000 340.811
29.14000 342.884
29.15000 345.169
29.16000 346.529
29.17000 361.142
29.18000 371.572
29.19000 375.710
29.20000 373.836
29.21000 371.884
29.22000 363.710
29.23000 351.600
29.24000 339.824
29.25000 337.188
29.26000 338.425
29.27000 339.664
29.28000 340.932
29.29000 342.209
29.30000 343.686
29.31000 346.598
29.32000 349.791
29.33000 352.466
29.34000 346.942
29.35000 341.502
29.36000 338.133
29.37000 341.157
29.38000 344.633
29.39000 345.468
29.40000 340.727
29.41000 335.807
29.42000 332.901
29.43000 334.950
29.44000 336.425
29.45000 339.654
29.46000 344.527
29.47000 349.386
29.48000 353.212
29.49000 356.396
29.50000 359.489
29.51000 355.977
29.52000 349.987
29.53000 344.520
29.54000 345.210
29.55000 347.678
29.56000 349.209
29.57000 344.192
29.58000 337.917
29.59000 332.678
29.60000 337.138
29.61000 341.815
29.62000 346.296
29.63000 350.185
29.64000 354.034
29.65000 356.433
29.66000 355.825
29.67000 355.124
29.68000 354.713
29.69000 349.357
29.70000 345.561
29.71000 343.774
29.72000 343.833
29.73000 343.976
29.74000 349.892
29.75000 359.332
29.76000 368.489
29.77000 368.451
29.78000 364.788
29.79000 361.261
29.80000 359.283
29.81000 357.746
29.82000 356.923
29.83000 360.981
29.84000 365.961
29.85000 370.104
29.86000 369.288
29.87000 368.125
29.88000 368.066
29.89000 371.296
29.90000 374.746
29.91000 376.651
29.92000 375.406
29.93000 374.068
29.94000 373.290
29.95000 369.770
29.96000 367.287
29.97000 367.269
29.98000 369.473
29.99000 371.593
30.00000 368.322
30.01000 361.819
30.02000 355.519
30.03000 353.351
30.04000 352.900
30.05000 352.727
30.06000 355.670
30.07000 359.481
30.08000 362.972
30.09000 364.320
30.10000 365.272
30.11000 366.061
30.12000 370.418
30.13000 374.358
30.14000 376.557
30.15000 373.651
30.16000 370.416
30.17000 367.348
30.18000 364.617
30.19000 361.896
30.20000 360.326
30.21000 359.610
30.22000 359.112
30.23000 359.401
30.24000 360.386
30.25000 361.341
30.26000 360.477
30.27000 358.540
30.28000 356.667
30.29000 362.448
30.30000 370.817
30.31000 378.148
30.32000 374.178
30.33000 367.114
30.34000 361.352
30.35000 364.122
30.36000 368.440
30.37000 372.007
30.38000 357.922
30.39000 344.668
30.40000 334.944
30.41000 335.391
30.42000 336.477
30.43000 338.139
30.44000 340.936
30.45000 343.764
30.46000 345.382
30.47000 350.943
30.48000 354.833
30.49000 353.355
30.50000 347.224
30.51000 341.243
30.52000 343.759
30.53000 351.195
30.54000 358.379
30.55000 355.529
30.56000 349.100
30.57000 343.334
30.58000 344.604
30.59000 347.767
30.60000 350.291
30.61000 348.713
30.62000 346.404
30.63000 344.505
30.64000 355.088
30.65000 364.924
30.66000 370.402
30.67000 363.535
30.68000 355.918
30.69000 350.596
30.70000 349.719
30.71000 348.955
30.72000 348.521
30.73000 365.409
30.74000 377.204
30.75000 379.515
30.76000 373.762
30.77000 368.014
30.78000 362.518
30.79000 357.165
30.80000 352.001
30.81000 354.018
30.82000 358.543
30.83000 362.554
30.84000 361.241
30.85000 358.521
30.86000 357.991
30.87000 371.228
30.88000 386.867
30.89000 399.690
30.90000 396.395
30.91000 392.263
30.92000 388.572
30.93000 386.108
30.94000 383.717
30.95000 384.889
30.96000 392.846
30.97000 400.966
30.98000 405.536
30.99000 405.856
31.00000 406.073
31.01000 409.323
31.02000 415.101
31.03000 420.879
31.04000 426.625
31.05000 432.353
31.06000 437.872
31.07000 449.885
31.08000 463.503
31.09000 477.641
31.10000 497.023
31.11000 517.768
31.12000 536.668
31.13000 544.214
31.14000 549.818
31.15000 554.395
31.16000 582.913
31.17000 608.323
31.18000 632.244
31.19000 652.096
31.20000 671.715
31.21000 695.728
31.22000 727.962
31.23000 760.385
31.24000 778.478
31.25000 811.657
31.26000 834.654
31.27000 857.293
31.28000 879.639
31.29000 902.053
31.30000 927.709
31.31000 955.147
31.32000 981.545
31.33000 1004.916
31.34000 1025.768
31.35000 1045.691
31.36000 1056.470
31.37000 1064.916
31.38000 1073.554
31.39000 1083.347
31.40000 1093.333
31.41000 1101.460
31.42000 1073.052
31.43000 1046.781
31.44000 1028.148
31.45000 1030.055
31.46000 1033.096
31.47000 1027.513
31.48000 1006.073
31.49000 984.288
31.50000 972.236
31.51000 933.106
31.52000 906.054
31.53000 879.279
31.54000 852.725
31.55000 826.049
31.56000 793.902
31.57000 758.801
31.58000 725.078
31.59000 698.100
31.60000 675.178
31.61000 652.911
31.62000 636.949
31.63000 622.566
31.64000 606.735
31.65000 582.339
31.66000 556.535
31.67000 535.615
31.68000 507.603
31.69000 484.198
31.70000 464.719
31.71000 455.621
31.72000 447.076
31.73000 440.362
31.74000 436.955
31.75000 433.615
31.76000 431.784
31.77000 416.255
31.78000 405.559
31.79000 397.173
31.80000 390.608
31.81000 384.197
31.82000 384.359
31.83000 388.010
31.84000 391.512
31.85000 386.782
31.86000 379.571
31.87000 372.546
31.88000 367.260
31.89000 362.402
31.90000 358.822
31.91000 362.650
31.92000 367.671
31.93000 371.727
31.94000 371.234
31.95000 370.470
31.96000 369.621
31.97000 368.547
31.98000 367.461
31.99000 363.771
32.00000 355.458
32.01000 347.055
32.02000 342.487
32.03000 343.361
32.04000 343.959
32.05000 342.645
32.06000 339.851
32.07000 337.137
32.08000 337.658
32.09000 339.866
32.10000 341.981
32.11000 338.706
32.12000 333.858
32.13000 329.218
32.14000 326.496
32.15000 324.237
32.16000 322.494
32.17000 323.686
32.18000 325.341
32.19000 326.672
32.20000 331.885
32.21000 336.414
32.22000 338.167
32.23000 332.829
32.24000 327.137
32.25000 324.392
32.26000 326.790
32.27000 329.282
32.28000 330.624
32.29000 317.465
32.30000 308.513
32.31000 312.770
32.32000 327.060
32.33000 341.001
32.34000 341.467
32.35000 335.024
32.36000 328.863
32.37000 324.778
32.38000 321.654
32.39000 319.256
32.40000 323.362
32.41000 329.011
32.42000 334.126
32.43000 336.266
32.44000 337.947
32.45000 339.294
32.46000 331.613
32.47000 324.716
32.48000 319.690
32.49000 319.362
32.50000 319.259
32.51000 319.753
32.52000 321.271
32.53000 322.806
32.54000 323.626
32.55000 325.942
32.56000 327.509
32.57000 326.476
32.58000 323.505
32.59000 320.473
32.60000 315.208
32.61000 308.817
32.62000 302.714
32.63000 307.744
32.64000 315.983
32.65000 323.032
32.66000 319.676
32.67000 313.897
32.68000 309.526
32.69000 312.842
32.70000 317.323
32.71000 320.899
32.72000 315.754
32.73000 310.960
32.74000 307.185
32.75000 305.922
32.76000 304.775
32.77000 305.152
32.78000 308.097
32.79000 311.084
32.80000 312.664
32.81000 306.615
32.82000 302.513
32.83000 300.429
32.84000 299.824
32.85000 299.395
32.86000 305.103
32.87000 313.851
32.88000 322.191
32.89000 321.564
32.90000 318.166
32.91000 315.007
32.92000 313.890
32.93000 313.241
32.94000 312.256
32.95000 309.473
32.96000 306.425
32.97000 304.002
32.98000 315.790
32.99000 326.300
33.00000 331.536
33.01000 323.972
33.02000 315.835
33.03000 312.181
33.04000 315.948
33.05000 319.827
33.06000 321.860
33.07000 304.136
33.08000 292.194
33.09000 291.268
33.10000 298.260
33.11000 305.088
33.12000 306.421
33.13000 305.078
33.14000 303.800
33.15000 304.103
33.16000 304.870
33.17000 305.575
33.18000 305.756
33.19000 305.819
33.20000 305.498
33.21000 303.158
33.22000 300.525
33.23000 298.440
33.24000 298.870
33.25000 299.389
33.26000 301.758
33.27000 308.536
33.28000 315.505
33.29000 317.753
33.30000 312.321
33.31000 306.782
33.32000 303.905
33.33000 293.367
33.34000 286.298
33.35000 285.848
33.36000 290.070
33.37000 294.243
33.38000 296.834
33.39000 298.670
33.40000 300.414
33.41000 295.219
33.42000 288.323
33.43000 282.974
33.44000 290.257
33.45000 300.323
33.46000 308.369
33.47000 305.995
33.48000 302.142
33.49000 299.104
33.50000 296.606
33.51000 294.640
33.52000 293.436
33.53000 294.021
33.54000 294.681
33.55000 293.836
33.56000 290.586
33.57000 287.304
33.58000 285.617
33.59000 291.628
33.60000 295.621
33.61000 292.900
33.62000 285.524
33.63000 278.560
33.64000 284.115
33.65000 295.561
33.66000 306.418
33.67000 303.894
33.68000 297.599
33.69000 292.343
33.70000 295.381
33.71000 300.212
33.72000 303.619
33.73000 299.820
33.74000 295.019
33.75000 291.251
33.76000 296.037
33.77000 300.425
33.78000 303.375
33.79000 303.010
33.80000 302.513
33.81000 303.244
33.82000 305.904
33.83000 308.587
33.84000 309.954
33.85000 307.754
33.86000 306.277
33.87000 304.766
33.88000 303.230
33.89000 301.823
33.90000 304.152
33.91000 308.208
33.92000 312.049
33.93000 308.990
33.94000 304.168
33.95000 300.856
33.96000 309.335
33.97000 320.315
33.98000 329.061
33.99000 326.715
34.00000 322.861
34.01000 319.847
34.02000 311.744
34.03000 304.954
34.04000 300.411
34.05000 300.964
34.06000 301.713
34.07000 302.549
34.08000 303.522
34.09000 304.497
34.10000 304.988
34.11000 311.127
34.12000 315.214
34.13000 317.435
34.14000 318.409
34.15000 319.469
34.16000 322.914
34.17000 327.445
34.18000 331.727
34.19000 325.439
34.20000 316.646
34.21000 309.923
34.22000 318.986
34.23000 331.337
34.24000 339.885
34.25000 329.917
34.26000 317.483
34.27000 307.804
34.28000 325.636
34.29000 341.530
34.30000 352.296
34.31000 351.640
34.32000 350.563
34.33000 348.345
34.34000 344.399
34.35000 340.436
34.36000 340.877
34.37000 345.709
34.38000 350.499
34.39000 351.318
34.40000 349.528
34.41000 347.722
34.42000 345.487
34.43000 343.060
34.44000 340.769
34.45000 340.061
34.46000 339.855
34.47000 339.820
34.48000 341.064
34.49000 342.570
34.50000 343.952
34.51000 344.744
34.52000 345.460
34.53000 346.014
34.54000 341.476
34.55000 337.565
34.56000 337.788
34.57000 347.062
34.58000 356.655
34.59000 356.116
34.60000 340.499
34.61000 324.740
34.62000 320.417
34.63000 327.271
34.64000 334.005
34.65000 330.186
34.66000 319.559
34.67000 309.224
34.68000 306.446
34.69000 306.988
34.70000 307.497
34.71000 308.734
34.72000 310.064
34.73000 311.497
34.74000 313.677
34.75000 316.005
34.76000 316.554
34.77000 308.758
34.78000 299.898
34.79000 293.062
34.80000 292.593
34.81000 292.591
34.82000 290.279
34.83000 282.997
34.84000 275.546
34.85000 274.033
34.86000 281.197
34.87000 288.436
34.88000 293.711
34.89000 297.104
34.90000 300.408
34.91000 296.557
34.92000 288.171
34.93000 279.976
34.94000 276.519
34.95000 275.108
34.96000 273.782
34.97000 277.289
34.98000 281.793
34.99000 284.910
35.00000 278.111
35.01000 269.361
35.02000 263.635
35.03000 271.822
35.04000 281.743
35.05000 289.364
35.06000 284.868
35.07000 280.633
35.08000 277.983
35.09000 278.688
35.10000 279.502
35.11000 278.974
35.12000 276.520
35.13000 274.052
35.14000 271.529
35.15000 268.957
35.16000 266.409
35.17000 265.704
35.18000 266.146
35.19000 266.539
35.20000 265.778
35.21000 264.525
35.22000 263.350
35.23000 260.421
35.24000 257.287
35.25000 254.502
35.26000 254.146
35.27000 254.260
35.28000 255.596
35.29000 262.452
35.30000 269.981
35.31000 275.740
35.32000 266.132
35.33000 257.716
35.34000 252.670
35.35000 254.633
35.36000 256.814
35.37000 259.181
35.38000 261.812
35.39000 264.444
35.40000 263.974
35.41000 260.649
35.42000 257.421
35.43000 260.964
35.44000 268.651
35.45000 275.829
35.46000 271.340
35.47000 261.984
35.48000 253.219
35.49000 258.289
35.50000 266.480
35.51000 273.461
35.52000 272.156
35.53000 269.283
35.54000 266.660
35.55000 265.152
35.56000 263.776
35.57000 262.728
35.58000 254.591
35.59000 247.814
35.60000 244.788
35.61000 249.432
35.62000 254.302
35.63000 258.740
35.64000 262.579
35.65000 266.412
35.66000 267.048
35.67000 264.799
35.68000 262.606
35.69000 264.142
35.70000 267.918
35.71000 271.442
35.72000 269.384
35.73000 265.036
35.74000 260.971
35.75000 260.660
35.76000 261.330
35.77000 261.951
35.78000 262.252
35.79000 262.492
35.80000 262.512
35.81000 261.573
35.82000 260.522
35.83000 259.726
35.84000 253.536
35.85000 248.401
35.86000 245.756
35.87000 248.114
35.88000 250.613
35.89000 253.766
35.90000 257.807
35.91000 261.851
35.92000 262.937
35.93000 261.404
35.94000 259.836
35.95000 256.176
35.96000 251.280
35.97000 246.626
35.98000 247.160
35.99000 249.786
36.00000 252.236
36.01000 253.692
36.02000 254.763
36.03000 256.107
36.04000 259.241
36.05000 262.700
36.06000 264.691
36.07000 260.409
36.08000 255.413
36.09000 251.645
36.10000 255.230
36.11000 258.402
36.12000 258.851
36.13000 253.921
36.14000 248.846
36.15000 250.051
36.16000 259.635
36.17000 269.256
36.18000 268.463
36.19000 258.638
36.20000 248.973
36.21000 248.468
36.22000 253.279
36.23000 257.822
36.24000 256.843
36.25000 253.677
36.26000 250.728
36.27000 246.757
36.28000 242.918
36.29000 239.958
36.30000 242.661
36.31000 246.374
36.32000 249.470
36.33000 249.980
36.34000 250.202
36.35000 250.368
36.36000 254.260
36.37000 257.479
36.38000 260.054
36.39000 261.377
36.40000 262.669
36.41000 264.099
36.42000 265.712
36.43000 267.325
36.44000 266.354
36.45000 263.187
36.46000 260.036
36.47000 257.716
36.48000 255.870
36.49000 254.143
36.50000 254.793
36.51000 256.370
36.52000 257.834
36.53000 257.426
36.54000 256.610
36.55000 255.926
36.56000 256.077
36.57000 256.375
36.58000 256.915
36.59000 258.457
36.60000 260.108
36.61000 261.341
36.62000 252.690
36.63000 245.489
36.64000 243.134
36.65000 250.027
36.66000 257.144
36.67000 259.584
36.68000 256.009
36.69000 252.414
36.70000 251.378
36.71000 252.479
36.72000 253.557
36.73000 253.491
36.74000 252.784
36.75000 252.304
36.76000 256.174
36.77000 261.710
36.78000 266.844
36.79000 266.576
36.80000 265.068
36.81000 264.372
36.82000 268.686
36.83000 273.860
36.84000 278.114
36.85000 278.648
36.86000 278.788
36.87000 278.893
36.88000 276.801
36.89000 275.077
36.90000 274.844
36.91000 277.408
36.92000 280.037
36.93000 281.019
36.94000 279.923
36.95000 278.820
36.96000 279.269
36.97000 280.985
36.98000 282.684
36.99000 283.588
37.00000 284.054
37.01000 284.456
37.02000 283.676
37.03000 282.451
37.04000 281.316
37.05000 281.273
37.06000 281.484
37.07000 281.177
37.08000 277.737
37.09000 273.769
37.10000 271.081
37.11000 273.474
37.12000 276.391
37.13000 278.551
37.14000 269.702
37.15000 262.363
37.16000 258.957
37.17000 262.801
37.18000 266.804
37.19000 267.512
37.20000 264.139
37.21000 260.760
37.22000 262.898
37.23000 269.453
37.24000 275.869
37.25000 275.920
37.26000 272.526
37.27000 269.200
37.28000 267.072
37.29000 265.387
37.30000 263.831
37.31000 264.173
37.32000 264.908
37.33000 264.969
37.34000 261.035
37.35000 256.442
37.36000 251.721
37.37000 246.495
37.38000 241.219
37.39000 237.334
37.40000 242.364
37.41000 246.628
37.42000 249.792
37.43000 250.966
37.44000 252.098
37.45000 256.181
37.46000 263.852
37.47000 271.516
37.48000 272.776
37.49000 268.993
37.50000 265.301
37.51000 265.582
37.52000 267.974
37.53000 270.060
37.54000 266.796
37.55000 261.586
37.56000 256.785
37.57000 257.038
37.58000 258.381
37.59000 258.790
37.60000 253.775
37.61000 247.884
37.62000 243.685
37.63000 245.970
37.64000 248.894
37.65000 251.036
37.66000 239.650
37.67000 230.316
37.68000 227.615
37.69000 236.721
37.70000 246.059
37.71000 251.258
37.72000 251.522
37.73000 251.777
37.74000 249.475
37.75000 245.213
37.76000 241.063
37.77000 241.451
37.78000 244.213
37.79000 247.060
37.80000 251.330
37.81000 256.110
37.82000 260.505
37.83000 260.194
37.84000 258.899
37.85000 256.765
37.86000 249.855
37.87000 242.188
37.88000 237.588
37.89000 244.532
37.90000 252.584
37.91000 258.453
37.92000 255.157
37.93000 252.265
37.94000 250.507
37.95000 250.735
37.96000 250.999
37.97000 250.569
37.98000 249.326
37.99000 248.085
38.00000 247.109
38.01000 246.339
38.02000 245.586
38.03000 245.502
38.04000 245.762
38.05000 246.471
38.06000 254.505
38.07000 265.112
38.08000 274.845
38.09000 273.773
38.10000 270.528
38.11000 267.324
38.12000 264.347
38.13000 261.406
38.14000 257.912
38.15000 252.377
38.16000 246.650
38.17000 242.497
38.18000 257.411
38.19000 269.580
38.20000 275.392
38.21000 270.272
38.22000 264.963
38.23000 263.412
38.24000 266.175
38.25000 268.935
38.26000 270.462
38.27000 271.063
38.28000 271.809
38.29000 277.965
38.30000 286.854
38.31000 295.411
38.32000 298.745
38.33000 300.274
38.34000 301.674
38.35000 311.706
38.36000 322.422
38.37000 332.761
38.38000 341.025
38.39000 348.974
38.40000 359.517
38.41000 379.487
38.42000 400.317
38.43000 415.346
38.44000 427.236
38.45000 436.238
38.46000 449.189
38.47000 468.810
38.48000 488.539
38.49000 508.081
38.50000 527.413
38.51000 546.681
38.52000 576.617
38.53000 614.079
38.54000 651.121
38.55000 673.392
38.56000 688.328
38.57000 704.367
38.58000 737.336
38.59000 776.052
38.60000 811.412
38.61000 863.938
38.62000 914.062
38.63000 959.324
38.64000 978.461
38.65000 993.714
38.66000 1011.230
38.67000 1036.822
38.68000 1063.131
38.69000 1082.014
38.70000 1092.756
38.71000 1100.690
38.72000 1111.632
38.73000 1127.567
38.74000 1143.578
38.75000 1143.015
38.76000 1124.148
38.77000 1105.341
38.78000 1090.146
38.79000 1077.669
38.80000 1064.741
38.81000 1036.686
38.82000 1001.248
38.83000 966.315
38.84000 938.899
38.85000 913.992
38.86000 891.297
38.87000 859.196
38.88000 828.882
38.89000 796.910
38.90000 756.200
38.91000 714.218
38.92000 674.528
38.93000 642.877
38.94000 611.922
38.95000 589.822
38.96000 546.804
38.97000 513.297
38.98000 486.369
38.99000 470.171
39.00000 454.125
39.01000 432.086
39.02000 403.556
39.03000 375.143
39.04000 357.884
39.05000 348.614
39.06000 339.237
39.07000 326.449
39.08000 312.025
39.09000 298.056
39.10000 290.668
39.11000 285.440
39.12000 280.686
39.13000 277.116
39.14000 274.191
39.15000 270.491
39.16000 262.791
39.17000 254.520
39.18000 247.902
39.19000 246.981
39.20000 246.540
39.21000 246.227
39.22000 243.168
39.23000 240.754
39.24000 238.875
39.25000 237.853
39.26000 236.843
39.27000 236.594
39.28000 237.153
39.29000 237.709
39.30000 237.470
39.31000 236.685
39.32000 235.956
39.33000 236.902
39.34000 238.639
39.35000 239.925
39.36000 234.875
39.37000 227.783
39.38000 221.351
39.39000 226.195
39.40000 232.624
39.41000 238.192
39.42000 239.385
39.43000 239.968
39.44000 239.889
39.45000 237.564
39.46000 235.056
39.47000 233.284
39.48000 235.274
39.49000 236.899
39.50000 237.803
39.51000 237.572
39.52000 237.327
39.53000 235.857
39.54000 233.113
39.55000 230.383
39.56000 229.469
39.57000 229.791
39.58000 229.937
39.59000 224.928
39.60000 217.529
39.61000 210.885
39.62000 214.522
39.63000 221.416
39.64000 227.654
39.65000 226.320
39.66000 223.727
39.67000 222.339
39.68000 226.943
39.69000 232.366
39.70000 235.204
39.71000 229.441
39.72000 222.991
39.73000 218.461
39.74000 219.357
39.75000 220.194
39.76000 221.994
39.77000 225.280
39.78000 228.583
39.79000 232.735
39.80000 237.755
39.81000 242.745
39.82000 240.895
39.83000 234.542
39.84000 228.345
39.85000 226.518
39.86000 226.683
39.87000 226.547
39.88000 222.420
39.89000 217.051
39.90000 212.205
39.91000 214.325
39.92000 217.465
39.93000 220.224
39.94000 221.125
39.95000 221.777
39.96000 224.427
39.97000 233.609
39.98000 243.298
39.99000 250.065
40.00000 239.476
40.01000 230.992
40.02000 222.404
40.03000 213.658
40.04000 204.911
40.05000 207.336
40.06000 220.936
40.07000 234.451
40.08000 238.732
40.09000 236.957
40.10000 235.093
40.11000 230.868
40.12000 225.584
40.13000 220.582
40.14000 219.214
40.15000 218.957
40.16000 218.726
40.17000 218.061
40.18000 217.399
40.19000 217.105
40.20000 218.570
40.21000 220.266
40.22000 220.846
40.23000 217.846
40.24000 214.576
40.25000 212.305
40.26000 221.761
40.27000 229.200
40.28000 232.512
40.29000 229.669
40.30000 226.767
40.31000 226.798
40.32000 229.705
40.33000 232.592
40.34000 232.708
40.35000 231.056
40.36000 229.361
40.37000 226.543
40.38000 223.231
40.39000 220.177
40.40000 220.356
40.41000 221.507
40.42000 222.540
40.43000 222.267
40.44000 221.798
40.45000 221.101
40.46000 219.330
40.47000 217.422
40.48000 215.576
40.49000 213.927
40.50000 212.293
40.51000 211.164
40.52000 215.860
40.53000 219.538
40.54000 222.699
40.55000 225.102
40.56000 227.498
40.57000 224.427
40.58000 216.103
40.59000 207.840
40.60000 212.202
40.61000 224.383
40.62000 236.036
40.63000 234.521
40.64000 227.306
40.65000 220.552
40.66000 219.417
40.67000 219.943
40.68000 220.413
40.69000 218.110
40.70000 215.621
40.71000 213.434
40.72000 212.636
40.73000 212.011
40.74000 211.506
40.75000 211.373
40.76000 211.266
40.77000 211.192
40.78000 206.868
40.79000 203.522
40.80000 201.708
40.81000 202.100
40.82000 202.510
40.83000 205.061
40.84000 209.628
40.85000 214.159
40.86000 215.198
40.87000 214.076
40.88000 213.056
40.89000 214.462
40.90000 216.899
40.91000 219.198
40.92000 219.841
40.93000 220.004
40.94000 220.150
40.95000 220.323
40.96000 220.478
40.97000 220.091
40.98000 217.248
40.99000 214.104
41.00000 211.205
41.01000 209.053
41.02000 206.952
41.03000 205.518
41.04000 209.832
41.05000 213.191
41.06000 215.783
41.07000 217.291
41.08000 218.789
41.09000 218.344
41.10000 216.103
41.11000 213.881
41.12000 214.353
41.13000 216.437
41.14000 218.570
41.15000 221.826
41.16000 225.550
41.17000 228.606
41.18000 223.933
41.19000 217.054
41.20000 210.925
41.21000 212.669
41.22000 215.484
41.23000 218.378
41.24000 221.623
41.25000 224.909
41.26000 224.922
41.27000 215.124
41.28000 204.667
41.29000 197.571
41.30000 199.379
41.31000 200.925
41.32000 201.631
41.33000 201.169
41.34000 200.701
41.35000 203.330
41.36000 208.766
41.37000 214.151
41.38000 215.819
41.39000 215.259
41.40000 214.781
41.41000 216.149
41.42000 218.275
41.43000 219.657
41.44000 212.649
41.45000 203.290
41.46000 194.973
41.47000 202.870
41.48000 212.338
41.49000 219.128
41.50000 214.226
41.51000 207.959
41.52000 203.897
41.53000 206.330
41.54000 209.187
41.55000 211.114
41.56000 215.512
41.57000 218.837
41.58000 219.020
41.59000 214.921
41.60000 210.801
41.61000 209.563
41.62000 210.886
41.63000 212.197
41.64000 212.379
41.65000 211.904
41.66000 211.386
41.67000 209.956
41.68000 208.157
41.69000 206.308
41.70000 203.905
41.71000 201.349
41.72000 199.084
41.73000 208.791
41.74000 219.086
41.75000 226.387
41.76000 220.859
41.77000 213.868
41.78000 208.780
41.79000 209.203
41.80000 209.975
41.81000 210.493
41.82000 209.195
41.83000 208.196
41.84000 207.913
41.85000 208.589
41.86000 209.270
41.87000 210.009
41.88000 210.796
41.89000 211.576
41.90000 211.429
41.91000 210.759
41.92000 210.061
41.93000 208.799
41.94000 207.313
41.95000 205.888
41.96000 205.119
41.97000 204.527
41.98000 204.005
41.99000 204.061
42.00000 204.199
42.01000 205.119
42.02000 209.326
42.03000 213.899
42.04000 218.350
42.05000 222.453
42.06000 226.535
42.07000 229.255
42.08000 219.671
42.09000 212.341
42.10000 208.814
42.11000 210.281
42.12000 211.770
42.13000 212.075
42.14000 211.369
42.15000 210.672
42.16000 206.602
42.17000 200.748
42.18000 195.202
42.19000 195.809
42.20000 198.818
42.21000 201.680
42.22000 203.011
42.23000 203.935
42.24000 204.749
42.25000 204.560
42.26000 204.245
42.27000 204.152
42.28000 204.976
42.29000 205.900
42.30000 206.791
42.31000 207.590
42.32000 208.383
42.33000 208.909
42.34000 206.844
42.35000 205.273
42.36000 203.578
42.37000 201.726
42.38000 199.882
42.39000 202.553
42.40000 209.012
42.41000 215.391
42.42000 216.619
42.43000 214.996
42.44000 213.399
42.45000 212.306
42.46000 211.406
42.47000 210.446
42.48000 208.877
42.49000 207.150
42.50000 205.632
42.51000 207.316
42.52000 209.238
42.53000 210.737
42.54000 210.519
42.55000 210.120
42.56000 209.698
42.57000 209.217
42.58000 208.732
42.59000 208.413
42.60000 205.384
42.61000 203.108
42.62000 201.621
42.63000 201.132
42.64000 200.649
42.65000 201.363
42.66000 203.061
42.67000 204.736
42.68000 205.241
42.69000 205.104
42.70000 204.955
42.71000 204.585
42.72000 204.133
42.73000 203.717
42.74000 203.661
42.75000 203.697
42.76000 203.729
42.77000 205.797
42.78000 207.866
42.79000 208.199
42.80000 201.615
42.81000 194.313
42.82000 191.096
42.83000 198.918
42.84000 207.354
42.85000 212.870
42.86000 207.502
42.87000 203.383
42.88000 200.688
42.89000 199.761
42.90000 198.851
42.91000 202.176
42.92000 208.922
42.93000 215.573
42.94000 213.524
42.95000 206.944
42.96000 200.503
42.97000 196.570
42.98000 193.567
42.99000 191.067
43.00000 193.449
43.01000 197.060
43.02000 200.216
43.03000 201.495
43.04000 202.324
43.05000 201.687
43.06000 195.307
43.07000 188.347
43.08000 185.311
43.09000 192.702
43.10000 200.655
43.11000 205.821
43.12000 205.446
43.13000 205.087
43.14000 203.054
43.15000 198.981
43.16000 194.911
43.17000 193.517
43.18000 194.244
43.19000 194.960
43.20000 196.564
43.21000 198.579
43.22000 200.376
43.23000 198.365
43.24000 194.966
43.25000 192.092
43.26000 194.182
43.27000 197.499
43.28000 200.390
43.29000 196.466
43.30000 192.170
43.31000 189.421
43.32000 192.621
43.33000 196.409
43.34000 200.232
43.35000 204.145
43.36000 208.064
43.37000 210.593
43.38000 196.908
43.39000 186.676
43.40000 184.125
43.41000 190.761
43.42000 197.398
43.43000 199.831
43.44000 198.992
43.45000 198.166
43.46000 196.419
43.47000 194.258
43.48000 192.153
43.49000 190.979
43.50000 190.138
43.51000 189.507
43.52000 190.814
43.53000 192.591
43.54000 194.135
43.55000 194.839
43.56000 195.325
43.57000 194.935
43.58000 191.234
43.59000 187.214
43.60000 183.995
43.61000 182.835
43.62000 181.779
43.63000 181.101
43.64000 190.124
43.65000 196.830
43.66000 198.535
43.67000 194.371
43.68000 190.221
43.69000 191.115
43.70000 195.863
43.71000 200.532
43.72000 198.873
43.73000 194.113
43.74000 189.520
43.75000 187.656
43.76000 186.754
43.77000 186.137
43.78000 188.091
43.79000 190.658
43.80000 192.882
43.81000 193.163
43.82000 193.146
43.83000 192.814
43.84000 191.317
43.85000 189.711
43.86000 187.794
43.87000 185.095
43.88000 182.356
43.89000 180.613
43.90000 189.841
43.91000 196.688
43.92000 200.517
43.93000 200.872
43.94000 201.230
43.95000 202.810
43.96000 205.308
43.97000 207.761
43.98000 200.718
43.99000 189.269
44.00000 178.536
44.01000 179.176
44.02000 183.754
44.03000 187.894
44.04000 188.174
44.05000 187.551
44.06000 187.012
44.07000 186.098
44.08000 185.273
44.09000 184.928
44.10000 186.333
44.11000 187.899
44.12000 190.357
44.13000 195.032
44.14000 199.810
44.15000 202.832
44.16000 204.474
44.17000 205.647
44.18000 202.443
44.19000 194.294
44.20000 186.176
44.21000 184.377
44.22000 187.227
44.23000 190.025
44.24000 190.055
44.25000 188.755
44.26000 187.886
44.27000 193.659
44.28000 201.693
44.29000 208.438
44.30000 204.086
44.31000 197.185
44.32000 191.243
44.33000 191.858
44.34000 193.207
44.35000 194.333
44.36000 194.659
44.37000 194.914
44.38000 195.763
44.39000 198.060
44.40000 200.423
44.41000 201.907
44.42000 194.433
44.43000 188.931
44.44000 188.883
44.45000 194.875
44.46000 200.852
44.47000 203.867
44.48000 204.742
44.49000 205.599
44.50000 209.466
44.51000 214.608
44.52000 218.991
44.53000 212.033
44.54000 201.279
44.55000 191.833
44.56000 193.367
44.57000 197.379
44.58000 200.823
44.59000 205.373
44.60000 209.355
44.61000 213.008
44.62000 215.504
44.63000 217.899
44.64000 219.369
44.65000 218.617
44.66000 217.768
44.67000 217.239
44.68000 217.007
44.69000 216.843
44.70000 217.929
44.71000 220.372
44.72000 222.805
44.73000 223.681
44.74000 223.452
44.75000 223.227
44.76000 223.062
44.77000 222.931
44.78000 222.873
44.79000 223.859
44.80000 225.189
44.81000 226.838
44.82000 231.101
44.83000 235.944
44.84000 240.087
44.85000 242.074
44.86000 243.489
44.87000 243.268
44.88000 237.390
44.89000 231.034
44.90000 228.015
44.91000 232.863
44.92000 238.041
44.93000 241.249
44.94000 246.347
44.95000 250.030
44.96000 254.690
44.97000 260.389
44.98000 266.047
44.99000 266.328
45.00000 262.862
45.01000 259.471
45.02000 255.877
45.03000 252.336
45.04000 248.945
45.05000 247.679
45.06000 247.101
45.07000 247.419
45.08000 254.942
45.09000 264.031
45.10000 271.783
45.11000 271.004
45.12000 269.344
45.13000 266.862
45.14000 261.590
45.15000 256.089
45.16000 251.552
45.17000 249.250
45.18000 247.039
45.19000 245.679
45.20000 241.052
45.21000 237.705
45.22000 239.639
45.23000 247.088
45.24000 254.458
45.25000 252.572
45.26000 244.352
45.27000 236.317
45.28000 231.523
45.29000 228.373
45.30000 225.473
45.31000 226.010
45.32000 227.638
45.33000 228.594
45.34000 224.266
45.35000 218.812
45.36000 214.175
45.37000 226.491
45.38000 238.782
45.39000 246.694
45.40000 239.997
45.41000 232.130
45.42000 226.579
45.43000 226.306
45.44000 226.237
45.45000 226.195
45.46000 223.550
45.47000 221.638
45.48000 221.484
45.49000 223.128
45.50000 224.745
45.51000 223.408
45.52000 220.084
45.53000 216.839
45.54000 218.180
45.55000 221.467
45.56000 224.453
45.57000 223.439
45.58000 221.175
45.59000 218.489
45.60000 212.555
45.61000 205.942
45.62000 200.338
45.63000 201.071
45.64000 202.397
45.65000 203.723
45.66000 205.053
45.67000 206.383
45.68000 207.452
45.69000 207.937
45.70000 208.401
45.71000 208.682
45.72000 199.808
45.73000 193.410
45.74000 190.533
45.75000 191.188
45.76000 191.857
45.77000 193.904
45.78000 196.862
45.79000 199.747
45.80000 196.924
45.81000 191.780
45.82000 186.867
45.83000 184.953
45.84000 183.958
45.85000 183.602
45.86000 188.046
45.87000 193.476
45.88000 198.063
45.89000 203.422
45.90000 207.988
45.91000 209.635
45.92000 201.883
45.93000 193.418
45.94000 188.395
45.95000 190.947
45.96000 193.770
45.97000 195.468
45.98000 189.058
45.99000 184.443
46.00000 183.443
46.01000 185.997
46.02000 188.534
46.03000 189.587
46.04000 189.676
46.05000 189.763
46.06000 188.885
46.07000 187.642
46.08000 186.394
46.09000 185.083
46.10000 183.753
46.11000 182.650
46.12000 183.209
46.13000 184.103
46.14000 184.855
46.15000 186.563
46.16000 188.090
46.17000 188.915
46.18000 187.517
46.19000 185.956
46.20000 183.447
46.21000 178.885
46.22000 174.253
46.23000 171.487
46.24000 171.523
46.25000 171.566
46.26000 172.191
46.27000 173.377
46.28000 174.547
46.29000 174.424
46.30000 173.476
46.31000 172.554
46.32000 173.703
46.33000 175.650
46.34000 177.607
46.35000 179.668
46.36000 181.759
46.37000 183.398
46.38000 181.781
46.39000 179.520
46.40000 177.624
46.41000 181.088
46.42000 184.530
46.43000 186.682
46.44000 184.818
46.45000 182.666
46.46000 179.970
46.47000 176.117
46.48000 172.226
46.49000 169.920
46.50000 174.553
46.51000 177.868
46.52000 177.549
46.53000 173.798
46.54000 170.107
46.55000 171.011
46.56000 174.791
46.57000 178.465
46.58000 179.699
46.59000 179.883
46.60000 179.997
46.61000 179.282
46.62000 178.325
46.63000 176.871
46.64000 171.917
46.65000 166.283
46.66000 161.573
46.67000 163.837
46.68000 166.427
46.69000 169.495
46.70000 174.029
46.71000 178.663
46.72000 179.929
46.73000 174.152
46.74000 168.153
46.75000 164.626
46.76000 164.484
46.77000 164.403
46.78000 165.869
46.79000 168.771
46.80000 171.706
46.81000 177.013
46.82000 183.779
46.83000 190.346
46.84000 185.135
46.85000 175.507
46.86000 166.561
46.87000 165.527
46.88000 166.756
46.89000 167.621
46.90000 165.979
46.91000 163.859
46.92000 162.093
46.93000 164.509
46.94000 166.925
46.95000 168.311
46.96000 166.599
46.97000 164.677
46.98000 162.297
46.99000 158.973
47.00000 155.621
47.01000 153.665
47.02000 158.157
47.03000 161.346
47.04000 165.708
47.05000 171.135
47.06000 176.500
47.07000 177.687
47.08000 176.350
47.09000 175.055
47.10000 177.010
47.11000 180.132
47.12000 182.821
47.13000 180.624
47.14000 177.055
47.15000 174.060
47.16000 174.944
47.17000 176.554
47.18000 177.889
47.19000 177.930
47.20000 177.838
47.21000 176.111
47.22000 169.553
47.23000 162.678
47.24000 159.031
47.25000 161.900
47.26000 164.957
47.27000 166.726
47.28000 173.329
47.29000 177.974
47.30000 176.967
47.31000 170.924
47.32000 164.904
47.33000 160.308
47.34000 156.558
47.35000 152.928
47.36000 153.491
47.37000 155.629
47.38000 157.612
47.39000 157.888
47.40000 157.692
47.41000 157.320
47.42000 155.784
47.43000 154.035
47.44000 152.588
47.45000 152.451
47.46000 152.461
47.47000 153.584
47.48000 157.935
47.49000 162.492
47.50000 167.073
47.51000 171.703
47.52000 176.334
47.53000 178.993
47.54000 167.820
47.55000 159.959
47.56000 154.039
47.57000 149.816
47.58000 145.727
47.59000 149.556
47.60000 158.004
47.61000 166.170
47.62000 168.111
47.63000 167.603
47.64000 167.099
47.65000 166.645
47.66000 166.205
47.67000 165.611
47.68000 164.021
47.69000 162.254
47.70000 160.796
47.71000 159.426
47.72000 158.306
47.73000 157.253
47.74000 156.387
47.75000 155.532
47.76000 156.581
47.77000 161.345
47.78000 166.206
47.79000 168.974
47.80000 167.297
47.81000 166.115
47.82000 165.809
47.83000 166.256
47.84000 166.752
47.85000 169.981
47.86000 174.777
47.87000 179.407
47.88000 172.803
47.89000 162.437
47.90000 153.208
47.91000 155.873
47.92000 161.706
47.93000 166.206
47.94000 162.251
47.95000 156.807
47.96000 152.337
47.97000 154.584
47.98000 157.032
47.99000 158.927
48.00000 159.272
48.01000 159.525
48.02000 159.428
48.03000 158.658
48.04000 157.872
48.05000 157.428
48.06000 156.504
48.07000 155.864
48.08000 157.267
48.09000 160.388
48.10000 163.420
48.11000 161.876
48.12000 157.754
48.13000 153.781
48.14000 153.942
48.15000 155.591
48.16000 157.034
48.17000 156.379
48.18000 155.176
48.19000 153.834
48.20000 151.632
48.21000 149.282
48.22000 147.360
48.23000 150.989
48.24000 154.447
48.25000 156.027
48.26000 152.428
48.27000 148.529
48.28000 148.151
48.29000 154.412
48.30000 160.829
48.31000 164.423
48.32000 163.773
48.33000 163.307
48.34000 160.545
48.35000 155.889
48.36000 151.311
48.37000 150.518
48.38000 151.821
48.39000 153.075
48.40000 153.016
48.41000 152.495
48.42000 151.758
48.43000 148.869
48.44000 145.427
48.45000 142.890
48.46000 145.858
48.47000 149.757
48.48000 152.935
48.49000 149.159
48.50000 145.480
48.51000 143.378
48.52000 145.546
48.53000 147.953
48.54000 151.343
48.55000 156.556
48.56000 161.810
48.57000 164.728
48.58000 160.620
48.59000 157.771
48.60000 156.196
48.61000 155.653
48.62000 155.113
48.63000 154.721
48.64000 154.410
48.65000 154.110
48.66000 157.176
48.67000 161.222
48.68000 164.952
48.69000 165.630
48.70000 165.537
48.71000 164.777
48.72000 160.039
48.73000 154.642
48.74000 150.259
48.75000 154.372
48.76000 158.431
48.77000 160.215
48.78000 155.938
48.79000 151.333
48.80000 149.596
48.81000 153.083
48.82000 156.680
48.83000 158.661
48.84000 153.750
48.85000 150.360
48.86000 148.368
48.87000 147.486
48.88000 146.610
48.89000 146.015
48.90000 145.569
48.91000 145.141
48.92000 149.264
48.93000 154.675
48.94000 159.669
48.95000 160.708
48.96000 160.767
48.97000 160.336
48.98000 157.043
48.99000 153.286
49.00000 150.246
49.01000 149.398
49.02000 148.886
49.03000 147.724
49.04000 144.862
49.05000 141.911
49.06000 142.357
49.07000 148.880
49.08000 155.524
49.09000 159.150
49.10000 152.747
49.11000 148.345
49.12000 146.568
49.13000 146.839
49.14000 147.158
49.15000 149.436
49.16000 152.744
49.17000 155.914
49.18000 151.373
49.19000 144.547
49.20000 138.655
49.21000 141.413
49.22000 146.277
49.23000 151.107
49.24000 155.745
49.25000 160.352
49.26000 164.065
49.27000 159.341
49.28000 154.843
49.29000 151.465
49.30000 150.970
49.31000 150.622
49.32000 152.275
49.33000 157.448
49.34000 162.688
49.35000 165.522
49.36000 158.333
49.37000 153.408
49.38000 150.499
49.39000 149.135
49.40000 147.830
49.41000 148.863
49.42000 151.102
49.43000 153.246
49.44000 155.352
49.45000 157.302
49.46000 158.896
49.47000 157.270
49.48000 154.874
49.49000 152.666
49.50000 151.513
49.51000 150.526
49.52000 149.733
49.53000 151.489
49.54000 153.106
49.55000 154.009
49.56000 153.106
49.57000 152.114
49.58000 152.271
49.59000 154.410
49.60000 156.584
49.61000 157.750
49.62000 156.334
49.63000 155.359
49.64000 153.217
49.65000 150.196
49.66000 147.277
49.67000 148.164
49.68000 150.984
49.69000 153.678
49.70000 152.350
49.71000 149.816
49.72000 148.178
49.73000 154.449
49.74000 162.577
49.75000 168.426
49.76000 161.717
49.77000 153.090
49.78000 146.193
49.79000 146.004
49.80000 146.350
49.81000 146.088
49.82000 144.315
49.83000 142.470
49.84000 142.082
49.85000 144.166
49.86000 146.290
49.87000 147.419
49.88000 156.196
49.89000 162.139
49.90000 161.806
49.91000 156.842
49.92000 152.026
49.93000 152.515
49.94000 155.650
49.95000 158.640
49.96000 157.732
49.97000 155.654
49.98000 153.541
49.99000 151.131
50.00000 148.652
50.01000 146.247
50.02000 144.243
50.03000 142.298
50.04000 140.750
50.05000 147.038
50.06000 152.673
50.07000 156.691
50.08000 156.751
50.09000 156.631
50.10000 155.677
50.11000 153.334
50.12000 150.968
50.13000 149.723
50.14000 154.011
50.15000 156.903
50.16000 156.688
50.17000 154.222
50.18000 151.891
50.19000 154.155
50.20000 158.673
50.21000 162.976
50.22000 159.416
50.23000 153.675
50.24000 148.466
50.25000 147.745
50.26000 148.040
50.27000 148.481
50.28000 149.698
50.29000 151.029
50.30000 152.085
50.31000 156.429
50.32000 160.155
50.33000 162.579
50.34000 161.874
50.35000 161.032
50.36000 160.319
50.37000 159.818
50.38000 159.320
50.39000 159.061
50.40000 155.564
50.41000 153.228
50.42000 155.168
50.43000 160.152
50.44000 165.015
50.45000 165.944
50.46000 164.976
50.47000 164.056
50.48000 161.542
50.49000 158.732
50.50000 156.477
50.51000 158.800
50.52000 162.138
50.53000 164.348
50.54000 160.690
50.55000 156.190
50.56000 152.635
50.57000 158.233
50.58000 163.349
50.59000 166.109
50.60000 163.302
50.61000 160.259
50.62000 159.321
50.63000 161.771
50.64000 164.267
50.65000 165.557
50.66000 173.476
50.67000 178.757
50.68000 176.545
50.69000 169.096
50.70000 161.799
50.71000 159.205
50.72000 158.840
50.73000 158.494
50.74000 155.775
50.75000 152.556
50.76000 150.138
50.77000 154.173
50.78000 159.616
50.79000 164.060
50.80000 163.419
50.81000 162.063
50.82000 160.997
50.83000 164.200
50.84000 167.047
50.85000 168.291
50.86000 165.808
50.87000 163.175
50.88000 162.764
50.89000 165.870
50.90000 169.020
50.91000 170.632
50.92000 161.213
50.93000 154.950
50.94000 156.535
50.95000 163.505
50.96000 170.211
50.97000 169.064
50.98000 164.260
50.99000 159.706
51.00000 158.995
51.01000 159.466
51.02000 159.761
51.03000 158.665
51.04000 157.271
51.05000 154.855
51.06000 147.323
51.07000 139.088
51.08000 132.639
51.09000 137.303
51.10000 141.745
51.11000 146.311
51.12000 151.160
51.13000 156.021
51.14000 157.786
51.15000 154.740
51.16000 151.638
51.17000 150.067
51.18000 148.620
51.19000 147.663
51.20000 147.955
51.21000 149.089
51.22000 150.250
51.23000 152.188
51.24000 154.481
51.25000 156.651
51.26000 156.538
51.27000 155.777
51.28000 154.465
51.29000 148.912
51.30000 142.468
51.31000 137.031
51.32000 136.532
51.33000 136.697
51.34000 136.826
51.35000 143.481
51.36000 149.193
51.37000 153.043
51.38000 152.712
51.39000 152.224
51.40000 151.834
51.41000 151.593
51.42000 151.353
51.43000 151.232
51.44000 143.087
51.45000 137.690
51.46000 136.131
51.47000 137.114
51.48000 138.110
51.49000 139.497
51.50000 141.059
51.51000 142.534
51.52000 144.221
51.53000 145.830
51.54000 146.935
51.55000 144.245
51.56000 140.773
51.57000 137.118
51.58000 132.580
51.59000 127.925
51.60000 124.311
51.61000 127.371
51.62000 130.209
51.63000 132.868
51.64000 135.137
51.65000 137.391
51.66000 138.379
51.67000 137.471
51.68000 136.544
51.69000 138.205
51.70000 142.419
51.71000 146.609
51.72000 148.661
51.73000 149.323
51.74000 149.887
51.75000 147.883
51.76000 144.743
51.77000 141.783
51.78000 144.350
51.79000 148.231
51.80000 151.165
51.81000 147.109
51.82000 141.640
51.83000 137.059
51.84000 136.674
51.85000 136.828
51.86000 136.947
51.87000 140.546
51.88000 143.606
51.89000 144.409
51.90000 140.316
51.91000 136.055
51.92000 135.110
51.93000 139.049
51.94000 143.032
51.95000 145.633
51.96000 146.896
51.97000 148.148
51.98000 148.400
51.99000 148.014
52.00000 147.654
52.01000 147.961
52.02000 148.558
52.03000 149.119
52.04000 144.779
52.05000 139.481
52.06000 134.934
52.07000 135.799
52.08000 137.739
52.09000 139.520
52.10000 140.567
52.11000 141.522
52.12000 142.257
52.13000 141.710
52.14000 141.204
52.15000 140.594
52.16000 139.765
52.17000 138.928
52.18000 139.192
52.19000 141.050
52.20000 142.920
52.21000 142.138
52.22000 138.842
52.23000 135.614
52.24000 137.650
52.25000 142.989
52.26000 148.111
52.27000 147.949
52.28000 145.529
52.29000 143.255
52.30000 142.587
52.31000 142.406
52.32000 142.059
52.33000 140.547
52.34000 138.809
52.35000 138.167
52.36000 142.516
52.37000 147.479
52.38000 151.282
52.39000 141.919
52.40000 133.798
52.41000 128.741
52.42000 130.104
52.43000 131.669
52.44000 134.333
52.45000 138.558
52.46000 142.794
52.47000 144.353
52.48000 143.426
52.49000 142.488
52.50000 140.816
52.51000 138.692
52.52000 136.598
52.53000 135.245
52.54000 134.203
52.55000 133.226
52.56000 135.155
52.57000 137.670
52.58000 139.904
52.59000 140.195
52.60000 140.116
52.61000 140.276
52.62000 141.513
52.63000 142.878
52.64000 143.920
52.65000 140.410
52.66000 137.402
52.67000 135.731
52.68000 136.816
52.69000 137.984
52.70000 138.031
52.71000 136.515
52.72000 134.988
52.73000 136.343
52.74000 140.321
52.75000 144.219
52.76000 142.820
52.77000 138.211
52.78000 133.753
52.79000 132.691
52.80000 133.031
52.81000 133.350
52.82000 135.806
52.83000 138.584
52.84000 140.925
52.85000 140.300
52.86000 139.120
52.87000 137.946
52.88000 136.801
52.89000 135.658
52.90000 134.791
52.91000 139.448
52.92000 143.395
52.93000 144.763
52.94000 140.907
52.95000 136.902
52.96000 134.421
52.97000 134.029
52.98000 133.650
52.99000 134.423
53.00000 136.223
53.01000 138.036
53.02000 140.600
53.03000 143.613
53.04000 146.534
53.05000 147.489
53.06000 147.645
53.07000 147.791
53.08000 146.058
53.09000 144.016
53.10000 142.401
53.11000 143.621
53.12000 145.361
53.13000 147.609
53.14000 152.045
53.15000 156.732
53.16000 160.275
53.17000 148.946
53.18000 139.318
53.19000 134.567
53.20000 139.522
53.21000 144.744
53.22000 148.126
53.23000 149.033
53.24000 149.927
53.25000 151.338
53.26000 153.199
53.27000 155.103
53.28000 159.503
53.29000 165.363
53.30000 170.848
53.31000 168.477
53.32000 162.969
53.33000 157.836
53.34000 157.680
53.35000 158.764
53.36000 159.241
53.37000 155.784
53.38000 151.619
53.39000 147.741
53.40000 145.074
53.41000 142.543
53.42000 140.640
53.43000 148.483
53.44000 155.090
53.45000 160.241
53.46000 162.543
53.47000 164.770
53.48000 166.173
53.49000 166.488
53.50000 166.799
53.51000 163.288
53.52000 156.506
53.53000 149.835
53.54000 149.300
53.55000 152.291
53.56000 155.083
53.57000 153.865
53.58000 151.071
53.59000 148.473
53.60000 151.198
53.61000 154.943
53.62000 157.677
53.63000 153.977
53.64000 149.141
53.65000 144.922
53.66000 143.266
53.67000 141.890
53.68000 140.860
53.69000 140.683
53.70000 140.584
53.71000 141.425
53.72000 144.071
53.73000 146.762
53.74000 148.449
53.75000 148.832
53.76000 149.210
53.77000 149.426
53.78000 149.503
53.79000 149.570
53.80000 149.057
53.81000 148.217
53.82000 147.438
53.83000 147.847
53.84000 148.714
53.85000 149.519
53.86000 146.776
53.87000 143.465
53.88000 140.689
53.89000 141.248
53.90000 142.385
53.91000 142.998
53.92000 141.477
53.93000 139.729
53.94000 138.426
53.95000 138.665
53.96000 138.921
53.97000 139.490
53.98000 140.650
53.99000 141.825
54.00000 142.673
54.01000 143.107
54.02000 143.539
54.03000 144.249
54.04000 145.186
54.05000 146.080
54.06000 144.835
54.07000 142.402
54.08000 139.989
54.09000 137.931
54.10000 136.008
54.11000 134.226
54.12000 140.927
54.13000 148.920
54.14000 155.350
54.15000 152.232
54.16000 147.495
54.17000 143.079
54.18000 139.955
54.19000 136.965
54.20000 134.748
54.21000 139.169
54.22000 142.894
54.23000 145.297
54.24000 145.246
54.25000 145.140
54.26000 143.522
54.27000 140.017
54.28000 136.511
54.29000 136.398
54.30000 139.030
54.31000 141.565
54.32000 139.577
54.33000 135.123
54.34000 130.852
54.35000 129.932
54.36000 130.260
54.37000 130.563
54.38000 133.862
54.39000 137.503
54.40000 140.934
54.41000 143.105
54.42000 145.067
54.43000 145.868
54.44000 142.099
54.45000 137.864
54.46000 134.739
54.47000 139.809
54.48000 144.083
54.49000 144.128
54.50000 136.453
54.51000 128.614
54.52000 126.944
54.53000 132.835
54.54000 138.735
54.55000 138.514
54.56000 133.439
54.57000 128.504
54.58000 129.800
54.59000 134.435
54.60000 138.670
54.61000 135.842
54.62000 130.425
54.63000 125.429
54.64000 130.810
54.65000 137.942
54.66000 143.732
54.67000 141.652
54.68000 138.290
54.69000 135.476
54.70000 134.781
54.71000 134.296
54.72000 133.940
54.73000 138.894
54.74000 142.940
54.75000 145.626
54.76000 145.875
54.77000 146.076
54.78000 146.133
54.79000 146.019
54.80000 145.905
54.81000 145.328
54.82000 144.393
54.83000 143.458
54.84000 142.494
54.85000 141.515
54.86000 140.488
54.87000 138.644
54.88000 136.505
54.89000 134.537
54.90000 136.717
54.91000 139.571
54.92000 141.764
54.93000 140.156
54.94000 137.940
54.95000 135.747
54.96000 133.638
54.97000 131.537
54.98000 130.002
54.99000 132.660
55.00000 134.874
55.01000 137.908
55.02000 142.387
55.03000 146.894
55.04000 147.923
55.05000 144.850
55.06000 141.777
55.07000 140.857
55.08000 141.586
55.09000 142.330
55.10000 143.689
55.11000 145.366
55.12000 147.048
55.13000 148.806
55.14000 150.591
55.15000 152.231
55.16000 149.984
55.17000 147.149
55.18000 144.958
55.19000 146.391
55.20000 148.392
55.21000 150.423
55.22000 152.569
55.23000 154.725
55.24000 156.292
55.25000 151.332
55.26000 147.271
55.27000 146.091
55.28000 149.905
55.29000 153.808
55.30000 154.122
55.31000 150.281
55.32000 146.445
55.33000 147.614
55.34000 152.523
55.35000 157.386
55.36000 160.546
55.37000 162.839
55.38000 165.300
55.39000 170.449
55.40000 176.533
55.41000 182.108
55.42000 180.673
55.43000 177.926
55.44000 176.252
55.45000 180.504
55.46000 185.664
55.47000 189.945
55.48000 191.007
55.49000 191.772
55.50000 192.326
55.51000 204.579
55.52000 214.407
55.53000 222.032
55.54000 225.906
55.55000 229.718
55.56000 232.056
55.57000 232.719
55.58000 233.379
55.59000 240.063
55.60000 251.119
55.61000 262.297
55.62000 277.843
55.63000 295.574
55.64000 312.874
55.65000 323.471
55.66000 331.774
55.67000 339.365
55.68000 352.745
55.69000 365.822
55.70000 378.921
55.71000 392.134
55.72000 405.365
55.73000 417.638
55.74000 426.468
55.75000 434.989
55.76000 441.118
55.77000 466.846
55.78000 487.227
55.79000 507.285
55.80000 526.802
55.81000 546.311
55.82000 566.468
55.83000 587.346
55.84000 608.151
55.85000 617.420
55.86000 618.297
55.87000 619.439
55.88000 629.652
55.89000 644.327
55.90000 658.737
55.91000 669.167
55.92000 678.259
55.93000 686.553
55.94000 691.733
55.95000 695.701
55.96000 699.184
55.97000 700.090
55.98000 700.616
55.99000 698.736
56.00000 688.347
56.01000 677.213
56.02000 669.246
56.03000 655.348
56.04000 644.536
56.05000 631.077
56.06000 613.267
56.07000 595.394
56.08000 579.732
56.09000 566.487
56.10000 553.296
56.11000 542.927
56.12000 534.652
56.13000 526.233
56.14000 513.099
56.15000 497.685
56.16000 482.237
56.17000 466.285
56.18000 450.167
56.19000 435.499
56.20000 415.638
56.21000 397.040
56.22000 377.971
56.23000 356.447
56.24000 334.569
56.25000 314.750
56.26000 302.079
56.27000 290.018
56.28000 281.433
56.29000 273.772
56.30000 267.966
56.31000 262.034
56.32000 255.896
56.33000 249.756
56.34000 243.773
56.35000 237.957
56.36000 232.167
56.37000 224.490
56.38000 215.584
56.39000 206.827
56.40000 202.722
56.41000 200.827
56.42000 198.469
56.43000 189.547
56.44000 178.491
56.45000 168.454
56.46000 165.436
56.47000 164.125
56.48000 162.880
56.49000 161.972
56.50000 161.110
56.51000 159.803
56.52000 156.974
56.53000 154.019
56.54000 151.926
56.55000 146.941
56.56000 143.062
56.57000 141.895
56.58000 145.032
56.59000 148.222
56.60000 151.066
56.61000 153.546
56.62000 156.014
56.63000 153.870
56.64000 148.613
56.65000 143.359
56.66000 138.179
56.67000 133.034
56.68000 128.240
56.69000 128.283
56.70000 129.871
56.71000 131.309
56.72000 134.699
56.73000 138.056
56.74000 140.094
56.75000 135.513
56.76000 130.019
56.77000 127.163
56.78000 133.149
56.79000 139.850
56.80000 144.568
56.81000 138.542
56.82000 133.654
56.83000 129.497
56.84000 126.479
56.85000 123.475
56.86000 123.357
56.87000 126.211
56.88000 129.050
56.89000 131.254
56.90000 133.005
56.91000 134.652
56.92000 133.280
56.93000 130.522
56.94000 127.864
56.95000 126.548
56.96000 125.653
56.97000 124.844
56.98000 122.852
56.99000 120.882
57.00000 119.104
57.01000 118.278
57.02000 117.579
57.03000 117.267
57.04000 118.228
57.05000 119.290
57.06000 120.033
57.07000 123.984
57.08000 127.063
57.09000 130.609
57.10000 134.869
57.11000 139.138
57.12000 139.296
57.13000 135.308
57.14000 131.344
57.15000 126.049
57.16000 119.955
57.17000 114.134
57.18000 115.804
57.19000 120.854
57.20000 125.591
57.21000 126.246
57.22000 125.643
57.23000 125.100
57.24000 124.300
57.25000 123.553
57.26000 123.369
57.27000 125.909
57.28000 128.809
57.29000 130.050
57.30000 125.919
57.31000 121.378
57.32000 118.217
57.33000 124.908
57.34000 130.224
57.35000 130.999
57.36000 124.946
57.37000 118.825
57.38000 117.992
57.39000 122.388
57.40000 126.756
57.41000 126.075
57.42000 122.161
57.43000 118.388
57.44000 118.321
57.45000 119.899
57.46000 121.692
57.47000 126.206
57.48000 131.546
57.49000 136.345
57.50000 135.367
57.51000 133.484
57.52000 131.480
57.53000 128.899
57.54000 126.243
57.55000 124.383
57.56000 125.055
57.57000 125.916
57.58000 126.512
57.59000 125.171
57.60000 124.112
57.61000 123.594
57.62000 123.876
57.63000 124.165
57.64000 125.690
57.65000 128.413
57.66000 131.117
57.67000 128.923
57.68000 123.678
57.69000 118.623
57.70000 118.399
57.71000 120.283
57.72000 122.224
57.73000 124.867
57.74000 127.720
57.75000 130.278
57.76000 129.218
57.77000 127.664
57.78000 126.934
57.79000 130.035
57.80000 133.620
57.81000 135.015
57.82000 129.562
57.83000 123.615
57.84000 119.521
57.85000 121.365
57.86000 122.897
57.87000 123.383
57.88000 122.354
57.89000 121.312
57.90000 121.772
57.91000 123.660
57.92000 125.533
57.93000 124.204
57.94000 120.917
57.95000 117.703
57.96000 116.256
57.97000 115.568
57.98000 115.193
57.99000 118.587
58.00000 123.082
58.01000 127.104
58.02000 125.581
58.03000 123.310
58.04000 121.281
58.05000 120.355
58.06000 119.566
58.07000 119.844
58.08000 123.400
58.09000 127.186
58.10000 129.777
58.11000 127.846
58.12000 126.293
58.13000 123.133
58.14000 117.687
58.15000 112.225
58.16000 112.321
58.17000 117.598
58.18000 122.830
58.19000 121.763
58.20000 116.894
58.21000 112.265
58.22000 113.278
58.23000 116.669
58.24000 119.837
58.25000 120.399
58.26000 120.212
58.27000 120.045
58.28000 124.360
58.29000 128.860
58.30000 132.167
58.31000 130.124
58.32000 127.434
58.33000 126.212
58.34000 129.418
58.35000 132.926
58.36000 135.313
58.37000 125.798
58.38000 118.423
58.39000 115.875
58.40000 120.078
58.41000 124.325
58.42000 124.524
58.43000 121.025
58.44000 117.557
58.45000 116.548
58.46000 117.024
58.47000 117.548
58.48000 119.186
58.49000 121.285
58.50000 123.228
58.51000 123.393
58.52000 123.056
58.53000 122.757
58.54000 117.775
58.55000 112.686
58.56000 109.676
58.57000 115.818
58.58000 123.040
58.59000 127.727
58.60000 124.891
58.61000 121.557
58.62000 119.303
58.63000 123.179
58.64000 126.199
58.65000 126.521
58.66000 123.138
58.67000 119.733
58.68000 118.122
58.69000 118.117
58.70000 118.112
58.71000 120.997
58.72000 125.511
58.73000 129.878
58.74000 131.031
58.75000 130.875
58.76000 130.508
58.77000 127.803
58.78000 124.449
58.79000 121.473
58.80000 121.158
58.81000 121.310
58.82000 121.562
58.83000 122.250
58.84000 122.989
58.85000 123.388
58.86000 122.795
58.87000 122.139
58.88000 121.697
58.89000 116.687
58.90000 112.870
58.91000 113.339
58.92000 119.588
58.93000 125.863
58.94000 126.155
58.95000 121.189
58.96000 116.274
58.97000 116.767
58.98000 120.349
58.99000 123.754
59.00000 123.439
59.01000 121.635
59.02000 119.919
59.03000 119.153
59.04000 118.647
59.05000 118.199
59.06000 116.081
59.07000 113.990
59.08000 112.890
59.09000 115.997
59.10000 119.578
59.11000 121.460
59.12000 118.468
59.13000 115.174
59.14000 112.973
59.15000 110.733
59.16000 109.073
59.17000 109.092
59.18000 111.334
59.19000 113.587
59.20000 116.084
59.21000 118.789
59.22000 121.464
59.23000 122.571
59.24000 122.770
59.25000 123.100
59.26000 126.109
59.27000 130.172
59.28000 133.761
59.29000 132.363
59.30000 129.629
59.31000 127.216
59.32000 120.649
59.33000 114.348
59.34000 109.259
59.35000 109.210
59.36000 109.715
59.37000 111.007
59.38000 114.516
59.39000 118.158
59.40000 120.577
59.41000 120.096
59.42000 119.687
59.43000 120.029
59.44000 121.348
59.45000 122.666
59.46000 121.345
59.47000 117.792
59.48000 114.282
59.49000 113.150
59.50000 113.359
59.51000 113.681
59.52000 116.205
59.53000 119.582
59.54000 122.733
59.55000 123.568
59.56000 123.794
59.57000 123.993
59.58000 122.169
59.59000 120.296
59.60000 119.051
59.61000 120.366
59.62000 121.957
59.63000 123.135
59.64000 123.169
59.65000 123.136
59.66000 123.114
59.67000 120.891
59.68000 119.214
59.69000 117.522
59.70000 115.814
59.71000 114.111
59.72000 115.339
59.73000 118.997
59.74000 122.609
59.75000 119.343
59.76000 112.436
59.77000 105.997
59.78000 108.431
59.79000 114.239
59.80000 119.714
59.81000 121.840
59.82000 123.102
59.83000 124.210
59.84000 120.735
59.85000 117.081
59.86000 113.565
59.87000 110.606
59.88000 107.706
59.89000 105.629
59.90000 105.796
59.91000 106.090
59.92000 106.283
59.93000 112.361
59.94000 116.928
59.95000 118.272
59.96000 115.582
59.97000 112.884
59.98000 112.361
59.99000 113.609
60.00000 114.840
60.01000 116.964
60.02000 119.504
60.03000 121.872
60.04000 121.095
60.05000 119.142
60.06000 117.709
60.07000 121.374
60.08000 126.331
60.09000 130.670
60.10000 126.974
60.11000 122.658
60.12000 119.685
60.13000 122.010
60.14000 124.877
60.15000 126.157
60.16000 123.190
60.17000 119.991
60.18000 117.907
60.19000 117.006
60.20000 116.364
60.21000 116.025
60.22000 116.059
60.23000 116.097
60.24000 116.783
60.25000 117.989
60.26000 119.177
60.27000 117.767
60.28000 115.040
60.29000 112.479
60.30000 112.844
60.31000 114.283
60.32000 115.928
60.33000 119.533
60.34000 123.626
60.35000 127.198
60.36000 125.565
60.37000 123.441
60.38000 121.014
60.39000 117.418
60.40000 113.705
60.41000 111.212
60.42000 111.931
60.43000 112.820
60.44000 113.395
60.45000 114.629
60.46000 115.542
60.47000 115.620
60.48000 114.689
60.49000 113.754
60.50000 112.061
60.51000 109.773
60.52000 107.521
60.53000 109.510
60.54000 113.610
60.55000 117.695
60.56000 121.525
60.57000 125.262
60.58000 128.154
60.59000 123.167
60.60000 116.251
60.61000 110.234
60.62000 112.054
60.63000 114.679
60.64000 117.696
60.65000 122.206
60.66000 126.862
60.67000 129.408
60.68000 126.498
60.69000 123.309
60.70000 121.258
60.71000 123.969
60.72000 126.013
60.73000 124.757
60.74000 119.594
60.75000 114.441
60.76000 113.392
60.77000 115.503
60.78000 117.579
60.79000 117.526
60.80000 116.404
60.81000 115.357
60.82000 115.543
60.83000 116.166
60.84000 117.161
60.85000 121.535
60.86000 126.721
60.87000 131.219
60.88000 127.132
60.89000 122.505
60.90000 119.408
60.91000 122.032
60.92000 125.200
60.93000 128.098
60.94000 130.311
60.95000 132.490
60.96000 133.882
60.97000 128.184
60.98000 123.945
60.99000 121.277
61.00000 120.433
61.01000 119.588
61.02000 118.066
61.03000 116.033
61.04000 114.034
61.05000 114.681
61.06000 116.612
61.07000 118.660
61.08000 122.587
61.09000 127.170
61.10000 131.077
61.11000 128.969
61.12000 125.441
61.13000 122.391
61.14000 123.913
61.15000 125.804
61.16000 127.004
61.17000 125.670
61.18000 124.101
61.19000 122.961
61.20000 122.897
61.21000 122.884
61.22000 122.876
61.23000 128.344
61.24000 132.379
61.25000 132.861
61.26000 129.295
61.27000 125.738
61.28000 124.683
61.29000 125.484
61.30000 126.271
61.31000 126.533
61.32000 126.532
61.33000 126.658
61.34000 128.776
61.35000 131.577
61.36000 133.757
61.37000 130.536
61.38000 126.065
61.39000 122.209
61.40000 122.809
61.41000 123.887
61.42000 125.414
61.43000 128.565
61.44000 131.863
61.45000 133.785
61.46000 132.327
61.47000 130.714
61.48000 129.698
61.49000 130.049
61.50000 130.319
61.51000 136.208
61.52000 148.374
61.53000 160.537
61.54000 171.574
61.55000 181.791
61.56000 191.813
61.57000 200.685
61.58000 208.687
61.59000 216.946
61.60000 229.098
61.61000 242.563
61.62000 255.564
61.63000 264.629
61.64000 272.799
61.65000 279.821
61.66000 284.238
61.67000 287.650
61.68000 290.400
61.69000 290.802
61.70000 290.997
61.71000 292.154
61.72000 295.633
61.73000 299.215
61.74000 301.456
61.75000 294.958
61.76000 290.175
61.77000 282.168
61.78000 270.630
61.79000 259.089
61.80000 247.320
61.81000 235.389
61.82000 223.698
61.83000 208.910
61.84000 193.241
61.85000 177.739
61.86000 164.690
61.87000 152.455
61.88000 141.278
61.89000 138.874
61.90000 138.429
61.91000 138.048
61.92000 138.914
61.93000 139.798
61.94000 140.195
61.95000 138.896
61.96000 137.453
61.97000 134.725
61.98000 128.946
61.99000 123.037
62.00000 119.366
62.01000 127.038
62.02000 132.673
62.03000 134.313
62.04000 131.660
62.05000 129.025
62.06000 128.921
62.07000 130.597
62.08000 132.237
62.09000 132.221
62.10000 131.448
62.11000 130.717
62.12000 130.580
62.13000 130.636
62.14000 130.551
62.15000 129.320
62.16000 127.838
62.17000 126.572
62.18000 126.324
62.19000 126.237
62.20000 126.862
62.21000 129.926
62.22000 133.193
62.23000 135.532
62.24000 135.705
62.25000 135.788
62.26000 135.840
62.27000 130.649
62.28000 126.873
62.29000 124.848
62.30000 124.664
62.31000 124.477
62.32000 123.869
62.33000 122.971
62.34000 122.092
62.35000 122.151
62.36000 122.629
62.37000 122.958
62.38000 121.218
62.39000 118.816
62.40000 116.890
62.41000 118.746
62.42000 121.415
62.43000 123.687
62.44000 124.430
62.45000 124.876
62.46000 125.131
62.47000 124.745
62.48000 124.308
62.49000 124.696
62.50000 126.978
62.51000 129.334
62.52000 130.778
62.53000 126.516
62.54000 123.416
62.55000 123.341
62.56000 126.390
62.57000 129.429
62.58000 131.327
62.59000 132.453
62.60000 133.553
62.61000 133.518
62.62000 132.984
62.63000 132.396
62.64000 131.068
62.65000 129.507
62.66000 127.807
62.67000 125.021
62.68000 122.006
62.69000 119.448
62.70000 121.770
62.71000 124.270
62.72000 126.402
62.73000 127.317
62.74000 128.135
62.75000 130.207
62.76000 135.106
62.77000 140.113
62.78000 143.158
62.79000 139.571
62.80000 136.959
62.81000 134.511
62.82000 132.229
62.83000 129.960
62.84000 128.961
62.85000 128.808
62.86000 128.658
62.87000 129.207
62.88000 130.034
62.89000 130.722
62.90000 129.597
62.91000 127.911
62.92000 126.108
62.93000 123.417
62.94000 120.541
62.95000 118.108
62.96000 123.491
62.97000 128.860
62.98000 131.582
62.99000 125.706
63.00000 119.171
63.01000 116.544
63.02000 122.586
63.03000 128.944
63.04000 132.782
63.05000 133.532
63.06000 134.045
63.07000 136.015
63.08000 139.432
63.09000 142.791
63.10000 140.769
63.11000 135.229
63.12000 129.830
63.13000 128.810
63.14000 129.696
63.15000 130.800
63.16000 134.694
63.17000 139.435
63.18000 143.247
63.19000 140.166
63.20000 135.683
63.21000 131.904
63.22000 129.150
63.23000 126.961
63.24000 125.861
63.25000 128.234
63.26000 130.866
63.27000 131.486
63.28000 127.719
63.29000 123.799
63.30000 121.450
63.31000 125.645
63.32000 128.666
63.33000 131.897
63.34000 135.333
63.35000 138.732
63.36000 138.953
63.37000 137.134
63.38000 135.363
63.39000 132.758
63.40000 129.928
63.41000 127.503
63.42000 130.087
63.43000 134.167
63.44000 137.544
63.45000 135.812
63.46000 133.060
63.47000 130.749
63.48000 128.951
63.49000 127.508
63.50000 127.440
63.51000 131.682
63.52000 136.236
63.53000 139.194
63.54000 138.730
63.55000 138.151
63.56000 137.807
63.57000 133.987
63.58000 131.262
63.59000 131.931
63.60000 135.836
63.61000 139.699
63.62000 140.251
63.63000 138.715
63.64000 137.221
63.65000 137.711
63.66000 138.988
63.67000 139.999
63.68000 137.809
63.69000 134.679
63.70000 131.697
63.71000 129.766
63.72000 128.040
63.73000 126.595
63.74000 128.010
63.75000 129.480
63.76000 131.174
63.77000 133.555
63.78000 135.984
63.79000 137.516
63.80000 137.158
63.81000 136.739
63.82000 136.492
63.83000 135.731
63.84000 135.191
63.85000 134.570
63.86000 133.874
63.87000 133.217
63.88000 135.462
63.89000 139.504
63.90000 143.430
63.91000 142.883
63.92000 140.569
63.93000 138.451
63.94000 138.624
63.95000 139.457
63.96000 140.051
63.97000 138.983
63.98000 137.596
63.99000 136.438
64.00000 137.238
64.01000 138.097
64.02000 140.212
64.03000 146.128
64.04000 152.303
64.05000 155.980
64.06000 154.483
64.07000 152.828
64.08000 151.859
64.09000 142.595
64.10000 136.034
64.11000 134.444
64.12000 137.409
64.13000 140.379
64.14000 143.717
64.15000 147.278
64.16000 150.733
64.17000 146.972
64.18000 140.567
64.19000 135.006
64.20000 139.077
64.21000 145.875
64.22000 151.731
64.23000 151.170
64.24000 149.400
64.25000 147.928
64.26000 144.159
64.27000 140.816
64.28000 139.199
64.29000 142.720
64.30000 146.583
64.31000 149.957
64.32000 152.338
64.33000 154.690
64.34000 156.056
64.35000 157.860
64.36000 159.125
64.37000 156.633
64.38000 150.764
64.39000 144.946
64.40000 142.425
64.41000 141.877
64.42000 141.346
64.43000 145.475
64.44000 151.180
64.45000 156.345
64.46000 155.491
64.47000 152.963
64.48000 151.387
64.49000 156.169
64.50000 162.125
64.51000 167.059
64.52000 169.120
64.53000 170.547
64.54000 170.914
64.55000 168.183
64.56000 165.252
64.57000 162.784
64.58000 161.241
64.59000 159.725
64.60000 158.851
64.61000 151.574
64.62000 146.460
64.63000 145.575
64.64000 148.418
64.65000 151.294
64.66000 156.088
64.67000 162.012
64.68000 167.741
64.69000 166.265
64.70000 162.140
64.71000 158.395
64.72000 158.788
64.73000 160.310
64.74000 161.380
64.75000 159.491
64.76000 157.065
64.77000 155.063
64.78000 158.247
64.79000 161.353
64.80000 164.399
64.81000 167.272
64.82000 170.134
64.83000 172.377
64.84000 173.401
64.85000 174.392
64.86000 174.959
64.87000 181.200
64.88000 185.569
64.89000 185.065
64.90000 180.349
64.91000 175.719
64.92000 175.905
64.93000 178.874
64.94000 181.742
64.95000 185.580
64.96000 189.557
64.97000 192.747
64.98000 187.592
64.99000 180.197
65.00000 173.964
65.01000 175.171
65.02000 177.698
65.03000 179.777
65.04000 183.545
65.05000 186.796
65.06000 188.750
65.07000 187.040
65.08000 185.109
65.09000 184.331
65.10000 185.781
65.11000 187.286
65.12000 188.140
65.13000 189.854
65.14000 191.051
65.15000 193.708
65.16000 197.602
65.17000 201.427
65.18000 201.625
65.19000 199.763
65.20000 197.967
65.21000 201.179
65.22000 206.029
65.23000 210.749
65.24000 214.127
65.25000 217.151
65.26000 219.614
65.27000 218.557
65.28000 216.887
65.29000 215.519
65.30000 223.281
65.31000 230.453
65.32000 236.039
65.33000 237.219
65.34000 238.141
65.35000 238.950
65.36000 239.546
65.37000 240.137
65.38000 240.469
65.39000 239.813
65.40000 239.359
65.41000 240.626
65.42000 243.326
65.43000 245.977
65.44000 246.179
65.45000 245.014
65.46000 243.893
65.47000 252.412
65.48000 263.867
65.49000 275.208
65.50000 285.405
65.51000 295.305
65.52000 304.067
65.53000 305.836
65.54000 306.412
65.55000 306.882
65.56000 314.235
65.57000 320.845
65.58000 326.905
65.59000 331.467
65.60000 335.943
65.61000 343.516
65.62000 356.869
65.63000 370.354
65.64000 377.871
65.65000 404.110
65.66000 422.333
65.67000 451.926
65.68000 490.804
65.69000 530.294
65.70000 598.796
65.71000 683.203
65.72000 764.400
65.73000 873.398
65.74000 985.365
65.75000 1097.785
65.76000 1214.659
65.77000 1332.668
65.78000 1449.816
65.79000 1561.783
65.80000 1672.884
65.81000 1763.259
65.82000 1824.542
65.83000 1872.137
65.84000 1917.535
65.85000 1957.038
65.86000 1996.218
65.87000 2012.772
65.88000 1987.815
65.89000 1961.963
65.90000 1947.674
65.91000 1920.063
65.92000 1900.940
65.93000 1864.314
65.94000 1813.662
65.95000 1762.146
65.96000 1671.970
65.97000 1560.964
65.98000 1454.335
65.99000 1325.691
66.00000 1197.703
66.01000 1070.857
66.02000 954.951
66.03000 841.779
66.04000 734.679
66.05000 663.409
66.06000 598.011
66.07000 545.016
66.08000 501.258
66.09000 466.368
66.10000 436.389
66.11000 419.365
66.12000 403.030
66.13000 387.727
66.14000 374.285
66.15000 360.880
66.16000 353.535
66.17000 355.940
66.18000 357.612
66.19000 360.262
66.20000 363.682
66.21000 367.088
66.22000 369.974
66.23000 372.583
66.24000 375.085
66.25000 382.273
66.26000 390.572
66.27000 399.819
66.28000 417.932
66.29000 438.220
66.30000 458.882
66.31000 481.710
66.32000 504.886
66.33000 523.595
66.34000 545.125
66.35000 562.848
66.36000 576.438
66.37000 579.312
66.38000 581.635
66.39000 586.027
66.40000 594.086
66.41000 602.215
66.42000 606.630
66.43000 614.676
66.44000 620.177
66.45000 621.028
66.46000 618.287
66.47000 615.576
66.48000 614.054
66.49000 613.152
66.50000 612.287
66.51000 594.573
66.52000 572.463
66.53000 549.847
66.54000 522.602
66.55000 494.242
66.56000 467.735
66.57000 451.738
66.58000 437.394
66.59000 425.861
66.60000 404.748
66.61000 386.889
66.62000 372.479
66.63000 366.863
66.64000 361.684
66.65000 355.596
66.66000 347.924
66.67000 340.223
66.68000 336.078
66.69000 342.068
66.70000 346.180
66.71000 351.726
66.72000 358.359
66.73000 364.717
66.74000 360.528
66.75000 350.943
66.76000 341.779
66.77000 341.912
66.78000 345.064
66.79000 348.257
66.80000 351.817
66.81000 355.464
66.82000 357.664
66.83000 351.823
66.84000 344.743
66.85000 339.072
66.86000 348.210
66.87000 356.716
66.88000 362.350
66.89000 360.785
66.90000 358.876
66.91000 358.085
66.92000 359.207
66.93000 360.361
66.94000 360.976
66.95000 364.343
66.96000 366.611
66.97000 363.589
66.98000 356.631
66.99000 349.994
67.00000 355.090
67.01000 366.084
67.02000 376.580
67.03000 378.359
67.04000 377.227
67.05000 376.584
67.06000 380.205
67.07000 384.815
67.08000 388.936
67.09000 390.388
67.10000 391.437
67.11000 392.274
67.12000 385.721
67.13000 379.892
67.14000 374.409
67.15000 369.779
67.16000 365.188
67.17000 363.470
67.18000 366.585
67.19000 369.777
67.20000 371.463
67.21000 390.822
67.22000 403.914
67.23000 405.810
67.24000 399.526
67.25000 393.456
67.26000 394.836
67.27000 399.897
67.28000 404.721
67.29000 405.071
67.30000 403.993
67.31000 403.211
67.32000 404.942
67.33000 407.247
67.34000 408.992
67.35000 407.750
67.36000 406.065
67.37000 404.727
67.38000 405.061
67.39000 405.448
67.40000 406.194
67.41000 407.807
67.42000 409.459
67.43000 409.988
67.44000 408.663
67.45000 407.310
67.46000 406.602
67.47000 414.776
67.48000 420.278
67.49000 420.304
67.50000 416.403
67.51000 412.619
67.52000 412.746
67.53000 414.773
67.54000 416.702
67.55000 416.493
67.56000 415.643
67.57000 415.168
67.58000 417.813
67.59000 421.157
67.60000 424.494
67.61000 427.797
67.62000 431.094
67.63000 433.704
67.64000 431.533
67.65000 429.460
67.66000 430.353
67.67000 438.311
67.68000 446.572
67.69000 448.348
67.70000 439.600
67.71000 430.707
67.72000 426.094
67.73000 447.852
67.74000 462.444
67.75000 463.623
67.76000 455.352
67.77000 447.382
67.78000 448.941
67.79000 455.049
67.80000 460.853
67.81000 454.937
67.82000 445.939
67.83000 439.514
67.84000 454.031
67.85000 473.151
67.86000 487.331
67.87000 476.110
67.88000 461.290
67.89000 449.612
67.90000 456.954
67.91000 464.115
67.92000 471.421
67.93000 479.068
67.94000 486.729
67.95000 491.726
67.96000 492.474
67.97000 493.168
67.98000 493.524
67.99000 489.821
68.00000 487.406
68.01000 494.520
68.02000 508.225
68.03000 521.544
68.04000 523.152
68.05000 519.262
68.06000 515.573
68.07000 503.671
68.08000 490.268
68.09000 478.407
68.10000 478.814
68.11000 481.866
68.12000 487.361
68.13000 505.181
68.14000 524.710
68.15000 540.034
68.16000 534.140
68.17000 528.045
68.18000 525.491
68.19000 531.088
68.20000 537.009
68.21000 542.033
68.22000 545.654
68.23000 549.259
68.24000 551.092
68.25000 549.060
68.26000 547.733
68.27000 550.491
68.28000 556.025
68.29000 561.364
68.30000 561.057
68.31000 558.144
68.32000 555.387
68.33000 562.665
68.34000 572.274
68.35000 581.596
68.36000 588.686
68.37000 595.303
68.38000 600.815
68.39000 600.857
68.40000 600.157
68.41000 599.610
68.42000 618.940
68.43000 635.620
68.44000 648.311
68.45000 651.977
68.46000 655.300
68.47000 652.492
68.48000 640.252
68.49000 627.907
68.50000 621.688
68.51000 656.731
68.52000 680.099
68.53000 698.177
68.54000 712.725
68.55000 726.848
68.56000 729.107
68.57000 725.986
68.58000 723.036
68.59000 745.741
68.60000 773.893
68.61000 803.820
68.62000 847.265
68.63000 893.518
68.64000 936.435
68.65000 963.154
68.66000 987.723
68.67000 1006.838
68.68000 1057.756
68.69000 1100.241
68.70000 1142.615
68.71000 1184.744
68.72000 1226.864
68.73000 1273.075
68.74000 1325.471
68.75000 1377.929
68.76000 1422.423
68.77000 1458.994
68.78000 1495.619
68.79000 1537.387
68.80000 1582.526
68.81000 1627.393
68.82000 1665.024
68.83000 1699.427
68.84000 1731.885
68.85000 1814.978
68.86000 1905.275
68.87000 2000.790
68.88000 2135.176
68.89000 2277.487
68.90000 2445.574
68.91000 2736.518
68.92000 3043.419
68.93000 3281.162
68.94000 4346.912
68.95000 5242.621
68.96000 6519.841
68.97000 8630.791
68.98000 10771.041
68.99000 13389.439
69.00000 16717.771
69.01000 20052.662
69.02000 23417.252
69.03000 26810.598
69.04000 30197.148
69.05000 32994.246
69.06000 35411.824
69.07000 37797.559
69.08000 39366.055
69.09000 40576.371
69.10000 41716.168
69.11000 42417.426
69.12000 42938.887
69.13000 43488.609
69.14000 44244.254
69.15000 45041.094
69.16000 45830.871
69.17000 46587.609
69.18000 47340.152
69.19000 47920.559
69.20000 47242.777
69.21000 46633.117
69.22000 45462.656
69.23000 43087.500
69.24000 40671.773
69.25000 38071.559
69.26000 35202.313
69.27000 32330.963
69.28000 29901.092
69.29000 27893.582
69.30000 25893.559
69.31000 24494.766
69.32000 23476.256
69.33000 22477.504
69.34000 21966.160
69.35000 21664.813
69.36000 21381.547
69.37000 21017.133
69.38000 20662.635
69.39000 20223.250
69.40000 19178.469
69.41000 18014.879
69.42000 16728.387
69.43000 14877.655
69.44000 12956.836
69.45000 11481.962
69.46000 9475.504
69.47000 7859.664
69.48000 6412.802
69.49000 5322.763
69.50000 4244.227
69.51000 3380.751
69.52000 2825.276
69.53000 2272.259
69.54000 1903.051
69.55000 1706.171
69.56000 1510.111
69.57000 1375.192
69.58000 1278.265
69.59000 1182.908
69.60000 1124.787
69.61000 1082.438
69.62000 1042.704
69.63000 995.963
69.64000 951.527
69.65000 909.162
69.66000 881.254
69.67000 856.128
69.68000 832.261
69.69000 814.063
69.70000 796.553
69.71000 783.169
69.72000 757.198
69.73000 736.034
69.74000 717.716
69.75000 705.308
69.76000 693.082
69.77000 681.599
69.78000 671.159
69.79000 660.729
69.80000 654.074
69.81000 650.889
69.82000 647.545
69.83000 633.112
69.84000 611.909
69.85000 591.136
69.86000 580.167
69.87000 573.281
69.88000 566.832
69.89000 560.446
69.90000 554.654
69.91000 549.337
69.92000 547.269
69.93000 545.814
69.94000 544.069
69.95000 541.039
69.96000 537.856
69.97000 535.435
69.98000 519.874
69.99000 506.941
70.00000 498.609
