20.00000 474.110
20.01000 471.564
20.02000 468.655
20.03000 466.856
20.04000 469.438
20.05000 472.468
20.06000 474.705
20.07000 474.702
20.08000 474.606
20.09000 473.515
20.10000 470.607
20.11000 467.660
20.12000 466.269
20.13000 466.789
20.14000 467.312
20.15000 470.820
20.16000 476.687
20.17000 482.386
20.18000 480.680
20.19000 474.996
20.20000 469.851
20.21000 474.262
20.22000 482.183
20.23000 489.491
20.24000 488.626
20.25000 486.026
20.26000 483.483
20.27000 481.274
20.28000 479.119
20.29000 477.055
20.30000 475.344
20.31000 473.667
20.32000 472.435
20.33000 477.106
20.34000 480.959
20.35000 481.832
20.36000 477.345
20.37000 472.751
20.38000 471.265
20.39000 473.524
20.40000 475.787
20.41000 469.398
20.42000 456.292
20.43000 443.504
20.44000 444.089
20.45000 451.735
20.46000 459.098
20.47000 461.612
20.48000 462.375
20.49000 463.077
20.50000 459.215
20.51000 454.762
20.52000 451.471
20.53000 454.876
20.54000 459.353
20.55000 464.593
20.56000 472.736
20.57000 481.162
20.58000 487.321
20.59000 482.981
20.60000 479.220
20.61000 475.167
20.62000 470.596
20.63000 466.015
20.64000 466.368
20.65000 472.556
20.66000 478.740
20.67000 477.926
20.68000 471.763
20.69000 465.658
20.70000 461.885
20.71000 459.322
20.72000 457.173
20.73000 461.893
20.74000 469.052
20.75000 475.627
20.76000 472.550
20.77000 467.734
20.78000 463.450
20.79000 462.171
20.80000 461.363
20.81000 460.732
20.82000 460.759
20.83000 460.849
20.84000 460.915
20.85000 462.133
20.86000 463.115
20.87000 465.407
20.88000 469.973
20.89000 474.581
20.90000 473.542
20.91000 465.951
20.92000 458.372
20.93000 458.231
20.94000 463.672
20.95000 468.937
20.96000 467.551
20.97000 462.772
20.98000 458.405
20.99000 460.668
21.00000 465.244
21.01000 469.439
21.02000 467.933
21.03000 465.394
21.04000 464.145
21.05000 470.042
21.06000 477.036
21.07000 482.555
21.08000 482.661
21.09000 482.266
21.10000 481.980
21.11000 477.304
21.12000 473.553
21.13000 472.337
21.14000 475.443
21.15000 478.622
21.16000 477.759
21.17000 472.293
21.18000 466.839
21.19000 464.274
21.20000 463.855
21.21000 463.280
21.22000 457.078
21.23000 448.056
21.24000 439.767
21.25000 442.929
21.26000 450.017
21.27000 456.499
21.28000 455.166
21.29000 452.372
21.30000 450.680
21.31000 454.969
21.32000 460.158
21.33000 463.003
21.34000 457.393
21.35000 451.021
21.36000 446.434
21.37000 452.883
21.38000 458.209
21.39000 461.313
21.40000 460.692
21.41000 460.013
21.42000 461.603
21.43000 465.729
21.44000 469.841
21.45000 466.840
21.46000 458.728
21.47000 450.836
21.48000 450.531
21.49000 453.964
21.50000 457.417
21.51000 461.182
21.52000 465.051
21.53000 468.581
21.54000 466.410
21.55000 463.334
21.56000 461.759
21.57000 468.182
21.58000 475.782
21.59000 480.818
21.60000 476.764
21.61000 471.913
21.62000 468.439
21.63000 467.114
21.64000 466.175
21.65000 467.675
21.66000 473.196
21.67000 478.775
21.68000 479.046
21.69000 473.506
21.70000 467.984
21.71000 467.071
21.72000 469.431
21.73000 471.746
21.74000 472.553
21.75000 472.629
21.76000 473.012
21.77000 477.914
21.78000 484.313
21.79000 490.137
21.80000 493.558
21.81000 496.111
21.82000 497.005
21.83000 489.232
21.84000 480.209
21.85000 474.688
21.86000 481.356
21.87000 489.067
21.88000 494.559
21.89000 497.581
21.90000 499.803
21.91000 502.692
21.92000 506.660
21.93000 510.643
21.94000 510.801
21.95000 506.854
21.96000 502.922
21.97000 510.845
21.98000 526.924
21.99000 542.607
22.00000 545.823
22.01000 543.103
22.02000 540.441
22.03000 538.622
22.04000 537.076
22.05000 535.673
22.06000 532.378
22.07000 529.102
22.08000 527.104
22.09000 531.654
22.10000 537.128
22.11000 540.526
22.12000 536.823
22.13000 532.528
22.14000 529.486
22.15000 530.446
22.16000 531.301
22.17000 529.577
22.18000 523.755
22.19000 517.880
22.20000 516.474
22.21000 519.772
22.22000 523.055
22.23000 527.764
22.24000 533.391
22.25000 538.525
22.26000 528.842
22.27000 512.223
22.28000 496.464
22.29000 492.618
22.30000 492.583
22.31000 492.551
22.32000 492.641
22.33000 492.745
22.34000 492.606
22.35000 491.250
22.36000 489.727
22.37000 488.372
22.38000 487.581
22.39000 486.836
22.40000 486.311
22.41000 478.849
22.42000 472.983
22.43000 465.017
22.44000 453.771
22.45000 442.487
22.46000 441.912
22.47000 452.390
22.48000 462.812
22.49000 463.385
22.50000 457.364
22.51000 451.609
22.52000 453.512
22.53000 458.939
22.54000 463.456
22.55000 455.726
22.56000 444.146
22.57000 433.680
22.58000 437.578
22.59000 443.674
22.60000 449.526
22.61000 454.175
22.62000 458.661
22.63000 461.644
22.64000 459.662
22.65000 457.288
22.66000 455.625
22.67000 445.218
22.68000 437.095
22.69000 438.004
22.70000 452.769
22.71000 467.685
22.72000 471.162
22.73000 463.067
22.74000 455.019
22.75000 450.948
22.76000 449.543
22.77000 448.092
22.78000 445.378
22.79000 442.092
22.80000 438.719
22.81000 434.193
22.82000 429.310
22.83000 424.909
22.84000 422.709
22.85000 421.178
22.86000 419.478
22.87000 416.959
22.88000 414.331
22.89000 412.696
22.90000 414.281
22.91000 416.113
22.92000 417.390
22.93000 420.292
22.94000 422.525
22.95000 425.922
22.96000 431.071
22.97000 436.238
22.98000 437.627
22.99000 435.270
23.00000 432.929
23.01000 434.308
23.02000 438.062
23.03000 441.588
23.04000 439.085
23.05000 433.901
23.06000 429.077
23.07000 428.835
23.08000 429.983
23.09000 431.016
23.10000 428.033
23.11000 424.706
23.12000 422.582
23.13000 426.176
23.14000 430.511
23.15000 436.549
23.16000 448.018
23.17000 459.892
23.18000 468.118
23.19000 461.347
23.20000 455.858
23.21000 450.461
23.22000 445.202
23.23000 439.944
23.24000 438.091
23.25000 439.545
23.26000 440.989
23.27000 442.102
23.28000 442.988
23.29000 443.661
23.30000 438.887
23.31000 431.734
23.32000 425.125
23.33000 425.256
23.34000 427.399
23.35000 429.321
23.36000 426.402
23.37000 423.008
23.38000 421.525
23.39000 428.955
23.40000 437.513
23.41000 443.933
23.42000 443.655
23.43000 442.892
23.44000 442.366
23.45000 435.662
23.46000 430.473
23.47000 427.016
23.48000 426.074
23.49000 425.155
23.50000 429.219
23.51000 438.029
23.52000 446.771
23.53000 445.485
23.54000 438.004
23.55000 430.712
23.56000 428.047
23.57000 427.370
23.58000 426.898
23.59000 428.885
23.60000 431.593
23.61000 434.016
23.62000 433.652
23.63000 432.859
23.64000 433.494
23.65000 440.665
23.66000 448.646
23.67000 454.149
23.68000 452.026
23.69000 449.365
23.70000 447.543
23.71000 450.540
23.72000 452.900
23.73000 452.754
23.74000 449.030
23.75000 445.279
23.76000 444.844
23.77000 447.505
23.78000 450.143
23.79000 448.478
23.80000 444.224
23.81000 440.248
23.82000 442.820
23.83000 448.158
23.84000 453.698
23.85000 461.612
23.86000 470.210
23.87000 477.883
23.88000 473.919
23.89000 468.526
23.90000 463.675
23.91000 461.263
23.92000 459.146
23.93000 457.687
23.94000 458.221
23.95000 458.892
23.96000 459.348
23.97000 465.748
23.98000 470.663
23.99000 471.592
24.00000 466.931
24.01000 462.234
24.02000 460.982
24.03000 462.886
24.04000 464.774
24.05000 461.923
24.06000 456.299
24.07000 450.956
24.08000 451.979
24.09000 455.645
24.10000 459.067
24.11000 459.691
24.12000 459.523
24.13000 459.374
24.14000 455.791
24.15000 452.117
24.16000 449.442
24.17000 451.172
24.18000 453.422
24.19000 453.372
24.20000 446.484
24.21000 439.141
24.22000 434.172
24.23000 435.062
24.24000 435.854
24.25000 434.400
24.26000 429.856
24.27000 425.298
24.28000 427.174
24.29000 434.829
24.30000 442.410
24.31000 444.341
24.32000 442.924
24.33000 441.462
24.34000 439.048
24.35000 436.244
24.36000 433.238
24.37000 427.990
24.38000 422.119
24.39000 416.907
24.40000 422.919
24.41000 429.924
24.42000 434.222
24.43000 426.801
24.44000 418.027
24.45000 411.423
24.46000 411.171
24.47000 411.327
24.48000 411.432
24.49000 408.535
24.50000 406.320
24.51000 407.341
24.52000 412.738
24.53000 418.155
24.54000 419.391
24.55000 416.943
24.56000 414.520
24.57000 414.545
24.58000 415.976
24.59000 417.313
24.60000 416.694
24.61000 415.289
24.62000 414.305
24.63000 417.883
24.64000 422.708
24.65000 426.979
24.66000 423.598
24.67000 419.476
24.68000 415.335
24.69000 411.110
24.70000 406.876
24.71000 406.011
24.72000 414.824
24.73000 424.242
24.74000 430.540
24.75000 421.352
24.76000 414.237
24.77000 409.310
24.78000 407.289
24.79000 405.285
24.80000 405.293
24.81000 407.041
24.82000 408.770
24.83000 410.579
24.84000 412.392
24.85000 413.932
24.86000 409.919
24.87000 403.717
24.88000 398.319
24.89000 401.442
24.90000 406.850
24.91000 411.625
24.92000 401.874
24.93000 391.235
24.94000 382.912
24.95000 384.256
24.96000 386.666
24.97000 387.363
24.98000 383.223
24.99000 378.791
25.00000 375.845
25.01000 389.653
25.02000 400.175
25.03000 403.915
25.04000 398.820
25.05000 393.696
25.06000 393.559
25.07000 397.651
25.08000 401.694
25.09000 404.331
25.10000 406.125
25.11000 407.736
25.12000 405.727
25.13000 402.316
25.14000 399.045
25.15000 397.215
25.16000 395.766
25.17000 394.490
25.18000 395.103
25.19000 395.914
25.20000 398.213
25.21000 406.615
25.22000 415.673
25.23000 420.872
25.24000 415.354
25.25000 409.208
25.26000 405.149
25.27000 405.823
25.28000 406.404
25.29000 404.980
25.30000 400.993
25.31000 397.005
25.32000 397.020
25.33000 400.366
25.34000 403.670
25.35000 406.278
25.36000 408.440
25.37000 410.362
25.38000 407.713
25.39000 403.323
25.40000 398.952
25.41000 394.778
25.42000 390.654
25.43000 387.034
25.44000 385.738
25.45000 384.965
25.46000 385.831
25.47000 393.296
25.48000 401.455
25.49000 407.617
25.50000 408.331
25.51000 408.735
25.52000 409.001
25.53000 399.081
25.54000 391.614
25.55000 387.562
25.56000 387.797
25.57000 388.045
25.58000 387.848
25.59000 387.287
25.60000 386.734
25.61000 385.253
25.62000 383.318
25.63000 381.619
25.64000 384.266
25.65000 388.541
25.66000 391.944
25.67000 386.788
25.68000 379.455
25.69000 373.036
25.70000 377.870
25.71000 383.627
25.72000 389.567
25.73000 396.231
25.74000 402.969
25.75000 405.939
25.76000 398.798
25.77000 391.101
25.78000 386.083
25.79000 386.887
25.80000 387.569
25.81000 387.225
25.82000 385.617
25.83000 384.012
25.84000 384.694
25.85000 387.208
25.86000 389.686
25.87000 392.477
25.88000 395.350
25.89000 398.318
25.90000 402.973
25.91000 408.248
25.92000 412.163
25.93000 403.047
25.94000 390.677
25.95000 379.880
25.96000 385.513
25.97000 392.635
25.98000 396.790
25.99000 389.423
26.00000 380.902
26.01000 376.206
26.02000 381.596
26.03000 387.521
26.04000 391.360
26.05000 391.815
26.06000 392.098
26.07000 393.793
26.08000 397.196
26.09000 400.574
26.10000 396.044
26.11000 385.295
26.12000 374.709
26.13000 374.093
26.14000 378.613
26.15000 382.932
26.16000 383.780
26.17000 383.373
26.18000 382.699
26.19000 379.535
26.20000 375.760
26.21000 372.475
26.22000 372.484
26.23000 372.944
26.24000 374.086
26.25000 377.831
26.26000 381.831
26.27000 386.428
26.28000 392.575
26.29000 398.801
26.30000 402.808
26.31000 393.291
26.32000 386.155
26.33000 380.431
26.34000 376.382
26.35000 372.340
26.36000 369.120
26.37000 366.535
26.38000 363.992
26.39000 363.758
26.40000 364.696
26.41000 365.775
26.42000 369.227
26.43000 373.524
26.44000 377.772
26.45000 381.582
26.46000 385.285
26.47000 388.499
26.48000 394.420
26.49000 399.827
26.50000 401.894
26.51000 391.453
26.52000 379.821
26.53000 372.932
26.54000 378.132
26.55000 383.932
26.56000 387.639
26.57000 379.006
26.58000 372.561
26.59000 372.461
26.60000 379.746
26.61000 387.003
26.62000 385.943
26.63000 378.582
26.64000 371.347
26.65000 371.810
26.66000 376.063
26.67000 380.017
26.68000 379.135
26.69000 376.562
26.70000 374.838
26.71000 380.693
26.72000 388.341
26.73000 394.957
26.74000 398.466
26.75000 401.042
26.76000 402.394
26.77000 399.238
26.78000 395.664
26.79000 391.244
26.80000 384.701
26.81000 378.058
26.82000 373.839
26.83000 382.368
26.84000 388.717
26.85000 391.164
26.86000 389.156
26.87000 387.161
26.88000 388.374
26.89000 391.973
26.90000 395.507
26.91000 393.825
26.92000 389.671
26.93000 385.374
26.94000 378.834
26.95000 371.525
26.96000 364.781
26.97000 362.975
26.98000 362.315
26.99000 361.746
27.00000 363.823
27.01000 365.924
27.02000 368.087
27.03000 370.477
27.04000 372.887
27.05000 374.180
27.06000 372.722
27.07000 371.137
27.08000 370.138
27.09000 366.698
27.10000 364.179
27.11000 360.133
27.12000 354.378
27.13000 348.669
27.14000 351.134
27.15000 359.566
27.16000 367.839
27.17000 373.682
27.18000 378.157
27.19000 382.382
27.20000 382.806
27.21000 381.947
27.22000 380.801
27.23000 377.209
27.24000 373.059
27.25000 369.490
27.26000 368.977
27.27000 368.925
27.28000 369.274
27.29000 371.050
27.30000 372.951
27.31000 373.689
27.32000 371.610
27.33000 369.405
27.34000 368.024
27.35000 364.128
27.36000 361.287
27.37000 364.209
27.38000 373.460
27.39000 382.679
27.40000 386.857
27.41000 387.418
27.42000 387.969
27.43000 384.935
27.44000 380.341
27.45000 376.077
27.46000 376.694
27.47000 378.930
27.48000 380.856
27.49000 380.192
27.50000 378.950
27.51000 377.885
27.52000 374.749
27.53000 371.848
27.54000 370.356
27.55000 373.777
27.56000 377.620
27.57000 380.182
27.58000 379.695
27.59000 379.077
27.60000 378.692
27.61000 378.721
27.62000 378.746
27.63000 378.271
27.64000 377.260
27.65000 376.267
27.66000 377.863
27.67000 381.282
27.68000 384.630
27.69000 385.117
27.70000 384.272
27.71000 383.411
27.72000 382.315
27.73000 381.143
27.74000 379.854
27.75000 377.615
27.76000 375.168
27.77000 373.076
27.78000 369.865
27.79000 367.026
27.80000 364.020
27.81000 360.444
27.82000 356.820
27.83000 355.867
27.84000 361.160
27.85000 366.711
27.86000 370.138
27.87000 372.700
27.88000 374.531
27.89000 372.786
27.90000 367.263
27.91000 361.772
27.92000 360.140
27.93000 361.178
27.94000 362.193
27.95000 368.637
27.96000 377.262
27.97000 385.101
27.98000 382.002
27.99000 375.395
28.00000 368.381
28.01000 358.127
28.02000 347.175
28.03000 337.847
28.04000 348.568
28.05000 359.918
28.06000 370.373
28.07000 377.810
28.08000 385.001
28.09000 386.517
28.10000 374.982
28.11000 362.930
28.12000 355.541
28.13000 364.748
28.14000 371.486
28.15000 373.133
28.16000 369.512
28.17000 365.877
28.18000 360.695
28.19000 354.463
28.20000 348.375
28.21000 347.254
28.22000 348.375
28.23000 349.647
28.24000 352.963
28.25000 356.923
28.26000 360.962
28.27000 365.620
28.28000 370.410
28.29000 374.476
28.30000 371.464
28.31000 368.131
28.32000 364.142
28.33000 357.979
28.34000 351.644
28.35000 349.181
28.36000 355.474
28.37000 362.100
28.38000 366.134
28.39000 353.840
28.40000 344.930
28.41000 342.574
28.42000 346.867
28.43000 351.159
28.44000 355.273
28.45000 359.269
28.46000 363.169
28.47000 364.673
28.48000 365.072
28.49000 364.895
28.50000 357.136
28.51000 347.030
28.52000 338.691
28.53000 343.802
28.54000 351.706
28.55000 358.394
28.56000 361.988
28.57000 364.654
28.58000 366.292
28.59000 364.590
28.60000 362.630
28.61000 359.499
28.62000 353.763
28.63000 347.931
28.64000 344.408
28.65000 343.102
28.66000 342.188
28.67000 343.754
28.68000 347.786
28.69000 351.838
28.70000 357.659
28.71000 364.640
28.72000 371.445
28.73000 369.595
28.74000 364.149
28.75000 358.762
28.76000 354.145
28.77000 349.762
28.78000 345.638
28.79000 343.446
28.80000 341.647
28.81000 340.130
28.82000 350.102
28.83000 359.676
28.84000 365.377
28.85000 358.700
28.86000 351.095
28.87000 346.670
28.88000 349.190
28.89000 351.954
28.90000 353.612
28.91000 354.656
28.92000 355.393
28.93000 354.623
28.94000 352.382
28.95000 350.173
28.96000 350.723
28.97000 353.047
28.98000 355.311
28.99000 352.297
29.00000 347.223
29.01000 342.557
29.02000 342.963
29.03000 344.887
29.04000 347.692
29.05000 356.909
29.06000 367.409
29.07000 376.235
29.08000 372.044
29.09000 367.174
29.10000 362.175
29.11000 356.772
29.12000 351.340
29.13000 346.310
29.14000 342.143
29.15000 338.005
29.16000 335.543
29.17000 350.499
29.18000 361.198
29.19000 367.090
29.20000 368.390
29.21000 369.666
29.22000 368.935
29.23000 366.935
29.24000 364.991
29.25000 356.121
29.26000 344.849
29.27000 334.710
29.28000 338.293
29.29000 345.909
29.30000 352.157
29.31000 348.658
29.32000 343.247
29.33000 338.714
29.34000 340.090
29.35000 341.844
29.36000 344.483
29.37000 349.855
29.38000 355.420
29.39000 357.854
29.40000 353.680
29.41000 349.292
29.42000 346.701
29.43000 360.087
29.44000 369.628
29.45000 372.349
29.46000 368.683
29.47000 365.029
29.48000 362.258
29.49000 360.036
29.50000 357.877
29.51000 357.255
29.52000 357.280
29.53000 357.213
29.54000 356.045
29.55000 354.559
29.56000 352.668
29.57000 347.957
29.58000 342.702
29.59000 338.316
29.60000 345.505
29.61000 352.634
29.62000 357.855
29.63000 357.289
29.64000 356.325
29.65000 354.716
29.66000 351.768
29.67000 348.780
29.68000 347.028
29.69000 359.951
29.70000 369.121
29.71000 369.939
29.72000 363.085
29.73000 356.348
29.74000 357.695
29.75000 363.976
29.76000 370.069
29.77000 371.889
29.78000 371.930
29.79000 371.923
29.80000 371.373
29.81000 370.670
29.82000 369.787
29.83000 367.677
29.84000 365.335
29.85000 363.388
29.86000 368.939
29.87000 374.271
29.88000 378.377
29.89000 378.828
29.90000 379.036
29.91000 378.693
29.92000 377.225
29.93000 375.724
29.94000 374.851
29.95000 369.150
29.96000 365.129
29.97000 367.385
29.98000 375.295
29.99000 383.116
30.00000 385.172
30.01000 383.770
30.02000 382.413
30.03000 385.734
30.04000 390.687
30.05000 394.735
30.06000 388.658
30.07000 379.758
30.08000 371.791
30.09000 370.066
30.10000 369.496
30.11000 369.024
30.12000 366.132
30.13000 363.512
30.14000 362.869
30.15000 368.025
30.16000 373.556
30.17000 377.930
30.18000 379.987
30.19000 381.979
30.20000 383.127
30.21000 375.019
30.22000 369.310
30.23000 369.302
30.24000 374.330
30.25000 379.258
30.26000 378.116
30.27000 373.398
30.28000 368.833
30.29000 364.219
30.30000 359.841
30.31000 356.181
30.32000 360.327
30.33000 366.611
30.34000 371.487
30.35000 367.139
30.36000 361.116
30.37000 356.142
30.38000 353.211
30.39000 350.986
30.40000 349.366
30.41000 349.488
30.42000 349.720
30.43000 351.500
30.44000 356.327
30.45000 361.236
30.46000 364.045
30.47000 352.008
30.48000 343.562
30.49000 344.268
30.50000 352.905
30.51000 361.380
30.52000 360.631
30.53000 354.541
30.54000 348.657
30.55000 348.114
30.56000 349.592
30.57000 351.398
30.58000 356.682
30.59000 362.902
30.60000 368.362
30.61000 368.953
30.62000 368.676
30.63000 368.449
30.64000 362.949
30.65000 357.948
30.66000 354.546
30.67000 355.672
30.68000 357.073
30.69000 358.458
30.70000 359.812
30.71000 361.165
30.72000 361.933
30.73000 368.095
30.74000 372.398
30.75000 374.269
30.76000 374.075
30.77000 373.852
30.78000 372.097
30.79000 369.470
30.80000 366.936
30.81000 366.349
30.82000 366.508
30.83000 366.855
30.84000 369.154
30.85000 371.968
30.86000 375.271
30.87000 381.649
30.88000 388.564
30.89000 394.233
30.90000 395.266
30.91000 395.703
30.92000 397.085
30.93000 401.097
30.94000 405.264
30.95000 410.871
30.96000 419.216
30.97000 427.628
30.98000 432.362
30.99000 440.290
31.00000 445.808
31.01000 454.707
31.02000 466.426
31.03000 478.339
31.04000 500.091
31.05000 527.344
31.06000 553.602
31.07000 562.364
31.08000 564.315
31.09000 568.290
31.10000 592.696
31.11000 622.406
31.12000 652.313
31.13000 683.431
31.14000 714.757
31.15000 740.346
31.16000 787.731
31.17000 828.397
31.18000 866.571
31.19000 897.924
31.20000 928.889
31.21000 965.366
31.22000 1012.155
31.23000 1059.181
31.24000 1085.423
31.25000 1118.811
31.26000 1141.950
31.27000 1170.812
31.28000 1204.357
31.29000 1237.895
31.30000 1271.054
31.31000 1304.005
31.32000 1335.709
31.33000 1342.263
31.34000 1339.553
31.35000 1338.419
31.36000 1352.820
31.37000 1371.183
31.38000 1384.515
31.39000 1367.481
31.40000 1345.357
31.41000 1327.352
31.42000 1293.114
31.43000 1263.790
31.44000 1237.085
31.45000 1217.429
31.46000 1198.161
31.47000 1171.378
31.48000 1130.776
31.49000 1089.875
31.50000 1067.244
31.51000 1007.240
31.52000 965.756
31.53000 921.603
31.54000 875.306
31.55000 829.229
31.56000 793.100
31.57000 762.342
31.58000 732.791
31.59000 701.780
31.60000 672.244
31.61000 643.331
31.62000 620.394
31.63000 598.953
31.64000 576.047
31.65000 544.472
31.66000 511.471
31.67000 484.717
31.68000 482.130
31.69000 482.001
31.70000 478.052
31.71000 464.001
31.72000 449.411
31.73000 437.524
31.74000 430.523
31.75000 423.621
31.76000 419.836
31.77000 408.365
31.78000 400.458
31.79000 391.910
31.80000 382.856
31.81000 373.969
31.82000 372.188
31.83000 374.179
31.84000 376.088
31.85000 369.792
31.86000 361.125
31.87000 353.104
31.88000 351.132
31.89000 350.647
31.90000 350.983
31.91000 356.077
31.92000 361.938
31.93000 366.671
31.94000 363.372
31.95000 360.050
31.96000 358.437
31.97000 361.268
31.98000 364.328
31.99000 365.292
32.00000 362.534
32.01000 359.703
32.02000 358.165
32.03000 347.766
32.04000 340.631
32.05000 335.494
32.06000 331.903
32.07000 328.425
32.08000 329.551
32.09000 333.078
32.10000 336.456
32.11000 335.233
32.12000 332.563
32.13000 330.027
32.14000 328.723
32.15000 327.717
32.16000 326.990
32.17000 327.858
32.18000 328.977
32.19000 329.877
32.20000 329.429
32.21000 328.960
32.22000 327.936
32.23000 325.492
32.24000 322.977
32.25000 323.920
32.26000 330.896
32.27000 337.982
32.28000 341.800
32.29000 335.628
32.30000 331.411
32.31000 330.183
32.32000 331.226
32.33000 332.324
32.34000 335.543
32.35000 339.849
32.36000 343.968
32.37000 338.943
32.38000 331.282
32.39000 324.375
32.40000 324.224
32.41000 325.675
32.42000 326.469
32.43000 323.604
32.44000 320.175
32.45000 317.427
32.46000 315.992
32.47000 314.931
32.48000 315.326
32.49000 319.378
32.50000 323.607
32.51000 325.665
32.52000 324.002
32.53000 322.274
32.54000 321.352
32.55000 319.797
32.56000 318.754
32.57000 321.026
32.58000 325.769
32.59000 330.410
32.60000 331.255
32.61000 330.188
32.62000 329.169
32.63000 326.711
32.64000 323.965
32.65000 321.252
32.66000 318.830
32.67000 316.476
32.68000 314.269
32.69000 312.871
32.70000 311.594
32.71000 310.576
32.72000 305.874
32.73000 301.809
32.74000 302.164
32.75000 313.434
32.76000 325.211
32.77000 330.159
32.78000 323.598
32.79000 316.852
32.80000 313.282
32.81000 323.861
32.82000 331.000
32.83000 328.549
32.84000 319.075
32.85000 309.880
32.86000 310.437
32.87000 315.823
32.88000 320.959
32.89000 325.984
32.90000 330.610
32.91000 334.276
32.92000 329.746
32.93000 323.343
32.94000 317.875
32.95000 317.422
32.96000 317.712
32.97000 317.942
32.98000 320.109
32.99000 321.993
33.00000 322.954
33.01000 321.672
33.02000 320.290
33.03000 317.854
33.04000 313.670
33.05000 309.461
33.06000 307.254
33.07000 308.393
33.08000 309.157
33.09000 308.655
33.10000 307.242
33.11000 305.856
33.12000 305.374
33.13000 305.333
33.14000 305.293
33.15000 304.488
33.16000 303.507
33.17000 302.647
33.18000 302.800
33.19000 303.180
33.20000 304.089
33.21000 307.774
33.22000 311.863
33.23000 315.100
33.24000 303.412
33.25000 292.985
33.26000 288.875
33.27000 299.837
33.28000 311.448
33.29000 314.554
33.30000 303.826
33.31000 292.904
33.32000 287.233
33.33000 295.162
33.34000 300.463
33.35000 297.984
33.36000 290.011
33.37000 282.423
33.38000 287.068
33.39000 297.567
33.40000 307.543
33.41000 306.160
33.42000 301.449
33.43000 297.348
33.44000 298.237
33.45000 300.225
33.46000 302.093
33.47000 303.344
33.48000 304.506
33.49000 305.423
33.50000 300.936
33.51000 296.974
33.52000 292.146
33.53000 285.287
33.54000 278.343
33.55000 278.669
33.56000 290.613
33.57000 302.708
33.58000 308.929
33.59000 306.265
33.60000 304.464
33.61000 301.787
33.62000 298.503
33.63000 295.301
33.64000 294.618
33.65000 295.119
33.66000 295.595
33.67000 297.340
33.68000 299.325
33.69000 300.823
33.70000 298.428
33.71000 295.191
33.72000 292.779
33.73000 294.532
33.74000 296.864
33.75000 298.695
33.76000 302.962
33.77000 306.534
33.78000 305.375
33.79000 293.306
33.80000 280.801
33.81000 275.895
33.82000 282.917
33.83000 290.084
33.84000 293.734
33.85000 313.253
33.86000 326.257
33.87000 328.974
33.88000 324.686
33.89000 320.376
33.90000 315.410
33.91000 310.139
33.92000 305.147
33.93000 302.809
33.94000 301.429
33.95000 300.035
33.96000 298.533
33.97000 297.008
33.98000 297.526
33.99000 308.179
34.00000 320.212
34.01000 329.618
34.02000 323.170
34.03000 317.017
34.04000 312.650
34.05000 312.331
34.06000 312.167
34.07000 313.191
34.08000 316.049
34.09000 318.928
34.10000 320.379
34.11000 330.696
34.12000 337.520
34.13000 336.693
34.14000 330.750
34.15000 324.899
34.16000 321.627
34.17000 319.526
34.18000 317.540
34.19000 320.388
34.20000 324.383
34.21000 328.704
34.22000 335.517
34.23000 342.848
34.24000 348.702
34.25000 347.364
34.26000 345.068
34.27000 343.280
34.28000 346.850
34.29000 350.023
34.30000 351.367
34.31000 348.637
34.32000 345.757
34.33000 343.883
34.34000 343.532
34.35000 343.196
34.36000 344.060
34.37000 346.118
34.38000 348.137
34.39000 346.412
34.40000 342.228
34.41000 338.043
34.42000 333.819
34.43000 329.578
34.44000 325.576
34.45000 332.423
34.46000 341.737
34.47000 350.250
34.48000 352.794
34.49000 354.118
34.50000 354.103
34.51000 347.690
34.52000 340.444
34.53000 334.828
34.54000 332.066
34.55000 330.043
34.56000 327.866
34.57000 325.354
34.58000 322.829
34.59000 321.489
34.60000 321.912
34.61000 322.351
34.62000 321.996
34.63000 320.864
34.64000 319.725
34.65000 317.994
34.66000 315.883
34.67000 313.866
34.68000 314.308
34.69000 315.830
34.70000 317.263
34.71000 313.868
34.72000 309.437
34.73000 304.968
34.74000 300.222
34.75000 295.421
34.76000 290.632
34.77000 285.899
34.78000 281.174
34.79000 277.528
34.80000 280.716
34.81000 283.640
34.82000 285.350
34.83000 284.450
34.84000 283.462
34.85000 283.485
34.86000 284.988
34.87000 286.503
34.88000 286.335
34.89000 284.556
34.90000 282.808
34.91000 283.629
34.92000 286.079
34.93000 288.413
34.94000 287.854
34.95000 286.047
34.96000 284.348
34.97000 284.442
34.98000 285.011
34.99000 285.391
35.00000 284.430
35.01000 283.205
35.02000 282.264
35.03000 282.633
35.04000 283.164
35.05000 283.573
35.06000 282.588
35.07000 281.732
35.08000 280.038
35.09000 276.571
35.10000 273.047
35.11000 272.232
35.12000 275.306
35.13000 278.411
35.14000 281.238
35.15000 283.805
35.16000 286.291
35.17000 282.731
35.18000 275.406
35.19000 268.464
35.20000 270.650
35.21000 276.711
35.22000 282.400
35.23000 280.985
35.24000 277.821
35.25000 274.817
35.26000 272.931
35.27000 271.260
35.28000 269.890
35.29000 269.880
35.30000 270.035
35.31000 270.153
35.32000 261.235
35.33000 253.709
35.34000 249.493
35.35000 252.164
35.36000 255.049
35.37000 257.596
35.38000 259.667
35.39000 261.735
35.40000 262.117
35.41000 260.947
35.42000 259.858
35.43000 264.446
35.44000 272.508
35.45000 280.182
35.46000 278.967
35.47000 274.043
35.48000 269.431
35.49000 274.220
35.50000 281.010
35.51000 286.296
35.52000 281.270
35.53000 274.293
35.54000 268.167
35.55000 265.821
35.56000 263.924
35.57000 262.479
35.58000 262.924
35.59000 263.373
35.60000 266.098
35.61000 273.476
35.62000 280.991
35.63000 281.565
35.64000 272.530
35.65000 263.436
35.66000 260.450
35.67000 262.978
35.68000 265.455
35.69000 264.623
35.70000 261.801
35.71000 258.927
35.72000 254.918
35.73000 250.443
35.74000 246.259
35.75000 252.671
35.76000 261.180
35.77000 268.441
35.78000 267.330
35.79000 264.665
35.80000 262.237
35.81000 260.839
35.82000 259.560
35.83000 258.592
35.84000 261.886
35.85000 264.690
35.86000 266.578
35.87000 266.623
35.88000 266.617
35.89000 267.587
35.90000 269.884
35.91000 272.187
35.92000 269.130
35.93000 261.333
35.94000 253.718
35.95000 257.173
35.96000 267.167
35.97000 276.736
35.98000 277.221
35.99000 274.043
36.00000 271.078
36.01000 268.431
36.02000 266.111
36.03000 263.928
36.04000 262.643
36.05000 261.522
36.06000 261.345
36.07000 265.203
36.08000 269.520
36.09000 272.777
36.10000 265.635
36.11000 259.528
36.12000 256.619
36.13000 260.027
36.14000 263.604
36.15000 265.031
36.16000 263.587
36.17000 262.129
36.18000 257.323
36.19000 249.621
36.20000 242.090
36.21000 244.400
36.22000 252.421
36.23000 260.226
36.24000 263.557
36.25000 265.115
36.26000 266.566
36.27000 263.023
36.28000 258.601
36.29000 255.008
36.30000 256.751
36.31000 259.446
36.32000 261.490
36.33000 260.797
36.34000 259.801
36.35000 259.053
36.36000 265.908
36.37000 271.628
36.38000 271.812
36.39000 261.250
36.40000 250.412
36.41000 247.460
36.42000 254.837
36.43000 262.253
36.44000 263.728
36.45000 260.147
36.46000 256.606
36.47000 255.221
36.48000 255.066
36.49000 254.867
36.50000 253.804
36.51000 252.404
36.52000 251.104
36.53000 253.459
36.54000 256.459
36.55000 258.994
36.56000 258.604
36.57000 257.701
36.58000 257.465
36.59000 259.976
36.60000 262.784
36.61000 264.883
36.62000 258.239
36.63000 252.656
36.64000 251.218
36.65000 257.690
36.66000 264.354
36.67000 266.862
36.68000 264.026
36.69000 261.172
36.70000 261.639
36.71000 264.873
36.72000 268.056
36.73000 268.594
36.74000 267.651
36.75000 266.937
36.76000 270.631
36.77000 276.014
36.78000 281.005
36.79000 284.204
36.80000 286.666
36.81000 288.028
36.82000 282.604
36.83000 276.015
36.84000 271.615
36.85000 276.072
36.86000 281.468
36.87000 285.480
36.88000 275.196
36.89000 266.560
36.90000 265.097
36.91000 277.088
36.92000 289.389
36.93000 293.956
36.94000 288.760
36.95000 283.540
36.96000 283.667
36.97000 288.167
36.98000 292.623
36.99000 294.953
37.00000 296.113
37.01000 297.145
37.02000 295.815
37.03000 293.596
37.04000 291.542
37.05000 293.864
37.06000 296.956
37.07000 299.296
37.08000 297.085
37.09000 294.108
37.10000 291.151
37.11000 288.270
37.12000 285.398
37.13000 283.272
37.14000 279.036
37.15000 275.659
37.16000 273.138
37.17000 272.196
37.18000 271.289
37.19000 272.963
37.20000 277.832
37.21000 282.703
37.22000 283.203
37.23000 280.195
37.24000 277.165
37.25000 273.151
37.26000 268.605
37.27000 264.105
37.28000 260.433
37.29000 257.067
37.30000 253.959
37.31000 254.746
37.32000 256.329
37.33000 258.204
37.34000 261.805
37.35000 265.691
37.36000 268.433
37.37000 266.706
37.38000 264.528
37.39000 262.925
37.40000 260.954
37.41000 259.413
37.42000 258.925
37.43000 260.344
37.44000 261.803
37.45000 260.662
37.46000 256.360
37.47000 252.058
37.48000 253.434
37.49000 259.270
37.50000 264.914
37.51000 262.252
37.52000 255.172
37.53000 248.605
37.54000 250.966
37.55000 256.575
37.56000 261.744
37.57000 259.018
37.58000 254.835
37.59000 251.918
37.60000 256.352
37.61000 261.973
37.62000 264.978
37.63000 257.950
37.64000 249.936
37.65000 244.064
37.66000 246.818
37.67000 249.289
37.68000 252.253
37.69000 256.092
37.70000 259.948
37.71000 260.849
37.72000 258.225
37.73000 255.601
37.74000 253.450
37.75000 251.676
37.76000 250.013
37.77000 252.891
37.78000 258.144
37.79000 262.911
37.80000 259.512
37.81000 253.192
37.82000 247.380
37.83000 248.153
37.84000 250.268
37.85000 251.379
37.86000 246.770
37.87000 241.256
37.88000 236.931
37.89000 237.081
37.90000 237.661
37.91000 238.083
37.92000 249.009
37.93000 257.830
37.94000 263.316
37.95000 262.965
37.96000 262.506
37.97000 260.279
37.98000 255.982
37.99000 251.692
38.00000 253.683
38.01000 260.416
38.02000 266.964
38.03000 266.363
38.04000 262.088
38.05000 257.908
38.06000 255.294
38.07000 253.229
38.08000 251.335
38.09000 260.702
38.10000 271.438
38.11000 280.609
38.12000 281.036
38.13000 280.107
38.14000 278.049
38.15000 271.813
38.16000 265.187
38.17000 260.382
38.18000 267.116
38.19000 272.720
38.20000 278.379
38.21000 284.134
38.22000 289.890
38.23000 290.978
38.24000 286.706
38.25000 282.441
38.26000 284.548
38.27000 291.370
38.28000 298.093
38.29000 301.178
38.30000 302.426
38.31000 304.254
38.32000 315.273
38.33000 329.466
38.34000 342.459
38.35000 351.617
38.36000 358.967
38.37000 367.640
38.38000 383.556
38.39000 400.571
38.40000 417.712
38.41000 435.310
38.42000 452.950
38.43000 465.677
38.44000 495.613
38.45000 519.176
38.46000 541.002
38.47000 559.893
38.48000 578.737
38.49000 609.984
38.50000 655.197
38.51000 700.272
38.52000 742.065
38.53000 781.131
38.54000 819.937
38.55000 849.628
38.56000 874.793
38.57000 900.529
38.58000 935.027
38.59000 972.500
38.60000 1006.725
38.61000 1026.604
38.62000 1041.333
38.63000 1059.912
38.64000 1099.181
38.65000 1141.526
38.66000 1176.126
38.67000 1183.078
38.68000 1187.572
38.69000 1190.798
38.70000 1200.556
38.71000 1208.242
38.72000 1209.537
38.73000 1200.223
38.74000 1190.747
38.75000 1181.906
38.76000 1173.765
38.77000 1165.655
38.78000 1138.123
38.79000 1096.965
38.80000 1056.141
38.81000 1026.527
38.82000 1002.385
38.83000 977.672
38.84000 944.479
38.85000 908.455
38.86000 875.629
38.87000 844.932
38.88000 818.160
38.89000 790.664
38.90000 759.355
38.91000 727.491
38.92000 694.224
38.93000 656.037
38.94000 617.425
38.95000 589.859
38.96000 541.001
38.97000 503.027
38.98000 471.025
38.99000 448.764
39.00000 426.642
39.01000 405.955
39.02000 386.823
39.03000 367.771
39.04000 352.752
39.05000 340.708
39.06000 328.709
39.07000 318.123
39.08000 308.215
39.09000 298.681
39.10000 294.542
39.11000 292.172
39.12000 290.018
39.13000 288.194
39.14000 286.646
39.15000 283.790
39.16000 274.170
39.17000 263.586
39.18000 255.452
39.19000 255.758
39.20000 256.776
39.21000 257.499
39.22000 249.594
39.23000 243.304
39.24000 240.450
39.25000 243.099
39.26000 245.821
39.27000 249.005
39.28000 252.679
39.29000 256.336
39.30000 254.188
39.31000 248.072
39.32000 241.971
39.33000 236.328
39.34000 230.900
39.35000 225.847
39.36000 226.049
39.37000 227.946
39.38000 229.666
39.39000 236.756
39.40000 244.038
39.41000 250.571
39.42000 253.303
39.43000 255.506
39.44000 255.758
39.45000 249.406
39.46000 242.512
39.47000 237.643
39.48000 231.108
39.49000 226.096
39.50000 224.497
39.51000 228.270
39.52000 232.110
39.53000 237.212
39.54000 243.628
39.55000 250.012
39.56000 250.899
39.57000 248.069
39.58000 245.180
39.59000 240.570
39.60000 235.164
39.61000 230.007
39.62000 228.251
39.63000 227.571
39.64000 226.957
39.65000 225.382
39.66000 223.817
39.67000 221.919
39.68000 218.368
39.69000 214.591
39.70000 213.295
39.71000 220.250
39.72000 227.865
39.73000 233.213
39.74000 229.372
39.75000 226.195
39.76000 224.970
39.77000 226.763
39.78000 228.590
39.79000 232.063
39.80000 237.218
39.81000 242.344
39.82000 242.668
39.83000 239.812
39.84000 236.946
39.85000 233.813
39.86000 230.559
39.87000 227.803
39.88000 231.655
39.89000 237.565
39.90000 242.899
39.91000 237.698
39.92000 231.195
39.93000 226.141
39.94000 228.158
39.95000 231.120
39.96000 233.325
39.97000 233.056
39.98000 232.596
39.99000 232.274
40.00000 222.321
40.01000 214.534
40.02000 212.818
40.03000 220.323
40.04000 227.925
40.05000 229.304
40.06000 224.460
40.07000 219.646
40.08000 218.407
40.09000 219.508
40.10000 220.615
40.11000 221.871
40.12000 223.193
40.13000 224.321
40.14000 222.930
40.15000 220.769
40.16000 218.823
40.17000 225.113
40.18000 232.108
40.19000 237.739
40.20000 236.843
40.21000 235.094
40.22000 233.701
40.23000 233.454
40.24000 233.293
40.25000 233.182
40.26000 222.363
40.27000 213.924
40.28000 210.868
40.29000 215.840
40.30000 220.889
40.31000 221.995
40.32000 219.237
40.33000 216.498
40.34000 220.250
40.35000 228.079
40.36000 235.458
40.37000 231.169
40.38000 221.742
40.39000 212.772
40.40000 209.527
40.41000 208.003
40.42000 206.635
40.43000 208.871
40.44000 211.462
40.45000 213.527
40.46000 213.125
40.47000 212.407
40.48000 213.300
40.49000 219.281
40.50000 225.635
40.51000 230.023
40.52000 227.355
40.53000 225.169
40.54000 225.720
40.55000 230.284
40.56000 234.883
40.57000 234.116
40.58000 228.195
40.59000 222.317
40.60000 218.956
40.61000 217.224
40.62000 215.513
40.63000 214.329
40.64000 213.372
40.65000 212.595
40.66000 213.999
40.67000 216.047
40.68000 217.882
40.69000 215.376
40.70000 212.439
40.71000 210.008
40.72000 209.906
40.73000 210.094
40.74000 210.781
40.75000 213.011
40.76000 215.351
40.77000 216.958
40.78000 210.537
40.79000 205.527
40.80000 204.462
40.81000 209.075
40.82000 213.732
40.83000 216.316
40.84000 216.948
40.85000 217.574
40.86000 218.636
40.87000 219.946
40.88000 221.253
40.89000 222.485
40.90000 223.685
40.91000 224.553
40.92000 221.479
40.93000 217.260
40.94000 213.491
40.95000 212.126
40.96000 211.342
40.97000 211.094
40.98000 213.272
40.99000 215.745
41.00000 216.654
41.01000 212.793
41.02000 208.602
41.03000 205.741
41.04000 203.922
41.05000 202.586
41.06000 205.279
41.07000 213.665
41.08000 222.088
41.09000 221.745
41.10000 213.304
41.11000 204.936
41.12000 205.025
41.13000 210.200
41.14000 215.202
41.15000 216.207
41.16000 215.539
41.17000 214.898
41.18000 214.573
41.19000 214.338
41.20000 214.129
41.21000 208.710
41.22000 203.140
41.23000 199.157
41.24000 202.229
41.25000 206.143
41.26000 208.187
41.27000 204.625
41.28000 200.687
41.29000 198.014
41.30000 207.415
41.31000 214.696
41.32000 218.409
41.33000 217.170
41.34000 215.900
41.35000 214.511
41.36000 213.016
41.37000 211.535
41.38000 212.951
41.39000 216.049
41.40000 218.951
41.41000 217.495
41.42000 214.247
41.43000 211.097
41.44000 209.061
41.45000 207.337
41.46000 205.805
41.47000 204.666
41.48000 203.740
41.49000 203.349
41.50000 205.288
41.51000 207.499
41.52000 208.296
41.53000 204.925
41.54000 201.283
41.55000 198.827
41.56000 200.955
41.57000 202.636
41.58000 205.537
41.59000 210.103
41.60000 214.674
41.61000 213.964
41.62000 208.560
41.63000 203.211
41.64000 197.441
41.65000 191.553
41.66000 186.097
41.67000 189.921
41.68000 197.497
41.69000 204.683
41.70000 207.596
41.71000 209.332
41.72000 210.871
41.73000 215.426
41.74000 219.845
41.75000 223.069
41.76000 221.168
41.77000 218.683
41.78000 216.335
41.79000 214.387
41.80000 212.464
41.81000 211.175
41.82000 201.376
41.83000 193.933
41.84000 192.688
41.85000 199.737
41.86000 206.825
41.87000 211.334
41.88000 213.596
41.89000 215.833
41.90000 212.491
41.91000 206.053
41.92000 199.934
41.93000 200.396
41.94000 203.474
41.95000 206.308
41.96000 206.541
41.97000 206.070
41.98000 205.654
41.99000 208.937
42.00000 212.345
42.01000 214.647
42.02000 212.298
42.03000 209.430
42.04000 206.408
42.05000 202.946
42.06000 199.457
42.07000 197.132
42.08000 199.687
42.09000 201.670
42.10000 204.433
42.11000 208.220
42.12000 212.005
42.13000 212.451
42.14000 210.041
42.15000 207.660
42.16000 207.826
42.17000 209.410
42.18000 210.899
42.19000 210.494
42.20000 209.349
42.21000 208.527
42.22000 211.065
42.23000 214.495
42.24000 217.519
42.25000 214.939
42.26000 211.867
42.27000 210.029
42.28000 213.288
42.29000 217.102
42.30000 219.026
42.31000 215.664
42.32000 211.987
42.33000 209.552
42.34000 207.925
42.35000 206.739
42.36000 205.429
42.37000 203.959
42.38000 202.487
42.39000 200.347
42.40000 197.645
42.41000 194.977
42.42000 198.691
42.43000 205.804
42.44000 212.854
42.45000 218.680
42.46000 224.037
42.47000 228.390
42.48000 222.531
42.49000 214.008
42.50000 206.516
42.51000 199.432
42.52000 193.400
42.53000 189.870
42.54000 196.489
42.55000 204.186
42.56000 208.830
42.57000 205.078
42.58000 200.843
42.59000 198.055
42.60000 199.635
42.61000 200.874
42.62000 200.505
42.63000 198.101
42.64000 195.695
42.65000 195.103
42.66000 196.005
42.67000 196.896
42.68000 198.035
42.69000 199.277
42.70000 200.301
42.71000 197.245
42.72000 192.648
42.73000 188.669
42.74000 190.819
42.75000 194.538
42.76000 197.799
42.77000 203.345
42.78000 208.436
42.79000 211.740
42.80000 207.925
42.81000 203.372
42.82000 200.483
42.83000 202.093
42.84000 203.954
42.85000 205.170
42.86000 205.739
42.87000 206.146
42.88000 205.081
42.89000 202.187
42.90000 199.295
42.91000 198.858
42.92000 200.403
42.93000 201.926
42.94000 201.104
42.95000 199.067
42.96000 197.272
42.97000 199.832
42.98000 204.007
42.99000 207.638
43.00000 205.998
43.01000 203.031
43.02000 200.438
43.03000 201.908
43.04000 203.742
43.05000 205.066
43.06000 204.398
43.07000 203.528
43.08000 203.616
43.09000 206.254
43.10000 209.029
43.11000 210.832
43.12000 208.558
43.13000 206.830
43.14000 204.442
43.15000 201.251
43.16000 198.066
43.17000 197.324
43.18000 198.520
43.19000 199.697
43.20000 200.712
43.21000 201.611
43.22000 202.321
43.23000 199.719
43.24000 195.907
43.25000 192.783
43.26000 196.148
43.27000 201.117
43.28000 205.448
43.29000 200.401
43.30000 194.792
43.31000 190.967
43.32000 194.004
43.33000 197.718
43.34000 200.217
43.35000 199.540
43.36000 198.698
43.37000 198.155
43.38000 203.803
43.39000 208.019
43.40000 208.179
43.41000 203.487
43.42000 198.799
43.43000 197.328
43.44000 198.362
43.45000 199.380
43.46000 196.229
43.47000 191.060
43.48000 186.275
43.49000 188.010
43.50000 192.082
43.51000 195.920
43.52000 197.612
43.53000 198.783
43.54000 199.800
43.55000 197.909
43.56000 195.904
43.57000 194.050
43.58000 192.772
43.59000 191.548
43.60000 190.895
43.61000 191.705
43.62000 192.589
43.63000 193.156
43.64000 200.201
43.65000 205.422
43.66000 207.007
43.67000 204.325
43.68000 201.643
43.69000 200.494
43.70000 200.517
43.71000 200.540
43.72000 199.678
43.73000 198.403
43.74000 197.181
43.75000 196.834
43.76000 196.796
43.77000 196.793
43.78000 197.119
43.79000 197.522
43.80000 197.872
43.81000 194.796
43.82000 191.726
43.83000 190.256
43.84000 194.716
43.85000 199.733
43.86000 201.402
43.87000 194.617
43.88000 187.421
43.89000 182.838
43.90000 186.472
43.91000 189.217
43.92000 188.201
43.93000 182.857
43.94000 177.541
43.95000 178.717
43.96000 184.760
43.97000 190.698
43.98000 186.385
43.99000 177.205
44.00000 168.836
44.01000 173.340
44.02000 182.304
44.03000 191.080
44.04000 198.215
44.05000 204.964
44.06000 210.794
44.07000 207.034
44.08000 202.603
44.09000 198.404
44.10000 195.054
44.11000 191.782
44.12000 190.133
44.13000 192.513
44.14000 195.082
44.15000 196.707
44.16000 195.764
44.17000 195.050
44.18000 193.243
44.19000 190.200
44.20000 187.186
44.21000 189.507
44.22000 195.756
44.23000 201.889
44.24000 204.282
44.25000 204.793
44.26000 205.112
44.27000 202.463
44.28000 198.803
44.29000 195.316
44.30000 193.320
44.31000 191.667
44.32000 190.243
44.33000 194.169
44.34000 198.169
44.35000 201.385
44.36000 201.791
44.37000 201.947
44.38000 203.580
44.39000 208.815
44.40000 214.214
44.41000 217.605
44.42000 212.479
44.43000 208.679
44.44000 207.323
44.45000 208.674
44.46000 210.008
44.47000 208.551
44.48000 205.076
44.49000 201.669
44.50000 202.819
44.51000 206.074
44.52000 209.122
44.53000 209.064
44.54000 207.967
44.55000 207.143
44.56000 208.615
44.57000 210.606
44.58000 212.314
44.59000 213.298
44.60000 214.041
44.61000 215.163
44.62000 217.620
44.63000 220.193
44.64000 221.709
44.65000 220.688
44.66000 219.557
44.67000 218.852
44.68000 219.984
44.69000 220.819
44.70000 221.997
44.71000 223.545
44.72000 225.103
44.73000 228.022
44.74000 231.908
44.75000 235.713
44.76000 234.684
44.77000 231.458
44.78000 228.544
44.79000 230.148
44.80000 233.237
44.81000 236.019
44.82000 236.272
44.83000 235.966
44.84000 235.703
44.85000 243.036
44.86000 250.136
44.87000 254.450
44.88000 249.142
44.89000 243.019
44.90000 239.747
44.91000 243.194
44.92000 246.923
44.93000 249.232
44.94000 249.314
44.95000 249.352
44.96000 250.919
44.97000 254.115
44.98000 257.313
44.99000 260.827
45.00000 264.560
45.01000 268.213
45.02000 270.563
45.03000 272.227
45.04000 273.628
45.05000 271.315
45.06000 267.804
45.07000 264.221
45.08000 260.066
45.09000 255.787
45.10000 252.138
45.11000 253.470
45.12000 255.177
45.13000 256.865
45.14000 258.488
45.15000 260.106
45.16000 259.929
45.17000 255.592
45.18000 251.087
45.19000 248.316
45.20000 240.270
45.21000 234.453
45.22000 235.503
45.23000 243.721
45.24000 251.898
45.25000 255.083
45.26000 254.853
45.27000 254.628
45.28000 248.779
45.29000 240.670
45.30000 233.240
45.31000 235.108
45.32000 239.930
45.33000 243.850
45.34000 240.697
45.35000 236.035
45.36000 232.072
45.37000 226.966
45.38000 222.547
45.39000 219.791
45.40000 222.585
45.41000 225.823
45.42000 227.317
45.43000 224.839
45.44000 222.208
45.45000 220.601
45.46000 222.164
45.47000 223.308
45.48000 222.514
45.49000 219.739
45.50000 216.949
45.51000 212.715
45.52000 207.511
45.53000 202.430
45.54000 205.282
45.55000 211.478
45.56000 217.297
45.57000 218.094
45.58000 217.323
45.59000 216.142
45.60000 211.802
45.61000 206.801
45.62000 202.564
45.63000 203.771
45.64000 205.394
45.65000 206.266
45.66000 204.678
45.67000 202.898
45.68000 201.881
45.69000 202.574
45.70000 203.330
45.71000 203.789
45.72000 197.081
45.73000 192.243
45.74000 190.056
45.75000 190.528
45.76000 191.033
45.77000 194.736
45.78000 200.551
45.79000 206.222
45.80000 205.278
45.81000 201.539
45.82000 197.883
45.83000 195.295
45.84000 193.034
45.85000 191.347
45.86000 193.972
45.87000 197.484
45.88000 200.450
45.89000 195.751
45.90000 190.983
45.91000 188.141
45.92000 191.505
45.93000 195.340
45.94000 197.115
45.95000 194.357
45.96000 191.437
45.97000 189.680
45.98000 184.939
45.99000 181.546
46.00000 180.029
46.01000 180.355
46.02000 180.711
46.03000 183.751
46.04000 188.531
46.05000 193.188
46.06000 192.419
46.07000 189.401
46.08000 186.436
46.09000 184.139
46.10000 182.044
46.11000 179.939
46.12000 177.765
46.13000 175.578
46.14000 173.736
46.15000 175.660
46.16000 177.668
46.17000 180.705
46.18000 187.003
46.19000 193.541
46.20000 195.314
46.21000 186.780
46.22000 177.892
46.23000 172.585
46.24000 169.870
46.25000 167.960
46.26000 168.528
46.27000 171.483
46.28000 174.415
46.29000 175.491
46.30000 175.383
46.31000 175.277
46.32000 177.027
46.33000 179.458
46.34000 181.427
46.35000 177.734
46.36000 172.364
46.37000 167.738
46.38000 168.465
46.39000 170.252
46.40000 171.751
46.41000 173.636
46.42000 175.245
46.43000 176.876
46.44000 178.575
46.45000 180.279
46.46000 180.180
46.47000 176.246
46.48000 172.187
46.49000 169.781
46.50000 179.701
46.51000 186.785
46.52000 187.368
46.53000 181.810
46.54000 176.260
46.55000 171.408
46.56000 166.991
46.57000 162.699
46.58000 162.753
46.59000 164.566
46.60000 166.368
46.61000 168.051
46.62000 169.698
46.63000 171.111
46.64000 170.874
46.65000 170.316
46.66000 169.850
46.67000 173.624
46.68000 177.189
46.69000 177.457
46.70000 167.643
46.71000 157.128
46.72000 151.677
46.73000 156.812
46.74000 162.279
46.75000 165.494
46.76000 173.663
46.77000 179.448
46.78000 181.285
46.79000 179.463
46.80000 177.676
46.81000 178.388
46.82000 180.638
46.83000 182.822
46.84000 178.290
46.85000 171.319
46.86000 164.947
46.87000 165.519
46.88000 168.077
46.89000 169.996
46.90000 167.517
46.91000 164.200
46.92000 161.436
46.93000 162.283
46.94000 163.343
46.95000 163.968
46.96000 163.283
46.97000 162.510
46.98000 161.465
46.99000 159.859
47.00000 158.237
47.01000 157.291
47.02000 168.829
47.03000 176.998
47.04000 180.833
47.05000 180.730
47.06000 180.551
47.07000 175.350
47.08000 167.113
47.09000 159.130
47.10000 163.495
47.11000 172.450
47.12000 180.702
47.13000 181.013
47.14000 179.092
47.15000 177.129
47.16000 174.877
47.17000 172.571
47.18000 170.656
47.19000 173.916
47.20000 177.113
47.21000 179.105
47.22000 177.540
47.23000 175.742
47.24000 173.719
47.25000 171.239
47.26000 168.747
47.27000 167.304
47.28000 165.893
47.29000 164.904
47.30000 163.487
47.31000 161.691
47.32000 159.970
47.33000 162.996
47.34000 168.841
47.35000 174.499
47.36000 174.238
47.37000 171.726
47.38000 169.210
47.39000 166.669
47.40000 164.119
47.41000 161.837
47.42000 161.315
47.43000 161.117
47.44000 160.952
47.45000 161.204
47.46000 161.451
47.47000 162.042
47.48000 163.628
47.49000 165.278
47.50000 166.067
47.51000 165.147
47.52000 164.180
47.53000 163.625
47.54000 163.383
47.55000 163.219
47.56000 166.267
47.57000 172.124
47.58000 177.841
47.59000 175.384
47.60000 168.158
47.61000 161.172
47.62000 160.988
47.63000 163.373
47.64000 165.558
47.65000 165.604
47.66000 165.070
47.67000 164.482
47.68000 163.535
47.69000 162.525
47.70000 161.693
47.71000 159.489
47.72000 157.549
47.73000 155.345
47.74000 152.390
47.75000 149.388
47.76000 149.053
47.77000 153.924
47.78000 158.931
47.79000 161.782
47.80000 155.015
47.81000 150.273
47.82000 150.527
47.83000 155.064
47.84000 159.527
47.85000 159.949
47.86000 158.055
47.87000 156.226
47.88000 151.247
47.89000 145.395
47.90000 140.480
47.91000 145.372
47.92000 152.877
47.93000 159.827
47.94000 163.261
47.95000 166.076
47.96000 168.387
47.97000 167.485
47.98000 166.456
47.99000 166.307
48.00000 168.624
48.01000 171.088
48.02000 170.895
48.03000 165.602
48.04000 160.184
48.05000 157.124
48.06000 158.331
48.07000 159.179
48.08000 158.382
48.09000 156.200
48.10000 154.068
48.11000 154.517
48.12000 156.419
48.13000 158.253
48.14000 160.586
48.15000 162.960
48.16000 165.389
48.17000 168.383
48.18000 171.525
48.19000 173.904
48.20000 171.541
48.21000 168.360
48.22000 165.757
48.23000 164.130
48.24000 162.883
48.25000 161.455
48.26000 159.532
48.27000 157.579
48.28000 154.958
48.29000 151.074
48.30000 147.160
48.31000 144.968
48.32000 150.707
48.33000 154.702
48.34000 158.147
48.35000 161.140
48.36000 164.048
48.37000 162.852
48.38000 159.384
48.39000 156.045
48.40000 156.157
48.41000 157.487
48.42000 158.573
48.43000 157.232
48.44000 155.267
48.45000 153.765
48.46000 155.085
48.47000 156.883
48.48000 158.348
48.49000 158.050
48.50000 157.656
48.51000 157.406
48.52000 157.549
48.53000 157.714
48.54000 157.953
48.55000 158.327
48.56000 158.704
48.57000 158.914
48.58000 159.359
48.59000 159.668
48.60000 160.315
48.61000 161.236
48.62000 162.124
48.63000 161.462
48.64000 159.958
48.65000 158.511
48.66000 156.899
48.67000 155.330
48.68000 154.307
48.69000 158.579
48.70000 164.188
48.71000 168.829
48.72000 167.689
48.73000 165.590
48.74000 163.886
48.75000 163.369
48.76000 163.045
48.77000 162.089
48.78000 159.450
48.79000 156.719
48.80000 154.546
48.81000 153.387
48.82000 152.249
48.83000 151.622
48.84000 147.957
48.85000 145.440
48.86000 146.937
48.87000 151.626
48.88000 156.218
48.89000 156.589
48.90000 154.703
48.91000 152.893
48.92000 151.649
48.93000 150.680
48.94000 150.017
48.95000 152.258
48.96000 155.219
48.97000 157.068
48.98000 152.420
48.99000 146.715
49.00000 142.100
49.01000 149.101
49.02000 155.734
49.03000 160.034
49.04000 158.223
49.05000 156.091
49.06000 156.121
49.07000 160.019
49.08000 163.993
49.09000 166.162
49.10000 156.278
49.11000 149.501
49.12000 149.969
49.13000 156.089
49.14000 162.057
49.15000 161.737
49.16000 158.113
49.17000 154.639
49.18000 157.512
49.19000 162.323
49.20000 166.532
49.21000 165.163
49.22000 162.436
49.23000 160.121
49.24000 160.167
49.25000 160.589
49.26000 160.929
49.27000 159.721
49.28000 158.619
49.29000 157.178
49.30000 154.864
49.31000 152.507
49.32000 149.786
49.33000 146.426
49.34000 143.055
49.35000 141.231
49.36000 147.711
49.37000 152.149
49.38000 154.591
49.39000 155.506
49.40000 156.375
49.41000 155.470
49.42000 153.648
49.43000 151.904
49.44000 151.609
49.45000 151.811
49.46000 152.043
49.47000 152.547
49.48000 153.114
49.49000 153.902
49.50000 155.925
49.51000 158.140
49.52000 159.918
49.53000 152.976
49.54000 146.686
49.55000 143.635
49.56000 148.776
49.57000 154.319
49.58000 156.042
49.59000 151.166
49.60000 146.174
49.61000 143.498
49.62000 146.271
49.63000 148.156
49.64000 147.397
49.65000 144.651
49.66000 142.132
49.67000 148.087
49.68000 158.345
49.69000 168.147
49.70000 165.912
49.71000 159.947
49.72000 154.421
49.73000 152.771
49.74000 152.030
49.75000 151.251
49.76000 150.264
49.77000 149.245
49.78000 148.430
49.79000 146.625
49.80000 145.092
49.81000 146.526
49.82000 155.339
49.83000 164.501
49.84000 168.785
49.85000 164.789
49.86000 160.656
49.87000 158.461
49.88000 158.053
49.89000 157.776
49.90000 157.404
49.91000 156.963
49.92000 156.570
49.93000 157.888
49.94000 160.060
49.95000 162.132
49.96000 158.500
49.97000 153.321
49.98000 148.716
49.99000 149.071
50.00000 150.568
50.01000 151.559
50.02000 149.814
50.03000 147.658
50.04000 145.942
50.05000 148.906
50.06000 151.633
50.07000 153.365
50.08000 152.663
50.09000 151.850
50.10000 151.155
50.11000 150.658
50.12000 150.165
50.13000 149.905
50.14000 152.198
50.15000 153.733
50.16000 151.625
50.17000 146.879
50.18000 142.328
50.19000 144.414
50.20000 149.754
50.21000 154.842
50.22000 154.846
50.23000 153.271
50.24000 152.375
50.25000 157.208
50.26000 163.336
50.27000 168.908
50.28000 171.533
50.29000 173.727
50.30000 175.467
50.31000 169.978
50.32000 165.055
50.33000 160.552
50.34000 157.057
50.35000 153.606
50.36000 155.148
50.37000 164.872
50.38000 174.714
50.39000 179.847
50.40000 174.668
50.41000 171.177
50.42000 169.637
50.43000 169.485
50.44000 169.187
50.45000 164.117
50.46000 156.746
50.47000 149.737
50.48000 154.195
50.49000 161.812
50.50000 168.962
50.51000 172.256
50.52000 174.693
50.53000 176.788
50.54000 177.107
50.55000 177.171
50.56000 177.221
50.57000 185.002
50.58000 191.774
50.59000 194.410
50.60000 187.270
50.61000 179.718
50.62000 173.889
50.63000 170.833
50.64000 167.815
50.65000 166.256
50.66000 171.687
50.67000 175.330
50.68000 176.611
50.69000 176.243
50.70000 175.997
50.71000 179.581
50.72000 184.981
50.73000 190.106
50.74000 190.696
50.75000 189.883
50.76000 188.784
50.77000 185.376
50.78000 181.463
50.79000 177.238
50.80000 171.414
50.81000 165.365
50.82000 160.608
50.83000 164.281
50.84000 167.781
50.85000 170.439
50.86000 171.140
50.87000 171.761
50.88000 171.552
50.89000 170.029
50.90000 168.490
50.91000 167.703
50.92000 167.432
50.93000 167.246
50.94000 166.589
50.95000 165.608
50.96000 164.629
50.97000 163.670
50.98000 162.722
50.99000 161.823
51.00000 162.219
51.01000 162.963
51.02000 163.321
51.03000 160.634
51.04000 157.295
51.05000 154.529
51.06000 154.632
51.07000 155.129
51.08000 155.519
51.09000 157.977
51.10000 160.074
51.11000 161.294
51.12000 160.511
51.13000 159.650
51.14000 158.273
51.15000 156.093
51.16000 153.904
51.17000 152.795
51.18000 153.198
51.19000 153.450
51.20000 151.664
51.21000 148.506
51.22000 145.535
51.23000 147.928
51.24000 152.777
51.25000 157.364
51.26000 151.265
51.27000 142.583
51.28000 135.206
51.29000 137.892
51.30000 142.690
51.31000 146.740
51.32000 147.113
51.33000 146.992
51.34000 146.898
51.35000 148.148
51.36000 149.228
51.37000 149.476
51.38000 147.856
51.39000 146.166
51.40000 144.367
51.41000 142.401
51.42000 140.433
51.43000 139.446
51.44000 144.860
51.45000 148.442
51.46000 148.980
51.47000 147.503
51.48000 146.091
51.49000 146.481
51.50000 147.683
51.51000 148.817
51.52000 145.073
51.53000 140.260
51.54000 136.273
51.55000 138.508
51.56000 142.026
51.57000 144.816
51.58000 144.104
51.59000 142.931
51.60000 142.020
51.61000 139.980
51.62000 138.289
51.63000 137.519
51.64000 138.777
51.65000 140.109
51.66000 143.470
51.67000 149.875
51.68000 156.309
51.69000 155.549
51.70000 147.696
51.71000 139.901
51.72000 137.364
51.73000 138.248
51.74000 139.158
51.75000 140.781
51.76000 142.719
51.77000 144.546
51.78000 144.920
51.79000 144.861
51.80000 144.721
51.81000 143.997
51.82000 143.154
51.83000 142.299
51.84000 141.390
51.85000 140.475
51.86000 139.767
51.87000 140.728
51.88000 141.588
51.89000 140.467
51.90000 135.051
51.91000 129.486
51.92000 129.523
51.93000 137.810
51.94000 146.171
51.95000 149.154
51.96000 146.941
51.97000 144.761
51.98000 145.471
51.99000 148.028
52.00000 150.452
52.01000 149.545
52.02000 147.189
52.03000 144.972
52.04000 144.291
52.05000 144.086
52.06000 143.554
52.07000 140.663
52.08000 137.305
52.09000 134.997
52.10000 137.563
52.11000 140.742
52.12000 143.189
52.13000 144.310
52.14000 145.123
52.15000 144.105
52.16000 139.185
52.17000 134.136
52.18000 131.939
52.19000 133.870
52.20000 135.833
52.21000 137.232
52.22000 138.095
52.23000 138.963
52.24000 140.231
52.25000 141.750
52.26000 143.227
52.27000 143.667
52.28000 143.664
52.29000 143.661
52.30000 145.193
52.31000 146.998
52.32000 148.429
52.33000 147.215
52.34000 145.487
52.35000 143.167
52.36000 138.156
52.37000 132.813
52.38000 128.719
52.39000 134.056
52.40000 138.791
52.41000 140.786
52.42000 137.036
52.43000 133.104
52.44000 132.239
52.45000 135.732
52.46000 139.256
52.47000 142.183
52.48000 144.553
52.49000 146.879
52.50000 146.013
52.51000 143.178
52.52000 140.578
52.53000 143.434
52.54000 148.585
52.55000 153.414
52.56000 149.456
52.57000 143.559
52.58000 138.502
52.59000 139.262
52.60000 141.132
52.61000 142.344
52.62000 140.618
52.63000 138.538
52.64000 136.952
52.65000 138.190
52.66000 139.317
52.67000 140.177
52.68000 140.487
52.69000 140.781
52.70000 139.351
52.71000 135.516
52.72000 131.667
52.73000 131.302
52.74000 134.111
52.75000 136.907
52.76000 138.862
52.77000 140.308
52.78000 141.819
52.79000 144.793
52.80000 148.373
52.81000 151.722
52.82000 148.849
52.83000 144.646
52.84000 140.713
52.85000 138.604
52.86000 136.837
52.87000 136.520
52.88000 142.566
52.89000 149.359
52.90000 154.518
52.91000 147.575
52.92000 141.491
52.93000 137.552
52.94000 137.954
52.95000 138.481
52.96000 139.878
52.97000 142.468
52.98000 145.063
52.99000 144.206
53.00000 140.268
53.01000 136.409
53.02000 137.483
53.03000 141.494
53.04000 145.403
53.05000 147.120
53.06000 147.946
53.07000 148.717
53.08000 150.628
53.09000 152.647
53.10000 154.752
53.11000 157.425
53.12000 160.203
53.13000 161.804
53.14000 158.340
53.15000 154.294
53.16000 151.236
53.17000 151.572
53.18000 152.005
53.19000 152.962
53.20000 154.961
53.21000 156.988
53.22000 158.493
53.23000 159.295
53.24000 160.092
53.25000 160.977
53.26000 161.937
53.27000 162.866
53.28000 161.931
53.29000 159.905
53.30000 158.041
53.31000 159.557
53.32000 162.423
53.33000 165.094
53.34000 163.500
53.35000 161.008
53.36000 159.234
53.37000 162.115
53.38000 165.834
53.39000 167.886
53.40000 162.884
53.41000 157.090
53.42000 152.732
53.43000 152.289
53.44000 152.133
53.45000 152.138
53.46000 152.459
53.47000 152.789
53.48000 154.273
53.49000 157.282
53.50000 160.297
53.51000 159.344
53.52000 154.990
53.53000 150.739
53.54000 152.234
53.55000 157.030
53.56000 161.415
53.57000 157.504
53.58000 150.336
53.59000 143.668
53.60000 145.230
53.61000 148.625
53.62000 151.288
53.63000 149.291
53.64000 146.472
53.65000 144.725
53.66000 147.430
53.67000 150.623
53.68000 153.014
53.69000 152.642
53.70000 152.221
53.71000 151.440
53.72000 149.963
53.73000 148.469
53.74000 146.965
53.75000 145.448
53.76000 143.933
53.77000 141.206
53.78000 137.465
53.79000 133.795
53.80000 133.816
53.81000 135.921
53.82000 138.140
53.83000 142.590
53.84000 147.900
53.85000 152.828
53.86000 152.817
53.87000 151.639
53.88000 150.299
53.89000 147.955
53.90000 145.438
53.91000 143.486
53.92000 143.845
53.93000 144.450
53.94000 144.901
53.95000 143.744
53.96000 142.771
53.97000 143.555
53.98000 147.660
53.99000 151.843
54.00000 152.138
54.01000 147.486
54.02000 142.822
54.03000 138.416
54.04000 134.237
54.05000 130.188
54.06000 132.522
54.07000 138.397
54.08000 143.962
54.09000 143.667
54.10000 141.150
54.11000 138.819
54.12000 140.242
54.13000 142.394
54.14000 144.329
54.15000 144.948
54.16000 145.344
54.17000 145.103
54.18000 142.312
54.19000 139.254
54.20000 136.987
54.21000 138.290
54.22000 139.458
54.23000 140.109
54.24000 139.800
54.25000 139.469
54.26000 140.015
54.27000 141.655
54.28000 143.296
54.29000 143.001
54.30000 141.140
54.31000 139.239
54.32000 135.436
54.33000 130.598
54.34000 126.301
54.35000 131.885
54.36000 141.153
54.37000 149.719
54.38000 146.054
54.39000 139.983
54.40000 135.537
54.41000 140.806
54.42000 147.690
54.43000 152.146
54.44000 147.046
54.45000 140.972
54.46000 136.491
54.47000 136.332
54.48000 136.391
54.49000 137.225
54.50000 139.474
54.51000 141.753
54.52000 140.952
54.53000 136.375
54.54000 131.798
54.55000 131.845
54.56000 135.561
54.57000 139.264
54.58000 142.374
54.59000 145.167
54.60000 147.865
54.61000 148.892
54.62000 149.306
54.63000 149.688
54.64000 148.423
54.65000 146.924
54.66000 145.347
54.67000 143.318
54.68000 141.214
54.69000 139.793
54.70000 141.011
54.71000 142.491
54.72000 143.578
54.73000 140.440
54.74000 137.843
54.75000 138.641
54.76000 145.531
54.77000 152.543
54.78000 153.251
54.79000 146.379
54.80000 139.505
54.81000 138.793
54.82000 142.880
54.83000 146.874
54.84000 146.971
54.85000 145.016
54.86000 143.185
54.87000 143.469
54.88000 144.516
54.89000 145.479
54.90000 146.652
54.91000 147.746
54.92000 148.008
54.93000 143.488
54.94000 138.204
54.95000 135.191
54.96000 140.793
54.97000 147.232
54.98000 151.936
54.99000 149.020
55.00000 146.473
55.01000 145.487
55.02000 147.255
55.03000 149.074
55.04000 151.158
55.05000 153.554
55.06000 155.945
55.07000 157.107
55.08000 157.325
55.09000 157.507
55.10000 156.327
55.11000 154.440
55.12000 152.644
55.13000 152.339
55.14000 152.562
55.15000 152.767
55.16000 155.302
55.17000 158.063
55.18000 160.188
55.19000 158.729
55.20000 156.709
55.21000 155.383
55.22000 156.643
55.23000 158.148
55.24000 159.242
55.25000 160.833
55.26000 162.076
55.27000 164.038
55.28000 167.246
55.29000 170.475
55.30000 172.418
55.31000 172.872
55.32000 173.322
55.33000 175.809
55.34000 179.804
55.35000 183.809
55.36000 188.219
55.37000 192.835
55.38000 197.226
55.39000 198.010
55.40000 197.539
55.41000 197.107
55.42000 194.822
55.43000 192.398
55.44000 192.198
55.45000 204.281
55.46000 218.246
55.47000 229.958
55.48000 233.424
55.49000 236.130
55.50000 238.086
55.51000 248.142
55.52000 256.154
55.53000 265.718
55.54000 277.926
55.55000 290.178
55.56000 298.823
55.57000 303.374
55.58000 307.906
55.59000 317.309
55.60000 330.218
55.61000 343.248
55.62000 360.681
55.63000 380.316
55.64000 399.390
55.65000 409.758
55.66000 417.148
55.67000 423.904
55.68000 442.839
55.69000 462.165
55.70000 480.980
55.71000 497.028
55.72000 512.660
55.73000 527.704
55.74000 540.629
55.75000 553.364
55.76000 562.525
55.77000 581.441
55.78000 596.263
55.79000 608.202
55.80000 615.317
55.81000 622.356
55.82000 633.511
55.83000 649.250
55.84000 664.937
55.85000 679.910
55.86000 694.240
55.87000 708.342
55.88000 714.633
55.89000 717.082
55.90000 718.958
55.91000 712.196
55.92000 702.530
55.93000 693.713
55.94000 693.650
55.95000 695.355
55.96000 694.985
55.97000 683.588
55.98000 670.570
55.99000 660.923
56.00000 663.185
56.01000 666.489
56.02000 668.854
56.03000 644.539
56.04000 625.074
56.05000 604.915
56.06000 583.617
56.07000 562.302
56.08000 546.350
56.09000 536.258
56.10000 526.208
56.11000 507.798
56.12000 483.657
56.13000 459.811
56.14000 445.640
56.15000 436.144
56.16000 426.325
56.17000 411.785
56.18000 395.684
56.19000 381.032
56.20000 366.668
56.21000 354.015
56.22000 341.352
56.23000 328.640
56.24000 315.921
56.25000 304.404
56.26000 297.059
56.27000 290.070
56.28000 285.095
56.29000 263.589
56.30000 246.671
56.31000 236.498
56.32000 237.216
56.33000 238.082
56.34000 237.873
56.35000 236.510
56.36000 235.154
56.37000 228.135
56.38000 217.266
56.39000 206.541
56.40000 200.362
56.41000 196.342
56.42000 192.186
56.43000 186.098
56.44000 179.381
56.45000 173.283
56.46000 172.436
56.47000 172.703
56.48000 172.398
56.49000 169.178
56.50000 165.546
56.51000 161.479
56.52000 155.926
56.53000 150.249
56.54000 146.230
56.55000 148.540
56.56000 150.492
56.57000 152.381
56.58000 154.171
56.59000 155.960
56.60000 155.157
56.61000 151.633
56.62000 148.126
56.63000 146.076
56.64000 145.039
56.65000 144.002
56.66000 142.964
56.67000 141.925
56.68000 141.028
56.69000 142.086
56.70000 143.767
56.71000 145.289
56.72000 144.867
56.73000 144.127
56.74000 143.199
56.75000 141.328
56.76000 139.326
56.77000 137.465
56.78000 136.074
56.79000 134.720
56.80000 133.767
56.81000 138.389
56.82000 142.059
56.83000 142.875
56.84000 139.247
56.85000 135.566
56.86000 132.417
56.87000 129.814
56.88000 127.226
56.89000 129.010
56.90000 133.688
56.91000 138.406
56.92000 144.294
56.93000 150.719
56.94000 156.283
56.95000 150.313
56.96000 140.723
56.97000 132.058
56.98000 129.390
56.99000 128.154
57.00000 126.889
57.01000 125.486
57.02000 124.064
57.03000 124.029
57.04000 128.562
57.05000 133.454
57.06000 136.879
57.07000 134.857
57.08000 133.173
57.09000 132.546
57.10000 133.540
57.11000 134.551
57.12000 134.883
57.13000 134.529
57.14000 134.177
57.15000 130.456
57.16000 124.579
57.17000 118.944
57.18000 119.942
57.19000 123.934
57.20000 127.896
57.21000 131.463
57.22000 134.909
57.23000 138.015
57.24000 136.622
57.25000 134.584
57.26000 132.726
57.27000 131.742
57.28000 130.873
57.29000 129.539
57.30000 126.699
57.31000 123.744
57.32000 121.687
57.33000 131.254
57.34000 138.787
57.35000 141.494
57.36000 136.945
57.37000 132.324
57.38000 129.884
57.39000 129.600
57.40000 129.318
57.41000 128.814
57.42000 128.175
57.43000 127.690
57.44000 131.273
57.45000 136.661
57.46000 141.542
57.47000 139.981
57.48000 136.468
57.49000 133.311
57.50000 133.066
57.51000 133.369
57.52000 133.438
57.53000 132.393
57.54000 131.205
57.55000 129.211
57.56000 124.653
57.57000 119.905
57.58000 116.618
57.59000 116.830
57.60000 117.081
57.61000 117.545
57.62000 118.321
57.63000 119.101
57.64000 119.851
57.65000 120.574
57.66000 121.291
57.67000 121.505
57.68000 121.398
57.69000 121.536
57.70000 127.868
57.71000 136.902
57.72000 144.861
57.73000 139.547
57.74000 130.282
57.75000 121.974
57.76000 121.721
57.77000 122.901
57.78000 124.042
57.79000 125.005
57.80000 125.944
57.81000 127.306
57.82000 129.987
57.83000 132.763
57.84000 134.674
57.85000 131.986
57.86000 129.854
57.87000 128.385
57.88000 127.877
57.89000 127.378
57.90000 125.717
57.91000 122.954
57.92000 120.211
57.93000 118.943
57.94000 118.608
57.95000 118.335
57.96000 119.577
57.97000 121.467
57.98000 123.009
57.99000 120.363
58.00000 116.491
58.01000 113.028
58.02000 115.345
58.03000 118.349
58.04000 121.767
58.05000 127.077
58.06000 132.620
58.07000 135.169
58.08000 128.516
58.09000 121.218
58.10000 116.223
58.11000 117.028
58.12000 117.769
58.13000 118.952
58.14000 120.767
58.15000 122.585
58.16000 122.736
58.17000 121.334
58.18000 119.943
58.19000 121.624
58.20000 125.138
58.21000 128.538
58.22000 129.257
58.23000 128.846
58.24000 128.337
58.25000 126.691
58.26000 124.719
58.27000 122.959
58.28000 127.541
58.29000 132.584
58.30000 136.002
58.31000 132.134
58.32000 127.387
58.33000 122.631
58.34000 117.850
58.35000 113.068
58.36000 109.815
58.37000 109.219
58.38000 108.835
58.39000 110.173
58.40000 113.922
58.41000 117.686
58.42000 119.343
58.43000 119.074
58.44000 118.808
58.45000 120.858
58.46000 124.247
58.47000 127.516
58.48000 128.054
58.49000 127.461
58.50000 126.872
58.51000 126.340
58.52000 125.822
58.53000 125.362
58.54000 122.415
58.55000 119.451
58.56000 116.802
58.57000 115.540
58.58000 114.442
58.59000 112.916
58.60000 110.119
58.61000 107.238
58.62000 105.289
58.63000 113.163
58.64000 119.240
58.65000 122.102
58.66000 120.548
58.67000 118.968
58.68000 119.505
58.69000 121.939
58.70000 124.349
58.71000 120.936
58.72000 114.192
58.73000 107.842
58.74000 110.067
58.75000 115.786
58.76000 120.928
58.77000 119.685
58.78000 116.669
58.79000 113.993
58.80000 119.281
58.81000 125.133
58.82000 128.948
58.83000 123.962
58.84000 117.961
58.85000 114.108
58.86000 116.518
58.87000 119.330
58.88000 121.220
58.89000 120.493
58.90000 119.899
58.91000 118.428
58.92000 115.771
58.93000 113.110
58.94000 111.928
58.95000 112.044
58.96000 112.159
58.97000 112.907
58.98000 114.001
58.99000 115.146
59.00000 117.350
59.01000 119.979
59.02000 122.562
59.03000 124.653
59.04000 126.609
59.05000 128.340
59.06000 124.183
59.07000 119.670
59.08000 116.936
59.09000 121.752
59.10000 127.418
59.11000 131.035
59.12000 128.779
59.13000 126.158
59.14000 124.407
59.15000 121.105
59.16000 118.628
59.17000 116.706
59.18000 115.519
59.19000 114.337
59.20000 113.898
59.21000 114.098
59.22000 114.297
59.23000 115.663
59.24000 117.654
59.25000 119.502
59.26000 118.464
59.27000 116.289
59.28000 114.623
59.29000 118.311
59.30000 123.434
59.31000 127.955
59.32000 123.342
59.33000 117.968
59.34000 114.011
59.35000 115.953
59.36000 118.544
59.37000 120.541
59.38000 120.866
59.39000 121.091
59.40000 121.239
59.41000 122.364
59.42000 123.213
59.43000 120.630
59.44000 113.588
59.45000 106.543
59.46000 108.552
59.47000 118.219
59.48000 127.771
59.49000 129.668
59.50000 127.292
59.51000 125.024
59.52000 124.877
59.53000 125.550
59.54000 125.756
59.55000 121.158
59.56000 115.296
59.57000 110.137
59.58000 111.949
59.59000 114.551
59.60000 117.249
59.61000 120.346
59.62000 123.485
59.63000 124.324
59.64000 118.792
59.65000 112.888
59.66000 108.993
59.67000 119.635
59.68000 127.736
59.69000 130.845
59.70000 127.584
59.71000 124.302
59.72000 121.584
59.73000 119.334
59.74000 117.113
59.75000 116.893
59.76000 117.763
59.77000 118.507
59.78000 116.866
59.79000 114.318
59.80000 111.816
59.81000 109.773
59.82000 107.849
59.83000 106.161
59.84000 107.617
59.85000 109.328
59.86000 111.030
59.87000 112.700
59.88000 114.367
59.89000 115.278
59.90000 114.133
59.91000 112.872
59.92000 112.044
59.93000 117.264
59.94000 121.203
59.95000 123.911
59.96000 125.079
59.97000 126.229
59.98000 122.546
59.99000 114.927
60.00000 107.412
60.01000 106.447
60.02000 108.993
60.03000 111.498
60.04000 113.249
60.05000 114.720
60.06000 115.887
60.07000 114.096
60.08000 111.554
60.09000 109.330
60.10000 108.127
60.11000 107.243
60.12000 107.237
60.13000 110.700
60.14000 114.518
60.15000 117.585
60.16000 118.643
60.17000 119.591
60.18000 120.209
60.19000 123.094
60.20000 125.246
60.21000 125.166
60.22000 122.345
60.23000 119.523
60.24000 118.643
60.25000 119.316
60.26000 119.980
60.27000 118.072
60.28000 114.879
60.29000 111.947
60.30000 113.656
60.31000 117.071
60.32000 120.379
60.33000 122.666
60.34000 124.699
60.35000 126.474
60.36000 126.010
60.37000 125.302
60.38000 124.495
60.39000 123.309
60.40000 122.086
60.41000 121.821
60.42000 124.080
60.43000 126.473
60.44000 128.021
60.45000 124.072
60.46000 121.102
60.47000 118.331
60.48000 115.797
60.49000 113.275
60.50000 113.566
60.51000 116.065
60.52000 118.525
60.53000 120.991
60.54000 123.385
60.55000 125.579
60.56000 124.340
60.57000 121.860
60.58000 119.454
60.59000 117.746
60.60000 116.208
60.61000 114.871
60.62000 117.135
60.63000 119.559
60.64000 121.096
60.65000 119.261
60.66000 117.098
60.67000 116.337
60.68000 119.205
60.69000 122.258
60.70000 124.222
60.71000 116.874
60.72000 111.383
60.73000 108.735
60.74000 109.450
60.75000 110.181
60.76000 113.562
60.77000 118.981
60.78000 124.313
60.79000 123.265
60.80000 119.042
60.81000 115.038
60.82000 114.650
60.83000 115.546
60.84000 116.490
60.85000 117.869
60.86000 119.353
60.87000 120.640
60.88000 114.455
60.89000 108.189
60.90000 104.099
60.91000 108.142
60.92000 112.956
60.93000 116.874
60.94000 118.513
60.95000 120.040
60.96000 121.015
60.97000 120.357
60.98000 119.856
60.99000 118.880
61.00000 117.352
61.01000 115.828
61.02000 115.514
61.03000 116.113
61.04000 116.703
61.05000 119.477
61.06000 123.236
61.07000 126.849
61.08000 128.103
61.09000 128.533
61.10000 128.551
61.11000 124.891
61.12000 120.364
61.13000 116.449
61.14000 113.598
61.15000 111.314
61.16000 110.282
61.17000 113.845
61.18000 117.833
61.19000 121.352
61.20000 123.699
61.21000 125.990
61.22000 127.444
61.23000 124.807
61.24000 122.844
61.25000 121.376
61.26000 120.473
61.27000 119.577
61.28000 119.920
61.29000 121.182
61.30000 122.422
61.31000 123.661
61.32000 124.857
61.33000 126.202
61.34000 129.853
61.35000 134.296
61.36000 138.034
61.37000 135.650
61.38000 131.847
61.39000 128.569
61.40000 129.471
61.41000 130.770
61.42000 130.625
61.43000 125.275
61.44000 119.455
61.45000 115.999
61.46000 118.352
61.47000 120.972
61.48000 122.623
61.49000 134.141
61.50000 142.591
61.51000 150.370
61.52000 157.398
61.53000 164.437
61.54000 173.187
61.55000 183.185
61.56000 192.993
61.57000 204.363
61.58000 216.060
61.59000 227.877
61.60000 241.501
61.61000 255.735
61.62000 269.410
61.63000 278.344
61.64000 286.201
61.65000 292.953
61.66000 296.264
61.67000 298.636
61.68000 300.275
61.69000 299.316
61.70000 298.128
61.71000 297.279
61.72000 297.250
61.73000 297.258
61.74000 297.262
61.75000 299.620
61.76000 301.347
61.77000 293.455
61.78000 275.025
61.79000 256.605
61.80000 240.470
61.81000 225.971
61.82000 211.762
61.83000 198.958
61.84000 187.294
61.85000 175.712
61.86000 165.331
61.87000 155.348
61.88000 145.945
61.89000 141.354
61.90000 137.837
61.91000 134.824
61.92000 134.732
61.93000 135.009
61.94000 135.115
61.95000 134.619
61.96000 134.072
61.97000 133.000
61.98000 130.680
61.99000 128.307
62.00000 126.832
62.01000 123.692
62.02000 121.414
62.03000 120.867
62.04000 122.179
62.05000 123.495
62.06000 125.212
62.07000 127.212
62.08000 129.169
62.09000 129.214
62.10000 128.381
62.11000 127.580
62.12000 127.234
62.13000 127.035
62.14000 127.123
62.15000 129.532
62.16000 132.450
62.17000 134.943
62.18000 133.010
62.19000 130.856
62.20000 129.035
62.21000 128.355
62.22000 127.770
62.23000 127.975
62.24000 130.020
62.25000 132.141
62.26000 133.450
62.27000 128.603
62.28000 125.067
62.29000 124.831
62.30000 128.069
62.31000 131.276
62.32000 130.590
62.33000 127.219
62.34000 123.922
62.35000 124.701
62.36000 127.280
62.37000 129.916
62.38000 133.360
62.39000 137.062
62.40000 139.958
62.41000 136.466
62.42000 131.598
62.43000 127.455
62.44000 125.945
62.45000 124.983
62.46000 125.693
62.47000 132.023
62.48000 138.809
62.49000 141.465
62.50000 134.643
62.51000 127.448
62.52000 123.040
62.53000 125.569
62.54000 127.438
62.55000 127.652
62.56000 126.158
62.57000 124.670
62.58000 123.808
62.59000 123.369
62.60000 122.941
62.61000 122.775
62.62000 122.731
62.63000 122.713
62.64000 123.041
62.65000 123.476
62.66000 123.969
62.67000 124.910
62.68000 125.944
62.69000 126.822
62.70000 128.316
62.71000 129.639
62.72000 129.972
62.73000 127.038
62.74000 123.846
62.75000 122.547
62.76000 125.517
62.77000 128.648
62.78000 130.553
62.79000 130.807
62.80000 130.976
62.81000 130.244
62.82000 128.600
62.83000 126.984
62.84000 128.124
62.85000 131.100
62.86000 134.003
62.87000 135.530
62.88000 136.394
62.89000 137.269
62.90000 138.286
62.91000 139.347
62.92000 139.980
62.93000 137.363
62.94000 134.074
62.95000 131.292
62.96000 129.922
62.97000 128.933
62.98000 128.667
62.99000 130.752
63.00000 133.017
63.01000 134.355
63.02000 133.638
63.03000 132.846
63.04000 132.369
63.05000 127.708
63.06000 124.359
63.07000 122.629
63.08000 122.503
63.09000 122.393
63.10000 123.677
63.11000 125.872
63.12000 128.011
63.13000 130.290
63.14000 132.524
63.15000 134.428
63.16000 132.136
63.17000 128.568
63.18000 125.435
63.19000 125.533
63.20000 126.287
63.21000 126.923
63.22000 129.214
63.23000 131.306
63.24000 132.885
63.25000 132.830
63.26000 132.652
63.27000 132.973
63.28000 134.378
63.29000 135.821
63.30000 136.686
63.31000 137.395
63.32000 137.898
63.33000 135.887
63.34000 131.434
63.35000 127.043
63.36000 128.060
63.37000 132.549
63.38000 136.919
63.39000 137.032
63.40000 135.367
63.41000 133.834
63.42000 133.944
63.43000 134.543
63.44000 135.323
63.45000 137.417
63.46000 139.773
63.47000 141.752
63.48000 140.275
63.49000 138.680
63.50000 136.781
63.51000 133.924
63.52000 130.998
63.53000 130.011
63.54000 133.177
63.55000 136.482
63.56000 138.448
63.57000 137.066
63.58000 136.068
63.59000 137.201
63.60000 140.367
63.61000 143.517
63.62000 145.462
63.63000 146.646
63.64000 147.797
63.65000 145.445
63.66000 141.776
63.67000 138.265
63.68000 136.651
63.69000 135.594
63.70000 134.953
63.71000 137.270
63.72000 140.165
63.73000 142.589
63.74000 143.428
63.75000 143.963
63.76000 143.633
63.77000 140.641
63.78000 137.462
63.79000 136.411
63.80000 139.844
63.81000 143.421
63.82000 145.531
63.83000 145.442
63.84000 145.367
63.85000 144.286
63.86000 142.266
63.87000 140.238
63.88000 137.630
63.89000 134.664
63.90000 131.783
63.91000 133.473
63.92000 136.912
63.93000 139.865
63.94000 137.099
63.95000 132.687
63.96000 129.309
63.97000 133.130
63.98000 138.333
63.99000 142.675
64.00000 142.774
64.01000 142.429
64.02000 141.409
64.03000 138.340
64.04000 135.132
64.05000 132.729
64.06000 131.996
64.07000 131.314
64.08000 130.914
64.09000 139.217
64.10000 145.103
64.11000 147.587
64.12000 146.954
64.13000 146.350
64.14000 147.854
64.15000 150.640
64.16000 153.343
64.17000 149.217
64.18000 142.619
64.19000 136.710
64.20000 138.668
64.21000 142.855
64.22000 146.483
64.23000 146.306
64.24000 145.413
64.25000 144.670
64.26000 149.291
64.27000 153.641
64.28000 155.332
64.29000 149.113
64.30000 142.368
64.31000 139.872
64.32000 146.024
64.33000 152.428
64.34000 156.148
64.35000 150.193
64.36000 145.973
64.37000 144.932
64.38000 146.747
64.39000 148.572
64.40000 150.986
64.41000 153.752
64.42000 156.432
64.43000 161.440
64.44000 167.077
64.45000 172.238
64.46000 172.106
64.47000 170.501
64.48000 168.301
64.49000 162.135
64.50000 155.237
64.51000 149.522
64.52000 150.228
64.53000 151.425
64.54000 153.777
64.55000 159.510
64.56000 165.460
64.57000 169.241
64.58000 168.682
64.59000 168.001
64.60000 167.609
64.61000 166.181
64.62000 165.178
64.63000 165.193
64.64000 166.105
64.65000 167.017
64.66000 167.876
64.67000 168.705
64.68000 169.507
64.69000 168.059
64.70000 165.838
64.71000 163.669
64.72000 162.070
64.73000 160.626
64.74000 159.611
64.75000 161.398
64.76000 163.692
64.77000 165.586
64.78000 173.784
64.79000 181.124
64.80000 184.965
64.81000 178.747
64.82000 171.900
64.83000 167.281
64.84000 167.044
64.85000 166.923
64.86000 166.853
64.87000 173.451
64.88000 178.074
64.89000 179.576
64.90000 178.379
64.91000 177.191
64.92000 176.532
64.93000 176.178
64.94000 175.836
64.95000 182.761
64.96000 191.992
64.97000 200.381
64.98000 199.858
64.99000 196.942
65.00000 194.800
65.01000 197.616
65.02000 201.312
65.03000 204.352
65.04000 199.656
65.05000 195.094
65.06000 192.168
65.07000 193.866
65.08000 195.843
65.09000 198.555
65.10000 202.687
65.11000 206.854
65.12000 209.216
65.13000 202.520
65.14000 197.843
65.15000 198.969
65.16000 205.017
65.17000 210.932
65.18000 209.731
65.19000 204.492
65.20000 199.437
65.21000 208.855
65.22000 222.998
65.23000 235.542
65.24000 231.586
65.25000 223.278
65.26000 216.350
65.27000 218.082
65.28000 221.321
65.29000 223.976
65.30000 229.659
65.31000 234.587
65.32000 239.930
65.33000 246.429
65.34000 252.995
65.35000 259.241
65.36000 264.880
65.37000 270.504
65.38000 273.666
65.39000 275.496
65.40000 276.764
65.41000 279.219
65.42000 282.661
65.43000 286.029
65.44000 285.687
65.45000 283.275
65.46000 280.952
65.47000 286.233
65.48000 293.917
65.49000 301.047
65.50000 302.605
65.51000 302.720
65.52000 302.639
65.53000 301.352
65.54000 299.860
65.55000 298.641
65.56000 311.761
65.57000 323.730
65.58000 335.241
65.59000 345.503
65.60000 355.693
65.61000 364.802
65.62000 371.891
65.63000 378.933
65.64000 382.860
65.65000 421.474
65.66000 448.289
65.67000 484.069
65.68000 527.170
65.69000 570.768
65.70000 637.913
65.71000 717.967
65.72000 794.975
65.73000 922.097
65.74000 1058.897
65.75000 1194.213
65.76000 1314.960
65.77000 1432.000
65.78000 1545.503
65.79000 1637.706
65.80000 1726.347
65.81000 1798.452
65.82000 1886.710
65.83000 1960.119
65.84000 2017.649
65.85000 2032.561
65.86000 2045.129
65.87000 2047.539
65.88000 2031.309
65.89000 2014.677
65.90000 2005.485
65.91000 1984.829
65.92000 1970.452
65.93000 1920.216
65.94000 1841.242
65.95000 1761.631
65.96000 1653.509
65.97000 1530.024
65.98000 1411.410
65.99000 1283.901
66.00000 1161.498
66.01000 1040.065
66.02000 927.919
66.03000 818.094
66.04000 714.223
66.05000 645.486
66.06000 582.507
66.07000 531.472
66.08000 497.026
66.09000 470.321
66.10000 446.274
66.11000 429.240
66.12000 412.579
66.13000 397.049
66.14000 383.562
66.15000 370.115
66.16000 362.748
66.17000 364.606
66.18000 365.890
66.19000 364.744
66.20000 361.688
66.21000 358.800
66.22000 363.069
66.23000 371.129
66.24000 378.859
66.25000 389.234
66.26000 399.820
66.27000 411.308
66.28000 431.229
66.29000 453.219
66.30000 475.933
66.31000 502.831
66.32000 530.401
66.33000 552.657
66.34000 575.316
66.35000 593.762
66.36000 607.423
66.37000 608.670
66.38000 609.280
66.39000 613.678
66.40000 624.790
66.41000 636.032
66.42000 642.137
66.43000 626.665
66.44000 616.051
66.45000 610.651
66.46000 609.275
66.47000 607.743
66.48000 599.906
66.49000 588.787
66.50000 578.139
66.51000 564.641
66.52000 551.108
66.53000 535.950
66.54000 505.947
66.55000 472.366
66.56000 442.335
66.57000 432.432
66.58000 425.695
66.59000 420.278
66.60000 397.996
66.61000 378.625
66.62000 362.974
66.63000 356.805
66.64000 351.108
66.65000 348.489
66.66000 351.233
66.67000 354.075
66.68000 355.604
66.69000 356.453
66.70000 357.048
66.71000 360.755
66.72000 366.822
66.73000 372.701
66.74000 371.390
66.75000 366.403
66.76000 361.633
66.77000 356.533
66.78000 351.679
66.79000 347.059
66.80000 344.532
66.81000 342.500
66.82000 342.018
66.83000 350.144
66.84000 359.597
66.85000 367.168
66.86000 366.748
66.87000 365.808
66.88000 364.092
66.89000 360.435
66.90000 356.685
66.91000 355.257
66.92000 357.802
66.93000 360.414
66.94000 361.807
66.95000 354.074
66.96000 348.839
66.97000 351.566
66.98000 360.215
66.99000 368.681
67.00000 370.489
67.01000 368.949
67.02000 367.478
67.03000 372.389
67.04000 378.988
67.05000 385.091
67.06000 386.855
67.07000 387.613
67.08000 387.999
67.09000 386.366
67.10000 384.428
67.11000 382.881
67.12000 385.916
67.13000 388.701
67.14000 389.175
67.15000 383.957
67.16000 378.477
67.17000 374.789
67.18000 374.113
67.19000 373.485
67.20000 373.153
67.21000 385.522
67.22000 393.879
67.23000 393.432
67.24000 386.554
67.25000 379.829
67.26000 378.450
67.27000 379.711
67.28000 380.913
67.29000 396.212
67.30000 414.815
67.31000 430.864
67.32000 425.167
67.33000 414.509
67.34000 404.634
67.35000 398.938
67.36000 393.860
67.37000 389.825
67.38000 403.191
67.39000 415.190
67.40000 422.356
67.41000 417.814
67.42000 412.750
67.43000 412.024
67.44000 418.464
67.45000 425.010
67.46000 428.438
67.47000 424.148
67.48000 421.253
67.49000 420.423
67.50000 421.073
67.51000 421.676
67.52000 420.687
67.53000 418.925
67.54000 417.249
67.55000 421.269
67.56000 426.741
67.57000 432.071
67.58000 436.217
67.59000 440.098
67.60000 442.595
67.61000 437.831
67.62000 432.016
67.63000 427.415
67.64000 438.531
67.65000 448.547
67.66000 452.926
67.67000 443.882
67.68000 434.262
67.69000 431.587
67.70000 440.187
67.71000 448.942
67.72000 453.484
67.73000 456.288
67.74000 458.146
67.75000 455.400
67.76000 449.409
67.77000 443.722
67.78000 447.655
67.79000 456.182
67.80000 464.282
67.81000 457.457
67.82000 446.651
67.83000 438.092
67.84000 447.809
67.85000 461.543
67.86000 473.906
67.87000 479.220
67.88000 483.535
67.89000 486.935
67.90000 490.555
67.91000 493.472
67.92000 495.911
67.93000 497.231
67.94000 498.506
67.95000 496.334
67.96000 488.667
67.97000 480.930
67.98000 476.955
67.99000 490.796
68.00000 500.072
68.01000 504.651
68.02000 505.982
68.03000 507.130
68.04000 502.751
68.05000 495.778
68.06000 489.164
68.07000 494.536
68.08000 503.034
68.09000 511.178
68.10000 516.506
68.11000 521.228
68.12000 525.487
68.13000 527.416
68.14000 529.021
68.15000 530.281
68.16000 541.090
68.17000 550.356
68.18000 555.502
68.19000 551.169
68.20000 546.459
68.21000 542.426
68.22000 539.455
68.23000 536.496
68.24000 534.991
68.25000 541.692
68.26000 546.172
68.27000 549.083
68.28000 550.927
68.29000 553.142
68.30000 566.093
68.31000 583.998
68.32000 600.950
68.33000 596.829
68.34000 586.922
68.35000 579.443
68.36000 590.859
68.37000 606.276
68.38000 619.558
68.39000 622.278
68.40000 623.564
68.41000 624.568
68.42000 633.102
68.43000 640.388
68.44000 647.266
68.45000 653.222
68.46000 659.144
68.47000 665.443
68.48000 672.323
68.49000 679.209
68.50000 682.678
68.51000 690.501
68.52000 695.690
68.53000 696.791
68.54000 695.165
68.55000 694.315
68.56000 715.085
68.57000 745.660
68.58000 774.558
68.59000 812.777
68.60000 850.530
68.61000 885.837
68.62000 902.523
68.63000 915.340
68.64000 933.322
68.65000 976.386
68.66000 1022.780
68.67000 1058.876
68.68000 1110.279
68.69000 1152.138
68.70000 1195.196
68.71000 1240.918
68.72000 1286.739
68.73000 1334.007
68.74000 1383.463
68.75000 1432.942
68.76000 1478.159
68.77000 1519.137
68.78000 1560.051
68.79000 1594.999
68.80000 1626.037
68.81000 1657.794
68.82000 1708.759
68.83000 1768.288
68.84000 1824.450
68.85000 1916.315
68.86000 2010.484
68.87000 2109.636
68.88000 2245.894
68.89000 2389.719
68.90000 2569.949
68.91000 2923.704
68.92000 3299.997
68.93000 3591.494
68.94000 4953.179
68.95000 6098.338
68.96000 7636.921
68.97000 10035.272
68.98000 12463.840
68.99000 15368.172
69.00000 18978.900
69.01000 22596.150
69.02000 26088.768
69.03000 29459.662
69.04000 32823.758
69.05000 35598.281
69.06000 37993.203
69.07000 40352.672
69.08000 41802.449
69.09000 42853.516
69.10000 43843.344
69.11000 44514.801
69.12000 45041.898
69.13000 45597.953
69.14000 46365.023
69.15000 47174.309
69.16000 47947.734
69.17000 48553.434
69.18000 49137.824
69.19000 49588.539
69.20000 48712.105
69.21000 47941.059
69.22000 46582.945
69.23000 43963.695
69.24000 41301.977
69.25000 38574.043
69.26000 35749.555
69.27000 32924.426
69.28000 30516.611
69.29000 28508.059
69.30000 26507.498
69.31000 25148.682
69.32000 24195.770
69.33000 23262.326
69.34000 22809.094
69.35000 22562.760
69.36000 22331.207
69.37000 21802.121
69.38000 21239.186
69.39000 20598.867
69.40000 19406.664
69.41000 18106.156
69.42000 16692.885
69.43000 14761.925
69.44000 12766.659
69.45000 11234.623
69.46000 9224.563
69.47000 7608.873
69.48000 6169.521
69.49000 5102.531
69.50000 4047.543
69.51000 3222.478
69.52000 2726.693
69.53000 2233.522
69.54000 1893.263
69.55000 1696.376
69.56000 1500.427
69.57000 1374.425
69.58000 1291.885
69.59000 1210.204
69.60000 1148.869
69.61000 1096.153
69.62000 1046.692
69.63000 1007.599
69.64000 974.706
69.65000 941.432
69.66000 905.488
69.67000 869.030
69.68000 834.913
69.69000 811.345
69.70000 789.058
69.71000 772.022
69.72000 770.029
69.73000 769.273
69.74000 762.621
69.75000 743.732
69.76000 724.466
69.77000 702.448
69.78000 676.560
69.79000 650.651
69.80000 633.918
69.81000 625.622
69.82000 617.344
69.83000 610.271
69.84000 603.934
69.85000 597.464
69.86000 587.959
69.87000 577.189
69.88000 567.103
69.89000 563.710
69.90000 562.351
69.91000 560.367
69.92000 554.104
69.93000 547.033
69.94000 540.116
69.95000 533.880
69.96000 527.726
69.97000 523.043
69.98000 518.003
69.99000 514.019
70.00000 508.355
