20.00000 489.554
20.01000 485.344
20.02000 480.532
20.03000 476.947
20.04000 478.202
20.05000 479.952
20.06000 481.243
20.07000 482.395
20.08000 483.282
20.09000 483.518
20.10000 482.566
20.11000 481.587
20.12000 483.742
20.13000 489.744
20.14000 495.745
20.15000 494.276
20.16000 486.870
20.17000 479.564
20.18000 476.652
20.19000 476.100
20.20000 475.587
20.21000 475.742
20.22000 476.142
20.23000 476.512
20.24000 475.018
20.25000 473.263
20.26000 471.281
20.27000 467.968
20.28000 464.436
20.29000 463.212
20.30000 470.922
20.31000 479.523
20.32000 485.842
20.33000 476.713
20.34000 469.022
20.35000 466.313
20.36000 472.558
20.37000 478.983
20.38000 481.131
20.39000 478.122
20.40000 475.108
20.41000 471.384
20.42000 467.125
20.43000 463.069
20.44000 467.539
20.45000 476.511
20.46000 484.647
20.47000 478.451
20.48000 467.081
20.49000 456.614
20.50000 463.911
20.51000 474.324
20.52000 483.231
20.53000 483.456
20.54000 482.293
20.55000 481.194
20.56000 480.339
20.57000 479.509
20.58000 478.901
20.59000 478.271
20.60000 477.784
20.61000 476.596
20.62000 474.172
20.63000 471.723
20.64000 470.403
20.65000 470.416
20.66000 470.431
20.67000 466.700
20.68000 460.126
20.69000 453.791
20.70000 457.008
20.71000 465.182
20.72000 472.928
20.73000 473.574
20.74000 471.700
20.75000 469.979
20.76000 467.740
20.77000 465.631
20.78000 463.231
20.79000 459.189
20.80000 454.888
20.81000 451.761
20.82000 453.017
20.83000 454.689
20.84000 455.905
20.85000 460.892
20.86000 464.872
20.87000 467.106
20.88000 466.306
20.89000 465.453
20.90000 464.091
20.91000 462.140
20.92000 460.193
20.93000 460.951
20.94000 463.735
20.95000 466.538
20.96000 470.077
20.97000 473.991
20.98000 477.699
20.99000 478.101
21.00000 477.349
21.01000 476.660
21.02000 473.364
21.03000 469.881
21.04000 467.553
21.05000 471.625
21.06000 476.680
21.07000 481.286
21.08000 484.249
21.09000 487.060
21.10000 489.095
21.11000 484.444
21.12000 480.630
21.13000 476.212
21.14000 470.763
21.15000 465.297
21.16000 463.883
21.17000 467.081
21.18000 470.274
21.19000 470.117
21.20000 467.495
21.21000 464.960
21.22000 465.562
21.23000 467.736
21.24000 469.625
21.25000 467.074
21.26000 462.999
21.27000 459.273
21.28000 455.241
21.29000 451.595
21.30000 449.589
21.31000 456.500
21.32000 464.751
21.33000 468.640
21.34000 456.800
21.35000 443.542
21.36000 433.998
21.37000 447.748
21.38000 459.096
21.39000 464.195
21.40000 458.819
21.41000 453.278
21.42000 458.022
21.43000 474.248
21.44000 490.426
21.45000 493.551
21.46000 487.225
21.47000 480.971
21.48000 477.221
21.49000 474.705
21.50000 472.586
21.51000 476.495
21.52000 482.435
21.53000 487.854
21.54000 485.205
21.55000 481.227
21.56000 477.399
21.57000 474.361
21.58000 471.440
21.59000 470.250
21.60000 475.194
21.61000 480.676
21.62000 484.601
21.63000 468.849
21.64000 456.151
21.65000 449.525
21.66000 452.900
21.67000 456.423
21.68000 459.498
21.69000 462.085
21.70000 464.661
21.71000 472.168
21.72000 483.097
21.73000 493.702
21.74000 493.629
21.75000 488.384
21.76000 483.085
21.77000 476.985
21.78000 470.619
21.79000 464.825
21.80000 474.976
21.81000 487.111
21.82000 497.385
21.83000 497.934
21.84000 497.080
21.85000 495.689
21.86000 492.427
21.87000 489.005
21.88000 486.567
21.89000 494.332
21.90000 500.580
21.91000 502.983
21.92000 499.162
21.93000 495.256
21.94000 497.231
21.95000 505.520
21.96000 513.774
21.97000 519.523
21.98000 523.470
21.99000 527.352
22.00000 529.199
22.01000 530.077
22.02000 530.478
22.03000 524.068
22.04000 515.442
22.05000 507.608
22.06000 508.680
22.07000 511.351
22.08000 513.753
22.09000 514.776
22.10000 515.604
22.11000 515.331
22.12000 511.292
22.13000 506.939
22.14000 503.856
22.15000 502.591
22.16000 501.686
22.17000 501.368
22.18000 501.984
22.19000 502.611
22.20000 505.348
22.21000 510.305
22.22000 515.239
22.23000 514.295
22.24000 509.355
22.25000 504.570
22.26000 504.442
22.27000 506.495
22.28000 507.885
22.29000 500.090
22.30000 489.357
22.31000 479.633
22.32000 480.789
22.33000 483.869
22.34000 484.940
22.35000 475.904
22.36000 465.472
22.37000 457.977
22.38000 460.356
22.39000 463.535
22.40000 465.774
22.41000 467.819
22.42000 469.363
22.43000 468.413
22.44000 463.569
22.45000 458.679
22.46000 459.126
22.47000 465.081
22.48000 471.005
22.49000 468.073
22.50000 459.255
22.51000 450.687
22.52000 449.329
22.53000 451.288
22.54000 453.517
22.55000 459.375
22.56000 466.375
22.57000 472.701
22.58000 467.710
22.59000 461.219
22.60000 454.559
22.61000 447.063
22.62000 439.454
22.63000 434.999
22.64000 440.960
22.65000 447.742
22.66000 452.494
22.67000 449.140
22.68000 446.371
22.69000 444.058
22.70000 442.446
22.71000 440.840
22.72000 440.886
22.73000 442.602
22.74000 444.307
22.75000 445.209
22.76000 445.572
22.77000 446.026
22.78000 449.008
22.79000 453.133
22.80000 456.465
22.81000 449.414
22.82000 439.156
22.83000 429.907
22.84000 435.659
22.85000 443.434
22.86000 451.312
22.87000 459.685
22.88000 468.124
22.89000 472.445
22.90000 463.403
22.91000 453.335
22.92000 446.321
22.93000 449.002
22.94000 451.291
22.95000 452.149
22.96000 450.850
22.97000 449.529
22.98000 448.927
22.99000 449.039
23.00000 449.150
23.01000 449.534
23.02000 450.089
23.03000 450.608
23.04000 450.182
23.05000 449.335
23.06000 448.683
23.07000 450.503
23.08000 453.073
23.09000 455.384
23.10000 448.801
23.11000 441.453
23.12000 436.414
23.13000 442.350
23.14000 449.706
23.15000 456.025
23.16000 459.032
23.17000 461.792
23.18000 463.704
23.19000 451.711
23.20000 442.320
23.21000 438.339
23.22000 442.369
23.23000 446.472
23.24000 447.918
23.25000 446.783
23.26000 445.656
23.27000 445.049
23.28000 444.782
23.29000 444.656
23.30000 448.127
23.31000 453.170
23.32000 457.659
23.33000 455.294
23.34000 450.884
23.35000 446.928
23.36000 448.856
23.37000 451.566
23.38000 452.854
23.39000 447.509
23.40000 441.324
23.41000 437.929
23.42000 443.279
23.43000 449.262
23.44000 453.384
23.45000 449.472
23.46000 446.334
23.47000 446.117
23.48000 450.147
23.49000 454.212
23.50000 457.578
23.51000 460.278
23.52000 462.957
23.53000 459.620
23.54000 452.611
23.55000 445.931
23.56000 447.344
23.57000 452.232
23.58000 457.171
23.59000 462.716
23.60000 468.438
23.61000 473.557
23.62000 465.335
23.63000 455.888
23.64000 448.696
23.65000 451.827
23.66000 456.235
23.67000 461.013
23.68000 466.932
23.69000 472.932
23.70000 477.041
23.71000 484.355
23.72000 489.910
23.73000 492.712
23.74000 491.583
23.75000 490.426
23.76000 494.195
23.77000 502.566
23.78000 510.867
23.79000 515.870
23.80000 518.775
23.81000 521.555
23.82000 521.364
23.83000 519.919
23.84000 518.964
23.85000 523.761
23.86000 530.215
23.87000 535.974
23.88000 540.979
23.89000 545.209
23.90000 550.934
23.91000 563.379
23.92000 576.637
23.93000 586.123
23.94000 584.192
23.95000 581.480
23.96000 579.634
23.97000 573.736
23.98000 569.237
23.99000 566.461
24.00000 566.099
24.01000 565.755
24.02000 566.198
24.03000 567.362
24.04000 568.515
24.05000 561.821
24.06000 550.573
24.07000 539.391
24.08000 529.684
24.09000 520.590
24.10000 512.801
24.11000 519.927
24.12000 531.275
24.13000 541.375
24.14000 526.735
24.15000 509.976
24.16000 496.185
24.17000 495.481
24.18000 496.324
24.19000 497.923
24.20000 501.767
24.21000 505.760
24.22000 508.463
24.23000 492.871
24.24000 480.856
24.25000 473.481
24.26000 472.493
24.27000 471.546
24.28000 473.741
24.29000 478.757
24.30000 483.725
24.31000 473.681
24.32000 455.053
24.33000 437.134
24.34000 434.727
24.35000 438.651
24.36000 442.098
24.37000 440.235
24.38000 436.897
24.39000 433.933
24.40000 439.461
24.41000 445.611
24.42000 450.578
24.43000 450.426
24.44000 449.683
24.45000 446.571
24.46000 436.534
24.47000 426.051
24.48000 418.999
24.49000 431.336
24.50000 440.907
24.51000 442.538
24.52000 433.437
24.53000 424.287
24.54000 425.376
24.55000 435.484
24.56000 445.488
24.57000 442.395
24.58000 431.844
24.59000 421.606
24.60000 417.979
24.61000 417.005
24.62000 416.254
24.63000 417.938
24.64000 420.285
24.65000 422.364
24.66000 427.549
24.67000 432.520
24.68000 436.277
24.69000 434.870
24.70000 432.881
24.71000 429.055
24.72000 419.951
24.73000 410.517
24.74000 404.210
24.75000 404.865
24.76000 405.488
24.77000 407.597
24.78000 411.680
24.79000 415.771
24.80000 419.209
24.81000 422.082
24.82000 424.924
24.83000 424.790
24.84000 422.982
24.85000 421.180
24.86000 419.500
24.87000 417.867
24.88000 416.482
24.89000 417.716
24.90000 419.654
24.91000 421.365
24.92000 419.576
24.93000 417.497
24.94000 416.092
24.95000 417.502
24.96000 419.223
24.97000 419.996
24.98000 418.088
24.99000 416.018
25.00000 414.642
25.01000 406.580
25.02000 400.493
25.03000 400.564
25.04000 408.656
25.05000 416.774
25.06000 419.733
25.07000 418.318
25.08000 416.921
25.09000 416.378
25.10000 416.321
25.11000 416.127
25.12000 413.229
25.13000 409.281
25.14000 405.661
25.15000 405.410
25.16000 406.047
25.17000 406.608
25.18000 411.633
25.19000 416.629
25.20000 419.813
25.21000 415.571
25.22000 410.529
25.23000 406.553
25.24000 405.535
25.25000 404.691
25.26000 404.134
25.27000 402.613
25.28000 401.474
25.29000 402.638
25.30000 406.748
25.31000 410.869
25.32000 415.521
25.33000 420.616
25.34000 425.646
25.35000 421.920
25.36000 413.536
25.37000 405.485
25.38000 403.745
25.39000 404.411
25.40000 405.139
25.41000 406.497
25.42000 408.017
25.43000 409.352
25.44000 411.561
25.45000 413.588
25.46000 414.233
25.47000 409.316
25.48000 403.816
25.49000 399.110
25.50000 396.572
25.51000 394.157
25.52000 392.573
25.53000 392.756
25.54000 392.919
25.55000 395.888
25.56000 402.377
25.57000 408.858
25.58000 407.935
25.59000 400.969
25.60000 394.096
25.61000 391.992
25.62000 392.486
25.63000 392.862
25.64000 391.053
25.65000 388.427
25.66000 386.532
25.67000 391.808
25.68000 398.909
25.69000 405.124
25.70000 400.582
25.71000 395.144
25.72000 392.173
25.73000 398.950
25.74000 406.728
25.75000 411.467
25.76000 408.055
25.77000 404.195
25.78000 401.678
25.79000 399.258
25.80000 397.483
25.81000 395.908
25.82000 394.578
25.83000 393.251
25.84000 392.943
25.85000 393.449
25.86000 393.949
25.87000 397.576
25.88000 402.734
25.89000 407.440
25.90000 404.088
25.91000 397.769
25.92000 391.925
25.93000 390.631
25.94000 390.473
25.95000 390.335
25.96000 394.279
25.97000 398.225
25.98000 402.267
25.99000 406.676
26.00000 411.122
26.01000 414.112
26.02000 413.262
26.03000 412.207
26.04000 411.524
26.05000 406.649
26.06000 403.020
26.07000 401.775
26.08000 403.412
26.09000 405.047
26.10000 404.175
26.11000 401.332
26.12000 398.532
26.13000 395.693
26.14000 392.921
26.15000 390.369
26.16000 391.618
26.17000 394.243
26.18000 396.986
26.19000 400.834
26.20000 404.954
26.21000 408.539
26.22000 404.218
26.23000 399.446
26.24000 394.934
26.25000 391.417
26.26000 387.997
26.27000 386.270
26.28000 388.931
26.29000 391.818
26.30000 393.675
26.31000 391.823
26.32000 390.419
26.33000 387.659
26.34000 383.292
26.35000 378.936
26.36000 378.057
26.37000 379.862
26.38000 381.637
26.39000 383.856
26.40000 386.230
26.41000 388.317
26.42000 385.632
26.43000 381.248
26.44000 377.657
26.45000 381.299
26.46000 386.682
26.47000 391.354
26.48000 391.086
26.49000 390.197
26.50000 389.580
26.51000 389.987
26.52000 390.492
26.53000 390.916
26.54000 391.134
26.55000 391.342
26.56000 391.475
26.57000 382.823
26.58000 376.410
26.59000 377.452
26.60000 387.168
26.61000 396.847
26.62000 395.757
26.63000 386.507
26.64000 377.416
26.65000 372.637
26.66000 370.151
26.67000 368.176
26.68000 374.481
26.69000 383.681
26.70000 392.524
26.71000 398.189
26.72000 403.102
26.73000 407.352
26.74000 396.740
26.75000 385.775
26.76000 377.378
26.77000 378.433
26.78000 380.365
26.79000 383.601
26.80000 390.103
26.81000 396.762
26.82000 400.989
26.83000 393.914
26.84000 388.637
26.85000 386.713
26.86000 388.614
26.87000 390.496
26.88000 387.974
26.89000 382.175
26.90000 376.480
26.91000 376.302
26.92000 378.807
26.93000 381.165
26.94000 381.227
26.95000 380.501
26.96000 379.702
26.97000 378.267
26.98000 376.685
26.99000 375.320
27.00000 378.578
27.01000 381.932
27.02000 384.936
27.03000 386.673
27.04000 388.294
27.05000 388.420
27.06000 384.860
27.07000 381.131
27.08000 378.779
27.09000 391.094
27.10000 400.180
27.11000 402.397
27.12000 396.924
27.13000 391.480
27.14000 392.019
27.15000 396.927
27.16000 401.743
27.17000 396.684
27.18000 387.106
27.19000 378.036
27.20000 376.670
27.21000 377.908
27.22000 379.389
27.23000 382.935
27.24000 386.953
27.25000 390.407
27.26000 388.518
27.27000 386.252
27.28000 383.415
27.29000 378.552
27.30000 373.511
27.31000 370.373
27.32000 371.845
27.33000 373.522
27.34000 374.573
27.35000 372.293
27.36000 370.611
27.37000 368.048
27.38000 364.519
27.39000 361.057
27.40000 367.806
27.41000 381.875
27.42000 395.664
27.43000 391.359
27.44000 378.761
27.45000 366.983
27.46000 367.294
27.47000 371.619
27.48000 375.575
27.49000 376.464
27.50000 376.666
27.51000 376.839
27.52000 373.344
27.53000 369.945
27.54000 366.844
27.55000 364.778
27.56000 362.801
27.57000 364.590
27.58000 375.340
27.59000 386.474
27.60000 393.399
27.61000 388.290
27.62000 384.490
27.63000 378.903
27.64000 371.393
27.65000 363.930
27.66000 363.022
27.67000 366.730
27.68000 370.360
27.69000 379.316
27.70000 390.363
27.71000 400.416
27.72000 396.242
27.73000 387.425
27.74000 379.108
27.75000 374.858
27.76000 371.501
27.77000 368.633
27.78000 372.922
27.79000 377.389
27.80000 380.453
27.81000 378.704
27.82000 376.552
27.83000 375.455
27.84000 376.825
27.85000 378.297
27.86000 379.206
27.87000 380.504
27.88000 381.440
27.89000 382.539
27.90000 383.813
27.91000 385.030
27.92000 379.302
27.93000 368.771
27.94000 358.473
27.95000 353.232
27.96000 350.482
27.97000 348.002
27.98000 349.294
27.99000 351.794
28.00000 354.768
28.01000 361.502
28.02000 369.048
28.03000 375.474
28.04000 372.190
28.05000 368.296
28.06000 365.004
28.07000 363.735
28.08000 362.631
28.09000 361.573
28.10000 360.621
28.11000 359.672
28.12000 359.091
28.13000 367.259
28.14000 373.184
28.15000 374.869
28.16000 372.165
28.17000 369.479
28.18000 368.791
28.19000 369.461
28.20000 370.115
28.21000 372.435
28.22000 375.392
28.23000 377.738
28.24000 371.810
28.25000 363.274
28.26000 355.652
28.27000 355.140
28.28000 356.132
28.29000 356.974
28.30000 359.852
28.31000 362.497
28.32000 364.835
28.33000 366.152
28.34000 367.389
28.35000 367.327
28.36000 364.327
28.37000 361.214
28.38000 359.320
28.39000 353.869
28.40000 349.948
28.41000 348.800
28.42000 350.467
28.43000 352.127
28.44000 353.125
28.45000 353.680
28.46000 354.222
28.47000 357.996
28.48000 363.004
28.49000 367.662
28.50000 367.708
28.51000 366.325
28.52000 365.687
28.53000 370.714
28.54000 376.916
28.55000 382.165
28.56000 376.113
28.57000 369.793
28.58000 363.884
28.59000 359.316
28.60000 354.851
28.61000 352.977
28.62000 356.859
28.63000 360.953
28.64000 363.427
28.65000 361.186
28.66000 359.557
28.67000 359.496
28.68000 360.995
28.69000 362.467
28.70000 361.375
28.71000 358.604
28.72000 355.902
28.73000 354.725
28.74000 354.249
28.75000 353.631
28.76000 351.174
28.77000 348.159
28.78000 346.295
28.79000 353.003
28.80000 361.458
28.81000 368.588
28.82000 375.849
28.83000 381.928
28.84000 384.551
28.85000 376.129
28.86000 366.879
28.87000 362.587
28.88000 369.126
28.89000 376.044
28.90000 380.193
28.91000 367.676
28.92000 358.673
28.93000 352.970
28.94000 350.482
28.95000 348.079
28.96000 352.960
28.97000 362.530
28.98000 371.847
28.99000 368.439
29.00000 359.881
29.01000 351.689
29.02000 348.048
29.03000 345.769
29.04000 343.932
29.05000 345.316
29.06000 347.343
29.07000 349.047
29.08000 357.665
29.09000 365.578
29.10000 369.455
29.11000 360.649
29.12000 350.920
29.13000 343.746
29.14000 342.059
29.15000 340.557
29.16000 339.663
29.17000 339.330
29.18000 339.098
29.19000 341.872
29.20000 347.518
29.21000 353.082
29.22000 352.144
29.23000 347.095
29.24000 342.185
29.25000 346.765
29.26000 355.010
29.27000 362.836
29.28000 365.594
29.29000 366.862
29.30000 367.212
29.31000 361.017
29.32000 353.538
29.33000 347.274
29.34000 344.195
29.35000 341.963
29.36000 342.169
29.37000 349.901
29.38000 358.164
29.39000 362.854
29.40000 360.002
29.41000 356.907
29.42000 355.079
29.43000 359.147
29.44000 362.052
29.45000 363.765
29.46000 364.360
29.47000 364.880
29.48000 359.767
29.49000 351.155
29.50000 342.790
29.51000 341.162
29.52000 342.324
29.53000 343.710
29.54000 347.744
29.55000 352.541
29.56000 356.790
29.57000 357.207
29.58000 356.886
29.59000 356.619
29.60000 365.106
29.61000 373.029
29.62000 377.102
29.63000 369.495
29.64000 361.085
29.65000 354.953
29.66000 353.545
29.67000 352.283
29.68000 351.543
29.69000 351.395
29.70000 351.295
29.71000 355.222
29.72000 362.846
29.73000 370.403
29.74000 373.242
29.75000 373.202
29.76000 373.163
29.77000 367.978
29.78000 361.033
29.79000 355.014
29.80000 359.612
29.81000 367.224
29.82000 374.365
29.83000 378.288
29.84000 381.605
29.85000 384.363
29.86000 380.071
29.87000 375.825
29.88000 373.339
29.89000 376.100
29.90000 379.210
29.91000 382.911
29.92000 387.813
29.93000 392.751
29.94000 395.622
29.95000 385.918
29.96000 379.050
29.97000 377.472
29.98000 380.658
29.99000 383.792
30.00000 383.484
30.01000 381.112
30.02000 378.815
30.03000 387.031
30.04000 398.876
30.05000 409.420
30.06000 405.426
30.07000 397.379
30.08000 390.113
30.09000 388.069
30.10000 386.991
30.11000 386.097
30.12000 377.119
30.13000 368.929
30.14000 365.474
30.15000 375.900
30.16000 387.223
30.17000 394.257
30.18000 392.691
30.19000 390.884
30.20000 389.841
30.21000 386.467
30.22000 384.094
30.23000 380.359
30.24000 375.422
30.25000 370.508
30.26000 367.033
30.27000 364.406
30.28000 361.865
30.29000 367.577
30.30000 376.108
30.31000 383.318
30.32000 376.141
30.33000 365.023
30.34000 356.014
30.35000 360.813
30.36000 368.119
30.37000 374.154
30.38000 366.716
30.39000 359.330
30.40000 354.799
30.41000 358.492
30.42000 362.701
30.43000 366.169
30.44000 368.177
30.45000 370.146
30.46000 371.272
30.47000 366.333
30.48000 362.868
30.49000 364.034
30.50000 369.211
30.51000 374.333
30.52000 376.275
30.53000 376.378
30.54000 376.476
30.55000 369.886
30.56000 361.179
30.57000 353.516
30.58000 356.936
30.59000 363.339
30.60000 368.572
30.61000 366.300
30.62000 362.691
30.63000 359.722
30.64000 366.771
30.65000 373.478
30.66000 379.057
30.67000 381.442
30.68000 383.632
30.69000 384.557
30.70000 383.031
30.71000 381.442
30.72000 380.541
30.73000 381.390
30.74000 381.992
30.75000 385.621
30.76000 391.823
30.77000 397.843
30.78000 394.130
30.79000 384.881
30.80000 375.957
30.81000 383.121
30.82000 395.749
30.83000 406.759
30.84000 401.025
30.85000 390.865
30.86000 384.032
30.87000 398.109
30.88000 415.836
30.89000 430.371
30.90000 428.790
30.91000 426.064
30.92000 426.832
30.93000 437.321
30.94000 448.383
30.95000 456.598
30.96000 459.393
30.97000 462.057
30.98000 463.556
30.99000 472.717
31.00000 479.099
31.01000 486.616
31.02000 495.079
31.03000 503.613
31.04000 515.743
31.05000 529.883
31.06000 543.507
31.07000 566.023
31.08000 590.369
31.09000 613.974
31.10000 630.098
31.11000 644.280
31.12000 659.043
31.13000 677.389
31.14000 696.349
31.15000 711.836
31.16000 730.600
31.17000 746.242
31.18000 767.621
31.19000 804.700
31.20000 842.674
31.21000 872.355
31.22000 886.520
31.23000 900.329
31.24000 908.036
31.25000 941.926
31.26000 965.440
31.27000 988.730
31.28000 1011.836
31.29000 1034.796
31.30000 1050.824
31.31000 1063.042
31.32000 1074.798
31.33000 1086.297
31.34000 1096.989
31.35000 1107.019
31.36000 1110.520
31.37000 1112.357
31.38000 1113.790
31.39000 1112.784
31.40000 1111.370
31.41000 1110.219
31.42000 1088.176
31.43000 1068.418
31.44000 1050.333
31.45000 1036.749
31.46000 1023.413
31.47000 1006.965
31.48000 984.793
31.49000 962.498
31.50000 950.162
31.51000 898.326
31.52000 862.498
31.53000 831.961
31.54000 805.675
31.55000 779.384
31.56000 752.880
31.57000 726.260
31.58000 700.686
31.59000 674.397
31.60000 649.541
31.61000 625.130
31.62000 605.005
31.63000 585.954
31.64000 567.510
31.65000 552.662
31.66000 538.405
31.67000 526.846
31.68000 528.338
31.69000 530.623
31.70000 528.615
31.71000 515.254
31.72000 501.288
31.73000 486.760
31.74000 471.217
31.75000 455.653
31.76000 447.116
31.77000 428.206
31.78000 415.207
31.79000 409.944
31.80000 410.779
31.81000 411.584
31.82000 411.080
31.83000 409.880
31.84000 408.729
31.85000 400.437
31.86000 390.267
31.87000 380.850
31.88000 378.491
31.89000 377.868
31.90000 377.467
31.91000 378.362
31.92000 379.465
31.93000 380.356
31.94000 375.760
31.95000 371.586
31.96000 370.362
31.97000 376.799
31.98000 383.632
31.99000 381.681
32.00000 364.130
32.01000 346.278
32.02000 336.572
32.03000 352.213
32.04000 362.955
32.05000 369.249
32.06000 372.100
32.07000 374.729
32.08000 368.344
32.09000 357.257
32.10000 346.637
32.11000 348.713
32.12000 354.873
32.13000 359.899
32.14000 354.524
32.15000 346.638
32.16000 340.512
32.17000 344.393
32.18000 349.852
32.19000 354.243
32.20000 354.938
32.21000 355.215
32.22000 356.827
32.23000 361.850
32.24000 367.043
32.25000 368.651
32.26000 364.003
32.27000 359.241
32.28000 356.674
32.29000 348.050
32.30000 342.165
32.31000 340.100
32.32000 340.937
32.33000 341.814
32.34000 344.186
32.35000 347.326
32.36000 350.329
32.37000 345.083
32.38000 337.507
32.39000 330.867
32.40000 332.600
32.41000 336.318
32.42000 339.171
32.43000 337.201
32.44000 334.485
32.45000 332.309
32.46000 329.613
32.47000 327.392
32.48000 325.906
32.49000 326.264
32.50000 326.711
32.51000 328.093
32.52000 331.076
32.53000 334.087
32.54000 335.694
32.55000 330.317
32.56000 326.661
32.57000 325.786
32.58000 326.985
32.59000 328.210
32.60000 330.416
32.61000 333.115
32.62000 335.692
32.63000 336.096
32.64000 335.776
32.65000 334.881
32.66000 328.964
32.67000 321.879
32.68000 315.587
32.69000 313.629
32.70000 312.328
32.71000 311.289
32.72000 320.443
32.73000 328.582
32.74000 332.450
32.75000 325.775
32.76000 318.611
32.77000 316.373
32.78000 322.437
32.79000 328.635
32.80000 331.914
32.81000 330.672
32.82000 329.821
32.83000 328.080
32.84000 325.688
32.85000 323.384
32.86000 324.183
32.87000 326.518
32.88000 328.744
32.89000 329.459
32.90000 329.648
32.91000 329.218
32.92000 323.505
32.93000 316.584
32.94000 311.342
32.95000 315.097
32.96000 320.185
32.97000 324.230
32.98000 324.529
32.99000 324.503
33.00000 324.557
33.01000 324.802
33.02000 325.056
33.03000 322.956
33.04000 316.956
33.05000 310.898
33.06000 307.722
33.07000 307.061
33.08000 306.625
33.09000 307.690
33.10000 309.834
33.11000 311.909
33.12000 311.668
33.13000 310.297
33.14000 308.994
33.15000 308.513
33.16000 308.322
33.17000 308.164
33.18000 308.277
33.19000 308.450
33.20000 308.083
33.21000 304.876
33.22000 301.256
33.23000 298.390
33.24000 304.389
33.25000 309.825
33.26000 311.680
33.27000 304.994
33.28000 297.940
33.29000 296.288
33.30000 303.422
33.31000 310.680
33.32000 314.449
33.33000 309.070
33.34000 305.479
33.35000 307.779
33.36000 314.237
33.37000 320.458
33.38000 319.094
33.39000 314.100
33.40000 309.355
33.41000 308.130
33.42000 308.063
33.43000 308.473
33.44000 312.778
33.45000 317.942
33.46000 321.294
33.47000 315.307
33.48000 307.995
33.49000 302.229
33.50000 304.562
33.51000 306.977
33.52000 306.711
33.53000 300.153
33.54000 293.334
33.55000 289.159
33.56000 289.210
33.57000 289.317
33.58000 289.371
33.59000 298.675
33.60000 304.907
33.61000 307.247
33.62000 306.890
33.63000 306.571
33.64000 307.408
33.65000 308.788
33.66000 310.098
33.67000 310.520
33.68000 310.646
33.69000 310.203
33.70000 305.227
33.71000 299.271
33.72000 295.169
33.73000 300.441
33.74000 307.018
33.75000 312.181
33.76000 312.460
33.77000 312.364
33.78000 311.704
33.79000 309.743
33.80000 307.731
33.81000 305.873
33.82000 304.259
33.83000 302.647
33.84000 301.826
33.85000 312.226
33.86000 319.120
33.87000 316.666
33.88000 307.845
33.89000 299.382
33.90000 301.336
33.91000 308.108
33.92000 314.520
33.93000 314.205
33.94000 311.959
33.95000 309.825
33.96000 308.571
33.97000 307.503
33.98000 307.940
33.99000 315.844
34.00000 324.763
34.01000 331.736
34.02000 336.210
34.03000 339.621
34.04000 341.207
34.05000 338.653
34.06000 335.941
34.07000 334.444
34.08000 334.821
34.09000 335.219
34.10000 335.419
34.11000 338.334
34.12000 340.292
34.13000 343.229
34.14000 346.822
34.15000 350.120
34.16000 345.195
34.17000 336.532
34.18000 328.342
34.19000 326.723
34.20000 327.111
34.21000 328.578
34.22000 338.287
34.23000 349.712
34.24000 358.750
34.25000 356.166
34.26000 352.034
34.27000 348.817
34.28000 349.234
34.29000 349.790
34.30000 350.261
34.31000 350.542
34.32000 350.815
34.33000 349.438
34.34000 345.560
34.35000 341.656
34.36000 342.005
34.37000 346.594
34.38000 351.113
34.39000 348.963
34.40000 342.432
34.41000 336.181
34.42000 337.460
34.43000 342.104
34.44000 346.486
34.45000 341.733
34.46000 334.819
34.47000 328.349
34.48000 325.193
34.49000 322.715
34.50000 321.803
34.51000 328.379
34.52000 335.929
34.53000 341.781
34.54000 335.370
34.55000 329.545
34.56000 325.357
34.57000 324.755
34.58000 324.280
34.59000 325.385
34.60000 328.843
34.61000 332.323
34.62000 330.628
34.63000 323.875
34.64000 317.116
34.65000 309.814
34.66000 302.163
34.67000 294.860
34.68000 296.533
34.69000 302.149
34.70000 307.439
34.71000 302.538
34.72000 295.258
34.73000 288.952
34.74000 289.772
34.75000 292.020
34.76000 294.412
34.77000 297.475
34.78000 300.623
34.79000 303.053
34.80000 302.659
34.81000 302.182
34.82000 300.745
34.83000 297.240
34.84000 293.664
34.85000 290.593
34.86000 288.261
34.87000 285.936
34.88000 288.678
34.89000 296.275
34.90000 303.748
34.91000 301.247
34.92000 292.422
34.93000 283.841
34.94000 281.301
34.95000 281.369
34.96000 281.433
34.97000 281.638
34.98000 281.864
34.99000 281.467
35.00000 276.619
35.01000 270.896
35.02000 266.522
35.03000 268.359
35.04000 270.969
35.05000 272.974
35.06000 273.240
35.07000 273.353
35.08000 272.913
35.09000 271.301
35.10000 269.652
35.11000 270.922
35.12000 276.384
35.13000 281.879
35.14000 281.344
35.15000 275.149
35.16000 269.030
35.17000 268.701
35.18000 271.977
35.19000 274.954
35.20000 270.816
35.21000 263.658
35.22000 256.940
35.23000 259.850
35.24000 265.042
35.25000 269.823
35.26000 271.719
35.27000 273.060
35.28000 275.374
35.29000 282.085
35.30000 289.332
35.31000 294.875
35.32000 284.297
35.33000 275.074
35.34000 268.146
35.35000 265.990
35.36000 263.982
35.37000 263.519
35.38000 265.233
35.39000 266.962
35.40000 265.393
35.41000 260.788
35.42000 256.304
35.43000 260.287
35.44000 269.452
35.45000 278.176
35.46000 276.794
35.47000 271.195
35.48000 265.950
35.49000 266.518
35.50000 268.539
35.51000 270.359
35.52000 270.804
35.53000 270.989
35.54000 270.598
35.55000 267.654
35.56000 264.406
35.57000 261.934
35.58000 266.954
35.59000 271.301
35.60000 272.306
35.61000 266.482
35.62000 260.455
35.63000 258.659
35.64000 262.719
35.65000 266.815
35.66000 266.135
35.67000 261.144
35.68000 256.237
35.69000 256.827
35.70000 260.722
35.71000 264.464
35.72000 264.830
35.73000 263.812
35.74000 262.860
35.75000 264.681
35.76000 267.037
35.77000 269.298
35.78000 270.918
35.79000 272.420
35.80000 272.751
35.81000 267.986
35.82000 262.629
35.83000 258.569
35.84000 262.664
35.85000 266.296
35.86000 267.733
35.87000 264.761
35.88000 261.664
35.89000 260.266
35.90000 261.175
35.91000 262.098
35.92000 260.458
35.93000 256.552
35.94000 252.728
35.95000 253.881
35.96000 257.973
35.97000 261.971
35.98000 263.965
35.99000 265.151
36.00000 266.258
36.01000 269.142
36.02000 272.197
36.03000 274.330
36.04000 270.401
36.05000 265.369
36.06000 262.309
36.07000 267.680
36.08000 274.008
36.09000 278.782
36.10000 272.688
36.11000 267.379
36.12000 263.665
36.13000 263.103
36.14000 262.625
36.15000 260.831
36.16000 257.278
36.17000 253.719
36.18000 251.567
36.19000 250.638
36.20000 249.783
36.21000 253.102
36.22000 258.843
36.23000 264.276
36.24000 263.339
36.25000 259.878
36.26000 256.655
36.27000 257.642
36.28000 259.562
36.29000 261.439
36.30000 263.042
36.31000 264.596
36.32000 265.897
36.33000 266.142
36.34000 266.269
36.35000 266.365
36.36000 255.998
36.37000 247.398
36.38000 244.933
36.39000 254.383
36.40000 264.137
36.41000 268.548
36.42000 265.961
36.43000 263.345
36.44000 262.116
36.45000 262.071
36.46000 262.060
36.47000 263.897
36.48000 266.788
36.49000 269.381
36.50000 266.035
36.51000 260.375
36.52000 255.115
36.53000 254.602
36.54000 255.276
36.55000 255.919
36.56000 256.374
36.57000 256.795
36.58000 257.570
36.59000 259.798
36.60000 262.185
36.61000 263.968
36.62000 258.596
36.63000 254.078
36.64000 255.550
36.65000 268.451
36.66000 281.631
36.67000 285.477
36.68000 277.325
36.69000 269.135
36.70000 265.331
36.71000 265.196
36.72000 265.039
36.73000 263.699
36.74000 261.698
36.75000 259.870
36.76000 261.387
36.77000 264.185
36.78000 266.779
36.79000 266.592
36.80000 265.772
36.81000 265.256
36.82000 266.621
36.83000 268.308
36.84000 269.719
36.85000 270.013
36.86000 270.189
36.87000 270.320
36.88000 272.222
36.89000 273.780
36.90000 275.219
36.91000 276.432
36.92000 277.641
36.93000 278.396
36.94000 278.580
36.95000 278.762
36.96000 276.790
36.97000 273.065
36.98000 269.451
36.99000 271.243
37.00000 276.012
37.01000 280.498
37.02000 279.733
37.03000 276.992
37.04000 274.456
37.05000 270.877
37.06000 267.421
37.07000 264.740
37.08000 266.745
37.09000 269.539
37.10000 271.869
37.11000 272.360
37.12000 272.661
37.13000 272.884
37.14000 267.610
37.15000 263.282
37.16000 262.234
37.17000 267.230
37.18000 272.359
37.19000 273.312
37.20000 269.092
37.21000 264.864
37.22000 265.296
37.23000 269.463
37.24000 273.524
37.25000 272.769
37.26000 269.407
37.27000 265.863
37.28000 259.035
37.29000 250.993
37.30000 243.566
37.31000 247.469
37.32000 253.521
37.33000 258.898
37.34000 260.268
37.35000 260.977
37.36000 261.473
37.37000 261.133
37.38000 260.709
37.39000 260.397
37.40000 256.289
37.41000 252.952
37.42000 251.118
37.43000 252.007
37.44000 252.953
37.45000 256.329
37.46000 262.659
37.47000 268.985
37.48000 268.951
37.49000 263.915
37.50000 258.975
37.51000 258.183
37.52000 259.597
37.53000 260.780
37.54000 257.954
37.55000 253.670
37.56000 249.723
37.57000 251.560
37.58000 254.483
37.59000 256.543
37.60000 253.589
37.61000 249.826
37.62000 247.458
37.63000 250.434
37.64000 253.935
37.65000 256.501
37.66000 259.221
37.67000 261.328
37.68000 260.318
37.69000 253.758
37.70000 247.091
37.71000 247.619
37.72000 256.729
37.73000 265.836
37.74000 267.730
37.75000 264.047
37.76000 260.490
37.77000 262.051
37.78000 266.289
37.79000 270.037
37.80000 265.550
37.81000 258.116
37.82000 251.282
37.83000 252.107
37.84000 254.501
37.85000 257.465
37.86000 263.677
37.87000 270.401
37.88000 273.367
37.89000 262.179
37.90000 249.633
37.91000 240.487
37.92000 241.216
37.93000 242.158
37.94000 244.938
37.95000 250.933
37.96000 256.987
37.97000 262.099
37.98000 266.110
37.99000 270.108
38.00000 266.036
38.01000 255.883
38.02000 245.990
38.03000 246.242
38.04000 251.707
38.05000 257.340
38.06000 265.717
38.07000 275.058
38.08000 283.628
38.09000 275.083
38.10000 263.837
38.11000 254.998
38.12000 259.609
38.13000 266.304
38.14000 270.360
38.15000 264.658
38.16000 258.043
38.17000 253.245
38.18000 263.359
38.19000 271.685
38.20000 276.184
38.21000 274.102
38.22000 271.906
38.23000 273.716
38.24000 280.126
38.25000 286.522
38.26000 290.539
38.27000 292.761
38.28000 295.003
38.29000 297.977
38.30000 301.322
38.31000 304.639
38.32000 307.532
38.33000 310.280
38.34000 312.794
38.35000 318.004
38.36000 323.198
38.37000 328.368
38.38000 333.406
38.39000 338.424
38.40000 346.003
38.41000 362.891
38.42000 380.627
38.43000 393.423
38.44000 412.328
38.45000 427.039
38.46000 442.431
38.47000 458.974
38.48000 475.536
38.49000 492.144
38.50000 508.801
38.51000 525.404
38.52000 545.032
38.53000 566.703
38.54000 588.645
38.55000 620.112
38.56000 656.307
38.57000 691.902
38.58000 718.297
38.59000 741.567
38.60000 762.820
38.61000 780.628
38.62000 795.735
38.63000 811.507
38.64000 830.845
38.65000 850.713
38.66000 869.528
38.67000 884.582
38.68000 899.302
38.69000 909.867
38.70000 910.316
38.71000 910.311
38.72000 904.812
38.73000 890.191
38.74000 875.432
38.75000 863.871
38.76000 855.841
38.77000 847.844
38.78000 833.086
38.79000 813.632
38.80000 794.045
38.81000 769.985
38.82000 743.742
38.83000 717.246
38.84000 686.984
38.85000 655.466
38.86000 626.747
38.87000 600.417
38.88000 577.567
38.89000 554.238
38.90000 528.385
38.91000 502.165
38.92000 475.818
38.93000 449.026
38.94000 422.196
38.95000 403.041
38.96000 390.435
38.97000 381.035
38.98000 371.115
38.99000 360.348
39.00000 349.570
39.01000 339.732
39.02000 330.913
39.03000 322.132
39.04000 315.763
39.05000 311.149
39.06000 306.453
39.07000 299.112
39.08000 290.502
39.09000 281.923
39.10000 273.784
39.11000 265.789
39.12000 258.521
39.13000 257.559
39.14000 257.940
39.15000 258.369
39.16000 259.043
39.17000 259.753
39.18000 259.461
39.19000 255.720
39.20000 251.688
39.21000 248.824
39.22000 246.255
39.23000 244.309
39.24000 243.744
39.25000 245.393
39.26000 247.071
39.27000 248.081
39.28000 248.381
39.29000 248.680
39.30000 245.741
39.31000 240.607
39.32000 235.616
39.33000 234.979
39.34000 236.396
39.35000 237.819
39.36000 239.323
39.37000 240.854
39.38000 242.242
39.39000 243.637
39.40000 244.868
39.41000 245.561
39.42000 243.524
39.43000 241.106
39.44000 239.641
39.45000 241.403
39.46000 243.431
39.47000 244.862
39.48000 238.595
39.49000 233.602
39.50000 233.987
39.51000 242.835
39.52000 251.786
39.53000 250.552
39.54000 238.714
39.55000 226.936
39.56000 228.002
39.57000 237.718
39.58000 247.130
39.59000 247.612
39.60000 243.954
39.61000 240.580
39.62000 241.080
39.63000 242.806
39.64000 244.369
39.65000 249.333
39.66000 254.342
39.67000 257.505
39.68000 251.492
39.69000 244.225
39.70000 238.942
39.71000 240.258
39.72000 242.101
39.73000 243.395
39.74000 242.879
39.75000 242.436
39.76000 240.056
39.77000 234.682
39.78000 229.275
39.79000 225.097
39.80000 222.174
39.81000 219.267
39.82000 221.884
39.83000 228.121
39.84000 234.215
39.85000 236.276
39.86000 236.500
39.87000 236.423
39.88000 232.355
39.89000 227.044
39.90000 222.250
39.91000 227.922
39.92000 234.826
39.93000 240.107
39.94000 237.469
39.95000 233.772
39.96000 230.908
39.97000 230.763
39.98000 230.829
39.99000 230.875
40.00000 238.167
40.01000 243.878
40.02000 244.549
40.03000 237.567
40.04000 230.505
40.05000 229.388
40.06000 234.217
40.07000 239.016
40.08000 238.550
40.09000 234.674
40.10000 230.949
40.11000 231.344
40.12000 233.584
40.13000 235.504
40.14000 233.301
40.15000 229.837
40.16000 226.718
40.17000 224.449
40.18000 222.613
40.19000 222.035
40.20000 227.480
40.21000 233.713
40.22000 238.067
40.23000 236.387
40.24000 234.250
40.25000 232.767
40.26000 229.630
40.27000 227.223
40.28000 227.537
40.29000 231.911
40.30000 236.323
40.31000 236.367
40.32000 232.129
40.33000 227.920
40.34000 225.941
40.35000 225.415
40.36000 224.958
40.37000 226.315
40.38000 228.470
40.39000 230.593
40.40000 232.306
40.41000 233.896
40.42000 235.323
40.43000 233.831
40.44000 232.011
40.45000 230.495
40.46000 230.410
40.47000 230.508
40.48000 229.950
40.49000 227.321
40.50000 224.541
40.51000 222.621
40.52000 221.030
40.53000 219.843
40.54000 219.862
40.55000 221.648
40.56000 223.448
40.57000 221.505
40.58000 215.964
40.59000 210.464
40.60000 212.839
40.61000 220.097
40.62000 227.130
40.63000 228.555
40.64000 227.553
40.65000 226.535
40.66000 225.314
40.67000 224.033
40.68000 222.886
40.69000 220.486
40.70000 218.174
40.71000 216.868
40.72000 220.200
40.73000 224.111
40.74000 226.861
40.75000 226.005
40.76000 224.892
40.77000 224.127
40.78000 224.480
40.79000 224.772
40.80000 223.760
40.81000 220.873
40.82000 217.972
40.83000 218.634
40.84000 222.655
40.85000 226.643
40.86000 227.605
40.87000 226.695
40.88000 225.631
40.89000 220.872
40.90000 214.541
40.91000 208.718
40.92000 208.927
40.93000 210.886
40.94000 212.636
40.95000 212.676
40.96000 212.421
40.97000 212.114
40.98000 211.566
40.99000 210.990
41.00000 211.336
41.01000 214.498
41.02000 217.854
41.03000 220.145
41.04000 215.624
41.05000 212.085
41.06000 209.131
41.07000 207.005
41.08000 204.885
41.09000 205.134
41.10000 207.570
41.11000 209.985
41.12000 206.218
41.13000 198.802
41.14000 191.983
41.15000 198.951
41.16000 211.686
41.17000 223.430
41.18000 223.716
41.19000 220.733
41.20000 218.075
41.21000 215.976
41.22000 214.244
41.23000 212.688
41.24000 211.916
41.25000 211.238
41.26000 211.267
41.27000 213.420
41.28000 215.715
41.29000 217.273
41.30000 211.958
41.31000 207.841
41.32000 206.278
41.33000 208.260
41.34000 210.265
41.35000 211.550
41.36000 212.182
41.37000 212.808
41.38000 212.376
41.39000 211.329
41.40000 210.324
41.41000 210.261
41.42000 210.586
41.43000 210.652
41.44000 207.808
41.45000 204.149
41.46000 200.897
41.47000 206.421
41.48000 212.630
41.49000 217.682
41.50000 217.685
41.51000 217.099
41.52000 216.897
41.53000 217.831
41.54000 218.838
41.55000 219.518
41.56000 215.892
41.57000 213.104
41.58000 214.317
41.59000 220.983
41.60000 227.674
41.61000 226.964
41.62000 219.679
41.63000 212.467
41.64000 211.668
41.65000 214.602
41.66000 217.491
41.67000 219.381
41.68000 220.867
41.69000 221.662
41.70000 214.870
41.71000 205.990
41.72000 198.119
41.73000 205.980
41.74000 215.272
41.75000 222.931
41.76000 223.596
41.77000 223.463
41.78000 222.506
41.79000 219.163
41.80000 215.670
41.81000 213.328
41.82000 218.762
41.83000 222.952
41.84000 222.658
41.85000 216.364
41.86000 210.045
41.87000 207.530
41.88000 208.333
41.89000 209.127
41.90000 208.880
41.91000 208.047
41.92000 207.485
41.93000 212.531
41.94000 219.806
41.95000 226.430
41.96000 226.093
41.97000 223.874
41.98000 221.912
41.99000 222.664
42.00000 223.733
42.01000 225.401
42.02000 229.592
42.03000 234.064
42.04000 235.815
42.05000 229.822
42.06000 223.354
42.07000 219.045
42.08000 227.102
42.09000 233.302
42.10000 235.573
42.11000 232.683
42.12000 229.773
42.13000 228.352
42.14000 228.203
42.15000 228.057
42.16000 225.921
42.17000 222.728
42.18000 219.791
42.19000 221.982
42.20000 226.175
42.21000 229.958
42.22000 229.461
42.23000 227.827
42.24000 226.387
42.25000 222.000
42.26000 217.772
42.27000 214.929
42.28000 217.799
42.29000 221.292
42.30000 224.306
42.31000 225.981
42.32000 227.576
42.33000 228.633
42.34000 229.377
42.35000 229.920
42.36000 229.677
42.37000 228.421
42.38000 227.159
42.39000 224.805
42.40000 221.534
42.41000 218.304
42.42000 220.095
42.43000 224.590
42.44000 228.877
42.45000 229.149
42.46000 227.879
42.47000 226.355
42.48000 222.248
42.49000 217.466
42.50000 213.264
42.51000 214.241
42.52000 215.848
42.53000 217.661
42.54000 220.310
42.55000 223.048
42.56000 224.401
42.57000 221.942
42.58000 219.264
42.59000 217.502
42.60000 218.145
42.61000 218.661
42.62000 218.479
42.63000 217.417
42.64000 216.352
42.65000 215.342
42.66000 214.379
42.67000 213.428
42.68000 209.520
42.69000 204.129
42.70000 199.329
42.71000 205.566
42.72000 215.969
42.73000 225.330
42.74000 224.349
42.75000 220.718
42.76000 217.536
42.77000 219.147
42.78000 221.223
42.79000 222.234
42.80000 218.997
42.81000 215.320
42.82000 211.793
42.83000 208.671
42.84000 205.572
42.85000 203.545
42.86000 211.114
42.87000 216.828
42.88000 217.860
42.89000 213.077
42.90000 208.289
42.91000 207.565
42.92000 210.125
42.93000 212.649
42.94000 211.873
42.95000 209.379
42.96000 206.970
42.97000 206.084
42.98000 205.764
42.99000 205.692
43.00000 208.020
43.01000 210.951
43.02000 213.513
43.03000 213.665
43.04000 213.455
43.05000 212.950
43.06000 211.298
43.07000 209.530
43.08000 206.343
43.09000 199.386
43.10000 192.226
43.11000 187.575
43.12000 197.149
43.13000 204.380
43.14000 209.012
43.15000 210.476
43.16000 211.928
43.17000 212.022
43.18000 211.040
43.19000 210.072
43.20000 205.556
43.21000 199.337
43.22000 193.342
43.23000 191.261
43.24000 190.609
43.25000 190.606
43.26000 196.742
43.27000 204.397
43.28000 211.067
43.29000 202.144
43.30000 192.361
43.31000 185.174
43.32000 187.966
43.33000 191.743
43.34000 195.514
43.35000 199.267
43.36000 203.018
43.37000 205.440
43.38000 195.226
43.39000 187.581
43.40000 184.405
43.41000 186.573
43.42000 188.754
43.43000 191.320
43.44000 194.188
43.45000 197.010
43.46000 200.487
43.47000 204.189
43.48000 207.501
43.49000 204.234
43.50000 198.609
43.51000 193.660
43.52000 194.949
43.53000 197.751
43.54000 200.187
43.55000 200.250
43.56000 199.983
43.57000 199.408
43.58000 197.669
43.59000 195.819
43.60000 195.345
43.61000 198.408
43.62000 201.650
43.63000 203.728
43.64000 201.837
43.65000 200.406
43.66000 199.578
43.67000 199.456
43.68000 199.344
43.69000 201.294
43.70000 204.819
43.71000 208.285
43.72000 210.756
43.73000 212.651
43.74000 214.184
43.75000 209.808
43.76000 203.350
43.77000 197.508
43.78000 197.216
43.79000 198.246
43.80000 199.139
43.81000 197.886
43.82000 196.536
43.83000 195.088
43.84000 193.275
43.85000 191.427
43.86000 190.417
43.87000 191.522
43.88000 192.730
43.89000 193.499
43.90000 197.799
43.91000 200.969
43.92000 201.920
43.93000 200.316
43.94000 198.720
43.95000 199.365
43.96000 201.689
43.97000 203.973
43.98000 202.161
43.99000 198.407
44.00000 194.862
44.01000 194.639
44.02000 195.566
44.03000 196.156
44.04000 193.783
44.05000 190.715
44.06000 188.066
44.07000 187.725
44.08000 187.733
44.09000 188.740
44.10000 193.382
44.11000 198.357
44.12000 202.366
44.13000 203.981
44.14000 205.484
44.15000 206.434
44.16000 200.758
44.17000 196.565
44.18000 195.657
44.19000 198.457
44.20000 201.249
44.21000 202.087
44.22000 201.486
44.23000 200.896
44.24000 201.462
44.25000 202.562
44.26000 203.695
44.27000 205.326
44.28000 207.128
44.29000 208.723
44.30000 208.531
44.31000 207.929
44.32000 207.411
44.33000 210.820
44.34000 214.204
44.35000 216.300
44.36000 213.788
44.37000 210.865
44.38000 209.767
44.39000 213.119
44.40000 216.673
44.41000 218.906
44.42000 208.150
44.43000 200.230
44.44000 200.123
44.45000 208.669
44.46000 217.193
44.47000 221.400
44.48000 222.487
44.49000 223.553
44.50000 222.796
44.51000 221.207
44.52000 219.760
44.53000 220.426
44.54000 221.800
44.55000 222.537
44.56000 217.926
44.57000 212.107
44.58000 207.113
44.59000 207.141
44.60000 207.784
44.61000 210.549
44.62000 220.778
44.63000 231.655
44.64000 239.489
44.65000 240.028
44.66000 240.248
44.67000 240.385
44.68000 241.965
44.69000 243.119
44.70000 241.065
44.71000 235.527
44.72000 230.009
44.73000 227.559
44.74000 227.286
44.75000 227.019
44.76000 230.053
44.77000 234.496
44.78000 238.761
44.79000 240.457
44.80000 241.307
44.81000 241.802
44.82000 239.369
44.83000 236.289
44.84000 233.653
44.85000 231.788
44.86000 230.309
44.87000 230.525
44.88000 236.604
44.89000 243.179
44.90000 245.845
44.91000 239.295
44.92000 232.358
44.93000 228.062
44.94000 229.210
44.95000 230.088
44.96000 230.503
44.97000 230.423
44.98000 230.342
44.99000 230.050
45.00000 229.610
45.01000 229.180
45.02000 227.959
45.03000 226.428
45.04000 225.170
45.05000 227.746
45.06000 231.562
45.07000 235.459
45.08000 240.001
45.09000 244.685
45.10000 248.680
45.11000 245.686
45.12000 242.344
45.13000 239.419
45.14000 237.913
45.15000 236.524
45.16000 235.488
45.17000 235.270
45.18000 235.085
45.19000 234.971
45.20000 233.886
45.21000 233.100
45.22000 231.110
45.23000 227.863
45.24000 224.652
45.25000 225.478
45.26000 229.069
45.27000 232.579
45.28000 233.879
45.29000 234.141
45.30000 233.994
45.31000 228.258
45.32000 220.747
45.33000 214.498
45.34000 218.162
45.35000 223.941
45.36000 228.853
45.37000 226.229
45.38000 223.160
45.39000 220.707
45.40000 220.316
45.41000 220.091
45.42000 219.889
45.43000 219.744
45.44000 219.602
45.45000 219.515
45.46000 216.500
45.47000 214.320
45.48000 210.852
45.49000 206.065
45.50000 201.300
45.51000 198.754
45.52000 197.702
45.53000 196.674
45.54000 201.483
45.55000 208.636
45.56000 215.309
45.57000 215.610
45.58000 213.922
45.59000 212.100
45.60000 209.258
45.61000 206.201
45.62000 203.610
45.63000 208.055
45.64000 212.568
45.65000 214.063
45.66000 205.665
45.67000 196.496
45.68000 189.801
45.69000 188.646
45.70000 187.697
45.71000 187.123
45.72000 197.683
45.73000 205.298
45.74000 204.870
45.75000 196.374
45.76000 187.926
45.77000 184.233
45.78000 183.679
45.79000 183.140
45.80000 182.645
45.81000 182.192
45.82000 181.796
45.83000 182.143
45.84000 182.717
45.85000 183.205
45.86000 183.044
45.87000 182.749
45.88000 182.500
45.89000 183.513
45.90000 184.498
45.91000 185.313
45.92000 185.585
45.93000 185.816
45.94000 183.787
45.95000 176.783
45.96000 169.601
45.97000 165.280
45.98000 171.867
45.99000 176.626
46.00000 181.008
46.01000 185.017
46.02000 188.997
46.03000 190.389
46.04000 190.103
46.05000 189.824
46.06000 191.642
46.07000 194.259
46.08000 196.146
46.09000 188.853
46.10000 178.793
46.11000 169.796
46.12000 168.622
46.13000 169.025
46.14000 169.364
46.15000 169.913
46.16000 170.394
46.17000 171.911
46.18000 176.709
46.19000 181.749
46.20000 183.992
46.21000 180.182
46.22000 176.166
46.23000 173.767
46.24000 171.633
46.25000 170.121
46.26000 171.365
46.27000 175.264
46.28000 179.133
46.29000 180.489
46.30000 180.246
46.31000 180.009
46.32000 175.347
46.33000 169.082
46.34000 163.443
46.35000 165.457
46.36000 169.738
46.37000 173.854
46.38000 176.776
46.39000 179.462
46.40000 181.716
46.41000 178.085
46.42000 174.450
46.43000 171.942
46.44000 172.942
46.45000 174.193
46.46000 176.424
46.47000 180.736
46.48000 185.118
46.49000 187.714
46.50000 183.589
46.51000 180.634
46.52000 179.822
46.53000 181.035
46.54000 182.202
46.55000 179.717
46.56000 174.946
46.57000 170.310
46.58000 169.675
46.59000 170.693
46.60000 171.603
46.61000 171.235
46.62000 170.494
46.63000 170.068
46.64000 171.860
46.65000 174.082
46.66000 175.939
46.67000 175.783
46.68000 175.448
46.69000 175.811
46.70000 178.304
46.71000 180.946
46.72000 180.820
46.73000 174.910
46.74000 168.817
46.75000 165.234
46.76000 172.559
46.77000 177.779
46.78000 180.185
46.79000 179.983
46.80000 179.784
46.81000 179.773
46.82000 179.877
46.83000 179.977
46.84000 180.159
46.85000 180.364
46.86000 180.626
46.87000 181.542
46.88000 182.646
46.89000 183.732
46.90000 184.698
46.91000 185.640
46.92000 186.425
46.93000 183.897
46.94000 181.472
46.95000 179.472
46.96000 178.744
46.97000 178.103
46.98000 176.660
46.99000 173.570
47.00000 170.430
47.01000 168.598
47.02000 173.068
47.03000 176.238
47.04000 174.576
47.05000 168.527
47.06000 162.533
47.07000 160.296
47.08000 160.328
47.09000 160.360
47.10000 166.709
47.11000 175.189
47.12000 182.681
47.13000 179.014
47.14000 172.212
47.15000 166.590
47.16000 168.935
47.17000 172.768
47.18000 175.950
47.19000 177.146
47.20000 177.942
47.21000 178.004
47.22000 175.898
47.23000 173.650
47.24000 171.240
47.25000 168.502
47.26000 165.755
47.27000 164.165
47.28000 171.872
47.29000 177.312
47.30000 178.788
47.31000 176.731
47.32000 174.706
47.33000 174.617
47.34000 175.679
47.35000 176.706
47.36000 177.168
47.37000 177.387
47.38000 177.371
47.39000 174.756
47.40000 171.425
47.41000 168.282
47.42000 166.383
47.43000 164.711
47.44000 163.329
47.45000 160.508
47.46000 158.046
47.47000 156.060
47.48000 155.461
47.49000 154.949
47.50000 156.395
47.51000 161.726
47.52000 167.163
47.53000 170.284
47.54000 171.016
47.55000 171.516
47.56000 169.870
47.57000 166.349
47.58000 162.850
47.59000 160.643
47.60000 159.190
47.61000 157.785
47.62000 158.626
47.63000 160.264
47.64000 161.814
47.65000 162.420
47.66000 162.771
47.67000 163.442
47.68000 166.186
47.69000 169.302
47.70000 171.870
47.71000 169.681
47.72000 167.441
47.73000 166.443
47.74000 168.986
47.75000 171.747
47.76000 173.716
47.77000 174.142
47.78000 174.527
47.79000 174.746
47.80000 165.401
47.81000 158.861
47.82000 156.764
47.83000 158.475
47.84000 160.228
47.85000 164.278
47.86000 169.643
47.87000 174.824
47.88000 172.812
47.89000 168.264
47.90000 164.056
47.91000 163.403
47.92000 163.697
47.93000 164.548
47.94000 168.929
47.95000 173.932
47.96000 178.040
47.97000 173.928
47.98000 169.815
47.99000 166.771
48.00000 166.724
48.01000 166.856
48.02000 164.710
48.03000 158.194
48.04000 151.571
48.05000 147.829
48.06000 151.092
48.07000 153.381
48.08000 156.335
48.09000 159.850
48.10000 163.332
48.11000 165.096
48.12000 165.893
48.13000 166.662
48.14000 162.771
48.15000 157.427
48.16000 152.658
48.17000 153.765
48.18000 156.410
48.19000 158.374
48.20000 156.110
48.21000 153.116
48.22000 150.667
48.23000 158.249
48.24000 165.337
48.25000 170.383
48.26000 169.799
48.27000 168.889
48.28000 166.404
48.29000 160.949
48.30000 155.424
48.31000 152.330
48.32000 158.281
48.33000 162.424
48.34000 164.760
48.35000 165.605
48.36000 166.400
48.37000 164.700
48.38000 161.619
48.39000 158.653
48.40000 159.761
48.41000 162.248
48.42000 164.268
48.43000 161.628
48.44000 157.791
48.45000 154.707
48.46000 156.211
48.47000 158.491
48.48000 160.349
48.49000 158.006
48.50000 155.734
48.51000 154.796
48.52000 157.478
48.53000 160.361
48.54000 162.520
48.55000 163.337
48.56000 164.123
48.57000 164.560
48.58000 160.502
48.59000 157.700
48.60000 159.184
48.61000 164.139
48.62000 168.925
48.63000 165.936
48.64000 158.715
48.65000 151.774
48.66000 152.109
48.67000 154.958
48.68000 157.682
48.69000 159.191
48.70000 160.394
48.71000 161.560
48.72000 162.503
48.73000 163.408
48.74000 164.143
48.75000 158.670
48.76000 153.692
48.77000 150.733
48.78000 153.153
48.79000 155.866
48.80000 158.704
48.81000 161.773
48.82000 164.847
48.83000 166.540
48.84000 165.232
48.85000 164.316
48.86000 160.373
48.87000 154.023
48.88000 147.878
48.89000 150.667
48.90000 158.234
48.91000 165.497
48.92000 165.591
48.93000 163.228
48.94000 161.126
48.95000 161.499
48.96000 162.485
48.97000 163.305
48.98000 163.153
48.99000 162.842
49.00000 162.590
49.01000 162.336
49.02000 162.130
49.03000 161.232
49.04000 158.527
49.05000 155.727
49.06000 154.400
49.07000 155.709
49.08000 157.070
49.09000 157.813
49.10000 165.120
49.11000 170.127
49.12000 169.701
49.13000 165.035
49.14000 160.383
49.15000 156.262
49.16000 152.420
49.17000 148.738
49.18000 150.638
49.19000 154.284
49.20000 157.813
49.21000 160.248
49.22000 162.417
49.23000 163.530
49.24000 158.589
49.25000 152.685
49.26000 147.927
49.27000 149.699
49.28000 151.650
49.29000 153.460
49.30000 154.908
49.31000 156.338
49.32000 157.945
49.33000 159.865
49.34000 161.791
49.35000 162.832
49.36000 162.944
49.37000 163.011
49.38000 161.088
49.39000 157.640
49.40000 154.257
49.41000 153.397
49.42000 153.841
49.43000 154.265
49.44000 152.402
49.45000 149.914
49.46000 148.002
49.47000 151.299
49.48000 155.842
49.49000 159.592
49.50000 158.884
49.51000 157.482
49.52000 156.356
49.53000 155.855
49.54000 155.497
49.55000 155.483
49.56000 156.339
49.57000 157.237
49.58000 156.851
49.59000 154.244
49.60000 151.598
49.61000 150.179
49.62000 148.435
49.63000 147.243
49.64000 145.908
49.65000 144.465
49.66000 143.142
49.67000 146.342
49.68000 151.838
49.69000 157.090
49.70000 157.168
49.71000 155.569
49.72000 154.039
49.73000 153.114
49.74000 152.332
49.75000 151.170
49.76000 147.920
49.77000 144.351
49.78000 141.498
49.79000 148.295
49.80000 154.505
49.81000 158.258
49.82000 155.897
49.83000 153.247
49.84000 152.076
49.85000 153.415
49.86000 154.796
49.87000 155.529
49.88000 154.198
49.89000 153.294
49.90000 152.928
49.91000 152.959
49.92000 153.005
49.93000 153.555
49.94000 154.357
49.95000 155.123
49.96000 154.637
49.97000 153.791
49.98000 153.287
49.99000 155.743
50.00000 158.880
50.01000 161.430
50.02000 160.805
50.03000 159.705
50.04000 158.830
50.05000 156.622
50.06000 154.745
50.07000 153.772
50.08000 155.009
50.09000 156.347
50.10000 157.079
50.11000 156.799
50.12000 156.504
50.13000 156.349
50.14000 154.665
50.15000 153.534
50.16000 154.192
50.17000 156.146
50.18000 158.105
50.19000 160.216
50.20000 162.401
50.21000 164.482
50.22000 161.034
50.23000 156.121
50.24000 151.835
50.25000 152.843
50.26000 155.048
50.27000 157.172
50.28000 158.866
50.29000 160.496
50.30000 161.789
50.31000 159.149
50.32000 156.750
50.33000 156.455
50.34000 161.218
50.35000 166.203
50.36000 168.504
50.37000 166.404
50.38000 164.241
50.39000 163.113
50.40000 168.586
50.41000 172.257
50.42000 171.325
50.43000 167.118
50.44000 163.059
50.45000 163.816
50.46000 166.895
50.47000 169.824
50.48000 166.931
50.49000 162.482
50.50000 158.562
50.51000 159.002
50.52000 160.411
50.53000 161.833
50.54000 163.327
50.55000 164.831
50.56000 166.018
50.57000 163.328
50.58000 160.903
50.59000 160.198
50.60000 163.556
50.61000 167.084
50.62000 167.538
50.63000 163.038
50.64000 158.472
50.65000 156.114
50.66000 159.020
50.67000 160.967
50.68000 161.240
50.69000 160.342
50.70000 159.509
50.71000 160.690
50.72000 162.826
50.73000 164.853
50.74000 161.751
50.75000 157.354
50.76000 153.862
50.77000 157.660
50.78000 163.047
50.79000 167.906
50.80000 170.073
50.81000 171.862
50.82000 173.269
50.83000 165.328
50.84000 158.350
50.85000 154.521
50.86000 158.009
50.87000 161.794
50.88000 164.434
50.89000 165.264
50.90000 166.072
50.91000 166.485
50.92000 166.330
50.93000 166.196
50.94000 162.471
50.95000 156.282
50.96000 150.223
50.97000 148.047
50.98000 147.680
50.99000 147.333
51.00000 147.320
51.01000 147.406
51.02000 147.490
51.03000 147.556
51.04000 147.618
51.05000 147.585
51.06000 147.074
51.07000 146.497
51.08000 146.046
51.09000 144.504
51.10000 143.203
51.11000 144.431
51.12000 151.435
51.13000 158.665
51.14000 162.190
51.15000 159.957
51.16000 157.657
51.17000 156.492
51.18000 150.235
51.19000 146.102
51.20000 147.933
51.21000 153.786
51.22000 159.374
51.23000 157.438
51.24000 152.056
51.25000 146.965
51.26000 141.643
51.27000 136.684
51.28000 132.707
51.29000 136.303
51.30000 141.488
51.31000 145.631
51.32000 144.656
51.33000 142.992
51.34000 141.695
51.35000 143.888
51.36000 145.854
51.37000 147.312
51.38000 147.632
51.39000 147.910
51.40000 147.852
51.41000 147.284
51.42000 146.711
51.43000 146.423
51.44000 146.680
51.45000 146.852
51.46000 147.061
51.47000 147.294
51.48000 147.494
51.49000 146.763
51.50000 145.614
51.51000 144.529
51.52000 144.523
51.53000 144.821
51.54000 145.054
51.55000 144.795
51.56000 144.434
51.57000 143.216
51.58000 137.871
51.59000 131.983
51.60000 127.410
51.61000 134.444
51.62000 140.740
51.63000 145.482
51.64000 146.797
51.65000 147.988
51.66000 148.650
51.67000 148.519
51.68000 148.381
51.69000 148.414
51.70000 148.615
51.71000 148.804
51.72000 147.838
51.73000 146.122
51.74000 144.483
51.75000 144.869
51.76000 146.152
51.77000 147.361
51.78000 146.650
51.79000 145.467
51.80000 144.668
51.81000 146.696
51.82000 149.295
51.83000 150.810
51.84000 147.200
51.85000 142.931
51.86000 139.630
51.87000 138.932
51.88000 138.532
51.89000 139.186
51.90000 142.124
51.91000 145.142
51.92000 145.426
51.93000 141.684
51.94000 137.905
51.95000 136.321
51.96000 136.857
51.97000 137.423
51.98000 140.509
51.99000 145.207
52.00000 149.724
52.01000 149.707
52.02000 147.719
52.03000 145.847
52.04000 145.885
52.05000 146.438
52.06000 146.576
52.07000 143.719
52.08000 140.268
52.09000 137.619
52.10000 138.693
52.11000 140.234
52.12000 141.421
52.13000 142.803
52.14000 143.908
52.15000 144.562
52.16000 144.252
52.17000 143.910
52.18000 141.955
52.19000 137.668
52.20000 133.362
52.21000 133.425
52.22000 137.627
52.23000 141.810
52.24000 144.602
52.25000 146.519
52.26000 148.369
52.27000 148.565
52.28000 148.054
52.29000 147.574
52.30000 145.959
52.31000 144.183
52.32000 142.867
52.33000 144.794
52.34000 147.353
52.35000 149.434
52.36000 149.338
52.37000 148.974
52.38000 148.694
52.39000 145.458
52.40000 142.740
52.41000 140.900
52.42000 140.902
52.43000 140.963
52.44000 140.315
52.45000 138.659
52.46000 136.997
52.47000 139.063
52.48000 144.592
52.49000 150.026
52.50000 148.643
52.51000 143.057
52.52000 137.700
52.53000 137.708
52.54000 139.970
52.55000 142.092
52.56000 143.051
52.57000 143.621
52.58000 143.601
52.59000 139.493
52.60000 134.606
52.61000 131.446
52.62000 136.007
52.63000 141.495
52.64000 145.682
52.65000 139.496
52.66000 134.067
52.67000 133.135
52.68000 141.465
52.69000 150.075
52.70000 154.293
52.71000 152.381
52.72000 150.429
52.73000 150.234
52.74000 151.636
52.75000 152.965
52.76000 149.264
52.77000 142.518
52.78000 136.002
52.79000 134.666
52.80000 135.471
52.81000 136.224
52.82000 141.433
52.83000 147.306
52.84000 151.771
52.85000 146.703
52.86000 139.851
52.87000 135.080
52.88000 139.449
52.89000 144.891
52.90000 149.023
52.91000 143.720
52.92000 139.064
52.93000 136.837
52.94000 139.531
52.95000 142.366
52.96000 144.597
52.97000 145.997
52.98000 147.393
52.99000 146.979
53.00000 144.951
53.01000 142.903
53.02000 139.578
53.03000 135.493
53.04000 131.678
53.05000 133.728
53.06000 138.160
53.07000 142.299
53.08000 142.693
53.09000 142.111
53.10000 141.874
53.11000 143.927
53.12000 146.400
53.13000 148.706
53.14000 150.287
53.15000 151.785
53.16000 152.918
53.17000 147.254
53.18000 142.473
53.19000 140.877
53.20000 145.622
53.21000 150.542
53.22000 152.380
53.23000 150.074
53.24000 147.748
53.25000 145.955
53.26000 144.631
53.27000 143.389
53.28000 147.005
53.29000 153.462
53.30000 159.567
53.31000 158.305
53.32000 154.101
53.33000 150.183
53.34000 149.897
53.35000 150.531
53.36000 151.189
53.37000 152.002
53.38000 152.843
53.39000 153.446
53.40000 153.043
53.41000 152.527
53.42000 152.139
53.43000 151.215
53.44000 150.466
53.45000 151.980
53.46000 157.923
53.47000 163.981
53.48000 166.477
53.49000 164.270
53.50000 162.042
53.51000 158.155
53.52000 152.851
53.53000 147.639
53.54000 147.523
53.55000 150.335
53.56000 153.029
53.57000 153.343
53.58000 152.723
53.59000 152.146
53.60000 150.536
53.61000 148.833
53.62000 147.045
53.63000 144.718
53.64000 142.295
53.65000 140.710
53.66000 142.604
53.67000 144.879
53.68000 146.583
53.69000 143.355
53.70000 140.605
53.71000 138.137
53.72000 136.213
53.73000 134.302
53.74000 133.232
53.75000 133.254
53.76000 133.280
53.77000 134.644
53.78000 137.132
53.79000 139.595
53.80000 140.812
53.81000 141.325
53.82000 141.820
53.83000 141.968
53.84000 141.982
53.85000 141.996
53.86000 140.975
53.87000 139.810
53.88000 138.978
53.89000 140.215
53.90000 141.811
53.91000 144.500
53.92000 151.647
53.93000 159.271
53.94000 164.952
53.95000 156.253
53.96000 148.831
53.97000 142.759
53.98000 139.243
53.99000 135.787
54.00000 135.607
54.01000 139.596
54.02000 143.594
54.03000 143.109
54.04000 138.925
54.05000 134.833
54.06000 135.231
54.07000 138.120
54.08000 140.851
54.09000 140.590
54.10000 139.195
54.11000 137.902
54.12000 140.755
54.13000 144.283
54.14000 147.213
54.15000 146.494
54.16000 145.155
54.17000 143.415
54.18000 140.065
54.19000 136.546
54.20000 133.937
54.21000 140.195
54.22000 145.444
54.23000 149.293
54.24000 150.543
54.25000 151.735
54.26000 152.137
54.27000 151.552
54.28000 150.964
54.29000 147.813
54.30000 142.600
54.31000 137.481
54.32000 136.788
54.33000 138.507
54.34000 139.969
54.35000 136.734
54.36000 131.747
54.37000 127.137
54.38000 131.045
54.39000 136.489
54.40000 141.114
54.41000 140.848
54.42000 139.768
54.43000 139.399
54.44000 141.825
54.45000 144.536
54.46000 146.536
54.47000 145.788
54.48000 145.093
54.49000 145.653
54.50000 148.508
54.51000 151.411
54.52000 150.257
54.53000 144.129
54.54000 138.000
54.55000 140.147
54.56000 148.851
54.57000 157.297
54.58000 154.343
54.59000 145.277
54.60000 136.789
54.61000 138.486
54.62000 143.915
54.63000 148.924
54.64000 148.348
54.65000 146.590
54.66000 144.968
54.67000 144.148
54.68000 143.459
54.69000 142.995
54.70000 143.401
54.71000 143.895
54.72000 144.257
54.73000 146.970
54.74000 149.162
54.75000 150.823
54.76000 151.530
54.77000 152.218
54.78000 151.926
54.79000 150.457
54.80000 148.988
54.81000 149.502
54.82000 151.556
54.83000 153.513
54.84000 151.399
54.85000 147.140
54.86000 142.973
54.87000 140.392
54.88000 138.381
54.89000 136.531
54.90000 135.524
54.91000 134.808
54.92000 134.870
54.93000 139.408
54.94000 144.660
54.95000 148.654
54.96000 147.870
54.97000 146.624
54.98000 145.713
54.99000 146.907
55.00000 147.910
55.01000 149.547
55.02000 152.303
55.03000 155.079
55.04000 154.752
55.05000 150.761
55.06000 146.773
55.07000 147.599
55.08000 152.094
55.09000 156.508
55.10000 157.702
55.11000 157.229
55.12000 156.828
55.13000 157.626
55.14000 158.849
55.15000 159.973
55.16000 163.264
55.17000 166.665
55.18000 168.806
55.19000 163.851
55.20000 157.787
55.21000 153.124
55.22000 153.691
55.23000 154.751
55.24000 155.523
55.25000 163.434
55.26000 169.790
55.27000 172.050
55.28000 167.214
55.29000 162.252
55.30000 160.228
55.31000 161.605
55.32000 162.983
55.33000 166.226
55.34000 170.843
55.35000 175.433
55.36000 179.043
55.37000 182.155
55.38000 184.975
55.39000 183.126
55.40000 179.651
55.41000 176.467
55.42000 181.606
55.43000 187.927
55.44000 193.798
55.45000 197.189
55.46000 200.199
55.47000 204.322
55.48000 212.517
55.49000 221.088
55.50000 227.286
55.51000 223.622
55.52000 220.452
55.53000 219.042
55.54000 220.629
55.55000 222.265
55.56000 223.970
55.57000 225.752
55.58000 227.529
55.59000 231.280
55.60000 236.454
55.61000 241.844
55.62000 255.046
55.63000 272.157
55.64000 288.662
55.65000 295.779
55.66000 299.682
55.67000 303.251
55.68000 309.592
55.69000 315.795
55.70000 322.114
55.71000 329.064
55.72000 336.107
55.73000 343.795
55.74000 353.801
55.75000 364.016
55.76000 371.364
55.77000 396.432
55.78000 416.242
55.79000 429.186
55.80000 430.646
55.81000 431.926
55.82000 429.995
55.83000 424.488
55.84000 418.998
55.85000 418.833
55.86000 422.506
55.87000 426.350
55.88000 436.030
55.89000 448.581
55.90000 460.773
55.91000 467.552
55.92000 472.510
55.93000 477.033
55.94000 474.702
55.95000 471.257
55.96000 466.578
55.97000 455.335
55.98000 443.129
55.99000 435.973
56.00000 446.672
56.01000 458.934
56.02000 467.708
56.03000 449.198
56.04000 434.145
56.05000 422.488
56.06000 416.413
56.07000 410.419
56.08000 401.296
56.09000 388.755
56.10000 376.262
56.11000 367.076
56.12000 360.313
56.13000 353.544
56.14000 346.573
56.15000 339.505
56.16000 332.210
56.17000 321.605
56.18000 309.907
56.19000 299.262
56.20000 290.114
56.21000 282.315
56.22000 275.238
56.23000 271.928
56.24000 269.159
56.25000 266.500
56.26000 264.218
56.27000 261.967
56.28000 260.366
56.29000 243.861
56.30000 230.807
56.31000 222.532
56.32000 221.976
56.33000 221.525
56.34000 216.831
56.35000 207.591
56.36000 198.391
56.37000 191.730
56.38000 186.898
56.39000 182.077
56.40000 177.573
56.41000 173.218
56.42000 169.120
56.43000 168.653
56.44000 169.367
56.45000 170.015
56.46000 173.549
56.47000 177.226
56.48000 179.270
56.49000 172.959
56.50000 165.471
56.51000 159.365
56.52000 157.971
56.53000 156.969
56.54000 156.260
56.55000 155.411
56.56000 154.762
56.57000 153.950
56.58000 152.879
56.59000 151.805
56.60000 150.170
56.61000 147.946
56.62000 145.733
56.63000 145.828
56.64000 147.491
56.65000 149.092
56.66000 148.825
56.67000 147.686
56.68000 146.893
56.69000 150.871
56.70000 156.373
56.71000 161.356
56.72000 155.103
56.73000 147.469
56.74000 140.630
56.75000 137.780
56.76000 135.479
56.77000 134.403
56.78000 137.430
56.79000 140.789
56.80000 143.153
56.81000 142.529
56.82000 141.966
56.83000 141.732
56.84000 142.012
56.85000 142.298
56.86000 142.116
56.87000 141.451
56.88000 140.790
56.89000 138.082
56.90000 134.042
56.91000 130.275
56.92000 134.352
56.93000 142.030
56.94000 148.991
56.95000 146.324
56.96000 140.637
56.97000 135.499
56.98000 130.531
56.99000 126.194
57.00000 122.926
57.01000 124.921
57.02000 127.626
57.03000 130.561
57.04000 134.258
57.05000 138.014
57.06000 140.644
57.07000 142.604
57.08000 144.067
57.09000 142.074
57.10000 134.789
57.11000 127.447
57.12000 126.273
57.13000 131.325
57.14000 136.346
57.15000 138.663
57.16000 139.178
57.17000 139.668
57.18000 139.445
57.19000 138.901
57.20000 138.353
57.21000 137.752
57.22000 137.134
57.23000 136.577
57.24000 130.536
57.25000 124.240
57.26000 118.901
57.27000 118.181
57.28000 118.071
57.29000 118.777
57.30000 122.122
57.31000 125.670
57.32000 128.140
57.33000 124.583
57.34000 121.736
57.35000 118.820
57.36000 115.801
57.37000 112.781
57.38000 114.214
57.39000 120.052
57.40000 125.853
57.41000 128.061
57.42000 127.930
57.43000 127.798
57.44000 127.638
57.45000 127.464
57.46000 127.341
57.47000 127.862
57.48000 128.577
57.49000 129.220
57.50000 130.731
57.51000 132.210
57.52000 132.978
57.53000 130.383
57.54000 127.354
57.55000 125.884
57.56000 129.378
57.57000 133.240
57.58000 135.914
57.59000 132.286
57.60000 129.392
57.61000 129.208
57.62000 133.027
57.63000 136.883
57.64000 139.012
57.65000 139.465
57.66000 139.915
57.67000 137.074
57.68000 132.204
57.69000 127.544
57.70000 128.221
57.71000 131.225
57.72000 133.953
57.73000 133.275
57.74000 131.584
57.75000 130.067
57.76000 128.822
57.77000 127.782
57.78000 126.590
57.79000 124.695
57.80000 122.712
57.81000 121.479
57.82000 122.591
57.83000 123.873
57.84000 124.755
57.85000 123.997
57.86000 123.387
57.87000 123.645
57.88000 125.160
57.89000 126.687
57.90000 129.089
57.91000 132.323
57.92000 135.532
57.93000 137.386
57.94000 138.370
57.95000 139.270
57.96000 138.112
57.97000 136.074
57.98000 134.040
57.99000 132.074
58.00000 130.127
58.01000 128.386
58.02000 126.537
58.03000 124.907
58.04000 124.116
58.05000 127.159
58.06000 130.676
58.07000 132.602
58.08000 129.641
58.09000 126.337
58.10000 124.076
58.11000 122.555
58.12000 121.434
58.13000 121.210
58.14000 122.263
58.15000 123.326
58.16000 124.464
58.17000 125.672
58.18000 126.869
58.19000 124.448
58.20000 119.874
58.21000 115.521
58.22000 116.329
58.23000 119.313
58.24000 122.398
58.25000 126.672
58.26000 131.288
58.27000 135.406
58.28000 133.397
58.29000 130.629
58.30000 128.423
58.31000 128.733
58.32000 129.347
58.33000 129.326
58.34000 127.387
58.35000 125.317
58.36000 123.909
58.37000 123.647
58.38000 123.478
58.39000 123.430
58.40000 123.553
58.41000 123.676
58.42000 122.330
58.43000 119.641
58.44000 116.977
58.45000 117.935
58.46000 121.032
58.47000 124.082
58.48000 126.090
58.49000 127.667
58.50000 129.104
58.51000 128.961
58.52000 128.372
58.53000 127.848
58.54000 124.268
58.55000 120.661
58.56000 118.319
58.57000 121.536
58.58000 125.409
58.59000 128.568
58.60000 129.611
58.61000 130.514
58.62000 131.124
58.63000 126.372
58.64000 122.716
58.65000 121.640
58.66000 124.109
58.67000 126.597
58.68000 125.965
58.69000 122.536
58.70000 119.141
58.71000 118.689
58.72000 119.964
58.73000 121.165
58.74000 120.728
58.75000 119.623
58.76000 118.690
58.77000 119.665
58.78000 121.169
58.79000 122.503
58.80000 122.523
58.81000 122.330
58.82000 121.427
58.83000 117.455
58.84000 113.130
58.85000 112.052
58.86000 120.450
58.87000 129.456
58.88000 135.510
58.89000 128.735
58.90000 123.438
58.91000 119.507
58.92000 117.416
58.93000 115.337
58.94000 114.686
58.95000 115.291
58.96000 115.890
58.97000 118.498
58.98000 122.201
58.99000 125.710
59.00000 125.164
59.01000 122.995
59.02000 121.085
59.03000 121.978
59.04000 123.636
59.05000 125.103
59.06000 124.740
59.07000 124.141
59.08000 123.958
59.09000 125.540
59.10000 127.321
59.11000 127.744
59.12000 124.272
59.13000 120.558
59.14000 118.077
59.15000 119.373
59.16000 120.408
59.17000 121.568
59.18000 122.894
59.19000 124.221
59.20000 125.009
59.21000 125.334
59.22000 125.655
59.23000 124.303
59.24000 122.040
59.25000 119.942
59.26000 121.190
59.27000 123.756
59.28000 125.951
59.29000 124.233
59.30000 121.468
59.31000 119.028
59.32000 114.752
59.33000 110.783
59.34000 107.907
59.35000 109.585
59.36000 111.764
59.37000 114.134
59.38000 117.047
59.39000 119.992
59.40000 121.948
59.41000 120.285
59.42000 118.988
59.43000 119.069
59.44000 120.938
59.45000 122.812
59.46000 122.687
59.47000 120.871
59.48000 119.078
59.49000 121.366
59.50000 125.851
59.51000 129.885
59.52000 125.094
59.53000 116.889
59.54000 109.547
59.55000 111.087
59.56000 114.963
59.57000 118.374
59.58000 120.457
59.59000 122.051
59.60000 123.899
59.61000 126.780
59.62000 129.773
59.63000 130.190
59.64000 123.473
59.65000 116.340
59.66000 111.633
59.67000 117.666
59.68000 122.303
59.69000 122.988
59.70000 118.632
59.71000 114.268
59.72000 114.216
59.73000 117.743
59.74000 121.226
59.75000 120.955
59.76000 118.658
59.77000 116.606
59.78000 119.206
59.79000 123.576
59.80000 127.457
59.81000 126.446
59.82000 124.170
59.83000 122.172
59.84000 120.445
59.85000 119.000
59.86000 117.628
59.87000 116.549
59.88000 115.500
59.89000 114.381
59.90000 113.071
59.91000 111.749
59.92000 110.883
59.93000 116.060
59.94000 119.967
59.95000 121.406
59.96000 119.755
59.97000 118.099
59.98000 117.668
59.99000 118.235
60.00000 118.795
60.01000 117.631
60.02000 115.582
60.03000 113.589
60.04000 112.623
60.05000 112.040
60.06000 111.709
60.07000 113.844
60.08000 116.604
60.09000 119.019
60.10000 117.011
60.11000 114.658
60.12000 113.464
60.13000 116.845
60.14000 120.694
60.15000 123.296
60.16000 122.563
60.17000 121.648
60.18000 121.052
60.19000 123.573
60.20000 125.471
60.21000 124.127
60.22000 118.797
60.23000 113.472
60.24000 113.057
60.25000 116.565
60.26000 120.022
60.27000 120.656
60.28000 119.798
60.29000 118.946
60.30000 118.187
60.31000 117.462
60.32000 116.680
60.33000 115.359
60.34000 113.903
60.35000 112.632
60.36000 114.164
60.37000 115.867
60.38000 117.396
60.39000 118.256
60.40000 119.050
60.41000 119.929
60.42000 121.033
60.43000 122.150
60.44000 122.873
60.45000 123.493
60.46000 123.944
60.47000 122.726
60.48000 119.494
60.49000 116.274
60.50000 117.438
60.51000 122.041
60.52000 126.574
60.53000 125.404
60.54000 121.348
60.55000 117.471
60.56000 116.650
60.57000 116.932
60.58000 117.226
60.59000 117.627
60.60000 118.054
60.61000 118.426
60.62000 115.921
60.63000 113.391
60.64000 111.017
60.65000 109.237
60.66000 107.515
60.67000 107.973
60.68000 114.072
60.69000 120.459
60.70000 124.566
60.71000 124.857
60.72000 125.016
60.73000 127.279
60.74000 132.031
60.75000 136.773
60.76000 137.996
60.77000 136.511
60.78000 135.050
60.79000 131.602
60.80000 127.266
60.81000 123.351
60.82000 126.424
60.83000 131.977
60.84000 136.628
60.85000 133.059
60.86000 127.514
60.87000 122.705
60.88000 121.353
60.89000 120.665
60.90000 119.759
60.91000 118.044
60.92000 116.252
60.93000 116.175
60.94000 120.462
60.95000 124.965
60.96000 127.841
60.97000 126.824
60.98000 126.034
60.99000 125.786
61.00000 126.167
61.01000 126.554
61.02000 127.712
61.03000 129.455
61.04000 131.167
61.05000 130.715
61.06000 129.209
61.07000 127.843
61.08000 128.723
61.09000 130.386
61.10000 131.403
61.11000 126.669
61.12000 120.579
61.13000 115.313
61.14000 119.492
61.15000 124.276
61.16000 127.759
61.17000 126.466
61.18000 124.731
61.19000 124.428
61.20000 127.702
61.21000 131.148
61.22000 133.333
61.23000 130.906
61.24000 129.087
61.25000 129.855
61.26000 133.567
61.27000 137.270
61.28000 138.823
61.29000 138.780
61.30000 138.739
61.31000 133.670
61.32000 126.345
61.33000 119.589
61.34000 121.724
61.35000 126.908
61.36000 131.739
61.37000 133.510
61.38000 134.572
61.39000 135.488
61.40000 137.037
61.41000 138.432
61.42000 139.032
61.43000 136.768
61.44000 134.246
61.45000 132.843
61.46000 134.191
61.47000 135.665
61.48000 136.594
61.49000 145.282
61.50000 151.659
61.51000 157.869
61.52000 163.892
61.53000 169.940
61.54000 180.363
61.55000 193.972
61.56000 207.322
61.57000 220.015
61.58000 231.933
61.59000 243.581
61.60000 251.129
61.61000 257.295
61.62000 263.540
61.63000 270.444
61.64000 277.499
61.65000 283.563
61.66000 290.077
61.67000 295.646
61.68000 298.692
61.69000 292.799
61.70000 286.121
61.71000 282.000
61.72000 284.058
61.73000 286.389
61.74000 287.847
61.75000 278.271
61.76000 271.240
61.77000 259.252
61.78000 241.832
61.79000 224.398
61.80000 205.331
61.81000 185.094
61.82000 165.263
61.83000 157.486
61.84000 155.622
61.85000 153.669
61.86000 150.394
61.87000 146.681
61.88000 142.895
61.89000 138.499
61.90000 133.968
61.91000 130.085
61.92000 136.872
61.93000 143.901
61.94000 148.224
61.95000 143.122
61.96000 137.213
61.97000 133.142
61.98000 133.437
61.99000 133.917
62.00000 134.216
62.01000 131.567
62.02000 129.630
62.03000 128.226
62.04000 127.393
62.05000 126.598
62.06000 130.929
62.07000 138.860
62.08000 146.625
62.09000 146.188
62.10000 142.016
62.11000 137.855
62.12000 133.834
62.13000 129.860
62.14000 126.292
62.15000 126.028
62.16000 126.487
62.17000 126.879
62.18000 124.815
62.19000 122.784
62.20000 121.765
62.21000 124.209
62.22000 126.941
62.23000 128.202
62.24000 126.031
62.25000 123.719
62.26000 122.293
62.27000 126.354
62.28000 129.320
62.29000 127.387
62.30000 120.295
62.31000 113.285
62.32000 116.229
62.33000 126.042
62.34000 135.637
62.35000 138.036
62.36000 137.106
62.37000 136.233
62.38000 136.172
62.39000 136.369
62.40000 136.333
62.41000 134.441
62.42000 132.150
62.43000 130.199
62.44000 131.512
62.45000 132.995
62.46000 135.143
62.47000 139.525
62.48000 144.088
62.49000 145.226
62.50000 138.505
62.51000 131.473
62.52000 127.166
62.53000 123.397
62.54000 120.703
62.55000 120.364
62.56000 122.455
62.57000 124.557
62.58000 127.797
62.59000 131.807
62.60000 135.724
62.61000 134.462
62.62000 130.971
62.63000 128.008
62.64000 132.161
62.65000 138.552
62.66000 143.598
62.67000 138.216
62.68000 130.632
62.69000 124.196
62.70000 125.650
62.71000 127.763
62.72000 129.090
62.73000 127.819
62.74000 126.342
62.75000 125.425
62.76000 125.771
62.77000 126.165
62.78000 126.404
62.79000 131.687
62.80000 135.499
62.81000 135.160
62.82000 130.621
62.83000 126.121
62.84000 125.622
62.85000 127.785
62.86000 129.896
62.87000 129.937
62.88000 129.082
62.89000 128.400
62.90000 129.979
62.91000 132.256
62.92000 133.828
62.93000 130.040
62.94000 125.143
62.95000 121.001
62.96000 126.607
62.97000 132.377
62.98000 135.910
62.99000 132.179
63.00000 127.891
63.01000 125.981
63.02000 129.343
63.03000 132.896
63.04000 135.042
63.05000 136.263
63.06000 137.126
63.07000 138.931
63.08000 141.672
63.09000 144.355
63.10000 141.764
63.11000 135.723
63.12000 129.835
63.13000 133.923
63.14000 142.056
63.15000 149.633
63.16000 150.128
63.17000 148.472
63.18000 146.806
63.19000 145.068
63.20000 143.314
63.21000 141.835
63.22000 143.973
63.23000 146.149
63.24000 146.587
63.25000 141.482
63.26000 135.963
63.27000 131.972
63.28000 131.308
63.29000 130.761
63.30000 130.434
63.31000 130.008
63.32000 129.705
63.33000 130.901
63.34000 133.555
63.35000 136.170
63.36000 135.481
63.37000 132.669
63.38000 129.931
63.39000 133.100
63.40000 138.578
63.41000 143.790
63.42000 145.693
63.43000 146.608
63.44000 147.011
63.45000 143.689
63.46000 139.624
63.47000 136.209
63.48000 136.257
63.49000 136.662
63.50000 137.423
63.51000 139.298
63.52000 141.253
63.53000 141.455
63.54000 137.899
63.55000 134.216
63.56000 132.027
63.57000 135.121
63.58000 137.343
63.59000 138.446
63.60000 138.481
63.61000 138.509
63.62000 137.923
63.63000 136.949
63.64000 136.003
63.65000 134.787
63.66000 133.520
63.67000 132.528
63.68000 134.856
63.69000 138.158
63.70000 141.373
63.71000 143.976
63.72000 146.458
63.73000 148.536
63.74000 141.965
63.75000 135.613
63.76000 131.355
63.77000 133.549
63.78000 136.198
63.79000 138.468
63.80000 139.941
63.81000 141.387
63.82000 142.241
63.83000 138.430
63.84000 135.714
63.85000 133.481
63.86000 131.698
63.87000 129.979
63.88000 132.981
63.89000 138.909
63.90000 144.665
63.91000 146.547
63.92000 146.780
63.93000 147.141
63.94000 149.004
63.95000 151.300
63.96000 153.006
63.97000 150.608
63.98000 147.422
63.99000 144.764
64.00000 148.192
64.01000 151.647
64.02000 154.073
64.03000 153.385
64.04000 152.484
64.05000 150.532
64.06000 146.406
64.07000 142.213
64.08000 139.758
64.09000 147.429
64.10000 152.876
64.11000 152.478
64.12000 146.724
64.13000 141.042
64.14000 140.225
64.15000 142.372
64.16000 144.454
64.17000 147.420
64.18000 150.578
64.19000 153.321
64.20000 151.319
64.21000 147.974
64.22000 144.891
64.23000 143.601
64.24000 142.647
64.25000 141.855
64.26000 147.182
64.27000 152.190
64.28000 154.862
64.29000 150.585
64.30000 145.846
64.31000 143.061
64.32000 144.252
64.33000 145.560
64.34000 146.319
64.35000 156.518
64.36000 163.716
64.37000 165.362
64.38000 162.018
64.39000 158.711
64.40000 157.718
64.41000 158.111
64.42000 158.492
64.43000 156.424
64.44000 153.522
64.45000 151.197
64.46000 155.292
64.47000 161.172
64.48000 165.815
64.49000 162.205
64.50000 157.070
64.51000 152.816
64.52000 156.848
64.53000 160.968
64.54000 164.069
64.55000 164.187
64.56000 164.112
64.57000 163.777
64.58000 162.921
64.59000 162.050
64.60000 161.548
64.61000 165.591
64.62000 168.438
64.63000 169.864
64.64000 170.040
64.65000 170.231
64.66000 171.409
64.67000 173.166
64.68000 174.866
64.69000 172.579
64.70000 168.909
64.71000 165.529
64.72000 165.313
64.73000 165.961
64.74000 166.880
64.75000 169.573
64.76000 172.588
64.77000 175.077
64.78000 173.583
64.79000 171.983
64.80000 171.361
64.81000 173.555
64.82000 175.924
64.83000 178.252
64.84000 180.499
64.85000 182.743
64.86000 184.026
64.87000 182.295
64.88000 181.082
64.89000 183.221
64.90000 188.260
64.91000 193.186
64.92000 191.777
64.93000 186.708
64.94000 181.812
64.95000 181.132
64.96000 182.059
64.97000 183.151
64.98000 185.999
64.99000 189.317
65.00000 191.793
65.01000 188.880
65.02000 185.010
65.03000 181.827
65.04000 185.449
65.05000 189.044
65.06000 192.746
65.07000 196.751
65.08000 200.775
65.09000 202.103
65.10000 198.218
65.11000 194.202
65.12000 191.925
65.13000 199.482
65.14000 204.769
65.15000 208.342
65.16000 210.462
65.17000 212.527
65.18000 211.678
65.19000 209.175
65.20000 206.760
65.21000 207.948
65.22000 210.380
65.23000 212.653
65.24000 213.278
65.25000 213.467
65.26000 214.316
65.27000 219.293
65.28000 224.990
65.29000 229.658
65.30000 228.685
65.31000 227.387
65.32000 226.524
65.33000 226.867
65.34000 227.280
65.35000 228.791
65.36000 232.386
65.37000 236.031
65.38000 238.080
65.39000 253.687
65.40000 264.536
65.41000 267.701
65.42000 264.472
65.43000 261.331
65.44000 262.579
65.45000 266.277
65.46000 269.839
65.47000 277.844
65.48000 286.953
65.49000 295.446
65.50000 297.726
65.51000 298.398
65.52000 299.520
65.53000 303.413
65.54000 307.779
65.55000 311.344
65.56000 314.089
65.57000 316.265
65.58000 324.725
65.59000 350.343
65.60000 376.936
65.61000 397.119
65.62000 405.335
65.63000 413.279
65.64000 417.707
65.65000 466.080
65.66000 499.669
65.67000 543.294
65.68000 595.115
65.69000 647.810
65.70000 741.844
65.71000 858.541
65.72000 970.799
65.73000 1084.578
65.74000 1191.792
65.75000 1299.419
65.76000 1411.097
65.77000 1523.805
65.78000 1630.214
65.79000 1698.697
65.80000 1760.838
65.81000 1811.386
65.82000 1841.745
65.83000 1864.839
65.84000 1880.776
65.85000 1877.503
65.86000 1873.174
65.87000 1873.856
65.88000 1883.730
65.89000 1893.802
65.90000 1899.369
65.91000 1821.569
65.92000 1767.696
65.93000 1696.128
65.94000 1610.378
65.95000 1523.892
65.96000 1404.477
65.97000 1267.320
65.98000 1135.573
65.99000 1016.940
66.00000 910.434
66.01000 805.670
66.02000 717.606
66.03000 633.714
66.04000 556.076
66.05000 515.342
66.06000 480.655
66.07000 452.546
66.08000 441.463
66.09000 433.823
66.10000 423.688
66.11000 406.970
66.12000 389.902
66.13000 378.523
66.14000 377.404
66.15000 376.493
66.16000 375.993
66.17000 370.452
66.18000 366.632
66.19000 362.230
66.20000 357.371
66.21000 352.816
66.22000 361.163
66.23000 376.343
66.24000 390.902
66.25000 407.650
66.26000 424.036
66.27000 441.046
66.28000 463.884
66.29000 488.154
66.30000 510.936
66.31000 525.122
66.32000 537.928
66.33000 548.265
66.34000 568.659
66.35000 586.032
66.36000 601.465
66.37000 611.864
66.38000 622.005
66.39000 625.358
66.40000 616.682
66.41000 607.776
66.42000 602.938
66.43000 602.282
66.44000 601.844
66.45000 603.220
66.46000 605.997
66.47000 608.468
66.48000 598.645
66.49000 582.424
66.50000 566.889
66.51000 536.968
66.52000 504.294
66.53000 473.074
66.54000 455.138
66.55000 440.403
66.56000 425.469
66.57000 409.407
66.58000 393.168
66.59000 380.109
66.60000 371.079
66.61000 364.067
66.62000 361.170
66.63000 368.763
66.64000 376.877
66.65000 378.218
66.66000 367.767
66.67000 357.102
66.68000 351.361
66.69000 345.250
66.70000 341.091
66.71000 340.995
66.72000 343.978
66.73000 346.876
66.74000 346.497
66.75000 344.442
66.76000 342.477
66.77000 349.446
66.78000 358.840
66.79000 366.855
66.80000 362.560
66.81000 355.353
66.82000 350.270
66.83000 357.000
66.84000 365.551
66.85000 372.399
66.86000 369.233
66.87000 365.919
66.88000 363.666
66.89000 364.071
66.90000 364.603
66.91000 363.936
66.92000 361.218
66.93000 358.465
66.94000 356.997
66.95000 360.369
66.96000 362.683
66.97000 367.338
66.98000 373.735
66.99000 379.883
67.00000 376.953
67.01000 369.458
67.02000 362.303
67.03000 360.321
67.04000 360.132
67.05000 360.196
67.06000 362.467
67.07000 365.251
67.08000 368.015
67.09000 370.666
67.10000 373.300
67.11000 375.402
67.12000 383.628
67.13000 390.715
67.14000 394.489
67.15000 390.102
67.16000 385.337
67.17000 384.578
67.18000 390.555
67.19000 396.639
67.20000 399.854
67.21000 396.154
67.22000 393.660
67.23000 395.006
67.24000 399.158
67.25000 403.028
67.26000 397.133
67.27000 386.411
67.28000 376.192
67.29000 379.239
67.30000 386.221
67.31000 393.058
67.32000 398.662
67.33000 403.984
67.34000 407.312
67.35000 399.980
67.36000 391.073
67.37000 383.996
67.38000 397.548
67.39000 409.927
67.40000 416.431
67.41000 408.708
67.42000 400.351
67.43000 398.479
67.44000 407.319
67.45000 416.319
67.46000 421.032
67.47000 422.033
67.48000 422.693
67.49000 420.886
67.50000 417.310
67.51000 413.869
67.52000 414.928
67.53000 418.174
67.54000 421.262
67.55000 423.284
67.56000 424.827
67.57000 426.237
67.58000 426.538
67.59000 426.590
67.60000 426.329
67.61000 424.422
67.62000 422.277
67.63000 420.580
67.64000 431.553
67.65000 441.244
67.66000 447.228
67.67000 444.384
67.68000 441.162
67.69000 439.953
67.70000 442.014
67.71000 444.120
67.72000 445.212
67.73000 440.174
67.74000 436.817
67.75000 439.434
67.76000 446.259
67.77000 452.870
67.78000 452.684
67.79000 449.251
67.80000 445.990
67.81000 445.883
67.82000 446.736
67.83000 448.652
67.84000 459.211
67.85000 471.671
67.86000 483.083
67.87000 489.111
67.88000 494.377
67.89000 498.526
67.90000 493.522
67.91000 488.897
67.92000 485.368
67.93000 484.405
67.94000 483.548
67.95000 487.408
67.96000 498.791
67.97000 510.271
67.98000 516.168
67.99000 505.656
68.00000 498.611
68.01000 495.262
68.02000 494.470
68.03000 494.005
68.04000 503.466
68.05000 517.586
68.06000 530.978
68.07000 528.483
68.08000 521.483
68.09000 514.751
68.10000 510.149
68.11000 506.008
68.12000 503.723
68.13000 510.808
68.14000 519.192
68.15000 525.770
68.16000 528.022
68.17000 529.540
68.18000 530.419
68.19000 529.825
68.20000 529.174
68.21000 532.612
68.22000 542.458
68.23000 552.381
68.24000 557.429
68.25000 558.784
68.26000 559.711
68.27000 562.731
68.28000 567.174
68.29000 571.730
68.30000 579.579
68.31000 588.947
68.32000 597.817
68.33000 598.550
68.34000 596.864
68.35000 595.892
68.36000 600.481
68.37000 606.247
68.38000 611.740
68.39000 615.878
68.40000 619.832
68.41000 622.922
68.42000 624.155
68.43000 625.020
68.44000 628.558
68.45000 638.137
68.46000 647.947
68.47000 662.008
68.48000 682.611
68.49000 703.286
68.50000 713.700
68.51000 701.108
68.52000 692.798
68.53000 695.314
68.54000 705.055
68.55000 715.201
68.56000 736.664
68.57000 763.260
68.58000 788.396
68.59000 819.027
68.60000 848.721
68.61000 879.337
68.62000 916.969
68.63000 956.060
68.64000 994.228
68.65000 1027.921
68.66000 1061.019
68.67000 1086.771
68.68000 1144.496
68.69000 1192.410
68.70000 1235.621
68.71000 1268.379
68.72000 1300.754
68.73000 1343.679
68.74000 1402.552
68.75000 1461.587
68.76000 1507.076
68.77000 1539.091
68.78000 1571.199
68.79000 1612.023
68.80000 1658.560
68.81000 1706.040
68.82000 1778.714
68.83000 1862.620
68.84000 1941.782
68.85000 2015.298
68.86000 2081.106
68.87000 2163.578
68.88000 2370.145
68.89000 2602.012
68.90000 2904.055
68.91000 3540.577
68.92000 4220.542
68.93000 4747.281
68.94000 6797.476
68.95000 8516.433
68.96000 10632.297
68.97000 13615.540
68.98000 16629.268
68.99000 19813.734
69.00000 23251.709
69.01000 26691.982
69.02000 29730.195
69.03000 32376.223
69.04000 35013.195
69.05000 36864.801
69.06000 38210.738
69.07000 39536.094
69.08000 40333.238
69.09000 40898.875
69.10000 41431.559
69.11000 42178.789
69.12000 42921.090
69.13000 43657.969
69.14000 44355.348
69.15000 45044.824
69.16000 45627.504
69.17000 45710.621
69.18000 45730.277
69.19000 45745.441
69.20000 43482.574
69.21000 41558.105
69.22000 39298.121
69.23000 36317.387
69.24000 33312.379
69.25000 30678.162
69.26000 28584.648
69.27000 26495.877
69.28000 24865.227
69.29000 23672.684
69.30000 22486.244
69.31000 21789.779
69.32000 21403.229
69.33000 21018.207
69.34000 20670.953
69.35000 20339.971
69.36000 20028.848
69.37000 19253.654
69.38000 18421.309
69.39000 17500.820
69.40000 15951.689
69.41000 14279.188
69.42000 12580.276
69.43000 10760.108
69.44000 8924.878
69.45000 7515.723
69.46000 6029.577
69.47000 4850.474
69.48000 3846.405
69.49000 3211.944
69.50000 2589.398
69.51000 2120.864
69.52000 1872.897
69.53000 1626.671
69.54000 1460.090
69.55000 1368.180
69.56000 1276.378
69.57000 1192.541
69.58000 1113.653
69.59000 1035.850
69.60000 983.774
69.61000 942.594
69.62000 903.957
69.63000 896.100
69.64000 897.044
69.65000 894.122
69.66000 864.211
69.67000 829.103
69.68000 794.983
69.69000 765.314
69.70000 736.186
69.71000 713.920
69.72000 696.223
69.73000 682.515
69.74000 668.714
69.75000 654.723
69.76000 640.727
69.77000 630.479
69.78000 625.504
69.79000 620.568
69.80000 612.789
69.81000 602.407
69.82000 592.022
69.83000 581.416
69.84000 570.676
69.85000 560.253
69.86000 557.058
69.87000 556.874
69.88000 556.702
69.89000 544.707
69.90000 530.748
69.91000 517.936
69.92000 512.975
69.93000 509.497
69.94000 505.784
69.95000 501.034
69.96000 496.162
69.97000 492.454
69.98000 493.709
69.99000 494.956
70.00000 493.600
