20.00000 474.935
20.01000 473.257
20.02000 471.338
20.03000 469.298
20.04000 466.779
20.05000 464.212
20.06000 462.315
20.07000 465.403
20.08000 468.007
20.09000 472.313
20.10000 479.732
20.11000 487.217
20.12000 489.493
20.13000 485.370
20.14000 481.237
20.15000 476.396
20.16000 471.012
20.17000 465.806
20.18000 468.448
20.19000 475.307
20.20000 481.905
20.21000 483.880
20.22000 484.156
20.23000 484.411
20.24000 479.144
20.25000 473.191
20.26000 468.000
20.27000 467.287
20.28000 467.305
20.29000 466.619
20.30000 463.203
20.31000 459.515
20.32000 456.806
20.33000 474.000
20.34000 488.108
20.35000 495.068
20.36000 489.178
20.37000 483.029
20.38000 475.967
20.39000 467.806
20.40000 459.658
20.41000 460.886
20.42000 469.420
20.43000 477.710
20.44000 475.688
20.45000 468.220
20.46000 461.165
20.47000 461.173
20.48000 463.730
20.49000 466.085
20.50000 475.983
20.51000 486.487
20.52000 494.767
20.53000 490.238
20.54000 483.658
20.55000 478.924
20.56000 481.206
20.57000 484.171
20.58000 486.339
20.59000 478.533
20.60000 472.118
20.61000 468.968
20.62000 471.586
20.63000 474.314
20.64000 474.546
20.65000 471.824
20.66000 469.104
20.67000 472.438
20.68000 480.385
20.69000 488.033
20.70000 483.765
20.71000 473.313
20.72000 463.336
20.73000 461.254
20.74000 461.972
20.75000 462.633
20.76000 456.439
20.77000 449.442
20.78000 444.825
20.79000 453.664
20.80000 464.613
20.81000 471.745
20.82000 464.617
20.83000 456.136
20.84000 449.968
20.85000 463.476
20.86000 474.618
20.87000 480.148
20.88000 475.936
20.89000 471.549
20.90000 465.116
20.91000 456.307
20.92000 447.520
20.93000 448.021
20.94000 455.492
20.95000 462.696
20.96000 459.828
20.97000 451.822
20.98000 444.585
20.99000 449.708
21.00000 459.143
21.01000 467.791
21.02000 469.083
21.03000 468.688
21.04000 467.128
21.05000 459.116
21.06000 450.113
21.07000 444.798
21.08000 453.018
21.09000 462.491
21.10000 469.346
21.11000 467.755
21.12000 466.225
21.13000 464.688
21.14000 463.139
21.15000 461.589
21.16000 462.469
21.17000 466.115
21.18000 469.753
21.19000 469.845
21.20000 467.326
21.21000 464.885
21.22000 465.240
21.23000 466.996
21.24000 468.524
21.25000 466.479
21.26000 463.210
21.27000 460.220
21.28000 453.299
21.29000 446.339
21.30000 443.075
21.31000 459.897
21.32000 479.740
21.33000 493.956
21.34000 487.884
21.35000 479.984
21.36000 474.297
21.37000 464.227
21.38000 456.363
21.39000 450.366
21.40000 447.499
21.41000 444.683
21.42000 451.355
21.43000 468.622
21.44000 485.836
21.45000 485.837
21.46000 473.409
21.47000 461.179
21.48000 455.796
21.49000 453.786
21.50000 451.873
21.51000 451.414
21.52000 451.445
21.53000 451.473
21.54000 459.748
21.55000 468.750
21.56000 475.053
21.57000 466.977
21.58000 456.783
21.59000 449.766
21.60000 454.002
21.61000 459.226
21.62000 462.966
21.63000 464.694
21.64000 465.945
21.65000 466.378
21.66000 465.461
21.67000 464.524
21.68000 468.638
21.69000 478.284
21.70000 487.894
21.71000 489.612
21.72000 485.723
21.73000 481.809
21.74000 477.083
21.75000 471.964
21.76000 467.417
21.77000 471.264
21.78000 477.892
21.79000 483.925
21.80000 487.851
21.81000 490.911
21.82000 493.889
21.83000 496.439
21.84000 498.927
21.85000 500.898
21.86000 501.072
21.87000 501.092
21.88000 501.107
21.89000 502.461
21.90000 503.536
21.91000 503.928
21.92000 503.213
21.93000 502.484
21.94000 504.133
21.95000 508.338
21.96000 512.524
21.97000 516.232
21.98000 519.569
21.99000 523.014
22.00000 529.844
22.01000 538.286
22.02000 546.190
22.03000 546.422
22.04000 544.156
22.05000 542.099
22.06000 541.140
22.07000 540.506
22.08000 540.105
22.09000 540.902
22.10000 541.869
22.11000 541.581
22.12000 537.004
22.13000 532.070
22.14000 528.575
22.15000 530.711
22.16000 532.510
22.17000 533.554
22.18000 533.400
22.19000 533.231
22.20000 527.437
22.21000 515.724
22.22000 504.066
22.23000 496.747
22.24000 492.469
22.25000 488.342
22.26000 488.736
22.27000 491.246
22.28000 493.856
22.29000 497.851
22.30000 502.288
22.31000 506.307
22.32000 496.426
22.33000 485.080
22.34000 475.844
22.35000 477.211
22.36000 480.044
22.37000 482.445
22.38000 483.398
22.39000 484.233
22.40000 484.821
22.41000 483.958
22.42000 483.260
22.43000 478.740
22.44000 468.250
22.45000 457.690
22.46000 450.283
22.47000 446.131
22.48000 442.001
22.49000 443.833
22.50000 449.630
22.51000 455.253
22.52000 455.882
22.53000 454.213
22.54000 452.469
22.55000 449.707
22.56000 446.627
22.57000 443.842
22.58000 446.813
22.59000 450.493
22.60000 453.111
22.61000 450.483
22.62000 447.146
22.63000 445.816
22.64000 451.114
22.65000 456.934
22.66000 461.012
22.67000 453.894
22.68000 448.188
22.69000 444.902
22.70000 445.328
22.71000 445.794
22.72000 446.684
22.73000 448.004
22.74000 449.315
22.75000 445.297
22.76000 437.836
22.77000 430.516
22.78000 427.103
22.79000 425.457
22.80000 424.270
22.81000 429.092
22.82000 435.771
22.83000 441.792
22.84000 442.928
22.85000 443.036
22.86000 442.050
22.87000 435.770
22.88000 428.789
22.89000 423.658
22.90000 424.532
22.91000 425.865
22.92000 426.795
22.93000 420.332
22.94000 415.253
22.95000 412.350
22.96000 412.727
22.97000 413.136
22.98000 418.748
22.99000 429.517
23.00000 440.216
23.01000 443.205
23.02000 441.185
23.03000 439.151
23.04000 436.772
23.05000 434.238
23.06000 431.787
23.07000 430.373
23.08000 429.275
23.09000 428.288
23.10000 430.659
23.11000 433.333
23.12000 435.230
23.13000 433.431
23.14000 431.154
23.15000 429.296
23.16000 428.774
23.17000 428.352
23.18000 428.059
23.19000 420.016
23.20000 413.758
23.21000 413.116
23.22000 420.785
23.23000 428.531
23.24000 432.737
23.25000 433.505
23.26000 434.267
23.27000 434.687
23.28000 434.883
23.29000 435.076
23.30000 435.178
23.31000 435.241
23.32000 435.707
23.33000 441.180
23.34000 448.146
23.35000 454.394
23.36000 445.653
23.37000 435.400
23.38000 426.810
23.39000 425.972
23.40000 426.116
23.41000 426.346
23.42000 426.845
23.43000 427.363
23.44000 427.721
23.45000 422.742
23.46000 418.871
23.47000 417.484
23.48000 419.709
23.49000 421.964
23.50000 425.429
23.51000 430.047
23.52000 434.629
23.53000 435.265
23.54000 433.444
23.55000 431.604
23.56000 429.286
23.57000 426.764
23.58000 424.824
23.59000 429.904
23.60000 437.041
23.61000 443.426
23.62000 440.947
23.63000 437.273
23.64000 436.005
23.65000 445.748
23.66000 456.855
23.67000 463.231
23.68000 455.043
23.69000 445.828
23.70000 439.518
23.71000 440.792
23.72000 441.927
23.73000 442.516
23.74000 442.325
23.75000 442.130
23.76000 448.087
23.77000 459.789
23.78000 471.395
23.79000 470.070
23.80000 460.906
23.81000 452.136
23.82000 452.658
23.83000 457.106
23.84000 461.340
23.85000 463.078
23.86000 464.097
23.87000 465.007
23.88000 478.727
23.89000 492.807
23.90000 503.436
23.91000 498.559
23.92000 491.805
23.93000 486.443
23.94000 485.288
23.95000 484.421
23.96000 483.831
23.97000 493.097
23.98000 500.243
23.99000 507.155
24.00000 513.736
24.01000 520.309
24.02000 515.661
24.03000 500.737
24.04000 485.946
24.05000 479.854
24.06000 479.073
24.07000 478.181
24.08000 474.773
24.09000 470.320
24.10000 466.271
24.11000 466.835
24.12000 468.705
24.13000 470.369
24.14000 468.567
24.15000 466.436
24.16000 463.796
24.17000 458.916
24.18000 453.772
24.19000 451.749
24.20000 459.014
24.21000 466.895
24.22000 472.229
24.23000 464.682
24.24000 458.778
24.25000 449.898
24.26000 436.918
24.27000 423.919
24.28000 418.270
24.29000 419.224
24.30000 420.169
24.31000 423.667
24.32000 428.588
24.33000 433.222
24.34000 431.580
24.35000 427.378
24.36000 423.676
24.37000 425.551
24.38000 428.977
24.39000 432.017
24.40000 429.316
24.41000 426.056
24.42000 424.647
24.43000 431.250
24.44000 438.779
24.45000 441.859
24.46000 431.932
24.47000 421.168
24.48000 413.926
24.49000 406.013
24.50000 400.118
24.51000 401.353
24.52000 412.226
24.53000 423.144
24.54000 424.928
24.55000 418.668
24.56000 412.472
24.57000 411.337
24.58000 413.135
24.59000 414.928
24.60000 416.612
24.61000 418.252
24.62000 419.477
24.63000 416.204
24.64000 411.702
24.65000 407.717
24.66000 413.548
24.67000 420.127
24.68000 424.091
24.69000 416.941
24.70000 408.536
24.71000 402.031
24.72000 400.986
24.73000 400.282
24.74000 399.811
24.75000 408.726
24.76000 415.519
24.77000 416.761
24.78000 410.637
24.79000 404.481
24.80000 401.373
24.81000 400.897
24.82000 400.428
24.83000 399.658
24.84000 398.737
24.85000 397.828
24.86000 397.155
24.87000 396.574
24.88000 396.448
24.89000 401.137
24.90000 407.118
24.91000 412.398
24.92000 410.747
24.93000 408.262
24.94000 407.109
24.95000 411.520
24.96000 416.545
24.97000 417.765
24.98000 408.236
24.99000 398.058
25.00000 391.294
25.01000 384.207
25.02000 378.962
25.03000 381.095
25.04000 392.843
25.05000 404.616
25.06000 406.860
25.07000 401.025
25.08000 395.259
25.09000 393.996
25.10000 395.254
25.11000 396.435
25.12000 396.086
25.13000 395.144
25.14000 394.728
25.15000 399.731
25.16000 406.162
25.17000 411.824
25.18000 411.496
25.19000 410.315
25.20000 408.298
25.21000 402.848
25.22000 397.029
25.23000 393.367
25.24000 395.698
25.25000 398.379
25.26000 400.150
25.27000 395.061
25.28000 391.187
25.29000 392.261
25.30000 399.664
25.31000 407.078
25.32000 409.069
25.33000 406.549
25.34000 404.060
25.35000 405.653
25.36000 409.422
25.37000 412.966
25.38000 412.246
25.39000 409.901
25.40000 406.997
25.41000 398.458
25.42000 388.459
25.43000 379.682
25.44000 381.358
25.45000 384.330
25.46000 387.851
25.47000 393.584
25.48000 399.550
25.49000 405.406
25.50000 410.963
25.51000 416.503
25.52000 420.138
25.53000 409.372
25.54000 401.212
25.55000 393.947
25.56000 387.806
25.57000 381.695
25.58000 386.543
25.59000 400.337
25.60000 413.944
25.61000 412.193
25.62000 402.305
25.63000 392.776
25.64000 389.839
25.65000 389.373
25.66000 389.478
25.67000 395.186
25.68000 402.320
25.69000 408.565
25.70000 408.355
25.71000 407.250
25.72000 406.302
25.73000 405.978
25.74000 405.717
25.75000 405.354
25.76000 404.720
25.77000 404.070
25.78000 403.646
25.79000 401.272
25.80000 399.500
25.81000 395.393
25.82000 388.411
25.83000 381.445
25.84000 382.264
25.85000 389.321
25.86000 396.277
25.87000 396.609
25.88000 393.468
25.89000 390.544
25.90000 391.485
25.91000 393.850
25.92000 395.772
25.93000 393.456
25.94000 390.081
25.95000 387.135
25.96000 382.518
25.97000 378.334
25.98000 376.638
25.99000 384.599
26.00000 393.526
26.01000 398.969
26.02000 395.218
26.03000 390.980
26.04000 388.234
26.05000 395.142
26.06000 400.340
26.07000 400.409
26.08000 394.276
26.09000 388.147
26.10000 386.879
26.11000 389.434
26.12000 391.950
26.13000 390.713
26.14000 387.586
26.15000 384.722
26.16000 386.377
26.17000 389.667
26.18000 392.801
26.19000 394.477
26.20000 395.795
26.21000 396.942
26.22000 396.289
26.23000 395.485
26.24000 394.536
26.25000 393.036
26.26000 391.482
26.27000 388.762
26.28000 383.018
26.29000 377.118
26.30000 373.322
26.31000 372.765
26.32000 372.404
26.33000 372.129
26.34000 371.956
26.35000 371.796
26.36000 374.818
26.37000 380.295
26.38000 385.683
26.39000 388.941
26.40000 391.022
26.41000 392.552
26.42000 384.890
26.43000 373.958
26.44000 364.806
26.45000 371.908
26.46000 382.925
26.47000 392.484
26.48000 390.585
26.49000 387.431
26.50000 383.840
26.51000 378.607
26.52000 373.217
26.53000 367.600
26.54000 361.404
26.55000 355.179
26.56000 351.200
26.57000 363.746
26.58000 373.095
26.59000 378.167
26.60000 378.261
26.61000 378.357
26.62000 380.390
26.63000 383.892
26.64000 387.335
26.65000 389.145
26.66000 390.087
26.67000 390.999
26.68000 391.398
26.69000 391.618
26.70000 390.964
26.71000 382.513
26.72000 372.218
26.73000 363.312
26.74000 361.471
26.75000 360.832
26.76000 362.485
26.77000 372.571
26.78000 383.439
26.79000 390.889
26.80000 389.776
26.81000 388.253
26.82000 387.286
26.83000 382.016
26.84000 378.137
26.85000 374.417
26.86000 370.877
26.87000 367.350
26.88000 366.178
26.89000 366.756
26.90000 367.323
26.91000 366.901
26.92000 366.014
26.93000 365.324
26.94000 367.732
26.95000 371.205
26.96000 374.385
26.97000 375.013
26.98000 375.048
26.99000 375.078
27.00000 374.421
27.01000 373.776
27.02000 373.533
27.03000 374.746
27.04000 376.091
27.05000 376.781
27.06000 375.858
27.07000 374.861
27.08000 374.232
27.09000 382.117
27.10000 387.924
27.11000 390.181
27.12000 388.461
27.13000 386.735
27.14000 384.347
27.15000 381.476
27.16000 378.659
27.17000 378.315
27.18000 379.161
27.19000 379.938
27.20000 379.672
27.21000 379.055
27.22000 378.401
27.23000 377.437
27.24000 376.403
27.25000 375.513
27.26000 374.298
27.27000 373.230
27.28000 372.162
27.29000 371.095
27.30000 370.028
27.31000 368.146
27.32000 364.293
27.33000 360.352
27.34000 357.884
27.35000 368.549
27.36000 376.392
27.37000 379.136
27.38000 376.282
27.39000 373.454
27.40000 374.974
27.41000 379.611
27.42000 384.156
27.43000 385.280
27.44000 384.763
27.45000 384.430
27.46000 386.803
27.47000 390.074
27.48000 392.770
27.49000 390.678
27.50000 387.516
27.51000 384.805
27.52000 389.850
27.53000 395.057
27.54000 397.822
27.55000 392.066
27.56000 385.579
27.57000 379.330
27.58000 373.646
27.59000 367.987
27.60000 364.467
27.61000 375.236
27.62000 383.134
27.63000 387.602
27.64000 388.377
27.65000 389.138
27.66000 388.317
27.67000 386.381
27.68000 384.486
27.69000 380.125
27.70000 374.806
27.71000 369.672
27.72000 367.197
27.73000 365.590
27.74000 364.432
27.75000 366.920
27.76000 370.210
27.77000 373.021
27.78000 371.256
27.79000 369.222
27.80000 368.307
27.81000 371.224
27.82000 374.461
27.83000 376.770
27.84000 376.903
27.85000 376.947
27.86000 376.975
27.87000 380.043
27.88000 382.275
27.89000 380.318
27.90000 373.939
27.91000 367.589
27.92000 364.807
27.93000 364.494
27.94000 364.188
27.95000 362.877
27.96000 361.169
27.97000 359.406
27.98000 356.892
27.99000 354.137
28.00000 352.258
28.01000 357.345
28.02000 363.935
28.03000 369.547
28.04000 366.602
28.05000 363.129
28.06000 361.238
28.07000 364.673
28.08000 368.542
28.09000 371.022
28.10000 370.308
28.11000 369.467
28.12000 368.952
28.13000 375.759
28.14000 380.698
28.15000 379.547
28.16000 372.094
28.17000 364.690
28.18000 362.791
28.19000 364.631
28.20000 366.428
28.21000 367.016
28.22000 367.044
28.23000 366.905
28.24000 364.504
28.25000 361.391
28.26000 358.513
28.27000 357.473
28.28000 356.821
28.29000 356.268
28.30000 360.643
28.31000 364.874
28.32000 367.258
28.33000 363.528
28.34000 359.314
28.35000 356.250
28.36000 355.789
28.37000 355.427
28.38000 355.207
28.39000 351.614
28.40000 349.021
28.41000 348.619
28.42000 350.440
28.43000 352.231
28.44000 350.910
28.45000 347.514
28.46000 344.200
28.47000 345.934
28.48000 349.781
28.49000 353.562
28.50000 356.491
28.51000 359.156
28.52000 361.218
28.53000 358.703
28.54000 355.237
28.55000 352.305
28.56000 353.944
28.57000 355.825
28.58000 358.712
28.59000 364.875
28.60000 371.290
28.61000 375.704
28.62000 375.674
28.63000 375.481
28.64000 375.365
28.65000 362.806
28.66000 353.769
28.67000 351.638
28.68000 356.372
28.69000 361.022
28.70000 357.746
28.71000 349.278
28.72000 341.024
28.73000 342.082
28.74000 347.053
28.75000 352.361
28.76000 361.968
28.77000 372.883
28.78000 382.519
28.79000 382.631
28.80000 380.801
28.81000 379.259
28.82000 379.527
28.83000 379.948
28.84000 377.770
28.85000 367.285
28.86000 356.177
28.87000 348.836
28.88000 349.721
28.89000 350.896
28.90000 351.600
28.91000 336.223
28.92000 325.194
28.93000 327.859
28.94000 343.872
28.95000 359.705
28.96000 360.043
28.97000 350.408
28.98000 341.027
28.99000 343.889
29.00000 351.727
29.01000 359.101
29.02000 360.715
29.03000 360.605
29.04000 360.259
29.05000 358.198
29.06000 355.795
29.07000 353.774
29.08000 353.508
29.09000 353.471
29.10000 353.580
29.11000 354.144
29.12000 354.742
29.13000 356.353
29.14000 360.142
29.15000 364.004
29.16000 366.303
29.17000 360.675
29.18000 356.641
29.19000 354.035
29.20000 352.794
29.21000 351.500
29.22000 346.071
29.23000 338.026
29.24000 330.202
29.25000 334.791
29.26000 344.241
29.27000 352.600
29.28000 347.767
29.29000 339.058
29.30000 331.851
29.31000 335.355
29.32000 340.960
29.33000 345.655
29.34000 348.286
29.35000 350.261
29.36000 352.224
29.37000 354.150
29.38000 356.073
29.39000 356.356
29.40000 353.175
29.41000 349.884
29.42000 347.939
29.43000 349.304
29.44000 350.286
29.45000 350.914
29.46000 351.210
29.47000 351.498
29.48000 351.103
29.49000 350.286
29.50000 349.491
29.51000 348.349
29.52000 347.124
29.53000 346.145
29.54000 348.071
29.55000 350.836
29.56000 353.485
29.57000 355.324
29.58000 357.008
29.59000 358.413
29.60000 355.558
29.61000 352.760
29.62000 350.707
29.63000 350.916
29.64000 351.280
29.65000 352.623
29.66000 355.999
29.67000 359.437
29.68000 361.452
29.69000 356.903
29.70000 353.666
29.71000 350.482
29.72000 347.346
29.73000 344.340
29.74000 350.322
29.75000 361.789
29.76000 372.911
29.77000 371.632
29.78000 365.527
29.79000 359.976
29.80000 360.782
29.81000 363.393
29.82000 365.837
29.83000 367.138
29.84000 368.224
29.85000 369.128
29.86000 371.164
29.87000 372.960
29.88000 375.935
29.89000 382.423
29.90000 389.147
29.91000 390.292
29.92000 380.062
29.93000 369.497
29.94000 363.355
29.95000 367.996
29.96000 371.302
29.97000 373.424
29.98000 374.480
29.99000 375.588
30.00000 380.016
30.01000 386.436
30.02000 392.655
30.03000 388.716
30.04000 381.056
30.05000 374.687
30.06000 382.750
30.07000 394.838
30.08000 405.350
30.09000 405.324
30.10000 403.347
30.11000 401.708
30.12000 393.850
30.13000 386.765
30.14000 382.101
30.15000 384.533
30.16000 387.425
30.17000 388.491
30.18000 385.894
30.19000 383.195
30.20000 381.637
30.21000 365.512
30.22000 354.172
30.23000 352.112
30.24000 358.251
30.25000 364.302
30.26000 365.024
30.27000 362.606
30.28000 360.266
30.29000 354.167
30.30000 346.979
30.31000 341.149
30.32000 350.114
30.33000 363.131
30.34000 373.932
30.35000 370.219
30.36000 363.871
30.37000 358.628
30.38000 361.556
30.39000 364.732
30.40000 366.480
30.41000 364.118
30.42000 361.497
30.43000 358.061
30.44000 353.017
30.45000 347.930
30.46000 345.020
30.47000 356.844
30.48000 365.141
30.49000 365.870
30.50000 360.039
30.51000 354.243
30.52000 350.455
30.53000 347.829
30.54000 345.291
30.55000 348.048
30.56000 352.622
30.57000 356.995
30.58000 359.235
30.59000 360.900
30.60000 362.577
30.61000 364.327
30.62000 366.089
30.63000 367.540
30.64000 364.959
30.65000 362.469
30.66000 360.592
30.67000 360.449
30.68000 360.411
30.69000 360.166
30.70000 359.521
30.71000 358.866
30.72000 358.494
30.73000 357.972
30.74000 357.615
30.75000 361.117
30.76000 367.901
30.77000 374.522
30.78000 372.458
30.79000 365.453
30.80000 358.694
30.81000 361.856
30.82000 368.461
30.83000 374.883
30.84000 379.406
30.85000 383.426
30.86000 386.697
30.87000 385.257
30.88000 382.995
30.89000 381.141
30.90000 391.273
30.91000 400.648
30.92000 407.153
30.93000 405.668
30.94000 403.712
30.95000 407.561
30.96000 422.461
30.97000 437.628
30.98000 446.164
30.99000 454.393
31.00000 460.107
31.01000 466.613
31.02000 473.781
31.03000 481.053
31.04000 493.618
31.05000 509.142
31.06000 524.100
31.07000 538.891
31.08000 552.728
31.09000 567.409
31.10000 590.617
31.11000 616.038
31.12000 641.032
31.13000 663.392
31.14000 685.303
31.15000 703.201
31.16000 744.727
31.17000 780.756
31.18000 813.004
31.19000 834.906
31.20000 856.218
31.21000 878.354
31.22000 902.032
31.23000 925.745
31.24000 938.978
31.25000 1010.111
31.26000 1059.425
31.27000 1089.207
31.28000 1103.002
31.29000 1116.966
31.30000 1138.975
31.31000 1165.405
31.32000 1190.834
31.33000 1200.438
31.34000 1203.872
31.35000 1207.447
31.36000 1212.417
31.37000 1217.743
31.38000 1220.489
31.39000 1207.663
31.40000 1192.226
31.41000 1179.664
31.42000 1157.392
31.43000 1138.387
31.44000 1119.394
31.45000 1100.435
31.46000 1081.478
31.47000 1058.745
31.48000 1029.068
31.49000 999.240
31.50000 982.736
31.51000 933.781
31.52000 899.939
31.53000 866.632
31.54000 833.754
31.55000 800.709
31.56000 760.132
31.57000 715.487
31.58000 672.595
31.59000 642.305
31.60000 618.305
31.61000 594.671
31.62000 574.550
31.63000 555.308
31.64000 536.018
31.65000 516.435
31.66000 496.805
31.67000 480.890
31.68000 461.421
31.69000 445.266
31.70000 432.439
31.71000 428.410
31.72000 424.851
31.73000 420.082
31.74000 413.128
31.75000 406.129
31.76000 402.290
31.77000 401.085
31.78000 400.249
31.79000 395.907
31.80000 388.800
31.81000 381.859
31.82000 381.962
31.83000 385.803
31.84000 389.488
31.85000 384.818
31.86000 377.621
31.87000 371.300
31.88000 373.199
31.89000 377.121
31.90000 378.607
31.91000 365.980
31.92000 351.080
31.93000 339.046
31.94000 339.745
31.95000 341.328
31.96000 342.565
31.97000 342.903
31.98000 343.194
31.99000 344.468
32.00000 347.485
32.01000 350.536
32.02000 352.195
32.03000 345.238
32.04000 340.475
32.05000 340.372
32.06000 343.876
32.07000 347.220
32.08000 344.088
32.09000 337.578
32.10000 331.342
32.11000 329.805
32.12000 329.934
32.13000 329.669
32.14000 325.790
32.15000 321.039
32.16000 316.925
32.17000 316.436
32.18000 316.519
32.19000 316.586
32.20000 323.312
32.21000 329.283
32.22000 331.918
32.23000 326.027
32.24000 319.711
32.25000 318.570
32.26000 326.460
32.27000 334.515
32.28000 338.856
32.29000 332.251
32.30000 327.740
32.31000 326.652
32.32000 328.165
32.33000 329.652
32.34000 330.142
32.35000 330.119
32.36000 330.098
32.37000 332.262
32.38000 334.989
32.39000 336.833
32.40000 330.774
32.41000 322.841
32.42000 316.607
32.43000 319.843
32.44000 324.541
32.45000 328.306
32.46000 318.014
32.47000 308.625
32.48000 303.463
32.49000 308.917
32.50000 314.881
32.51000 318.674
32.52000 318.741
32.53000 318.744
32.54000 318.746
32.55000 309.379
32.56000 303.032
32.57000 305.424
32.58000 314.332
32.59000 322.938
32.60000 320.501
32.61000 312.498
32.62000 304.857
32.63000 310.526
32.64000 320.057
32.65000 328.170
32.66000 323.898
32.67000 316.741
32.68000 311.367
32.69000 315.736
32.70000 321.578
32.71000 326.242
32.72000 315.753
32.73000 306.174
32.74000 304.275
32.75000 321.340
32.76000 339.285
32.77000 347.687
32.78000 340.008
32.79000 332.071
32.80000 327.871
32.81000 322.042
32.82000 318.094
32.83000 316.583
32.84000 316.856
32.85000 317.154
32.86000 318.328
32.87000 319.936
32.88000 321.469
32.89000 316.130
32.90000 309.020
32.91000 302.731
32.92000 303.456
32.93000 305.784
32.94000 307.076
32.95000 302.815
32.96000 297.730
32.97000 293.689
32.98000 301.436
32.99000 308.517
33.00000 313.250
33.01000 312.282
33.02000 311.060
33.03000 310.898
33.04000 312.493
33.05000 314.114
33.06000 314.964
33.07000 305.891
33.08000 299.775
33.09000 298.872
33.10000 301.716
33.11000 304.397
33.12000 301.617
33.13000 296.177
33.14000 291.001
33.15000 294.549
33.16000 300.522
33.17000 305.983
33.18000 307.161
33.19000 307.378
33.20000 307.055
33.21000 303.886
33.22000 300.304
33.23000 297.468
33.24000 303.295
33.25000 308.579
33.26000 311.559
33.27000 309.046
33.28000 306.295
33.29000 302.556
33.30000 297.211
33.31000 291.843
33.32000 289.056
33.33000 296.853
33.34000 302.093
33.35000 303.640
33.36000 302.579
33.37000 301.647
33.38000 304.817
33.39000 309.952
33.40000 314.830
33.41000 316.414
33.42000 316.882
33.43000 316.749
33.44000 311.708
33.45000 305.586
33.46000 300.343
33.47000 299.631
33.48000 299.564
33.49000 299.511
33.50000 305.364
33.51000 310.455
33.52000 313.617
33.53000 312.251
33.54000 310.697
33.55000 308.994
33.56000 307.052
33.57000 305.106
33.58000 304.106
33.59000 298.759
33.60000 295.164
33.61000 291.990
33.62000 289.109
33.63000 286.443
33.64000 290.348
33.65000 297.345
33.66000 303.982
33.67000 296.996
33.68000 286.516
33.69000 277.197
33.70000 277.151
33.71000 279.111
33.72000 282.249
33.73000 291.353
33.74000 301.286
33.75000 309.085
33.76000 309.421
33.77000 309.201
33.78000 309.428
33.79000 310.681
33.80000 311.976
33.81000 314.158
33.82000 317.735
33.83000 321.329
33.84000 323.159
33.85000 316.219
33.86000 311.545
33.87000 304.840
33.88000 296.752
33.89000 289.124
33.90000 294.899
33.91000 306.871
33.92000 318.209
33.93000 323.033
33.94000 325.578
33.95000 327.489
33.96000 324.442
33.97000 320.343
33.98000 317.843
33.99000 323.279
34.00000 329.795
34.01000 334.889
34.02000 326.078
34.03000 318.164
34.04000 311.297
34.05000 306.802
34.06000 302.398
34.07000 302.802
34.08000 310.621
34.09000 318.523
34.10000 322.508
34.11000 329.147
34.12000 333.536
34.13000 332.761
34.14000 328.532
34.15000 324.465
34.16000 324.940
34.17000 327.480
34.18000 329.882
34.19000 330.303
34.20000 330.126
34.21000 330.282
34.22000 332.984
34.23000 336.217
34.24000 339.237
34.25000 341.217
34.26000 343.060
34.27000 344.494
34.28000 344.940
34.29000 345.234
34.30000 344.393
34.31000 341.023
34.32000 337.559
34.33000 337.111
34.34000 341.233
34.35000 345.401
34.36000 349.184
34.37000 352.584
34.38000 355.954
34.39000 356.449
34.40000 355.056
34.41000 353.674
34.42000 352.593
34.43000 351.646
34.44000 350.753
34.45000 348.969
34.46000 347.085
34.47000 344.719
34.48000 338.754
34.49000 332.055
34.50000 328.079
34.51000 337.115
34.52000 347.845
34.53000 356.162
34.54000 354.190
34.55000 352.008
34.56000 347.873
34.57000 339.457
34.58000 330.890
34.59000 325.250
34.60000 323.966
34.61000 322.723
34.62000 320.630
34.63000 317.705
34.64000 314.783
34.65000 312.032
34.66000 309.391
34.67000 306.829
34.68000 306.260
34.69000 306.566
34.70000 306.856
34.71000 309.126
34.72000 311.748
34.73000 313.814
34.74000 311.819
34.75000 309.010
34.76000 306.609
34.77000 306.120
34.78000 305.874
34.79000 305.684
34.80000 300.173
34.81000 295.497
34.82000 294.898
34.83000 303.078
34.84000 311.555
34.85000 310.044
34.86000 293.935
34.87000 277.702
34.88000 274.729
34.89000 284.461
34.90000 294.045
34.91000 291.667
34.92000 281.705
34.93000 272.172
34.94000 273.276
34.95000 278.972
34.96000 284.327
34.97000 283.814
34.98000 281.766
34.99000 279.910
35.00000 279.430
35.01000 279.221
35.02000 279.966
35.03000 285.105
35.04000 290.791
35.05000 295.159
35.06000 286.994
35.07000 279.835
35.08000 274.765
35.09000 274.118
35.10000 273.615
35.11000 273.712
35.12000 274.670
35.13000 275.635
35.14000 278.126
35.15000 282.048
35.16000 285.922
35.17000 286.125
35.18000 284.042
35.19000 281.896
35.20000 278.221
35.21000 273.898
35.22000 269.841
35.23000 265.830
35.24000 262.187
35.25000 259.751
35.26000 265.775
35.27000 273.430
35.28000 278.101
35.29000 269.295
35.30000 258.848
35.31000 250.857
35.32000 259.464
35.33000 267.157
35.34000 271.835
35.35000 270.243
35.36000 268.457
35.37000 267.238
35.38000 266.819
35.39000 266.405
35.40000 267.126
35.41000 268.892
35.42000 270.641
35.43000 271.302
35.44000 271.297
35.45000 271.192
35.46000 268.787
35.47000 265.423
35.48000 262.272
35.49000 260.520
35.50000 259.290
35.51000 258.266
35.52000 258.660
35.53000 259.323
35.54000 261.055
35.55000 267.533
35.56000 274.574
35.57000 279.936
35.58000 267.945
35.59000 257.594
35.60000 252.188
35.61000 256.892
35.62000 261.895
35.63000 264.054
35.64000 262.278
35.65000 260.477
35.66000 261.053
35.67000 263.773
35.68000 266.399
35.69000 262.834
35.70000 255.547
35.71000 248.706
35.72000 251.708
35.73000 258.747
35.74000 265.328
35.75000 263.698
35.76000 260.135
35.77000 257.488
35.78000 260.985
35.79000 265.623
35.80000 268.438
35.81000 263.315
35.82000 257.270
35.83000 252.688
35.84000 263.817
35.85000 273.357
35.86000 277.002
35.87000 268.803
35.88000 260.268
35.89000 256.117
35.90000 257.922
35.91000 259.760
35.92000 260.562
35.93000 260.448
35.94000 260.322
35.95000 259.513
35.96000 258.301
35.97000 257.260
35.98000 259.884
35.99000 263.986
36.00000 267.813
36.01000 263.899
36.02000 258.428
36.03000 253.994
36.04000 256.382
36.05000 260.011
36.06000 262.435
36.07000 259.704
36.08000 256.386
36.09000 253.884
36.10000 255.244
36.11000 256.499
36.12000 257.356
36.13000 257.424
36.14000 257.472
36.15000 259.160
36.16000 263.035
36.17000 266.918
36.18000 267.348
36.19000 264.781
36.20000 262.173
36.21000 257.230
36.22000 250.932
36.23000 244.988
36.24000 246.339
36.25000 250.583
36.26000 254.534
36.27000 254.340
36.28000 253.153
36.29000 252.260
36.30000 253.266
36.31000 254.610
36.32000 255.771
36.33000 256.167
36.34000 256.478
36.35000 256.712
36.36000 254.827
36.37000 253.252
36.38000 252.153
36.39000 251.974
36.40000 251.819
36.41000 251.519
36.42000 251.028
36.43000 250.538
36.44000 250.358
36.45000 250.444
36.46000 250.528
36.47000 250.528
36.48000 250.480
36.49000 250.441
36.50000 250.573
36.51000 250.771
36.52000 250.955
36.53000 252.321
36.54000 253.836
36.55000 255.947
36.56000 261.824
36.57000 268.360
36.58000 273.255
36.59000 271.392
36.60000 268.795
36.61000 266.856
36.62000 260.955
36.63000 256.173
36.64000 253.606
36.65000 255.267
36.66000 257.032
36.67000 259.391
36.68000 262.516
36.69000 265.640
36.70000 265.392
36.71000 262.332
36.72000 259.305
36.73000 257.936
36.74000 257.497
36.75000 257.338
36.76000 262.542
36.77000 269.802
36.78000 276.534
36.79000 275.284
36.80000 272.286
36.81000 269.333
36.82000 266.656
36.83000 264.025
36.84000 262.881
36.85000 267.748
36.86000 273.251
36.87000 277.344
36.88000 275.538
36.89000 273.871
36.90000 273.690
36.91000 276.294
36.92000 278.963
36.93000 283.383
36.94000 290.011
36.95000 296.637
36.96000 298.577
36.97000 296.675
36.98000 294.766
36.99000 292.492
37.00000 290.018
37.01000 287.693
37.02000 288.131
37.03000 289.611
37.04000 290.980
37.05000 290.863
37.06000 290.416
37.07000 289.136
37.08000 282.814
37.09000 275.643
37.10000 269.357
37.11000 266.583
37.12000 264.173
37.13000 262.389
37.14000 269.927
37.15000 276.178
37.16000 280.203
37.17000 280.126
37.18000 279.960
37.19000 279.298
37.20000 278.021
37.21000 276.743
37.22000 275.395
37.23000 273.996
37.24000 272.643
37.25000 273.437
37.26000 275.391
37.27000 277.032
37.28000 273.026
37.29000 266.930
37.30000 261.301
37.31000 262.645
37.32000 265.421
37.33000 267.541
37.34000 265.776
37.35000 263.370
37.36000 260.657
37.37000 256.749
37.38000 252.721
37.39000 249.755
37.40000 259.218
37.41000 267.059
37.42000 274.008
37.43000 279.341
37.44000 284.640
37.45000 284.363
37.46000 277.308
37.47000 270.250
37.48000 262.729
37.49000 254.880
37.50000 247.227
37.51000 248.006
37.52000 253.270
37.53000 258.336
37.54000 259.965
37.55000 260.343
37.56000 260.691
37.57000 257.634
37.58000 254.146
37.59000 251.170
37.60000 251.173
37.61000 251.656
37.62000 253.094
37.63000 258.191
37.64000 263.647
37.65000 267.645
37.66000 253.763
37.67000 242.327
37.68000 237.919
37.69000 246.022
37.70000 254.369
37.71000 259.707
37.72000 261.457
37.73000 263.196
37.74000 261.960
37.75000 258.434
37.76000 255.031
37.77000 256.650
37.78000 260.896
37.79000 264.783
37.80000 262.643
37.81000 258.348
37.82000 254.399
37.83000 255.686
37.84000 257.967
37.85000 259.253
37.86000 254.863
37.87000 249.575
37.88000 245.861
37.89000 248.076
37.90000 250.860
37.91000 252.889
37.92000 257.716
37.93000 261.543
37.94000 264.263
37.95000 265.048
37.96000 265.797
37.97000 264.485
37.98000 260.763
37.99000 257.046
38.00000 258.748
38.01000 264.539
38.02000 270.188
38.03000 270.320
38.04000 267.616
38.05000 264.910
38.06000 262.172
38.07000 259.422
38.08000 256.899
38.09000 260.254
38.10000 264.490
38.11000 267.624
38.12000 264.598
38.13000 260.618
38.14000 258.944
38.15000 265.803
38.16000 273.460
38.17000 279.013
38.18000 276.587
38.19000 274.427
38.20000 273.830
38.21000 275.924
38.22000 278.063
38.23000 280.179
38.24000 282.267
38.25000 284.349
38.26000 290.948
38.27000 300.851
38.28000 310.552
38.29000 312.765
38.30000 311.195
38.31000 310.279
38.32000 319.717
38.33000 332.732
38.34000 344.646
38.35000 357.819
38.36000 369.798
38.37000 383.244
38.38000 404.720
38.39000 427.416
38.40000 449.541
38.41000 469.595
38.42000 489.459
38.43000 503.791
38.44000 528.799
38.45000 548.352
38.46000 573.110
38.47000 606.661
38.48000 640.354
38.49000 666.863
38.50000 685.281
38.51000 703.632
38.52000 737.638
38.53000 782.769
38.54000 827.674
38.55000 864.643
38.56000 897.673
38.57000 931.201
38.58000 972.383
38.59000 1016.164
38.60000 1056.150
38.61000 1090.909
38.62000 1120.703
38.63000 1148.886
38.64000 1168.418
38.65000 1186.664
38.66000 1202.755
38.67000 1211.156
38.68000 1218.874
38.69000 1224.413
38.70000 1233.562
38.71000 1240.683
38.72000 1243.008
38.73000 1237.375
38.74000 1231.622
38.75000 1221.737
38.76000 1207.290
38.77000 1192.893
38.78000 1167.539
38.79000 1134.586
38.80000 1101.393
38.81000 1060.157
38.82000 1014.996
38.83000 970.447
38.84000 935.009
38.85000 902.611
38.86000 873.091
38.87000 840.303
38.88000 810.605
38.89000 777.854
38.90000 729.010
38.91000 677.825
38.92000 633.868
38.93000 615.264
38.94000 598.855
38.95000 587.140
38.96000 552.724
38.97000 525.719
38.98000 496.915
38.99000 465.178
39.00000 433.398
39.01000 410.469
39.02000 397.124
39.03000 383.839
39.04000 369.134
39.05000 353.581
39.06000 338.051
39.07000 323.247
39.08000 308.790
39.09000 294.653
39.10000 285.120
39.11000 277.097
39.12000 269.804
39.13000 267.881
39.14000 267.230
39.15000 266.440
39.16000 264.937
39.17000 263.332
39.18000 261.688
39.19000 259.910
39.20000 258.121
39.21000 256.851
39.22000 251.160
39.23000 246.689
39.24000 244.607
39.25000 246.353
39.26000 248.150
39.27000 246.343
39.28000 240.710
39.29000 235.102
39.30000 231.049
39.31000 228.108
39.32000 225.361
39.33000 228.544
39.34000 234.523
39.35000 240.007
39.36000 238.552
39.37000 234.861
39.38000 231.514
39.39000 226.715
39.40000 222.203
39.41000 219.698
39.42000 227.377
39.43000 236.477
39.44000 243.600
39.45000 244.032
39.46000 243.915
39.47000 243.833
39.48000 237.716
39.49000 232.889
39.50000 227.815
39.51000 222.352
39.52000 216.885
39.53000 216.332
39.54000 220.895
39.55000 225.435
39.56000 230.000
39.57000 234.526
39.58000 238.958
39.59000 240.636
39.60000 241.037
39.61000 241.526
39.62000 243.229
39.63000 245.315
39.64000 247.203
39.65000 243.495
39.66000 239.181
39.67000 236.231
39.68000 240.065
39.69000 244.825
39.70000 246.929
39.71000 240.192
39.72000 232.750
39.73000 227.523
39.74000 228.335
39.75000 229.127
39.76000 228.929
39.77000 227.201
39.78000 225.455
39.79000 225.800
39.80000 228.277
39.81000 230.740
39.82000 230.865
39.83000 229.442
39.84000 228.010
39.85000 226.325
39.86000 224.526
39.87000 223.149
39.88000 227.368
39.89000 233.329
39.90000 238.709
39.91000 237.009
39.92000 234.217
39.93000 230.931
39.94000 225.241
39.95000 219.229
39.96000 215.016
39.97000 216.685
39.98000 218.812
39.99000 220.297
40.00000 217.874
40.01000 215.935
40.02000 216.999
40.03000 222.625
40.04000 228.298
40.05000 227.466
40.06000 220.129
40.07000 212.837
40.08000 214.706
40.09000 222.496
40.10000 230.069
40.11000 231.776
40.12000 230.855
40.13000 229.800
40.14000 227.022
40.15000 223.717
40.16000 220.741
40.17000 221.449
40.18000 222.732
40.19000 223.320
40.20000 220.575
40.21000 217.396
40.22000 216.132
40.23000 221.019
40.24000 226.371
40.25000 230.088
40.26000 230.744
40.27000 231.157
40.28000 231.100
40.29000 230.344
40.30000 229.581
40.31000 229.579
40.32000 230.322
40.33000 231.061
40.34000 225.032
40.35000 214.785
40.36000 205.126
40.37000 210.729
40.38000 223.052
40.39000 234.438
40.40000 234.080
40.41000 230.192
40.42000 226.700
40.43000 219.625
40.44000 212.804
40.45000 207.528
40.46000 209.516
40.47000 212.432
40.48000 213.970
40.49000 211.158
40.50000 208.025
40.51000 205.862
40.52000 210.780
40.53000 214.657
40.54000 215.703
40.55000 212.602
40.56000 209.466
40.57000 212.399
40.58000 221.167
40.59000 229.870
40.60000 228.666
40.61000 221.291
40.62000 214.221
40.63000 214.752
40.64000 218.573
40.65000 222.486
40.66000 227.511
40.67000 232.865
40.68000 237.660
40.69000 227.373
40.70000 215.794
40.71000 206.833
40.72000 209.948
40.73000 214.574
40.74000 216.883
40.75000 212.006
40.76000 206.617
40.77000 202.916
40.78000 208.326
40.79000 212.605
40.80000 215.679
40.81000 217.018
40.82000 218.342
40.83000 216.649
40.84000 212.113
40.85000 207.612
40.86000 205.700
40.87000 205.409
40.88000 205.335
40.89000 210.446
40.90000 217.764
40.91000 224.446
40.92000 223.580
40.93000 220.522
40.94000 217.790
40.95000 212.886
40.96000 208.248
40.97000 204.576
40.98000 205.285
40.99000 206.528
41.00000 207.438
41.01000 207.332
41.02000 207.156
41.03000 207.036
41.04000 213.281
41.05000 218.101
41.06000 217.599
41.07000 209.577
41.08000 201.503
41.09000 198.357
41.10000 199.766
41.11000 201.162
41.12000 204.728
41.13000 209.531
41.14000 214.137
41.15000 214.172
41.16000 212.295
41.17000 210.581
41.18000 210.745
41.19000 211.444
41.20000 212.067
41.21000 211.369
41.22000 210.543
41.23000 209.366
41.24000 206.630
41.25000 203.706
41.26000 201.406
41.27000 200.974
41.28000 200.667
41.29000 200.459
41.30000 205.578
41.31000 209.515
41.32000 210.307
41.33000 206.734
41.34000 203.137
41.35000 204.670
41.36000 210.852
41.37000 216.976
41.38000 219.264
41.39000 219.239
41.40000 219.223
41.41000 219.415
41.42000 219.692
41.43000 219.804
41.44000 218.058
41.45000 215.792
41.46000 213.778
41.47000 212.380
41.48000 211.266
41.49000 210.036
41.50000 208.298
41.51000 206.500
41.52000 205.144
41.53000 205.088
41.54000 205.116
41.55000 205.135
41.56000 207.074
41.57000 208.558
41.58000 208.589
41.59000 206.642
41.60000 204.682
41.61000 202.266
41.62000 199.445
41.63000 196.652
41.64000 194.396
41.65000 192.501
41.66000 191.000
41.67000 197.944
41.68000 208.301
41.69000 217.818
41.70000 218.107
41.71000 215.855
41.72000 213.860
41.73000 212.444
41.74000 211.309
41.75000 210.509
41.76000 211.140
41.77000 211.935
41.78000 211.628
41.79000 208.130
41.80000 204.431
41.81000 201.951
41.82000 202.855
41.83000 203.593
41.84000 203.672
41.85000 202.869
41.86000 202.062
41.87000 201.859
41.88000 202.183
41.89000 202.502
41.90000 203.021
41.91000 203.640
41.92000 204.183
41.93000 203.136
41.94000 201.457
41.95000 200.164
41.96000 202.998
41.97000 206.948
41.98000 210.439
41.99000 209.353
42.00000 207.706
42.01000 207.208
42.02000 211.544
42.03000 216.419
42.04000 217.951
42.05000 209.970
42.06000 201.405
42.07000 195.698
42.08000 199.280
42.09000 202.108
42.10000 206.958
42.11000 214.463
42.12000 221.968
42.13000 222.043
42.14000 215.764
42.15000 209.558
42.16000 210.152
42.17000 214.527
42.18000 218.743
42.19000 219.810
42.20000 219.646
42.21000 219.217
42.22000 216.026
42.23000 212.102
42.24000 208.643
42.25000 205.495
42.26000 202.828
42.27000 201.186
42.28000 203.776
42.29000 206.827
42.30000 209.047
42.31000 208.939
42.32000 208.693
42.33000 208.530
42.34000 215.359
42.35000 220.528
42.36000 221.082
42.37000 215.689
42.38000 210.273
42.39000 205.409
42.40000 201.009
42.41000 196.663
42.42000 198.637
42.43000 204.021
42.44000 209.176
42.45000 209.900
42.46000 208.922
42.47000 207.868
42.48000 206.034
42.49000 203.997
42.50000 202.206
42.51000 207.372
42.52000 212.844
42.53000 217.025
42.54000 215.967
42.55000 214.352
42.56000 213.308
42.57000 213.832
42.58000 214.448
42.59000 214.852
42.60000 212.762
42.61000 211.179
42.62000 208.692
42.63000 205.060
42.64000 201.431
42.65000 200.806
42.66000 202.654
42.67000 204.477
42.68000 201.849
42.69000 196.900
42.70000 192.316
42.71000 194.546
42.72000 199.348
42.73000 203.986
42.74000 206.993
42.75000 209.582
42.76000 211.851
42.77000 213.099
42.78000 214.023
42.79000 213.926
42.80000 209.765
42.81000 205.183
42.82000 201.442
42.83000 199.974
42.84000 198.633
42.85000 197.756
42.86000 197.406
42.87000 197.157
42.88000 197.492
42.89000 198.554
42.90000 199.618
42.91000 200.698
42.92000 201.792
42.93000 202.871
42.94000 199.581
42.95000 194.080
42.96000 188.900
42.97000 189.504
42.98000 192.255
42.99000 195.067
43.00000 198.486
43.01000 202.057
43.02000 205.177
43.03000 206.437
43.04000 207.252
43.05000 208.032
43.06000 208.672
43.07000 209.299
43.08000 207.827
43.09000 200.779
43.10000 193.430
43.11000 188.655
43.12000 192.352
43.13000 195.189
43.14000 196.765
43.15000 196.804
43.16000 196.846
43.17000 199.017
43.18000 202.875
43.19000 206.676
43.20000 207.296
43.21000 206.252
43.22000 205.024
43.23000 200.598
43.24000 195.005
43.25000 190.182
43.26000 192.635
43.27000 196.887
43.28000 200.593
43.29000 196.165
43.30000 191.256
43.31000 187.904
43.32000 190.537
43.33000 193.761
43.34000 196.329
43.35000 197.186
43.36000 197.954
43.37000 198.450
43.38000 200.115
43.39000 201.349
43.40000 201.798
43.41000 201.308
43.42000 200.814
43.43000 199.706
43.44000 198.119
43.45000 196.558
43.46000 194.773
43.47000 192.929
43.48000 191.329
43.49000 193.829
43.50000 197.799
43.51000 201.485
43.52000 202.539
43.53000 202.954
43.54000 203.315
43.55000 200.819
43.56000 198.304
43.57000 196.076
43.58000 194.930
43.59000 193.888
43.60000 193.891
43.61000 196.578
43.62000 199.399
43.63000 201.208
43.64000 190.724
43.65000 182.917
43.66000 181.917
43.67000 188.906
43.68000 195.889
43.69000 198.579
43.70000 197.992
43.71000 197.414
43.72000 197.999
43.73000 199.145
43.74000 200.248
43.75000 200.656
43.76000 200.820
43.77000 200.795
43.78000 199.074
43.79000 196.948
43.80000 195.106
43.81000 193.433
43.82000 192.031
43.83000 190.467
43.84000 188.298
43.85000 186.073
43.86000 186.072
43.87000 191.687
43.88000 197.575
43.89000 201.325
43.90000 200.834
43.91000 200.423
43.92000 200.614
43.93000 201.495
43.94000 202.368
43.95000 201.362
43.96000 198.948
43.97000 196.576
43.98000 195.384
43.99000 194.810
44.00000 194.418
44.01000 196.933
44.02000 200.454
44.03000 203.527
44.04000 202.659
44.05000 200.868
44.06000 199.322
44.07000 199.400
44.08000 199.676
44.09000 198.937
44.10000 194.499
44.11000 189.723
44.12000 187.658
44.13000 192.320
44.14000 197.297
44.15000 200.445
44.16000 198.233
44.17000 196.566
44.18000 195.366
44.19000 194.694
44.20000 194.025
44.21000 193.663
44.22000 193.526
44.23000 193.392
44.24000 196.788
44.25000 201.758
44.26000 206.291
44.27000 204.088
44.28000 199.591
44.29000 195.597
44.30000 195.928
44.31000 197.253
44.32000 198.393
44.33000 201.219
44.34000 203.825
44.35000 205.124
44.36000 201.744
44.37000 197.947
44.38000 195.491
44.39000 196.310
44.40000 197.276
44.41000 197.883
44.42000 209.211
44.43000 217.520
44.44000 217.968
44.45000 209.709
44.46000 201.484
44.47000 199.423
44.48000 201.816
44.49000 204.163
44.50000 205.309
44.51000 205.846
44.52000 206.352
44.53000 206.391
44.54000 206.274
44.55000 206.502
44.56000 209.638
44.57000 213.430
44.58000 216.684
44.59000 218.217
44.60000 219.300
44.61000 220.013
44.62000 219.421
44.63000 218.715
44.64000 219.353
44.65000 223.212
44.66000 227.211
44.67000 229.706
44.68000 225.405
44.69000 222.235
44.70000 224.718
44.71000 233.344
44.72000 241.925
44.73000 243.973
44.74000 241.384
44.75000 238.847
44.76000 235.563
44.77000 232.060
44.78000 229.105
44.79000 234.114
44.80000 241.740
44.81000 248.388
44.82000 247.000
44.83000 243.831
44.84000 241.120
44.85000 243.587
44.86000 246.292
44.87000 247.962
44.88000 246.061
44.89000 243.857
44.90000 243.951
44.91000 249.459
44.92000 255.195
44.93000 258.748
44.94000 251.095
44.95000 245.485
44.96000 245.021
44.97000 250.038
44.98000 255.059
44.99000 260.449
45.00000 266.097
45.01000 271.624
45.02000 270.347
45.03000 266.034
45.04000 261.898
45.05000 260.259
45.06000 259.428
45.07000 258.473
45.08000 256.522
45.09000 254.355
45.10000 252.506
45.11000 259.108
45.12000 265.660
45.13000 269.711
45.14000 265.275
45.15000 260.141
45.16000 254.997
45.17000 249.832
45.18000 244.666
45.19000 241.489
45.20000 240.759
45.21000 240.258
45.22000 240.130
45.23000 240.392
45.24000 240.620
45.25000 236.921
45.26000 230.534
45.27000 224.291
45.28000 225.809
45.29000 230.719
45.30000 235.280
45.31000 235.072
45.32000 233.348
45.33000 231.712
45.34000 230.764
45.35000 229.963
45.36000 229.282
45.37000 230.390
45.38000 231.526
45.39000 232.131
45.40000 230.963
45.41000 229.652
45.42000 226.303
45.43000 218.309
45.44000 210.135
45.45000 205.144
45.46000 212.759
45.47000 218.307
45.48000 219.917
45.49000 217.496
45.50000 215.067
45.51000 211.754
45.52000 207.847
45.53000 204.032
45.54000 205.047
45.55000 208.128
45.56000 211.153
45.57000 213.436
45.58000 215.487
45.59000 216.960
45.60000 213.995
45.61000 210.100
45.62000 206.800
45.63000 207.367
45.64000 208.276
45.65000 208.582
45.66000 206.912
45.67000 205.087
45.68000 203.186
45.69000 201.116
45.70000 199.040
45.71000 197.781
45.72000 195.787
45.73000 194.360
45.74000 193.388
45.75000 192.875
45.76000 192.377
45.77000 193.383
45.78000 195.383
45.79000 197.332
45.80000 196.294
45.81000 194.022
45.82000 192.110
45.83000 194.865
45.84000 199.053
45.85000 202.358
45.86000 199.031
45.87000 194.341
45.88000 190.380
45.89000 192.385
45.90000 194.716
45.91000 195.379
45.92000 190.672
45.93000 185.558
45.94000 183.025
45.95000 186.173
45.96000 189.525
45.97000 191.542
45.98000 184.469
45.99000 179.377
46.00000 175.571
46.01000 173.031
46.02000 170.533
46.03000 171.740
46.04000 175.352
46.05000 178.870
46.06000 178.916
46.07000 177.499
46.08000 176.303
46.09000 177.886
46.10000 180.308
46.11000 182.451
46.12000 182.543
46.13000 182.222
46.14000 181.951
46.15000 177.669
46.16000 173.668
46.17000 170.873
46.18000 171.898
46.19000 173.205
46.20000 174.855
46.21000 177.246
46.22000 179.663
46.23000 181.106
46.24000 179.329
46.25000 178.048
46.26000 177.801
46.27000 178.552
46.28000 179.273
46.29000 177.522
46.30000 174.195
46.31000 170.959
46.32000 172.501
46.33000 175.942
46.34000 179.221
46.35000 180.511
46.36000 181.212
46.37000 181.689
46.38000 180.555
46.39000 179.103
46.40000 177.884
46.41000 174.467
46.42000 171.393
46.43000 169.319
46.44000 170.357
46.45000 171.617
46.46000 173.308
46.47000 175.914
46.48000 178.550
46.49000 180.112
46.50000 180.285
46.51000 180.399
46.52000 181.622
46.53000 183.893
46.54000 186.099
46.55000 183.406
46.56000 177.645
46.57000 172.047
46.58000 172.150
46.59000 174.559
46.60000 176.656
46.61000 175.023
46.62000 172.305
46.63000 169.670
46.64000 167.622
46.65000 165.687
46.66000 164.070
46.67000 167.168
46.68000 170.221
46.69000 173.288
46.70000 176.404
46.71000 179.522
46.72000 180.257
46.73000 176.010
46.74000 171.606
46.75000 169.016
46.76000 172.442
46.77000 174.888
46.78000 173.654
46.79000 169.010
46.80000 164.439
46.81000 165.045
46.82000 168.836
46.83000 172.514
46.84000 173.812
46.85000 174.096
46.86000 174.597
46.87000 177.607
46.88000 181.336
46.89000 184.041
46.90000 179.694
46.91000 174.004
46.92000 169.264
46.93000 174.260
46.94000 179.366
46.95000 182.609
46.96000 180.250
46.97000 177.514
46.98000 175.466
46.99000 174.835
47.00000 174.246
47.01000 173.902
47.02000 173.235
47.03000 172.764
47.04000 170.758
47.05000 167.360
47.06000 164.000
47.07000 163.173
47.08000 163.878
47.09000 164.561
47.10000 165.260
47.11000 165.929
47.12000 166.621
47.13000 167.574
47.14000 168.600
47.15000 169.575
47.16000 170.210
47.17000 170.781
47.18000 171.255
47.19000 170.515
47.20000 169.786
47.21000 168.343
47.22000 164.793
47.23000 161.105
47.24000 158.698
47.25000 158.878
47.26000 159.132
47.27000 159.279
47.28000 159.285
47.29000 159.290
47.30000 159.841
47.31000 160.879
47.32000 161.900
47.33000 161.880
47.34000 161.242
47.35000 160.625
47.36000 161.827
47.37000 163.659
47.38000 165.411
47.39000 166.272
47.40000 166.887
47.41000 167.271
47.42000 166.129
47.43000 164.708
47.44000 163.533
47.45000 163.783
47.46000 164.124
47.47000 164.248
47.48000 163.742
47.49000 163.197
47.50000 161.189
47.51000 156.281
47.52000 151.293
47.53000 148.429
47.54000 157.549
47.55000 163.965
47.56000 166.782
47.57000 166.452
47.58000 166.109
47.59000 164.971
47.60000 163.368
47.61000 161.818
47.62000 163.012
47.63000 165.171
47.64000 166.843
47.65000 163.283
47.66000 158.305
47.67000 153.946
47.68000 153.590
47.69000 153.953
47.70000 154.252
47.71000 155.762
47.72000 157.117
47.73000 159.129
47.74000 163.017
47.75000 167.022
47.76000 168.091
47.77000 163.435
47.78000 158.629
47.79000 155.893
47.80000 168.984
47.81000 178.146
47.82000 177.364
47.83000 168.056
47.84000 158.870
47.85000 156.438
47.86000 157.878
47.87000 159.267
47.88000 156.453
47.89000 152.252
47.90000 148.731
47.91000 152.332
47.92000 157.831
47.93000 162.772
47.94000 164.175
47.95000 164.957
47.96000 165.598
47.97000 166.317
47.98000 166.914
47.99000 166.200
48.00000 161.807
48.01000 157.194
48.02000 153.821
48.03000 152.824
48.04000 151.887
48.05000 151.357
48.06000 160.203
48.07000 166.365
48.08000 165.377
48.09000 158.375
48.10000 151.542
48.11000 153.486
48.12000 160.375
48.13000 167.016
48.14000 167.084
48.15000 164.769
48.16000 162.564
48.17000 161.477
48.18000 160.683
48.19000 160.202
48.20000 161.663
48.21000 163.459
48.22000 164.928
48.23000 164.221
48.24000 163.451
48.25000 162.856
48.26000 162.743
48.27000 162.658
48.28000 162.421
48.29000 161.901
48.30000 161.373
48.31000 161.078
48.32000 163.350
48.33000 164.927
48.34000 164.716
48.35000 163.030
48.36000 161.342
48.37000 159.559
48.38000 157.723
48.39000 155.955
48.40000 157.982
48.41000 161.231
48.42000 164.344
48.43000 166.086
48.44000 167.477
48.45000 168.429
48.46000 166.717
48.47000 164.555
48.48000 162.792
48.49000 159.759
48.50000 157.172
48.51000 155.519
48.52000 156.396
48.53000 157.414
48.54000 158.318
48.55000 159.009
48.56000 159.695
48.57000 160.076
48.58000 162.346
48.59000 163.910
48.60000 162.539
48.61000 158.791
48.62000 155.091
48.63000 153.596
48.64000 153.302
48.65000 153.020
48.66000 150.815
48.67000 148.081
48.68000 145.804
48.69000 147.982
48.70000 151.284
48.71000 154.067
48.72000 153.749
48.73000 152.916
48.74000 152.241
48.75000 149.158
48.76000 146.445
48.77000 144.803
48.78000 146.016
48.79000 147.384
48.80000 148.504
48.81000 149.173
48.82000 149.831
48.83000 150.194
48.84000 148.927
48.85000 148.059
48.86000 149.535
48.87000 152.875
48.88000 156.164
48.89000 157.214
48.90000 157.066
48.91000 156.924
48.92000 158.499
48.93000 160.559
48.94000 162.350
48.95000 161.594
48.96000 160.207
48.97000 158.587
48.98000 155.607
48.99000 152.406
49.00000 149.817
49.01000 154.489
49.02000 158.877
49.03000 161.009
49.04000 157.234
49.05000 153.150
49.06000 151.796
49.07000 155.327
49.08000 158.954
49.09000 160.934
49.10000 156.900
49.11000 154.121
49.12000 151.493
49.13000 148.983
49.14000 146.577
49.15000 148.442
49.16000 152.553
49.17000 156.493
49.18000 158.493
49.19000 159.709
49.20000 160.613
49.21000 158.633
49.22000 155.950
49.23000 153.381
49.24000 151.462
49.25000 149.647
49.26000 148.184
49.27000 148.282
49.28000 148.484
49.29000 148.893
49.30000 149.835
49.31000 150.805
49.32000 153.120
49.33000 157.802
49.34000 162.529
49.35000 165.086
49.36000 157.197
49.37000 151.806
49.38000 151.609
49.39000 155.390
49.40000 159.085
49.41000 159.410
49.42000 157.995
49.43000 156.641
49.44000 155.021
49.45000 153.426
49.46000 151.946
49.47000 151.519
49.48000 151.344
49.49000 151.212
49.50000 151.325
49.51000 151.476
49.52000 151.597
49.53000 153.485
49.54000 155.150
49.55000 155.813
49.56000 153.940
49.57000 151.943
49.58000 150.042
49.59000 148.304
49.60000 146.570
49.61000 145.640
49.62000 148.380
49.63000 150.264
49.64000 154.302
49.65000 159.960
49.66000 165.431
49.67000 163.920
49.68000 158.864
49.69000 154.033
49.70000 155.424
49.71000 158.726
49.72000 161.483
49.73000 159.416
49.74000 156.218
49.75000 153.634
49.76000 154.432
49.77000 155.748
49.78000 156.799
49.79000 153.700
49.80000 150.886
49.81000 149.301
49.82000 150.772
49.83000 152.386
49.84000 152.086
49.85000 148.534
49.86000 144.929
49.87000 143.014
49.88000 151.279
49.89000 156.894
49.90000 159.521
49.91000 159.942
49.92000 160.190
49.93000 154.236
49.94000 145.188
49.95000 136.556
49.96000 141.296
49.97000 149.933
49.98000 157.645
49.99000 157.371
50.00000 155.258
50.01000 153.417
50.02000 153.052
50.03000 152.907
50.04000 152.792
50.05000 151.303
50.06000 150.004
50.07000 149.621
50.08000 151.481
50.09000 153.443
50.10000 155.088
50.11000 156.208
50.12000 157.319
50.13000 157.904
50.14000 156.447
50.15000 155.464
50.16000 155.403
50.17000 156.010
50.18000 156.577
50.19000 155.763
50.20000 154.271
50.21000 152.851
50.22000 154.604
50.23000 157.215
50.24000 159.509
50.25000 159.129
50.26000 158.144
50.27000 157.164
50.28000 156.210
50.29000 155.260
50.30000 154.507
50.31000 154.632
50.32000 154.794
50.33000 157.358
50.34000 165.695
50.35000 174.285
50.36000 175.787
50.37000 165.672
50.38000 155.388
50.39000 150.025
50.40000 161.381
50.41000 169.035
50.42000 172.329
50.43000 172.521
50.44000 172.657
50.45000 171.007
50.46000 168.495
50.47000 166.107
50.48000 166.462
50.49000 167.627
50.50000 168.060
50.51000 162.455
50.52000 155.509
50.53000 150.669
50.54000 156.781
50.55000 164.463
50.56000 170.530
50.57000 173.486
50.58000 175.646
50.59000 176.972
50.60000 176.327
50.61000 175.599
50.62000 175.836
50.63000 177.628
50.64000 179.441
50.65000 180.378
50.66000 172.946
50.67000 167.977
50.68000 168.279
50.69000 172.265
50.70000 176.115
50.71000 175.721
50.72000 173.315
50.73000 171.032
50.74000 176.475
50.75000 183.808
50.76000 190.042
50.77000 187.414
50.78000 182.854
50.79000 178.755
50.80000 177.009
50.81000 175.593
50.82000 174.479
50.83000 174.239
50.84000 174.106
50.85000 172.586
50.86000 167.847
50.87000 162.977
50.88000 159.884
50.89000 159.602
50.90000 159.356
50.91000 159.230
50.92000 164.194
50.93000 167.506
50.94000 168.179
50.95000 167.041
50.96000 165.766
50.97000 160.412
50.98000 153.158
50.99000 146.284
51.00000 148.067
51.01000 152.250
51.02000 156.100
51.03000 157.330
51.04000 157.999
51.05000 157.643
51.06000 152.154
51.07000 145.960
51.08000 141.109
51.09000 149.110
51.10000 156.328
51.11000 159.338
51.12000 152.738
51.13000 145.762
51.14000 143.230
51.15000 147.604
51.16000 152.058
51.17000 154.315
51.18000 159.479
51.19000 162.875
51.20000 159.644
51.21000 151.946
51.22000 144.455
51.23000 142.830
51.24000 143.892
51.25000 144.897
51.26000 144.270
51.27000 143.223
51.28000 142.612
51.29000 145.355
51.30000 148.803
51.31000 151.497
51.32000 150.493
51.33000 148.992
51.34000 147.821
51.35000 147.150
51.36000 146.645
51.37000 145.217
51.38000 141.715
51.39000 138.134
51.40000 136.647
51.41000 138.355
51.42000 140.098
51.43000 140.972
51.44000 139.983
51.45000 139.328
51.46000 139.192
51.47000 139.399
51.48000 139.612
51.49000 139.966
51.50000 140.383
51.51000 140.778
51.52000 141.779
51.53000 142.870
51.54000 143.254
51.55000 138.305
51.56000 132.257
51.57000 128.143
51.58000 133.346
51.59000 139.774
51.60000 144.766
51.61000 142.368
51.62000 140.013
51.63000 139.333
51.64000 142.345
51.65000 145.491
51.66000 147.503
51.67000 147.817
51.68000 148.115
51.69000 147.809
51.70000 146.908
51.71000 145.995
51.72000 143.983
51.73000 141.257
51.74000 138.603
51.75000 137.845
51.76000 137.925
51.77000 138.000
51.78000 142.007
51.79000 146.764
51.80000 150.082
51.81000 142.788
51.82000 133.348
51.83000 126.294
51.84000 130.520
51.85000 136.196
51.86000 140.585
51.87000 141.550
51.88000 142.115
51.89000 142.405
51.90000 142.102
51.91000 141.777
51.92000 142.733
51.93000 145.575
51.94000 148.434
51.95000 149.328
51.96000 148.322
51.97000 147.297
51.98000 144.716
51.99000 141.141
52.00000 137.809
52.01000 140.611
52.02000 146.081
52.03000 151.228
52.04000 152.807
52.05000 153.282
52.06000 153.015
52.07000 147.392
52.08000 140.706
52.09000 136.141
52.10000 141.414
52.11000 147.924
52.12000 152.936
52.13000 143.159
52.14000 134.578
52.15000 129.846
52.16000 133.321
52.17000 137.067
52.18000 141.226
52.19000 145.983
52.20000 150.743
52.21000 151.241
52.22000 147.701
52.23000 144.193
52.24000 143.258
52.25000 143.938
52.26000 144.509
52.27000 142.439
52.28000 139.241
52.29000 136.236
52.30000 137.937
52.31000 140.741
52.32000 143.055
52.33000 141.901
52.34000 140.073
52.35000 138.478
52.36000 137.944
52.37000 137.540
52.38000 137.230
52.39000 143.073
52.40000 148.027
52.41000 149.944
52.42000 145.497
52.43000 140.849
52.44000 138.013
52.45000 137.752
52.46000 137.511
52.47000 138.780
52.48000 141.451
52.49000 144.106
52.50000 145.539
52.51000 146.220
52.52000 146.713
52.53000 142.835
52.54000 137.118
52.55000 131.759
52.56000 135.966
52.57000 142.294
52.58000 147.402
52.59000 144.077
52.60000 139.143
52.61000 134.933
52.62000 133.960
52.63000 133.377
52.64000 132.932
52.65000 133.142
52.66000 133.343
52.67000 135.908
52.68000 143.346
52.69000 150.931
52.70000 154.871
52.71000 153.724
52.72000 152.545
52.73000 149.044
52.74000 143.434
52.75000 137.891
52.76000 136.794
52.77000 138.393
52.78000 140.039
52.79000 142.767
52.80000 145.943
52.81000 148.914
52.82000 147.982
52.83000 146.137
52.84000 144.522
52.85000 144.466
52.86000 144.702
52.87000 144.806
52.88000 144.330
52.89000 143.785
52.90000 143.371
52.91000 144.084
52.92000 144.702
52.93000 145.116
52.94000 145.116
52.95000 145.104
52.96000 145.725
52.97000 147.212
52.98000 148.703
52.99000 147.791
53.00000 144.734
53.01000 141.742
53.02000 142.851
53.03000 146.402
53.04000 149.698
53.05000 147.479
53.06000 143.020
53.07000 138.856
53.08000 140.874
53.09000 144.255
53.10000 147.347
53.11000 148.520
53.12000 149.342
53.13000 150.142
53.14000 150.849
53.15000 151.545
53.16000 152.072
53.17000 152.816
53.18000 153.411
53.19000 153.393
53.20000 152.159
53.21000 150.891
53.22000 151.883
53.23000 155.917
53.24000 159.965
53.25000 161.289
53.26000 160.229
53.27000 159.156
53.28000 157.349
53.29000 155.112
53.30000 153.018
53.31000 153.920
53.32000 156.017
53.33000 157.972
53.34000 161.511
53.35000 165.103
53.36000 167.986
53.37000 166.264
53.38000 163.712
53.39000 161.363
53.40000 159.867
53.41000 158.468
53.42000 157.415
53.43000 153.683
53.44000 150.633
53.45000 149.243
53.46000 151.098
53.47000 153.038
53.48000 155.498
53.49000 158.646
53.50000 161.796
53.51000 162.788
53.52000 161.927
53.53000 161.066
53.54000 160.149
53.55000 159.201
53.56000 158.262
53.57000 157.526
53.58000 156.868
53.59000 156.257
53.60000 153.854
53.61000 151.251
53.62000 149.184
53.63000 150.523
53.64000 152.463
53.65000 153.871
53.66000 153.072
53.67000 152.030
53.68000 151.251
53.69000 151.244
53.70000 151.275
53.71000 151.327
53.72000 151.422
53.73000 151.517
53.74000 151.794
53.75000 152.309
53.76000 152.824
53.77000 152.081
53.78000 150.282
53.79000 148.532
53.80000 149.348
53.81000 151.613
53.82000 153.594
53.83000 150.053
53.84000 144.381
53.85000 139.117
53.86000 138.582
53.87000 139.219
53.88000 139.627
53.89000 138.610
53.90000 137.345
53.91000 136.122
53.92000 135.069
53.93000 134.033
53.94000 133.261
53.95000 140.024
53.96000 145.630
53.97000 149.216
53.98000 148.984
53.99000 148.662
54.00000 148.273
54.01000 147.799
54.02000 147.325
54.03000 144.711
54.04000 140.341
54.05000 136.048
54.06000 135.582
54.07000 137.239
54.08000 139.006
54.09000 142.831
54.10000 147.436
54.11000 151.701
54.12000 150.062
54.13000 147.219
54.14000 144.799
54.15000 144.959
54.16000 145.557
54.17000 145.269
54.18000 141.434
54.19000 137.229
54.20000 134.111
54.21000 133.249
54.22000 132.679
54.23000 132.967
54.24000 134.850
54.25000 136.769
54.26000 138.168
54.27000 138.919
54.28000 139.667
54.29000 140.611
54.30000 141.711
54.31000 142.778
54.32000 142.350
54.33000 141.108
54.34000 139.885
54.35000 139.020
54.36000 138.289
54.37000 137.614
54.38000 141.119
54.39000 145.215
54.40000 148.380
54.41000 145.972
54.42000 142.637
54.43000 140.913
54.44000 145.526
54.45000 150.785
54.46000 154.666
54.47000 146.569
54.48000 139.790
54.49000 136.595
54.50000 139.942
54.51000 143.428
54.52000 143.357
54.53000 138.927
54.54000 134.495
54.55000 133.238
54.56000 134.508
54.57000 135.826
54.58000 139.303
54.59000 143.938
54.60000 148.127
54.61000 144.465
54.62000 137.927
54.63000 131.896
54.64000 136.499
54.65000 142.990
54.66000 148.314
54.67000 146.790
54.68000 144.149
54.69000 142.013
54.70000 141.825
54.71000 141.830
54.72000 141.834
54.73000 139.675
54.74000 137.917
54.75000 137.603
54.76000 139.876
54.77000 142.202
54.78000 143.676
54.79000 144.127
54.80000 144.575
54.81000 141.918
54.82000 136.859
54.83000 131.956
54.84000 133.536
54.85000 138.533
54.86000 143.547
54.87000 148.871
54.88000 154.305
54.89000 159.307
54.90000 159.441
54.91000 158.498
54.92000 156.651
54.93000 149.604
54.94000 141.725
54.95000 136.511
54.96000 141.402
54.97000 147.274
54.98000 151.564
54.99000 149.846
55.00000 148.285
55.01000 148.471
55.02000 151.734
55.03000 155.055
55.04000 156.167
55.05000 154.674
55.06000 153.180
55.07000 153.844
55.08000 156.151
55.09000 158.376
55.10000 157.383
55.11000 154.723
55.12000 152.139
55.13000 150.795
55.14000 149.890
55.15000 149.059
55.16000 149.959
55.17000 151.132
55.18000 152.760
55.19000 156.957
55.20000 161.555
55.21000 164.594
55.22000 161.821
55.23000 158.499
55.24000 156.084
55.25000 157.489
55.26000 158.715
55.27000 160.772
55.28000 164.271
55.29000 167.795
55.30000 170.532
55.31000 172.359
55.32000 174.180
55.33000 176.943
55.34000 180.393
55.35000 183.791
55.36000 185.273
55.37000 185.780
55.38000 186.259
55.39000 186.314
55.40000 186.220
55.41000 186.134
55.42000 190.563
55.43000 195.453
55.44000 200.847
55.45000 209.025
55.46000 217.629
55.47000 225.912
55.48000 233.022
55.49000 240.023
55.50000 245.086
55.51000 252.683
55.52000 258.606
55.53000 266.081
55.54000 276.200
55.55000 286.363
55.56000 299.271
55.57000 315.294
55.58000 331.270
55.59000 345.472
55.60000 358.262
55.61000 370.945
55.62000 379.778
55.63000 386.685
55.64000 394.020
55.65000 408.014
55.66000 424.286
55.67000 439.163
55.68000 456.392
55.69000 472.184
55.70000 487.639
55.71000 501.266
55.72000 514.619
55.73000 528.387
55.74000 543.646
55.75000 559.040
55.76000 570.114
55.77000 587.900
55.78000 601.751
55.79000 617.339
55.80000 635.832
55.81000 654.371
55.82000 667.897
55.83000 675.840
55.84000 683.752
55.85000 690.698
55.86000 696.890
55.87000 703.153
55.88000 711.880
55.89000 721.817
55.90000 731.175
55.91000 731.798
55.92000 729.484
55.93000 727.374
55.94000 726.795
55.95000 726.591
55.96000 724.851
55.97000 714.948
55.98000 703.845
55.99000 692.589
56.00000 680.786
56.01000 668.936
56.02000 660.456
56.03000 644.520
56.04000 632.099
56.05000 620.249
56.06000 609.337
56.07000 598.440
56.08000 580.258
56.09000 554.120
56.10000 528.083
56.11000 507.621
56.12000 491.295
56.13000 474.959
56.14000 458.306
56.15000 441.500
56.16000 424.607
56.17000 406.451
56.18000 387.877
56.19000 370.975
56.20000 358.119
56.21000 347.540
56.22000 336.753
56.23000 324.879
56.24000 312.849
56.25000 300.568
56.26000 287.413
56.27000 274.184
56.28000 264.768
56.29000 253.509
56.30000 244.873
56.31000 238.551
56.32000 235.967
56.33000 233.434
56.34000 227.895
56.35000 219.138
56.36000 210.419
56.37000 203.592
56.38000 198.148
56.39000 192.824
56.40000 191.213
56.41000 191.366
56.42000 191.209
56.43000 186.624
56.44000 180.603
56.45000 175.136
56.46000 175.393
56.47000 176.726
56.48000 176.993
56.49000 171.816
56.50000 165.872
56.51000 161.136
56.52000 160.519
56.53000 160.243
56.54000 160.049
56.55000 158.391
56.56000 157.086
56.57000 155.153
56.58000 152.225
56.59000 149.285
56.60000 146.437
56.61000 143.685
56.62000 140.946
56.63000 141.793
56.64000 145.069
56.65000 148.229
56.66000 147.919
56.67000 145.988
56.68000 143.896
56.69000 139.581
56.70000 134.556
56.71000 130.004
56.72000 130.115
56.73000 131.093
56.74000 132.578
56.75000 136.602
56.76000 140.976
56.77000 142.923
56.78000 136.731
56.79000 129.881
56.80000 125.059
56.81000 131.236
56.82000 136.247
56.83000 137.902
56.84000 134.330
56.85000 130.696
56.86000 129.425
56.87000 130.586
56.88000 131.740
56.89000 131.825
56.90000 131.195
56.91000 130.558
56.92000 129.709
56.93000 128.762
56.94000 128.310
56.95000 134.510
56.96000 142.797
56.97000 150.284
56.98000 148.730
56.99000 145.689
57.00000 142.314
57.01000 137.297
57.02000 132.058
57.03000 128.181
57.04000 128.787
57.05000 129.746
57.06000 130.417
57.07000 129.906
57.08000 129.485
57.09000 129.813
57.10000 131.287
57.11000 132.773
57.12000 133.799
57.13000 134.361
57.14000 134.919
57.15000 133.798
57.16000 131.594
57.17000 129.517
57.18000 130.953
57.19000 133.973
57.20000 136.896
57.21000 138.560
57.22000 139.835
57.23000 140.984
57.24000 137.414
57.25000 133.424
57.26000 130.653
57.27000 133.763
57.28000 137.649
57.29000 138.964
57.30000 131.955
57.31000 124.310
57.32000 118.987
57.33000 119.184
57.34000 119.483
57.35000 119.807
57.36000 120.167
57.37000 120.528
57.38000 121.358
57.39000 122.650
57.40000 123.935
57.41000 127.004
57.42000 131.175
57.43000 135.248
57.44000 136.765
57.45000 137.148
57.46000 137.483
57.47000 137.208
57.48000 136.748
57.49000 136.335
57.50000 133.595
57.51000 130.783
57.52000 128.537
57.53000 128.977
57.54000 129.763
57.55000 129.829
57.56000 127.602
57.57000 125.205
57.58000 123.545
57.59000 124.958
57.60000 126.101
57.61000 128.046
57.62000 131.175
57.63000 134.314
57.64000 134.092
57.65000 130.611
57.66000 127.155
57.67000 127.082
57.68000 129.142
57.69000 131.001
57.70000 127.759
57.71000 122.291
57.72000 117.195
57.73000 116.681
57.74000 117.531
57.75000 118.294
57.76000 122.083
57.77000 125.921
57.78000 128.834
57.79000 127.440
57.80000 125.504
57.81000 124.606
57.82000 126.957
57.83000 129.543
57.84000 131.323
57.85000 125.514
57.86000 120.965
57.87000 119.662
57.88000 123.066
57.89000 126.509
57.90000 127.564
57.91000 126.350
57.92000 125.146
57.93000 124.080
57.94000 123.117
57.95000 122.216
57.96000 122.819
57.97000 124.066
57.98000 125.252
57.99000 125.710
58.00000 125.956
58.01000 126.175
58.02000 129.823
58.03000 133.587
58.04000 135.912
58.05000 131.669
58.06000 126.615
58.07000 123.559
58.08000 126.644
58.09000 130.161
58.10000 132.567
58.11000 134.436
58.12000 135.822
58.13000 135.015
58.14000 131.084
58.15000 127.129
58.16000 124.737
58.17000 123.801
58.18000 122.873
58.19000 123.485
58.20000 125.020
58.21000 126.454
58.22000 125.516
58.23000 123.578
58.24000 121.756
58.25000 121.292
58.26000 121.218
58.27000 121.152
58.28000 119.927
58.29000 118.667
58.30000 117.502
58.31000 116.755
58.32000 116.059
58.33000 115.201
58.34000 113.858
58.35000 112.482
58.36000 111.546
58.37000 115.568
58.38000 118.683
58.39000 120.174
58.40000 119.390
58.41000 118.590
58.42000 116.219
58.43000 112.410
58.44000 108.637
58.45000 109.319
58.46000 112.640
58.47000 115.824
58.48000 115.905
58.49000 114.700
58.50000 113.659
58.51000 114.487
58.52000 115.842
58.53000 117.047
58.54000 117.103
58.55000 116.964
58.56000 116.295
58.57000 113.295
58.58000 110.021
58.59000 107.734
58.60000 108.379
58.61000 109.217
58.62000 109.784
58.63000 111.033
58.64000 111.978
58.65000 114.251
58.66000 118.349
58.67000 122.456
58.68000 122.830
58.69000 119.859
58.70000 116.918
58.71000 116.003
58.72000 116.292
58.73000 116.662
58.74000 118.805
58.75000 121.671
58.76000 124.254
58.77000 123.704
58.78000 122.285
58.79000 121.026
58.80000 120.617
58.81000 120.398
58.82000 120.299
58.83000 120.719
58.84000 121.198
58.85000 122.012
58.86000 123.799
58.87000 125.650
58.88000 126.893
58.89000 117.632
58.90000 110.535
58.91000 107.923
58.92000 111.362
58.93000 114.832
58.94000 117.277
58.95000 118.821
58.96000 120.348
58.97000 120.400
58.98000 119.606
58.99000 118.748
59.00000 116.578
59.01000 113.882
59.02000 111.601
59.03000 113.812
59.04000 117.248
59.05000 120.288
59.06000 119.397
59.07000 118.014
59.08000 116.487
59.09000 114.351
59.10000 112.146
59.11000 111.380
59.12000 114.740
59.13000 118.355
59.14000 120.771
59.15000 122.174
59.16000 123.195
59.17000 123.057
59.18000 121.388
59.19000 119.713
59.20000 119.407
59.21000 120.281
59.22000 121.146
59.23000 119.448
59.24000 116.348
59.25000 113.440
59.26000 114.430
59.27000 116.954
59.28000 119.183
59.29000 118.300
59.30000 116.583
59.31000 115.068
59.32000 115.593
59.33000 116.358
59.34000 116.818
59.35000 116.008
59.36000 115.058
59.37000 114.842
59.38000 116.691
59.39000 118.665
59.40000 119.975
59.41000 121.492
59.42000 122.617
59.43000 122.584
59.44000 121.043
59.45000 119.497
59.46000 117.873
59.47000 116.182
59.48000 114.512
59.49000 113.403
59.50000 112.632
59.51000 111.976
59.52000 113.581
59.53000 116.061
59.54000 118.357
59.55000 118.773
59.56000 118.695
59.57000 118.626
59.58000 117.366
59.59000 116.104
59.60000 115.167
59.61000 115.559
59.62000 116.095
59.63000 115.524
59.64000 111.889
59.65000 108.076
59.66000 105.559
59.67000 112.469
59.68000 117.729
59.69000 121.109
59.70000 122.090
59.71000 123.059
59.72000 122.139
59.73000 119.652
59.74000 117.197
59.75000 118.191
59.76000 121.027
59.77000 123.598
59.78000 121.133
59.79000 116.752
59.80000 112.751
59.81000 112.553
59.82000 113.337
59.83000 114.025
59.84000 113.210
59.85000 112.290
59.86000 112.068
59.87000 114.648
59.88000 117.522
59.89000 120.011
59.90000 121.448
59.91000 122.827
59.92000 123.731
59.93000 116.749
59.94000 111.484
59.95000 109.900
59.96000 112.924
59.97000 115.959
59.98000 117.480
59.99000 117.768
60.00000 118.051
60.01000 115.690
60.02000 111.987
60.03000 108.643
60.04000 111.861
60.05000 117.532
60.06000 122.627
60.07000 122.088
60.08000 120.118
60.09000 118.395
60.10000 119.659
60.11000 121.169
60.12000 121.864
60.13000 119.342
60.14000 116.492
60.15000 114.135
60.16000 113.100
60.17000 112.138
60.18000 111.511
60.19000 111.578
60.20000 111.638
60.21000 112.851
60.22000 115.482
60.23000 118.099
60.24000 115.274
60.25000 108.098
60.26000 101.027
60.27000 104.497
60.28000 113.366
60.29000 121.755
60.30000 121.646
60.31000 118.415
60.32000 115.461
60.33000 115.156
60.34000 115.511
60.35000 115.822
60.36000 117.360
60.37000 118.847
60.38000 120.630
60.39000 123.564
60.40000 126.611
60.41000 127.994
60.42000 124.992
60.43000 121.758
60.44000 119.665
60.45000 114.681
60.46000 110.992
60.47000 110.721
60.48000 114.573
60.49000 118.422
60.50000 118.999
60.51000 117.008
60.52000 115.049
60.53000 114.795
60.54000 115.424
60.55000 116.130
60.56000 118.156
60.57000 120.659
60.58000 122.967
60.59000 123.452
60.60000 123.491
60.61000 123.524
60.62000 120.347
60.63000 117.196
60.64000 114.980
60.65000 116.322
60.66000 118.011
60.67000 118.078
60.68000 113.949
60.69000 109.606
60.70000 106.813
60.71000 108.713
60.72000 110.164
60.73000 112.148
60.74000 114.761
60.75000 117.369
60.76000 118.213
60.77000 117.699
60.78000 117.193
60.79000 116.460
60.80000 115.635
60.81000 114.855
60.82000 114.804
60.83000 115.012
60.84000 114.989
60.85000 112.855
60.86000 110.214
60.87000 107.923
60.88000 113.191
60.89000 118.688
60.90000 122.785
60.91000 121.654
60.92000 120.026
60.93000 118.062
60.94000 115.243
60.95000 112.381
60.96000 110.553
60.97000 111.078
60.98000 111.491
60.99000 112.644
61.00000 114.656
61.01000 116.673
61.02000 119.692
61.03000 123.468
61.04000 127.179
61.05000 125.883
61.06000 122.159
61.07000 118.625
61.08000 118.137
61.09000 118.713
61.10000 118.937
61.11000 116.036
61.12000 112.398
61.13000 109.251
61.14000 112.911
61.15000 116.911
61.16000 119.890
61.17000 119.122
61.18000 118.007
61.19000 117.979
61.20000 120.667
61.21000 123.486
61.22000 125.274
61.23000 124.032
61.24000 123.094
61.25000 120.801
61.26000 116.962
61.27000 113.141
61.28000 112.634
61.29000 114.587
61.30000 116.505
61.31000 118.607
61.32000 120.725
61.33000 122.705
61.34000 122.550
61.35000 121.662
61.36000 120.638
61.37000 118.438
61.38000 115.965
61.39000 113.834
61.40000 118.121
61.41000 122.575
61.42000 127.213
61.43000 132.509
61.44000 137.866
61.45000 140.986
61.46000 138.611
61.47000 135.984
61.48000 134.328
61.49000 142.091
61.50000 147.818
61.51000 153.197
61.52000 158.186
61.53000 163.208
61.54000 173.567
61.55000 187.814
61.56000 201.790
61.57000 210.304
61.58000 215.912
61.59000 221.970
61.60000 234.842
61.61000 250.011
61.62000 264.419
61.63000 272.370
61.64000 278.853
61.65000 284.425
61.66000 281.802
61.67000 278.561
61.68000 276.866
61.69000 280.648
61.70000 284.911
61.71000 290.938
61.72000 301.226
61.73000 311.703
61.74000 318.259
61.75000 299.847
61.76000 286.291
61.77000 274.759
61.78000 265.445
61.79000 256.087
61.80000 239.968
61.81000 219.013
61.82000 198.477
61.83000 183.522
61.84000 171.734
61.85000 160.403
61.86000 155.773
61.87000 153.363
61.88000 150.781
61.89000 146.767
61.90000 142.434
61.91000 138.721
61.92000 131.731
61.93000 125.430
61.94000 121.117
61.95000 123.722
61.96000 126.920
61.97000 128.165
61.98000 124.775
61.99000 121.186
62.00000 118.956
62.01000 123.906
62.02000 127.540
62.03000 128.377
62.04000 126.208
62.05000 124.061
62.06000 124.980
62.07000 128.051
62.08000 131.058
62.09000 129.926
62.10000 126.944
62.11000 124.173
62.12000 124.391
62.13000 125.584
62.14000 126.872
62.15000 128.933
62.16000 131.165
62.17000 133.071
62.18000 131.354
62.19000 129.477
62.20000 127.337
62.21000 124.296
62.22000 121.180
62.23000 120.187
62.24000 124.149
62.25000 128.314
62.26000 130.884
62.27000 131.629
62.28000 132.147
62.29000 133.023
62.30000 134.277
62.31000 135.496
62.32000 132.451
62.33000 126.466
62.34000 120.613
62.35000 120.488
62.36000 122.940
62.37000 125.388
62.38000 127.773
62.39000 130.138
62.40000 132.256
62.41000 132.406
62.42000 132.134
62.43000 131.901
62.44000 128.940
62.45000 126.134
62.46000 124.275
62.47000 125.597
62.48000 127.178
62.49000 129.352
62.50000 132.888
62.51000 136.478
62.52000 138.677
62.53000 131.862
62.54000 126.907
62.55000 124.126
62.56000 123.590
62.57000 123.055
62.58000 122.551
62.59000 122.067
62.60000 121.594
62.61000 123.329
62.62000 125.962
62.63000 128.747
62.64000 133.580
62.65000 139.056
62.66000 143.098
62.67000 136.012
62.68000 126.576
62.69000 118.568
62.70000 122.583
62.71000 127.313
62.72000 130.758
62.73000 129.959
62.74000 128.824
62.75000 129.508
62.76000 134.295
62.77000 139.237
62.78000 142.243
62.79000 132.059
62.80000 124.685
62.81000 123.024
62.82000 127.145
62.83000 131.227
62.84000 131.416
62.85000 129.014
62.86000 126.669
62.87000 126.635
62.88000 127.600
62.89000 128.250
62.90000 124.770
62.91000 120.013
62.92000 116.197
62.93000 119.525
62.94000 124.333
62.95000 128.400
62.96000 131.250
62.97000 133.500
62.98000 135.216
62.99000 135.197
63.00000 135.045
63.01000 133.202
63.02000 127.609
63.03000 121.880
63.04000 118.422
63.05000 127.679
63.06000 134.362
63.07000 136.726
63.08000 134.808
63.09000 132.892
63.10000 131.157
63.11000 129.541
63.12000 127.965
63.13000 129.456
63.14000 132.180
63.15000 134.650
63.16000 133.875
63.17000 132.114
63.18000 130.589
63.19000 130.811
63.20000 131.389
63.21000 131.876
63.22000 135.418
63.23000 138.705
63.24000 139.885
63.25000 134.345
63.26000 128.303
63.27000 125.039
63.28000 127.832
63.29000 130.836
63.30000 132.636
63.31000 135.526
63.32000 137.586
63.33000 136.814
63.34000 133.287
63.35000 129.827
63.36000 131.978
63.37000 137.733
63.38000 143.336
63.39000 140.025
63.40000 133.160
63.41000 127.011
63.42000 129.732
63.43000 135.101
63.44000 139.788
63.45000 139.521
63.46000 138.266
63.47000 137.212
63.48000 134.843
63.49000 132.731
63.50000 131.661
63.51000 133.854
63.52000 136.284
63.53000 137.208
63.54000 134.904
63.55000 132.492
63.56000 131.057
63.57000 139.784
63.58000 146.023
63.59000 147.254
63.60000 143.713
63.61000 140.196
63.62000 138.565
63.63000 138.125
63.64000 137.696
63.65000 138.925
63.66000 140.770
63.67000 142.306
63.68000 140.100
63.69000 136.798
63.70000 133.894
63.71000 133.824
63.72000 134.308
63.73000 134.714
63.74000 137.307
63.75000 139.687
63.76000 141.470
63.77000 141.409
63.78000 141.219
63.79000 141.578
63.80000 143.095
63.81000 144.648
63.82000 145.565
63.83000 144.546
63.84000 143.815
63.85000 141.764
63.86000 138.480
63.87000 135.222
63.88000 133.906
63.89000 133.795
63.90000 133.687
63.91000 135.517
63.92000 138.033
63.93000 140.402
63.94000 141.054
63.95000 141.211
63.96000 141.011
63.97000 138.322
63.98000 135.155
63.99000 132.513
64.00000 135.658
64.01000 138.847
64.02000 141.134
64.03000 140.689
64.04000 140.058
64.05000 140.116
64.06000 141.602
64.07000 143.132
64.08000 144.027
64.09000 142.052
64.10000 140.647
64.11000 141.056
64.12000 143.127
64.13000 145.182
64.14000 146.245
64.15000 146.704
64.16000 147.148
64.17000 148.019
64.18000 149.011
64.19000 149.824
64.20000 148.584
64.21000 146.762
64.22000 145.531
64.23000 148.324
64.24000 151.875
64.25000 154.828
64.26000 156.136
64.27000 157.057
64.28000 157.229
64.29000 155.172
64.30000 152.968
64.31000 151.804
64.32000 152.760
64.33000 153.779
64.34000 154.370
64.35000 157.608
64.36000 159.893
64.37000 161.599
64.38000 162.786
64.39000 163.959
64.40000 164.224
64.41000 163.947
64.42000 163.678
64.43000 159.634
64.44000 154.350
64.45000 149.366
64.46000 147.726
64.47000 147.016
64.48000 146.876
64.49000 150.537
64.50000 154.901
64.51000 158.516
64.52000 160.954
64.53000 162.854
64.54000 162.945
64.55000 157.741
64.56000 152.196
64.57000 149.035
64.58000 150.642
64.59000 152.383
64.60000 153.386
64.61000 158.430
64.62000 161.974
64.63000 163.740
64.64000 163.938
64.65000 164.121
64.66000 163.449
64.67000 162.273
64.68000 161.136
64.69000 164.425
64.70000 169.208
64.71000 173.842
64.72000 176.847
64.73000 179.408
64.74000 181.315
64.75000 178.950
64.76000 175.812
64.77000 173.221
64.78000 174.611
64.79000 176.126
64.80000 175.980
64.81000 171.056
64.82000 165.834
64.83000 162.764
64.84000 163.927
64.85000 165.201
64.86000 165.930
64.87000 171.193
64.88000 174.880
64.89000 177.256
64.90000 178.499
64.91000 179.763
64.92000 182.318
64.93000 185.617
64.94000 188.804
64.95000 189.895
64.96000 190.145
64.97000 190.282
64.98000 189.226
64.99000 187.851
65.00000 187.464
65.01000 193.408
65.02000 200.476
65.03000 206.290
65.04000 202.959
65.05000 199.393
65.06000 196.245
65.07000 194.279
65.08000 192.385
65.09000 193.413
65.10000 200.090
65.11000 206.910
65.12000 210.775
65.13000 211.959
65.14000 212.777
65.15000 214.630
65.16000 217.361
65.17000 220.044
65.18000 220.183
65.19000 218.877
65.20000 217.617
65.21000 216.445
65.22000 215.373
65.23000 214.651
65.24000 217.541
65.25000 221.385
65.26000 225.646
65.27000 232.525
65.28000 239.859
65.29000 245.870
65.30000 243.003
65.31000 239.866
65.32000 237.715
65.33000 238.297
65.34000 239.040
65.35000 241.088
65.36000 245.617
65.37000 250.204
65.38000 252.784
65.39000 252.630
65.40000 252.528
65.41000 257.871
65.42000 267.745
65.43000 277.513
65.44000 281.951
65.45000 283.415
65.46000 284.825
65.47000 289.403
65.48000 294.838
65.49000 299.763
65.50000 299.554
65.51000 298.016
65.52000 297.052
65.53000 299.620
65.54000 302.790
65.55000 305.379
65.56000 319.453
65.57000 331.959
65.58000 342.666
65.59000 348.465
65.60000 353.985
65.61000 363.969
65.62000 382.287
65.63000 400.795
65.64000 411.112
65.65000 436.148
65.66000 453.550
65.67000 490.546
65.68000 543.543
65.69000 596.930
65.70000 668.801
65.71000 750.805
65.72000 829.691
65.73000 952.352
65.74000 1082.743
65.75000 1212.644
65.76000 1337.739
65.77000 1461.611
65.78000 1580.673
65.79000 1670.768
65.80000 1756.020
65.81000 1825.368
65.82000 1875.007
65.83000 1913.883
65.84000 1949.707
65.85000 1977.340
65.86000 2004.524
65.87000 2021.549
65.88000 2019.937
65.89000 2017.924
65.90000 2016.811
65.91000 1963.510
65.92000 1926.573
65.93000 1865.076
65.94000 1783.896
65.95000 1702.202
65.96000 1597.545
65.97000 1480.515
65.98000 1368.100
65.99000 1237.526
66.00000 1109.061
66.01000 982.784
66.02000 877.469
66.03000 777.392
66.04000 681.929
66.05000 613.692
66.06000 549.918
66.07000 498.238
66.08000 464.256
66.09000 438.019
66.10000 415.388
66.11000 402.272
66.12000 389.661
66.13000 380.389
66.14000 377.138
66.15000 374.010
66.16000 372.295
66.17000 379.860
66.18000 385.059
66.19000 385.584
66.20000 382.432
66.21000 379.306
66.22000 377.259
66.23000 375.785
66.24000 374.371
66.25000 392.646
66.26000 416.379
66.27000 439.851
66.28000 460.885
66.29000 481.321
66.30000 501.209
66.31000 517.926
66.32000 534.135
66.33000 547.219
66.34000 567.802
66.35000 585.127
66.36000 601.190
66.37000 613.981
66.38000 626.604
66.39000 632.039
66.40000 624.736
66.41000 617.189
66.42000 613.091
66.43000 616.028
66.44000 618.036
66.45000 616.767
66.46000 612.966
66.47000 609.105
66.48000 602.823
66.49000 595.283
66.50000 588.062
66.51000 567.275
66.52000 543.390
66.53000 520.184
66.54000 503.174
66.55000 487.656
66.56000 470.294
66.57000 442.469
66.58000 412.999
66.59000 389.301
66.60000 375.301
66.61000 364.697
66.62000 357.154
66.63000 357.416
66.64000 358.065
66.65000 356.445
66.66000 350.872
66.67000 345.228
66.68000 342.190
66.69000 334.904
66.70000 329.951
66.71000 331.727
66.72000 338.601
66.73000 345.335
66.74000 346.640
66.75000 345.169
66.76000 343.762
66.77000 344.691
66.78000 346.318
66.79000 347.513
66.80000 344.861
66.81000 341.299
66.82000 339.705
66.83000 349.053
66.84000 360.088
66.85000 368.926
66.86000 364.233
66.87000 359.419
66.88000 356.496
66.89000 358.313
66.90000 360.357
66.91000 361.405
66.92000 360.750
66.93000 360.065
66.94000 359.700
66.95000 352.894
66.96000 348.287
66.97000 350.588
66.98000 358.027
66.99000 365.325
67.00000 367.463
67.01000 367.006
67.02000 366.570
67.03000 363.683
67.04000 360.218
67.05000 357.509
67.06000 361.381
67.07000 366.784
67.08000 371.033
67.09000 368.998
67.10000 366.014
67.11000 363.634
67.12000 372.612
67.13000 380.689
67.14000 383.981
67.15000 375.489
67.16000 366.451
67.17000 362.402
67.18000 366.740
67.19000 371.212
67.20000 373.575
67.21000 382.409
67.22000 388.391
67.23000 390.710
67.24000 390.351
67.25000 390.005
67.26000 390.091
67.27000 390.391
67.28000 390.677
67.29000 392.715
67.30000 395.153
67.31000 397.075
67.32000 394.593
67.33000 391.107
67.34000 388.710
67.35000 392.132
67.36000 396.415
67.37000 399.817
67.38000 403.505
67.39000 406.495
67.40000 409.978
67.41000 414.653
67.42000 419.381
67.43000 420.904
67.44000 417.134
67.45000 413.284
67.46000 411.269
67.47000 412.267
67.48000 412.955
67.49000 415.358
67.50000 418.990
67.51000 422.569
67.52000 424.354
67.53000 425.268
67.54000 426.138
67.55000 424.625
67.56000 422.494
67.57000 420.616
67.58000 420.857
67.59000 421.573
67.60000 423.072
67.61000 428.680
67.62000 434.884
67.63000 439.792
67.64000 444.637
67.65000 448.524
67.66000 452.300
67.67000 455.809
67.68000 459.306
67.69000 459.887
67.70000 455.734
67.71000 451.515
67.72000 449.326
67.73000 450.275
67.74000 450.920
67.75000 452.098
67.76000 453.650
67.77000 455.205
67.78000 456.825
67.79000 458.476
67.80000 460.044
67.81000 461.486
67.82000 462.780
67.83000 464.176
67.84000 466.410
67.85000 468.827
67.86000 470.807
67.87000 470.539
67.88000 469.951
67.89000 469.489
67.90000 474.153
67.91000 478.236
67.92000 482.401
67.93000 486.757
67.94000 491.121
67.95000 492.319
67.96000 488.468
67.97000 484.552
67.98000 482.540
67.99000 478.623
68.00000 476.009
68.01000 476.150
68.02000 478.195
68.03000 480.514
68.04000 491.094
68.05000 505.553
68.06000 519.266
68.07000 518.587
68.08000 513.705
68.09000 509.979
68.10000 515.452
68.11000 522.911
68.12000 528.934
68.13000 527.714
68.14000 525.489
68.15000 523.744
68.16000 519.567
68.17000 516.067
68.18000 515.606
68.19000 522.132
68.20000 528.936
68.21000 533.437
68.22000 534.331
68.23000 535.181
68.24000 535.613
68.25000 536.951
68.26000 537.888
68.27000 543.222
68.28000 551.542
68.29000 559.872
68.30000 568.481
68.31000 577.219
68.32000 585.492
68.33000 590.903
68.34000 595.052
68.35000 599.160
68.36000 602.953
68.37000 606.679
68.38000 609.854
68.39000 610.309
68.40000 610.394
68.41000 610.460
68.42000 614.298
68.43000 617.599
68.44000 621.342
68.45000 626.087
68.46000 630.870
68.47000 641.943
68.48000 662.696
68.49000 683.556
68.50000 694.064
68.51000 699.864
68.52000 703.754
68.53000 709.000
68.54000 715.151
68.55000 721.719
68.56000 739.909
68.57000 763.372
68.58000 785.547
68.59000 799.738
68.60000 810.499
68.61000 825.625
68.62000 873.983
68.63000 929.247
68.64000 980.363
68.65000 1011.334
68.66000 1039.631
68.67000 1061.646
68.68000 1115.343
68.69000 1160.033
68.70000 1205.755
68.71000 1253.772
68.72000 1301.873
68.73000 1347.612
68.74000 1389.779
68.75000 1431.909
68.76000 1474.768
68.77000 1518.351
68.78000 1561.809
68.79000 1593.591
68.80000 1617.719
68.81000 1643.079
68.82000 1701.367
68.83000 1774.338
68.84000 1843.181
68.85000 1914.281
68.86000 1980.081
68.87000 2058.216
68.88000 2228.202
68.89000 2416.916
68.90000 2645.174
68.91000 3061.905
68.92000 3503.115
68.93000 3844.901
68.94000 5375.272
68.95000 6661.450
68.96000 8356.559
68.97000 10945.320
68.98000 13565.489
68.99000 16607.637
69.00000 20276.320
69.01000 23950.779
69.02000 27412.588
69.03000 30666.859
69.04000 33912.586
69.05000 36416.945
69.06000 38443.969
69.07000 40439.715
69.08000 41632.879
69.09000 42474.281
69.10000 43266.660
69.11000 44000.664
69.12000 44656.156
69.13000 45328.691
69.14000 46125.449
69.15000 46947.059
69.16000 47714.133
69.17000 48226.105
69.18000 48705.676
69.19000 49075.551
69.20000 47835.734
69.21000 46760.453
69.22000 45111.582
69.23000 42230.516
69.24000 39307.953
69.25000 36490.734
69.26000 33827.133
69.27000 31165.010
69.28000 28958.424
69.29000 27187.588
69.30000 25424.389
69.31000 24274.352
69.32000 23512.143
69.33000 22763.061
69.34000 22337.830
69.35000 22052.131
69.36000 21783.574
69.37000 21200.879
69.38000 20584.539
69.39000 19891.928
69.40000 18655.365
69.41000 17312.051
69.42000 15854.797
69.43000 13874.450
69.44000 11829.126
69.45000 10258.652
69.46000 8367.246
69.47000 6854.138
69.48000 5519.837
69.49000 4563.115
69.50000 3618.563
69.51000 2884.682
69.52000 2452.513
69.53000 2022.737
69.54000 1732.949
69.55000 1574.408
69.56000 1416.527
69.57000 1307.823
69.58000 1229.678
69.59000 1152.725
69.60000 1104.056
69.61000 1067.365
69.62000 1032.941
69.63000 981.058
69.64000 929.185
69.65000 880.942
69.66000 858.039
69.67000 840.014
69.68000 822.024
69.69000 804.189
69.70000 786.374
69.71000 772.756
69.72000 751.299
69.73000 733.951
69.74000 720.739
69.75000 716.111
69.76000 711.747
69.77000 700.190
69.78000 678.516
69.79000 656.775
69.80000 644.119
69.81000 639.813
69.82000 635.349
69.83000 619.861
69.84000 597.644
69.85000 576.122
69.86000 570.474
69.87000 571.435
69.88000 572.335
69.89000 566.074
69.90000 558.532
69.91000 552.172
69.92000 553.891
69.93000 557.136
69.94000 557.589
69.95000 545.693
69.96000 532.331
69.97000 522.163
69.98000 516.063
69.99000 511.477
70.00000 507.240
