20.00000 508.380
20.01000 499.140
20.02000 488.581
20.03000 479.781
20.04000 477.914
20.05000 476.757
20.06000 475.902
20.07000 474.445
20.08000 473.290
20.09000 471.717
20.10000 469.378
20.11000 467.023
20.12000 465.863
20.13000 466.171
20.14000 466.483
20.15000 464.195
20.16000 459.851
20.17000 455.642
20.18000 457.423
20.19000 462.422
20.20000 467.160
20.21000 467.272
20.22000 465.684
20.23000 464.218
20.24000 467.333
20.25000 471.147
20.26000 473.277
20.27000 465.511
20.28000 456.127
20.29000 451.730
20.30000 466.640
20.31000 483.476
20.32000 495.846
20.33000 481.297
20.34000 468.947
20.35000 460.905
20.36000 460.609
20.37000 460.468
20.38000 461.416
20.39000 463.676
20.40000 465.934
20.41000 463.913
20.42000 458.565
20.43000 453.358
20.44000 454.080
20.45000 457.934
20.46000 461.521
20.47000 460.524
20.48000 457.874
20.49000 455.433
20.50000 458.979
20.51000 463.460
20.52000 467.489
20.53000 468.917
20.54000 469.929
20.55000 471.237
20.56000 473.671
20.57000 476.216
20.58000 478.076
20.59000 474.384
20.60000 471.317
20.61000 467.411
20.62000 462.023
20.63000 456.606
20.64000 456.051
20.65000 461.248
20.66000 466.442
20.67000 469.236
20.68000 470.176
20.69000 471.044
20.70000 469.025
20.71000 465.507
20.72000 462.047
20.73000 459.541
20.74000 457.373
20.75000 455.382
20.76000 459.051
20.77000 463.540
20.78000 467.193
20.79000 466.121
20.80000 464.309
20.81000 463.695
20.82000 467.561
20.83000 471.852
20.84000 474.972
20.85000 472.250
20.86000 469.934
20.87000 465.843
20.88000 458.672
20.89000 451.446
20.90000 450.143
20.91000 455.715
20.92000 461.280
20.93000 468.375
20.94000 476.571
20.95000 484.479
20.96000 481.437
20.97000 472.810
20.98000 464.690
20.99000 464.714
21.00000 467.580
21.01000 470.207
21.02000 469.913
21.03000 469.038
21.04000 468.268
21.05000 468.078
21.06000 467.977
21.07000 468.970
21.08000 473.982
21.09000 479.366
21.10000 483.262
21.11000 474.160
21.12000 466.699
21.13000 462.091
21.14000 462.352
21.15000 462.695
21.16000 463.046
21.17000 463.408
21.18000 463.769
21.19000 465.706
21.20000 468.788
21.21000 471.853
21.22000 474.324
21.23000 476.497
21.24000 478.243
21.25000 473.322
21.26000 466.115
21.27000 459.524
21.28000 460.439
21.29000 462.797
21.30000 464.458
21.31000 462.328
21.32000 459.627
21.33000 457.109
21.34000 455.251
21.35000 453.452
21.36000 452.158
21.37000 453.325
21.38000 454.305
21.39000 453.929
21.40000 451.279
21.41000 448.594
21.42000 448.061
21.43000 449.932
21.44000 451.799
21.45000 455.822
21.46000 461.368
21.47000 466.737
21.48000 465.979
21.49000 462.203
21.50000 458.556
21.51000 456.853
21.52000 455.807
21.53000 454.852
21.54000 463.590
21.55000 473.296
21.56000 481.336
21.57000 480.497
21.58000 478.350
21.59000 475.421
21.60000 469.721
21.61000 463.777
21.62000 459.521
21.63000 466.551
21.64000 472.303
21.65000 476.846
21.66000 479.401
21.67000 481.927
21.68000 480.487
21.69000 474.707
21.70000 468.947
21.71000 472.553
21.72000 482.759
21.73000 492.714
21.74000 494.424
21.75000 492.140
21.76000 490.029
21.77000 490.462
21.78000 491.737
21.79000 492.897
21.80000 491.193
21.81000 489.119
21.82000 488.382
21.83000 494.636
21.84000 501.899
21.85000 508.025
21.86000 510.198
21.87000 512.033
21.88000 513.339
21.89000 521.463
21.90000 527.876
21.91000 532.659
21.92000 534.806
21.93000 536.917
21.94000 539.405
21.95000 542.297
21.96000 545.176
21.97000 547.422
21.98000 549.206
21.99000 551.102
22.00000 556.548
22.01000 563.686
22.02000 570.280
22.03000 569.124
22.04000 565.446
22.05000 562.106
22.06000 561.722
22.07000 561.954
22.08000 562.183
22.09000 562.392
22.10000 562.597
22.11000 562.508
22.12000 561.408
22.13000 560.224
22.14000 559.385
22.15000 559.337
22.16000 559.326
22.17000 558.054
22.18000 554.779
22.19000 551.479
22.20000 544.367
22.21000 533.244
22.22000 522.174
22.23000 523.021
22.24000 531.982
22.25000 540.532
22.26000 536.698
22.27000 527.069
22.28000 517.839
22.29000 514.151
22.30000 512.237
22.31000 510.502
22.32000 507.822
22.33000 505.280
22.34000 502.836
22.35000 500.885
22.36000 499.002
22.37000 496.797
22.38000 493.509
22.39000 490.133
22.40000 487.755
22.41000 488.557
22.42000 489.260
22.43000 488.826
22.44000 486.613
22.45000 484.380
22.46000 480.029
22.47000 473.494
22.48000 466.995
22.49000 463.520
22.50000 462.113
22.51000 460.569
22.52000 455.097
22.53000 447.817
22.54000 441.469
22.55000 447.673
22.56000 457.824
22.57000 466.997
22.58000 457.428
22.59000 445.532
22.60000 436.740
22.61000 443.264
22.62000 451.860
22.63000 456.108
22.64000 445.998
22.65000 434.757
22.66000 426.880
22.67000 430.845
22.68000 434.184
22.69000 433.861
22.70000 427.918
22.71000 421.914
22.72000 420.288
22.73000 423.093
22.74000 425.881
22.75000 429.009
22.76000 432.319
22.77000 435.494
22.78000 434.961
22.79000 432.750
22.80000 431.023
22.81000 435.634
22.82000 442.201
22.83000 448.123
22.84000 443.105
22.85000 436.712
22.86000 431.548
22.87000 432.335
22.88000 433.910
22.89000 435.805
22.90000 438.740
22.91000 441.754
22.92000 443.855
22.93000 435.915
22.94000 429.648
22.95000 425.259
22.96000 423.699
22.97000 422.166
22.98000 421.656
22.99000 422.159
23.00000 422.659
23.01000 424.033
23.02000 425.949
23.03000 427.768
23.04000 427.026
23.05000 425.145
23.06000 423.592
23.07000 426.208
23.08000 430.090
23.09000 433.580
23.10000 432.475
23.11000 430.689
23.12000 429.077
23.13000 428.288
23.14000 427.605
23.15000 428.596
23.16000 434.922
23.17000 441.645
23.18000 446.303
23.19000 440.815
23.20000 436.418
23.21000 429.541
23.22000 418.993
23.23000 408.412
23.24000 408.951
23.25000 420.295
23.26000 431.560
23.27000 431.655
23.28000 424.692
23.29000 418.145
23.30000 422.182
23.31000 430.845
23.32000 438.894
23.33000 439.332
23.34000 437.500
23.35000 435.856
23.36000 431.061
23.37000 426.320
23.38000 422.665
23.39000 424.077
23.40000 426.130
23.41000 427.456
23.42000 426.507
23.43000 425.393
23.44000 424.626
23.45000 415.547
23.46000 408.522
23.47000 409.718
23.48000 422.865
23.49000 436.111
23.50000 441.220
23.51000 438.576
23.52000 435.952
23.53000 436.205
23.54000 438.237
23.55000 439.912
23.56000 432.838
23.57000 422.006
23.58000 412.707
23.59000 421.896
23.60000 436.505
23.61000 449.576
23.62000 442.048
23.63000 431.967
23.64000 424.811
23.65000 431.033
23.66000 438.912
23.67000 442.387
23.68000 432.301
23.69000 421.259
23.70000 413.698
23.71000 430.319
23.72000 443.345
23.73000 448.770
23.74000 443.339
23.75000 437.827
23.76000 433.154
23.77000 429.264
23.78000 425.407
23.79000 428.894
23.80000 436.784
23.81000 444.467
23.82000 447.280
23.83000 448.036
23.84000 448.834
23.85000 450.125
23.86000 451.558
23.87000 452.837
23.88000 453.557
23.89000 454.091
23.90000 453.598
23.91000 448.492
23.92000 442.829
23.93000 439.759
23.94000 444.539
23.95000 449.855
23.96000 453.475
23.97000 451.839
23.98000 450.496
23.99000 451.241
24.00000 454.912
24.01000 458.601
24.02000 457.530
24.03000 452.099
24.04000 446.717
24.05000 447.844
24.06000 452.834
24.07000 457.472
24.08000 454.120
24.09000 447.450
24.10000 441.075
24.11000 438.058
24.12000 435.993
24.13000 434.154
24.14000 437.896
24.15000 442.057
24.16000 444.755
24.17000 440.999
24.18000 436.480
24.19000 432.230
24.20000 428.780
24.21000 425.383
24.22000 423.084
24.23000 422.413
24.24000 421.948
24.25000 422.564
24.26000 424.667
24.27000 426.779
24.28000 429.927
24.29000 434.005
24.30000 438.044
24.31000 432.039
24.32000 420.276
24.33000 409.225
24.34000 413.743
24.35000 424.614
24.36000 433.948
24.37000 426.169
24.38000 413.632
24.39000 402.503
24.40000 412.008
24.41000 423.547
24.42000 432.185
24.43000 428.264
24.44000 422.892
24.45000 418.240
24.46000 415.695
24.47000 413.286
24.48000 411.665
24.49000 408.447
24.50000 406.021
24.51000 406.822
24.52000 411.983
24.53000 417.162
24.54000 414.981
24.55000 406.316
24.56000 397.742
24.57000 393.941
24.58000 392.967
24.59000 392.165
24.60000 395.000
24.61000 399.294
24.62000 403.382
24.63000 405.241
24.64000 406.492
24.65000 407.598
24.66000 408.605
24.67000 409.459
24.68000 409.369
24.69000 405.262
24.70000 400.702
24.71000 397.826
24.72000 399.789
24.73000 402.054
24.74000 403.568
24.75000 409.249
24.76000 413.543
24.77000 416.156
24.78000 416.540
24.79000 416.906
24.80000 412.739
24.81000 404.653
24.82000 396.657
24.83000 396.772
24.84000 401.457
24.85000 405.987
24.86000 407.352
24.87000 407.470
24.88000 407.327
24.89000 404.430
24.90000 400.793
24.91000 397.583
24.92000 400.597
24.93000 404.150
24.94000 406.068
24.95000 401.161
24.96000 395.501
24.97000 393.869
24.98000 403.614
24.99000 414.048
25.00000 420.981
25.01000 413.900
25.02000 408.402
25.03000 402.989
25.04000 397.688
25.05000 392.396
25.06000 392.579
25.07000 397.403
25.08000 402.170
25.09000 401.347
25.10000 397.451
25.11000 393.725
25.12000 393.339
25.13000 394.248
25.14000 395.156
25.15000 396.050
25.16000 396.940
25.17000 397.724
25.18000 403.757
25.19000 409.739
25.20000 414.014
25.21000 411.288
25.22000 407.809
25.23000 405.730
25.24000 407.534
25.25000 409.567
25.26000 410.909
25.27000 405.504
25.28000 401.399
25.29000 396.119
25.30000 389.338
25.31000 382.568
25.32000 383.467
25.33000 390.746
25.34000 397.934
25.35000 396.069
25.36000 389.337
25.37000 383.139
25.38000 387.102
25.39000 394.937
25.40000 401.971
25.41000 400.944
25.42000 397.829
25.43000 395.095
25.44000 394.502
25.45000 394.305
25.46000 393.583
25.47000 390.745
25.48000 387.684
25.49000 385.746
25.50000 386.874
25.51000 388.175
25.52000 389.029
25.53000 392.391
25.54000 394.906
25.55000 394.589
25.56000 390.716
25.57000 386.839
25.58000 385.856
25.59000 387.236
25.60000 388.597
25.61000 383.531
25.62000 375.180
25.63000 367.331
25.64000 368.727
25.65000 373.587
25.66000 378.321
25.67000 381.821
25.68000 385.006
25.69000 387.795
25.70000 389.219
25.71000 390.245
25.72000 391.560
25.73000 394.020
25.74000 396.596
25.75000 397.728
25.76000 394.981
25.77000 392.021
25.78000 390.092
25.79000 389.433
25.80000 388.969
25.81000 387.399
25.82000 384.466
25.83000 381.534
25.84000 380.038
25.85000 379.694
25.86000 379.354
25.87000 384.889
25.88000 393.337
25.89000 401.520
25.90000 405.003
25.91000 406.755
25.92000 407.266
25.93000 395.895
25.94000 381.556
25.95000 369.040
25.96000 375.175
25.97000 383.037
25.98000 388.780
25.99000 386.294
26.00000 382.983
26.01000 382.514
26.02000 389.537
26.03000 396.958
26.04000 401.765
26.05000 396.068
26.06000 391.743
26.07000 391.814
26.08000 397.200
26.09000 402.560
26.10000 397.610
26.11000 384.553
26.12000 371.694
26.13000 375.577
26.14000 387.933
26.15000 399.693
26.16000 401.175
26.17000 398.937
26.18000 396.493
26.19000 392.130
26.20000 387.295
26.21000 383.088
26.22000 379.946
26.23000 377.410
26.24000 375.249
26.25000 374.519
26.26000 373.929
26.27000 373.477
26.28000 373.382
26.29000 373.306
26.30000 373.257
26.31000 391.796
26.32000 405.587
26.33000 406.763
26.34000 392.978
26.35000 379.217
26.36000 377.975
26.37000 386.394
26.38000 394.677
26.39000 391.438
26.40000 382.499
26.41000 374.140
26.42000 375.455
26.43000 380.211
26.44000 384.542
26.45000 384.983
26.46000 384.486
26.47000 384.055
26.48000 381.630
26.49000 379.297
26.50000 378.173
26.51000 381.583
26.52000 385.423
26.53000 388.288
26.54000 388.663
26.55000 388.915
26.56000 389.076
26.57000 388.360
26.58000 387.828
26.59000 385.924
26.60000 382.426
26.61000 378.948
26.62000 380.336
26.63000 385.411
26.64000 390.399
26.65000 386.090
26.66000 377.327
26.67000 369.104
26.68000 369.603
26.69000 373.151
26.70000 376.515
26.71000 378.225
26.72000 379.544
26.73000 380.685
26.74000 383.369
26.75000 385.852
26.76000 387.428
26.77000 385.664
26.78000 383.589
26.79000 382.341
26.80000 383.161
26.81000 384.080
26.82000 384.664
26.83000 380.767
26.84000 377.883
26.85000 375.061
26.86000 372.312
26.87000 369.569
26.88000 367.876
26.89000 366.966
26.90000 366.072
26.91000 367.812
26.92000 370.769
26.93000 373.429
26.94000 371.436
26.95000 367.844
26.96000 364.883
26.97000 367.414
26.98000 371.222
26.99000 374.506
27.00000 376.302
27.01000 377.635
27.02000 378.076
27.03000 375.295
27.04000 372.221
27.05000 370.518
27.06000 372.189
27.07000 374.015
27.08000 375.167
27.09000 370.410
27.10000 366.897
27.11000 366.806
27.12000 370.546
27.13000 374.294
27.14000 378.992
27.15000 384.382
27.16000 389.670
27.17000 387.971
27.18000 383.008
27.19000 378.162
27.20000 375.097
27.21000 372.633
27.22000 370.204
27.23000 368.069
27.24000 366.000
27.25000 364.221
27.26000 361.091
27.27000 358.272
27.28000 355.306
27.29000 351.813
27.30000 348.274
27.31000 350.967
27.32000 368.744
27.33000 387.192
27.34000 398.746
27.35000 387.040
27.36000 378.337
27.37000 372.428
27.38000 369.586
27.39000 366.790
27.40000 370.490
27.41000 378.848
27.42000 387.040
27.43000 387.373
27.44000 384.023
27.45000 380.657
27.46000 377.067
27.47000 373.404
27.48000 369.844
27.49000 367.147
27.50000 364.643
27.51000 362.496
27.52000 367.913
27.53000 373.412
27.54000 376.960
27.55000 373.705
27.56000 369.865
27.57000 368.175
27.58000 371.601
27.59000 375.246
27.60000 377.513
27.61000 378.203
27.62000 378.685
27.63000 379.668
27.64000 381.192
27.65000 382.694
27.66000 381.115
27.67000 377.367
27.68000 373.698
27.69000 374.444
27.70000 377.184
27.71000 379.464
27.72000 375.154
27.73000 368.693
27.74000 363.031
27.75000 363.872
27.76000 366.141
27.77000 368.079
27.78000 368.336
27.79000 368.351
27.80000 368.831
27.81000 370.904
27.82000 373.110
27.83000 377.093
27.84000 385.231
27.85000 393.542
27.86000 398.674
27.87000 391.127
27.88000 385.589
27.89000 380.250
27.90000 375.122
27.91000 370.009
27.92000 366.754
27.93000 364.784
27.94000 362.856
27.95000 359.080
27.96000 354.625
27.97000 351.025
27.98000 359.319
27.99000 371.427
28.00000 381.870
28.01000 379.075
28.02000 373.425
28.03000 368.613
28.04000 369.248
28.05000 370.415
28.06000 371.023
28.07000 369.741
28.08000 368.307
28.09000 368.427
28.10000 372.125
28.11000 375.964
28.12000 378.319
28.13000 369.319
28.14000 362.776
28.15000 357.749
28.16000 354.292
28.17000 350.866
28.18000 350.848
28.19000 353.144
28.20000 355.388
28.21000 355.884
28.22000 355.588
28.23000 355.788
28.24000 362.702
28.25000 371.733
28.26000 380.037
28.27000 382.698
28.28000 384.164
28.29000 385.409
28.30000 374.707
28.31000 364.370
28.32000 354.548
28.33000 346.431
28.34000 338.448
28.35000 336.169
28.36000 346.786
28.37000 357.894
28.38000 364.655
28.39000 366.186
28.40000 367.238
28.41000 365.544
28.42000 361.061
28.43000 356.582
28.44000 352.334
28.45000 348.242
28.46000 344.248
28.47000 348.475
28.48000 356.078
28.49000 362.704
28.50000 356.481
28.51000 346.279
28.52000 337.643
28.53000 340.917
28.54000 346.665
28.55000 351.529
28.56000 360.547
28.57000 368.557
28.58000 372.996
28.59000 365.823
28.60000 357.756
28.61000 353.865
28.62000 359.259
28.63000 364.992
28.64000 368.456
28.65000 367.923
28.66000 367.515
28.67000 364.474
28.68000 358.816
28.69000 353.192
28.70000 350.789
28.71000 350.496
28.72000 350.211
28.73000 353.134
28.74000 357.289
28.75000 361.125
28.76000 360.895
28.77000 359.426
28.78000 357.048
28.79000 347.897
28.80000 337.365
28.81000 328.484
28.82000 338.199
28.83000 348.329
28.84000 356.169
28.85000 356.685
28.86000 356.653
28.87000 357.922
28.88000 362.030
28.89000 366.238
28.90000 368.761
28.91000 360.389
28.92000 354.370
28.93000 353.067
28.94000 356.359
28.95000 359.630
28.96000 361.096
28.97000 361.400
28.98000 361.696
28.99000 363.514
29.00000 365.882
29.01000 367.922
29.02000 365.892
29.03000 362.645
29.04000 358.955
29.05000 352.045
29.06000 344.490
29.07000 338.141
29.08000 342.945
29.09000 348.128
29.10000 351.708
29.11000 350.250
29.12000 348.426
29.13000 346.894
29.14000 345.991
29.15000 345.109
29.16000 344.583
29.17000 353.157
29.18000 359.284
29.19000 360.602
29.20000 357.327
29.21000 354.050
29.22000 350.589
29.23000 347.011
29.24000 343.532
29.25000 348.093
29.26000 355.725
29.27000 362.676
29.28000 361.380
29.29000 357.660
29.30000 354.640
29.31000 356.612
29.32000 359.562
29.33000 362.034
29.34000 355.000
29.35000 348.169
29.36000 344.323
29.37000 349.691
29.38000 355.710
29.39000 359.449
29.40000 358.373
29.41000 357.142
29.42000 356.415
29.43000 354.650
29.44000 353.398
29.45000 349.507
29.46000 343.145
29.47000 336.914
29.48000 340.390
29.49000 349.895
29.50000 359.126
29.51000 354.903
29.52000 345.485
29.53000 336.863
29.54000 337.629
29.55000 341.105
29.56000 344.895
29.57000 350.872
29.58000 357.269
29.59000 362.609
29.60000 364.173
29.61000 365.091
29.62000 364.907
29.63000 361.381
29.64000 357.627
29.65000 355.573
29.66000 357.048
29.67000 358.632
29.68000 359.560
29.69000 364.264
29.70000 367.593
29.71000 367.053
29.72000 362.958
29.73000 358.948
29.74000 360.801
29.75000 366.232
29.76000 371.500
29.77000 376.177
29.78000 380.376
29.79000 383.789
29.80000 378.193
29.81000 370.040
29.82000 363.748
29.83000 370.166
29.84000 378.984
29.85000 386.319
29.86000 387.839
29.87000 388.526
29.88000 388.558
29.89000 386.635
29.90000 384.582
29.91000 383.398
29.92000 383.987
29.93000 384.629
29.94000 385.002
29.95000 386.594
29.96000 387.723
29.97000 395.779
29.98000 410.076
29.99000 424.108
30.00000 420.961
30.01000 407.514
30.02000 394.487
30.03000 393.160
30.04000 396.433
30.05000 399.703
30.06000 402.925
30.07000 406.134
30.08000 408.539
30.09000 405.569
30.10000 401.603
30.11000 398.316
30.12000 393.870
30.13000 390.086
30.14000 388.629
30.15000 393.987
30.16000 399.787
30.17000 404.091
30.18000 405.398
30.19000 406.620
30.20000 407.325
30.21000 400.101
30.22000 395.011
30.23000 389.596
30.24000 383.894
30.25000 378.170
30.26000 371.156
30.27000 363.381
30.28000 355.859
30.29000 360.518
30.30000 369.546
30.31000 377.630
30.32000 375.437
30.33000 370.430
30.34000 365.798
30.35000 363.630
30.36000 361.908
30.37000 360.487
30.38000 366.280
30.39000 371.727
30.40000 373.899
30.41000 366.633
30.42000 358.775
30.43000 353.747
30.44000 354.296
30.45000 354.995
30.46000 355.395
30.47000 359.407
30.48000 362.224
30.49000 366.939
30.50000 373.299
30.51000 379.543
30.52000 379.138
30.53000 374.884
30.54000 370.774
30.55000 365.401
30.56000 359.863
30.57000 354.894
30.58000 355.948
30.59000 358.623
30.60000 361.533
30.61000 365.948
30.62000 370.631
30.63000 374.485
30.64000 373.124
30.65000 371.531
30.66000 371.484
30.67000 375.819
30.68000 380.419
30.69000 382.550
30.70000 379.897
30.71000 377.122
30.72000 375.547
30.73000 358.731
30.74000 346.998
30.75000 348.215
30.76000 360.444
30.77000 372.453
30.78000 372.703
30.79000 366.264
30.80000 360.051
30.81000 363.502
30.82000 370.285
30.83000 376.720
30.84000 379.551
30.85000 381.428
30.86000 383.602
30.87000 387.639
30.88000 392.002
30.89000 395.578
30.90000 403.017
30.91000 409.461
30.92000 415.838
30.93000 422.025
30.94000 428.201
30.95000 432.998
30.96000 435.171
30.97000 437.281
30.98000 438.468
30.99000 461.114
31.00000 476.887
31.01000 490.785
31.02000 503.119
31.03000 515.485
31.04000 529.474
31.05000 544.371
31.06000 558.724
31.07000 582.406
31.08000 608.005
31.09000 634.254
31.10000 667.076
31.11000 701.604
31.12000 737.005
31.13000 777.781
31.14000 819.476
31.15000 853.536
31.16000 917.186
31.17000 971.840
31.18000 1024.964
31.19000 1073.903
31.20000 1122.604
31.21000 1177.092
31.22000 1242.408
31.23000 1307.972
31.24000 1344.559
31.25000 1444.819
31.26000 1514.295
31.27000 1559.551
31.28000 1584.981
31.29000 1610.967
31.30000 1663.437
31.31000 1730.458
31.32000 1794.940
31.33000 1832.196
31.34000 1857.545
31.35000 1880.235
31.36000 1876.727
31.37000 1866.538
31.38000 1858.888
31.39000 1866.556
31.40000 1876.792
31.41000 1885.123
31.42000 1827.156
31.43000 1774.242
31.44000 1727.984
31.45000 1699.628
31.46000 1672.260
31.47000 1638.282
31.48000 1592.153
31.49000 1545.761
31.50000 1520.093
31.51000 1425.953
31.52000 1360.873
31.53000 1299.410
31.54000 1240.852
31.55000 1182.319
31.56000 1124.878
31.57000 1068.027
31.58000 1013.408
31.59000 952.202
31.60000 892.631
31.61000 834.688
31.62000 792.412
31.63000 754.058
31.64000 716.177
31.65000 681.089
31.66000 646.459
31.67000 618.383
31.68000 596.688
31.69000 579.533
31.70000 558.364
31.71000 526.583
31.72000 494.234
31.73000 471.687
31.74000 466.847
31.75000 462.371
31.76000 459.916
31.77000 439.000
31.78000 424.601
31.79000 416.060
31.80000 412.135
31.81000 408.186
31.82000 403.182
31.83000 397.618
31.84000 392.280
31.85000 382.622
31.86000 372.132
31.87000 362.594
31.88000 361.986
31.89000 363.575
31.90000 364.644
31.91000 362.702
31.92000 360.275
31.93000 358.315
31.94000 358.701
31.95000 359.202
31.96000 358.584
31.97000 355.058
31.98000 351.382
31.99000 351.082
32.00000 356.778
32.01000 362.591
32.02000 365.751
32.03000 354.108
32.04000 346.127
32.05000 343.935
32.06000 346.223
32.07000 348.341
32.08000 343.569
32.09000 335.203
32.10000 327.190
32.11000 328.677
32.12000 333.224
32.13000 337.277
32.14000 336.800
32.15000 335.230
32.16000 334.108
32.17000 335.533
32.18000 337.359
32.19000 338.829
32.20000 336.316
32.21000 333.970
32.22000 332.602
32.23000 333.735
32.24000 334.992
32.25000 333.813
32.26000 328.382
32.27000 322.874
32.28000 319.906
32.29000 322.470
32.30000 324.213
32.31000 322.591
32.32000 318.413
32.33000 314.407
32.34000 317.060
32.35000 323.125
32.36000 328.926
32.37000 324.415
32.38000 316.850
32.39000 310.872
32.40000 319.098
32.41000 330.692
32.42000 340.333
32.43000 339.089
32.44000 336.162
32.45000 333.817
32.46000 331.114
32.47000 328.899
32.48000 325.181
32.49000 317.685
32.50000 310.007
32.51000 309.877
32.52000 322.689
32.53000 335.723
32.54000 342.683
32.55000 326.579
32.56000 315.627
32.57000 313.049
32.58000 316.718
32.59000 320.375
32.60000 323.623
32.61000 326.665
32.62000 329.570
32.63000 321.178
32.64000 309.762
32.65000 299.598
32.66000 300.375
32.67000 303.700
32.68000 307.202
32.69000 311.677
32.70000 316.299
32.71000 319.988
32.72000 315.645
32.73000 311.550
32.74000 307.808
32.75000 304.939
32.76000 302.110
32.77000 304.931
32.78000 317.270
32.79000 329.762
32.80000 336.372
32.81000 320.922
32.82000 310.464
32.83000 309.043
32.84000 314.240
32.85000 319.357
32.86000 321.658
32.87000 322.566
32.88000 323.431
32.89000 328.316
32.90000 334.110
32.91000 338.735
32.92000 333.377
32.93000 325.738
32.94000 318.620
32.95000 314.296
32.96000 310.386
32.97000 307.278
32.98000 313.972
32.99000 320.063
33.00000 323.761
33.01000 321.649
33.02000 319.277
33.03000 316.076
33.04000 311.503
33.05000 306.909
33.06000 304.500
33.07000 306.846
33.08000 308.413
33.09000 306.352
33.10000 301.681
33.11000 297.029
33.12000 292.957
33.13000 289.167
33.14000 285.560
33.15000 291.469
33.16000 299.871
33.17000 307.425
33.18000 307.903
33.19000 306.793
33.20000 305.935
33.21000 306.405
33.22000 307.067
33.23000 307.591
33.24000 303.864
33.25000 300.574
33.26000 297.563
33.27000 295.222
33.28000 292.909
33.29000 293.712
33.30000 299.582
33.31000 305.523
33.32000 308.608
33.33000 300.835
33.34000 295.612
33.35000 294.222
33.36000 295.538
33.37000 296.956
33.38000 301.615
33.39000 307.825
33.40000 313.726
33.41000 309.525
33.42000 302.591
33.43000 295.921
33.44000 291.410
33.45000 287.375
33.46000 283.906
33.47000 283.359
33.48000 283.228
33.49000 283.124
33.50000 283.693
33.51000 284.195
33.52000 283.841
33.53000 281.480
33.54000 279.036
33.55000 280.185
33.56000 287.076
33.57000 294.041
33.58000 297.624
33.59000 301.122
33.60000 303.459
33.61000 303.588
33.62000 302.188
33.63000 300.902
33.64000 303.095
33.65000 306.925
33.66000 310.559
33.67000 309.789
33.68000 307.774
33.69000 306.158
33.70000 307.726
33.71000 309.983
33.72000 310.936
33.73000 305.297
33.74000 298.742
33.75000 293.596
33.76000 295.768
33.77000 297.984
33.78000 300.053
33.79000 301.781
33.80000 303.497
33.81000 304.724
33.82000 305.183
33.83000 305.633
33.84000 305.862
33.85000 304.094
33.86000 302.904
33.87000 301.357
33.88000 299.566
33.89000 297.934
33.90000 300.920
33.91000 306.040
33.92000 310.889
33.93000 308.886
33.94000 305.049
33.95000 301.568
33.96000 300.860
33.97000 300.741
33.98000 301.864
33.99000 309.152
34.00000 317.279
34.01000 323.632
34.02000 317.668
34.03000 312.126
34.04000 307.283
34.05000 304.023
34.06000 300.824
34.07000 300.562
34.08000 304.828
34.09000 309.145
34.10000 311.322
34.11000 325.831
34.12000 335.475
34.13000 339.258
34.14000 339.121
34.15000 338.805
34.16000 333.472
34.17000 325.857
34.18000 318.658
34.19000 312.083
34.20000 306.221
34.21000 301.401
34.22000 304.537
34.23000 309.329
34.24000 315.120
34.25000 325.769
34.26000 337.064
34.27000 345.856
34.28000 341.524
34.29000 337.267
34.30000 333.609
34.31000 331.288
34.32000 329.016
34.33000 326.358
34.34000 323.113
34.35000 319.862
34.36000 318.506
34.37000 319.039
34.38000 319.586
34.39000 321.483
34.40000 324.268
34.41000 327.118
34.42000 331.739
34.43000 337.152
34.44000 342.259
34.45000 338.822
34.46000 333.279
34.47000 328.255
34.48000 327.100
34.49000 326.735
34.50000 326.051
34.51000 323.843
34.52000 321.436
34.53000 319.571
34.54000 317.334
34.55000 315.535
34.56000 315.356
34.57000 318.726
34.58000 322.221
34.59000 322.635
34.60000 318.464
34.61000 314.249
34.62000 311.883
34.63000 311.324
34.64000 310.726
34.65000 306.773
34.66000 300.655
34.67000 294.863
34.68000 297.493
34.69000 303.823
34.70000 309.784
34.71000 309.797
34.72000 308.176
34.73000 306.329
34.74000 302.833
34.75000 299.006
34.76000 296.841
34.77000 302.471
34.78000 309.093
34.79000 314.203
34.80000 304.143
34.81000 295.291
34.82000 288.817
34.83000 287.463
34.84000 286.283
34.85000 284.727
34.86000 282.622
34.87000 280.512
34.88000 281.429
34.89000 285.246
34.90000 289.024
34.91000 289.598
34.92000 288.143
34.93000 286.691
34.94000 285.342
34.95000 284.037
34.96000 282.810
34.97000 279.693
34.98000 276.338
34.99000 273.526
35.00000 274.595
35.01000 276.429
35.02000 278.153
35.03000 279.379
35.04000 280.542
35.05000 281.435
35.06000 275.473
35.07000 270.373
35.08000 265.923
35.09000 262.847
35.10000 259.815
35.11000 259.471
35.12000 262.985
35.13000 266.529
35.14000 267.204
35.15000 265.186
35.16000 263.217
35.17000 264.977
35.18000 269.060
35.19000 272.970
35.20000 272.766
35.21000 270.814
35.22000 268.983
35.23000 268.851
35.24000 269.179
35.25000 269.713
35.26000 271.692
35.27000 273.949
35.28000 274.110
35.29000 264.802
35.30000 254.341
35.31000 246.341
35.32000 259.345
35.33000 270.746
35.34000 278.472
35.35000 278.549
35.36000 278.389
35.37000 277.088
35.38000 274.177
35.39000 271.256
35.40000 272.261
35.41000 276.882
35.42000 281.432
35.43000 280.981
35.44000 277.470
35.45000 273.999
35.46000 271.419
35.47000 269.210
35.48000 267.141
35.49000 262.792
35.50000 258.246
35.51000 254.860
35.52000 259.421
35.53000 265.487
35.54000 270.913
35.55000 273.505
35.56000 275.760
35.57000 277.476
35.58000 270.574
35.59000 264.687
35.60000 262.528
35.61000 267.990
35.62000 273.677
35.63000 276.224
35.64000 274.425
35.65000 272.598
35.66000 271.449
35.67000 270.913
35.68000 270.326
35.69000 266.360
35.70000 260.363
35.71000 254.541
35.72000 252.581
35.73000 252.205
35.74000 251.854
35.75000 256.840
35.76000 262.720
35.77000 267.700
35.78000 266.635
35.79000 264.447
35.80000 262.854
35.81000 263.849
35.82000 265.144
35.83000 266.126
35.84000 267.574
35.85000 268.735
35.86000 268.864
35.87000 266.916
35.88000 264.910
35.89000 261.726
35.90000 256.941
35.91000 252.149
35.92000 248.599
35.93000 246.151
35.94000 243.802
35.95000 247.439
35.96000 254.614
35.97000 261.553
35.98000 263.468
35.99000 263.357
36.00000 263.253
36.01000 261.335
36.02000 259.146
36.03000 257.866
36.04000 262.558
36.05000 268.336
36.06000 271.386
36.07000 262.774
36.08000 252.836
36.09000 245.340
36.10000 250.003
36.11000 254.255
36.12000 257.453
36.13000 258.568
36.14000 259.627
36.15000 263.107
36.16000 269.817
36.17000 276.539
36.18000 274.973
36.19000 266.220
36.20000 257.570
36.21000 254.858
36.22000 255.591
36.23000 256.232
36.24000 254.962
36.25000 252.934
36.26000 251.045
36.27000 249.478
36.28000 248.139
36.29000 247.484
36.30000 251.231
36.31000 255.764
36.32000 258.419
36.33000 253.200
36.34000 247.107
36.35000 242.532
36.36000 247.823
36.37000 252.428
36.38000 256.037
36.39000 257.711
36.40000 259.336
36.41000 261.855
36.42000 265.543
36.43000 269.234
36.44000 266.369
36.45000 257.934
36.46000 249.675
36.47000 250.915
36.48000 257.572
36.49000 263.971
36.50000 265.223
36.51000 264.470
36.52000 263.770
36.53000 260.269
36.54000 256.440
36.55000 252.749
36.56000 249.928
36.57000 247.259
36.58000 245.878
36.59000 249.804
36.60000 254.305
36.61000 257.669
36.62000 256.638
36.63000 255.631
36.64000 255.579
36.65000 257.346
36.66000 259.158
36.67000 260.043
36.68000 259.735
36.69000 259.422
36.70000 262.606
36.71000 268.698
36.72000 274.630
36.73000 272.473
36.74000 265.783
36.75000 259.553
36.76000 262.159
36.77000 268.149
36.78000 273.704
36.79000 269.349
36.80000 263.103
36.81000 258.239
36.82000 261.902
36.83000 267.028
36.84000 270.742
36.85000 268.745
36.86000 266.143
36.87000 264.209
36.88000 266.843
36.89000 269.095
36.90000 272.711
36.91000 278.885
36.92000 285.118
36.93000 284.299
36.94000 274.580
36.95000 264.844
36.96000 263.518
36.97000 269.075
36.98000 274.477
36.99000 272.459
37.00000 266.354
37.01000 260.659
37.02000 262.577
37.03000 267.361
37.04000 271.788
37.05000 274.566
37.06000 276.684
37.07000 278.288
37.08000 276.779
37.09000 274.745
37.10000 272.867
37.11000 271.605
37.12000 270.407
37.13000 269.521
37.14000 272.180
37.15000 274.396
37.16000 272.884
37.17000 264.499
37.18000 255.963
37.19000 251.546
37.20000 252.230
37.21000 252.927
37.22000 255.675
37.23000 260.057
37.24000 264.354
37.25000 264.774
37.26000 263.095
37.27000 261.508
37.28000 261.552
37.29000 262.199
37.30000 262.798
37.31000 260.001
37.32000 256.727
37.33000 254.166
37.34000 255.834
37.35000 258.198
37.36000 260.389
37.37000 261.902
37.38000 263.347
37.39000 264.411
37.40000 261.044
37.41000 258.253
37.42000 255.219
37.43000 251.743
37.44000 248.258
37.45000 246.480
37.46000 246.779
37.47000 247.082
37.48000 248.463
37.49000 250.685
37.50000 252.950
37.51000 257.040
37.52000 262.103
37.53000 266.891
37.54000 266.911
37.55000 265.198
37.56000 263.618
37.57000 263.875
37.58000 264.509
37.59000 264.841
37.60000 263.407
37.61000 261.688
37.62000 260.356
37.63000 260.506
37.64000 260.803
37.65000 261.021
37.66000 263.853
37.67000 266.144
37.68000 266.025
37.69000 261.615
37.70000 257.122
37.71000 255.821
37.72000 258.326
37.73000 260.834
37.74000 260.825
37.75000 258.874
37.76000 256.981
37.77000 257.467
37.78000 259.196
37.79000 260.690
37.80000 258.239
37.81000 254.376
37.82000 250.825
37.83000 254.507
37.84000 259.362
37.85000 263.195
37.86000 261.203
37.87000 258.290
37.88000 255.994
37.89000 256.023
37.90000 256.276
37.91000 256.460
37.92000 255.263
37.93000 254.288
37.94000 252.615
37.95000 249.720
37.96000 246.802
37.97000 247.922
37.98000 253.764
37.99000 259.599
38.00000 258.585
38.01000 252.394
38.02000 246.370
38.03000 246.794
38.04000 250.532
38.05000 254.032
38.06000 253.654
38.07000 251.912
38.08000 250.314
38.09000 247.323
38.10000 244.360
38.11000 241.907
38.12000 242.299
38.13000 243.132
38.14000 244.896
38.15000 250.099
38.16000 255.623
38.17000 259.630
38.18000 263.786
38.19000 266.984
38.20000 268.695
38.21000 267.847
38.22000 266.954
38.23000 267.715
38.24000 270.374
38.25000 273.027
38.26000 276.714
38.27000 281.142
38.28000 285.709
38.29000 295.452
38.30000 307.809
38.31000 319.723
38.32000 324.650
38.33000 327.163
38.34000 329.463
38.35000 339.943
38.36000 350.965
38.37000 362.736
38.38000 378.606
38.39000 395.099
38.40000 408.364
38.41000 409.901
38.42000 410.368
38.43000 410.705
38.44000 450.543
38.45000 482.495
38.46000 510.177
38.47000 530.646
38.48000 550.998
38.49000 574.746
38.50000 602.318
38.51000 629.802
38.52000 657.149
38.53000 684.173
38.54000 711.051
38.55000 732.759
38.56000 751.901
38.57000 771.537
38.58000 798.763
38.59000 828.566
38.60000 855.786
38.61000 877.675
38.62000 896.023
38.63000 917.032
38.64000 952.344
38.65000 989.781
38.66000 1018.577
38.67000 1016.523
38.68000 1011.728
38.69000 1008.287
38.70000 1017.738
38.71000 1025.408
38.72000 1035.907
38.73000 1051.099
38.74000 1066.362
38.75000 1062.815
38.76000 1038.495
38.77000 1014.252
38.78000 999.321
38.79000 991.176
38.80000 982.555
38.81000 957.977
38.82000 925.612
38.83000 893.175
38.84000 859.683
38.85000 825.838
38.86000 794.999
38.87000 763.710
38.88000 735.900
38.89000 707.158
38.90000 673.501
38.91000 639.129
38.92000 606.836
38.93000 581.834
38.94000 557.463
38.95000 540.065
38.96000 505.449
38.97000 478.474
38.98000 454.439
38.99000 435.201
39.00000 416.031
39.01000 398.459
39.02000 382.618
39.03000 366.845
39.04000 353.906
39.05000 343.084
39.06000 332.448
39.07000 327.780
39.08000 325.975
39.09000 323.350
39.10000 308.867
39.11000 290.496
39.12000 273.795
39.13000 271.971
39.14000 273.263
39.15000 273.286
39.16000 266.741
39.17000 259.261
39.18000 254.366
39.19000 258.382
39.20000 263.149
39.21000 266.534
39.22000 256.892
39.23000 249.140
39.24000 245.072
39.25000 246.905
39.26000 248.815
39.27000 248.443
39.28000 245.646
39.29000 242.861
39.30000 242.419
39.31000 243.594
39.32000 244.635
39.33000 241.575
39.34000 236.582
39.35000 231.931
39.36000 232.070
39.37000 233.754
39.38000 235.281
39.39000 234.930
39.40000 234.262
39.41000 234.375
39.42000 238.443
39.43000 243.063
39.44000 245.933
39.45000 242.875
39.46000 239.331
39.47000 236.828
39.48000 227.742
39.49000 220.644
39.50000 219.162
39.51000 226.522
39.52000 233.989
39.53000 235.019
39.54000 229.346
39.55000 223.702
39.56000 225.161
39.57000 231.393
39.58000 237.347
39.59000 235.150
39.60000 229.173
39.61000 223.717
39.62000 225.369
39.63000 229.271
39.64000 232.802
39.65000 236.430
39.66000 239.642
39.67000 242.618
39.68000 244.415
39.69000 246.052
39.70000 245.924
39.71000 239.923
39.72000 233.454
39.73000 228.911
39.74000 229.797
39.75000 230.627
39.76000 230.719
39.77000 229.671
39.78000 228.609
39.79000 227.109
39.80000 225.162
39.81000 223.225
39.82000 223.707
39.83000 225.782
39.84000 227.872
39.85000 230.372
39.86000 233.060
39.87000 235.646
39.88000 236.894
39.89000 237.725
39.90000 238.475
39.91000 240.407
39.92000 242.321
39.93000 244.449
39.94000 247.624
39.95000 250.939
39.96000 250.975
39.97000 240.291
39.98000 228.775
39.99000 220.731
40.00000 226.433
40.01000 231.125
40.02000 232.808
40.03000 229.920
40.04000 226.985
40.05000 228.160
40.06000 233.445
40.07000 238.697
40.08000 241.899
40.09000 243.725
40.10000 245.255
40.11000 238.812
40.12000 228.797
40.13000 219.449
40.14000 218.685
40.15000 220.547
40.16000 222.223
40.17000 221.327
40.18000 220.079
40.19000 219.410
40.20000 221.511
40.21000 223.975
40.22000 224.922
40.23000 220.992
40.24000 216.694
40.25000 213.709
40.26000 216.317
40.27000 218.432
40.28000 220.863
40.29000 223.765
40.30000 226.671
40.31000 224.720
40.32000 218.007
40.33000 211.339
40.34000 210.426
40.35000 213.192
40.36000 215.866
40.37000 216.141
40.38000 215.359
40.39000 214.797
40.40000 216.986
40.41000 220.002
40.42000 222.710
40.43000 221.508
40.44000 219.768
40.45000 218.205
40.46000 217.475
40.47000 216.851
40.48000 216.853
40.49000 218.831
40.50000 220.953
40.51000 222.419
40.52000 226.926
40.53000 230.390
40.54000 229.578
40.55000 222.498
40.56000 215.363
40.57000 210.320
40.58000 207.289
40.59000 204.280
40.60000 207.311
40.61000 214.068
40.62000 220.423
40.63000 216.764
40.64000 208.771
40.65000 201.225
40.66000 199.119
40.67000 198.622
40.68000 198.176
40.69000 203.839
40.70000 209.834
40.71000 215.047
40.72000 216.650
40.73000 217.802
40.74000 218.599
40.75000 218.295
40.76000 217.913
40.77000 217.650
40.78000 218.752
40.79000 219.612
40.80000 219.234
40.81000 217.073
40.82000 214.898
40.83000 212.226
40.84000 209.087
40.85000 205.973
40.86000 207.075
40.87000 210.743
40.88000 214.260
40.89000 214.146
40.90000 212.489
40.91000 210.779
40.92000 208.452
40.93000 205.945
40.94000 203.705
40.95000 207.449
40.96000 211.720
40.97000 215.747
40.98000 218.667
40.99000 221.453
41.00000 222.001
41.01000 215.728
41.02000 208.983
41.03000 204.378
41.04000 209.505
41.05000 213.566
41.06000 216.132
41.07000 216.584
41.08000 217.021
41.09000 216.771
41.10000 215.886
41.11000 215.009
41.12000 212.911
41.13000 210.118
41.14000 207.557
41.15000 210.360
41.16000 215.405
41.17000 219.977
41.18000 219.070
41.19000 216.599
41.20000 214.398
41.21000 217.133
41.22000 220.326
41.23000 222.241
41.24000 218.474
41.25000 214.029
41.26000 210.550
41.27000 209.967
41.28000 209.579
41.29000 209.315
41.30000 205.571
41.31000 202.700
41.32000 200.414
41.33000 198.939
41.34000 197.472
41.35000 198.863
41.36000 202.845
41.37000 206.789
41.38000 208.514
41.39000 208.892
41.40000 209.218
41.41000 208.370
41.42000 207.038
41.43000 205.849
41.44000 206.258
41.45000 207.115
41.46000 207.877
41.47000 210.269
41.48000 212.606
41.49000 213.951
41.50000 210.962
41.51000 207.468
41.52000 203.943
41.53000 200.324
41.54000 196.700
41.55000 194.255
41.56000 205.951
41.57000 214.953
41.58000 216.823
41.59000 208.977
41.60000 201.080
41.61000 200.866
41.62000 207.477
41.63000 214.021
41.64000 210.828
41.65000 202.062
41.66000 193.647
41.67000 192.791
41.68000 194.991
41.69000 197.174
41.70000 199.186
41.71000 201.151
41.72000 202.893
41.73000 201.914
41.74000 200.636
41.75000 199.223
41.76000 197.228
41.77000 195.167
41.78000 193.630
41.79000 193.610
41.80000 193.686
41.81000 193.737
41.82000 199.313
41.83000 203.562
41.84000 208.142
41.85000 213.165
41.86000 218.183
41.87000 217.648
41.88000 212.273
41.89000 206.955
41.90000 206.728
41.91000 209.399
41.92000 211.876
41.93000 210.337
41.94000 207.202
41.95000 204.255
41.96000 203.324
41.97000 202.940
41.98000 202.600
41.99000 200.939
42.00000 199.300
42.01000 198.131
42.02000 198.938
42.03000 199.965
42.04000 200.696
42.05000 200.584
42.06000 200.420
42.07000 200.311
42.08000 196.173
42.09000 193.033
42.10000 190.774
42.11000 189.672
42.12000 188.584
42.13000 192.907
42.14000 201.857
42.15000 210.704
42.16000 208.178
42.17000 199.366
42.18000 191.121
42.19000 194.214
42.20000 201.736
42.21000 208.637
42.22000 209.063
42.23000 207.770
42.24000 206.630
42.25000 209.803
42.26000 213.190
42.27000 214.671
42.28000 208.281
42.29000 201.034
42.30000 196.975
42.31000 201.838
42.32000 207.230
42.33000 210.801
42.34000 204.798
42.35000 200.192
42.36000 200.062
42.37000 205.704
42.38000 211.359
42.39000 211.704
42.40000 207.596
42.41000 203.539
42.42000 200.544
42.43000 198.206
42.44000 196.102
42.45000 198.507
42.46000 202.643
42.47000 206.835
42.48000 211.595
42.49000 216.503
42.50000 220.818
42.51000 214.095
42.52000 206.680
42.53000 200.709
42.54000 200.597
42.55000 201.108
42.56000 200.774
42.57000 198.117
42.58000 195.327
42.59000 193.491
42.60000 194.180
42.61000 194.731
42.62000 195.282
42.63000 195.832
42.64000 196.379
42.65000 195.428
42.66000 193.243
42.67000 191.087
42.68000 196.525
42.69000 205.899
42.70000 214.770
42.71000 214.267
42.72000 210.226
42.73000 206.315
42.74000 203.698
42.75000 201.412
42.76000 199.408
42.77000 196.285
42.78000 193.442
42.79000 191.365
42.80000 192.340
42.81000 193.632
42.82000 194.758
42.83000 195.436
42.84000 196.089
42.85000 196.516
42.86000 189.056
42.87000 183.450
42.88000 184.718
42.89000 194.526
42.90000 204.335
42.91000 205.827
42.92000 200.600
42.93000 195.446
42.94000 193.365
42.95000 192.964
42.96000 192.851
42.97000 197.947
42.98000 204.976
42.99000 211.454
43.00000 212.595
43.01000 212.391
43.02000 212.213
43.03000 205.216
43.04000 198.259
43.05000 194.188
43.06000 201.411
43.07000 209.776
43.08000 215.209
43.09000 212.846
43.10000 210.064
43.11000 208.257
43.12000 200.457
43.13000 194.652
43.14000 191.820
43.15000 192.611
43.16000 193.407
43.17000 193.009
43.18000 191.664
43.19000 190.339
43.20000 192.611
43.21000 196.676
43.22000 200.581
43.23000 201.682
43.24000 201.761
43.25000 201.859
43.26000 202.149
43.27000 202.485
43.28000 202.779
43.29000 201.100
43.30000 199.393
43.31000 197.813
43.32000 196.717
43.33000 195.670
43.34000 194.130
43.35000 191.304
43.36000 188.412
43.37000 186.545
43.38000 189.926
43.39000 192.472
43.40000 193.446
43.41000 192.542
43.42000 191.636
43.43000 191.440
43.44000 191.796
43.45000 192.146
43.46000 193.732
43.47000 195.897
43.48000 197.816
43.49000 195.572
43.50000 191.835
43.51000 189.112
43.52000 195.746
43.53000 204.651
43.54000 212.388
43.55000 206.164
43.56000 198.968
43.57000 193.054
43.58000 191.980
43.59000 191.373
43.60000 190.850
43.61000 190.542
43.62000 190.245
43.63000 190.054
43.64000 192.097
43.65000 193.615
43.66000 195.329
43.67000 197.271
43.68000 199.212
43.69000 200.962
43.70000 202.565
43.71000 204.142
43.72000 200.621
43.73000 194.675
43.74000 189.024
43.75000 188.204
43.76000 189.087
43.77000 189.751
43.78000 188.442
43.79000 186.663
43.80000 185.122
43.81000 191.331
43.82000 197.638
43.83000 202.080
43.84000 199.603
43.85000 196.478
43.86000 193.145
43.87000 189.290
43.88000 185.410
43.89000 182.939
43.90000 184.489
43.91000 185.666
43.92000 186.420
43.93000 186.689
43.94000 186.965
43.95000 188.994
43.96000 192.338
43.97000 195.622
43.98000 196.368
43.99000 195.847
44.00000 195.334
44.01000 194.943
44.02000 194.594
44.03000 194.021
44.04000 191.468
44.05000 188.453
44.06000 185.848
44.07000 185.901
44.08000 186.290
44.09000 186.835
44.10000 187.948
44.11000 189.113
44.12000 189.250
44.13000 186.834
44.14000 184.297
44.15000 182.693
44.16000 189.032
44.17000 193.721
44.18000 197.278
44.19000 199.556
44.20000 201.823
44.21000 202.498
44.22000 202.001
44.23000 201.514
44.24000 198.845
44.25000 195.223
44.26000 191.929
44.27000 193.659
44.28000 197.100
44.29000 199.836
44.30000 196.508
44.31000 191.787
44.32000 187.721
44.33000 196.693
44.34000 205.940
44.35000 212.306
44.36000 208.362
44.37000 203.498
44.38000 199.965
44.39000 199.679
44.40000 199.539
44.41000 199.451
44.42000 201.457
44.43000 202.931
44.44000 201.241
44.45000 196.047
44.46000 190.886
44.47000 191.384
44.48000 195.971
44.49000 200.469
44.50000 201.408
44.51000 200.636
44.52000 199.815
44.53000 198.262
44.54000 196.465
44.55000 194.991
44.56000 196.238
44.57000 198.099
44.58000 199.697
44.59000 204.538
44.60000 209.030
44.61000 213.011
44.62000 215.195
44.63000 217.222
44.64000 217.379
44.65000 213.051
44.66000 208.529
44.67000 205.707
44.68000 205.063
44.69000 204.620
44.70000 209.068
44.71000 218.828
44.72000 228.549
44.73000 232.485
44.74000 232.315
44.75000 232.149
44.76000 232.336
44.77000 232.679
44.78000 232.988
44.79000 232.801
44.80000 232.450
44.81000 232.814
44.82000 239.053
44.83000 246.595
44.84000 253.047
44.85000 249.093
44.86000 244.504
44.87000 242.094
44.88000 247.209
44.89000 252.962
44.90000 257.182
44.91000 257.791
44.92000 258.248
44.93000 258.532
44.94000 262.004
44.95000 264.532
44.96000 266.150
44.97000 266.800
44.98000 267.459
44.99000 269.233
45.00000 271.784
45.01000 274.280
45.02000 274.974
45.03000 274.822
45.04000 274.983
45.05000 279.567
45.06000 285.580
45.07000 290.268
45.08000 284.315
45.09000 276.048
45.10000 268.997
45.11000 266.658
45.12000 265.245
45.13000 264.295
45.14000 264.918
45.15000 265.671
45.16000 266.037
45.17000 265.504
45.18000 264.935
45.19000 264.585
45.20000 269.258
45.21000 272.654
45.22000 272.874
45.23000 269.779
45.24000 266.683
45.25000 263.451
45.26000 260.127
45.27000 256.877
45.28000 254.349
45.29000 252.247
45.30000 250.296
45.31000 250.417
45.32000 251.197
45.33000 251.724
45.34000 250.273
45.35000 248.400
45.36000 246.807
45.37000 243.028
45.38000 239.604
45.39000 236.814
45.40000 236.143
45.41000 235.641
45.42000 234.109
45.43000 230.227
45.44000 226.255
45.45000 223.829
45.46000 223.388
45.47000 223.089
45.48000 224.547
45.49000 227.803
45.50000 231.024
45.51000 230.563
45.52000 227.628
45.53000 224.762
45.54000 227.478
45.55000 232.517
45.56000 236.942
45.57000 233.211
45.58000 226.934
45.59000 220.693
45.60000 214.738
45.61000 208.843
45.62000 203.848
45.63000 206.165
45.64000 208.927
45.65000 211.155
45.66000 211.634
45.67000 211.977
45.68000 211.617
45.69000 209.682
45.70000 207.687
45.71000 206.479
45.72000 203.111
45.73000 200.693
45.74000 198.465
45.75000 196.429
45.76000 194.422
45.77000 195.322
45.78000 198.140
45.79000 200.889
45.80000 200.126
45.81000 197.890
45.82000 195.904
45.83000 197.139
45.84000 199.363
45.85000 201.284
45.86000 200.926
45.87000 200.100
45.88000 199.402
45.89000 196.948
45.90000 194.703
45.91000 193.455
45.92000 195.419
45.93000 197.626
45.94000 197.754
45.95000 193.304
45.96000 188.692
45.97000 185.916
45.98000 188.863
45.99000 190.999
46.00000 187.758
46.01000 179.233
46.02000 170.790
46.03000 169.720
46.04000 173.432
46.05000 177.048
46.06000 178.751
46.07000 179.571
46.08000 180.437
46.09000 181.893
46.10000 183.527
46.11000 184.807
46.12000 183.490
46.13000 181.648
46.14000 180.099
46.15000 177.336
46.16000 174.903
46.17000 173.497
46.18000 175.346
46.19000 177.435
46.20000 178.211
46.21000 176.145
46.22000 173.982
46.23000 172.690
46.24000 167.591
46.25000 163.951
46.26000 164.330
46.27000 168.582
46.28000 172.808
46.29000 174.912
46.30000 175.664
46.31000 176.395
46.32000 175.779
46.33000 174.636
46.34000 173.688
46.35000 175.126
46.36000 177.269
46.37000 179.345
46.38000 180.934
46.39000 182.427
46.40000 183.679
46.41000 178.906
46.42000 174.305
46.43000 172.071
46.44000 177.201
46.45000 182.859
46.46000 187.001
46.47000 187.920
46.48000 188.732
46.49000 189.214
46.50000 184.468
46.51000 181.082
46.52000 176.479
46.53000 170.728
46.54000 165.078
46.55000 167.200
46.56000 174.187
46.57000 180.977
46.58000 180.630
46.59000 177.409
46.60000 174.405
46.61000 174.000
46.62000 174.352
46.63000 174.138
46.64000 169.945
46.65000 164.979
46.66000 160.828
46.67000 163.881
46.68000 167.151
46.69000 170.401
46.70000 173.590
46.71000 176.774
46.72000 177.509
46.73000 173.120
46.74000 168.570
46.75000 165.894
46.76000 170.851
46.77000 174.385
46.78000 174.972
46.79000 172.830
46.80000 170.750
46.81000 173.175
46.82000 178.372
46.83000 183.415
46.84000 180.349
46.85000 174.213
46.86000 168.530
46.87000 168.099
46.88000 169.169
46.89000 169.494
46.90000 164.676
46.91000 158.879
46.92000 154.050
46.93000 155.536
46.94000 157.395
46.95000 159.969
46.96000 164.689
46.97000 169.554
46.98000 171.570
46.99000 167.730
47.00000 163.716
47.01000 161.373
47.02000 168.996
47.03000 174.399
47.04000 174.459
47.05000 169.663
47.06000 164.908
47.07000 162.912
47.08000 162.584
47.09000 162.265
47.10000 163.842
47.11000 166.074
47.12000 168.039
47.13000 166.972
47.14000 165.053
47.15000 163.801
47.16000 167.045
47.17000 171.129
47.18000 174.520
47.19000 170.467
47.20000 166.395
47.21000 162.441
47.22000 158.836
47.23000 155.254
47.24000 153.689
47.25000 156.198
47.26000 158.824
47.27000 160.343
47.28000 161.604
47.29000 162.486
47.30000 162.843
47.31000 162.730
47.32000 162.622
47.33000 162.778
47.34000 163.091
47.35000 163.394
47.36000 165.310
47.37000 167.740
47.38000 169.910
47.39000 169.214
47.40000 167.727
47.41000 166.475
47.42000 166.779
47.43000 167.367
47.44000 167.854
47.45000 168.713
47.46000 169.457
47.47000 168.980
47.48000 164.962
47.49000 160.719
47.50000 159.787
47.51000 165.430
47.52000 171.252
47.53000 174.595
47.54000 167.326
47.55000 162.208
47.56000 159.967
47.57000 160.241
47.58000 160.521
47.59000 161.172
47.60000 162.040
47.61000 162.878
47.62000 162.496
47.63000 161.677
47.64000 160.792
47.65000 159.202
47.66000 157.420
47.67000 155.833
47.68000 155.513
47.69000 155.421
47.70000 155.344
47.71000 163.297
47.72000 170.580
47.73000 173.946
47.74000 166.134
47.75000 157.633
47.76000 151.910
47.77000 151.608
47.78000 151.446
47.79000 151.354
47.80000 158.160
47.81000 162.918
47.82000 161.876
47.83000 155.863
47.84000 149.996
47.85000 152.211
47.86000 159.058
47.87000 165.669
47.88000 164.373
47.89000 160.236
47.90000 156.111
47.91000 152.117
47.92000 148.158
47.93000 145.206
47.94000 148.640
47.95000 153.198
47.96000 156.941
47.97000 160.413
47.98000 163.240
47.99000 164.966
48.00000 163.608
48.01000 162.064
48.02000 160.526
48.03000 158.997
48.04000 157.468
48.05000 156.604
48.06000 163.496
48.07000 168.299
48.08000 168.598
48.09000 165.106
48.10000 161.613
48.11000 158.056
48.12000 154.463
48.13000 150.999
48.14000 156.366
48.15000 164.609
48.16000 172.237
48.17000 173.594
48.18000 173.309
48.19000 172.620
48.20000 169.415
48.21000 165.777
48.22000 162.800
48.23000 157.915
48.24000 153.746
48.25000 152.904
48.26000 161.237
48.27000 170.100
48.28000 174.972
48.29000 172.320
48.30000 169.492
48.31000 167.907
48.32000 172.734
48.33000 176.084
48.34000 174.535
48.35000 168.942
48.36000 163.468
48.37000 163.783
48.38000 167.302
48.39000 170.690
48.40000 172.046
48.41000 172.597
48.42000 172.765
48.43000 169.118
48.44000 164.491
48.45000 160.430
48.46000 159.824
48.47000 159.802
48.48000 159.783
48.49000 163.125
48.50000 166.143
48.51000 166.793
48.52000 161.028
48.53000 154.904
48.54000 151.947
48.55000 154.860
48.56000 157.903
48.57000 159.594
48.58000 158.538
48.59000 157.802
48.60000 156.746
48.61000 155.432
48.62000 154.190
48.63000 156.281
48.64000 160.187
48.65000 163.941
48.66000 162.679
48.67000 159.749
48.68000 157.232
48.69000 158.729
48.70000 161.240
48.71000 163.341
48.72000 162.989
48.73000 162.231
48.74000 161.616
48.75000 167.054
48.76000 171.992
48.77000 174.943
48.78000 172.605
48.79000 169.981
48.80000 167.213
48.81000 164.185
48.82000 161.151
48.83000 159.481
48.84000 162.874
48.85000 165.204
48.86000 162.761
48.87000 156.524
48.88000 150.477
48.89000 152.710
48.90000 159.372
48.91000 165.767
48.92000 163.837
48.93000 159.186
48.94000 154.781
48.95000 152.704
48.96000 151.204
48.97000 150.695
48.98000 155.984
48.99000 162.215
49.00000 167.256
49.01000 163.206
49.02000 159.178
49.03000 155.622
49.04000 153.301
49.05000 151.044
49.06000 151.846
49.07000 158.118
49.08000 164.500
49.09000 167.983
49.10000 163.518
49.11000 160.446
49.12000 159.055
49.13000 158.975
49.14000 158.890
49.15000 158.571
49.16000 158.130
49.17000 157.708
49.18000 157.358
49.19000 157.056
49.20000 157.032
49.21000 159.582
49.22000 162.758
49.23000 164.958
49.24000 161.568
49.25000 157.289
49.26000 153.840
49.27000 151.239
49.28000 149.194
49.29000 148.583
49.30000 151.662
49.31000 154.928
49.32000 154.992
49.33000 149.427
49.34000 143.756
49.35000 140.688
49.36000 150.632
49.37000 157.426
49.38000 157.673
49.39000 152.906
49.40000 148.243
49.41000 147.684
49.42000 149.245
49.43000 150.739
49.44000 152.472
49.45000 154.166
49.46000 155.858
49.47000 157.529
49.48000 159.194
49.49000 159.776
49.50000 154.261
49.51000 147.796
49.52000 142.607
49.53000 147.455
49.54000 152.148
49.55000 155.393
49.56000 154.977
49.57000 154.382
49.58000 154.351
49.59000 155.296
49.60000 156.258
49.61000 156.774
49.62000 152.559
49.63000 149.693
49.64000 150.035
49.65000 152.789
49.66000 155.494
49.67000 156.396
49.68000 156.383
49.69000 156.370
49.70000 155.198
49.71000 153.734
49.72000 152.423
49.73000 152.467
49.74000 152.829
49.75000 153.214
49.76000 153.724
49.77000 154.254
49.78000 154.677
49.79000 150.703
49.80000 147.165
49.81000 146.433
49.82000 152.685
49.83000 159.265
49.84000 163.633
49.85000 164.243
49.86000 164.791
49.87000 165.083
49.88000 157.768
49.89000 152.800
49.90000 150.249
49.91000 149.483
49.92000 148.768
49.93000 149.898
49.94000 151.947
49.95000 153.901
49.96000 153.194
49.97000 151.694
49.98000 150.319
49.99000 150.029
50.00000 149.988
50.01000 149.844
50.02000 149.144
50.03000 148.361
50.04000 147.737
50.05000 150.185
50.06000 152.380
50.07000 153.402
50.08000 151.555
50.09000 149.577
50.10000 150.187
50.11000 155.117
50.12000 160.113
50.13000 162.743
50.14000 161.193
50.15000 160.136
50.16000 158.333
50.17000 155.989
50.18000 153.739
50.19000 154.663
50.20000 157.144
50.21000 159.507
50.22000 164.738
50.23000 170.476
50.24000 175.479
50.25000 174.285
50.26000 171.689
50.27000 169.366
50.28000 168.492
50.29000 167.829
50.30000 167.304
50.31000 169.037
50.32000 170.589
50.33000 172.247
50.34000 174.160
50.35000 176.084
50.36000 178.071
50.37000 180.163
50.38000 182.257
50.39000 183.348
50.40000 182.400
50.41000 181.739
50.42000 178.278
50.43000 172.826
50.44000 167.608
50.45000 170.019
50.46000 176.109
50.47000 181.900
50.48000 187.727
50.49000 193.125
50.50000 197.733
50.51000 195.820
50.52000 192.460
50.53000 189.860
50.54000 191.215
50.55000 193.138
50.56000 194.656
50.57000 198.302
50.58000 201.373
50.59000 203.194
50.60000 202.059
50.61000 200.800
50.62000 199.603
50.63000 198.507
50.64000 197.413
50.65000 196.848
50.66000 197.809
50.67000 198.441
50.68000 197.023
50.69000 194.172
50.70000 191.436
50.71000 192.248
50.72000 194.743
50.73000 197.111
50.74000 198.516
50.75000 199.525
50.76000 200.293
50.77000 199.123
50.78000 197.530
50.79000 195.257
50.80000 189.511
50.81000 183.278
50.82000 178.376
50.83000 180.922
50.84000 183.454
50.85000 183.766
50.86000 178.920
50.87000 173.865
50.88000 171.096
50.89000 171.946
50.90000 172.841
50.91000 173.298
50.92000 175.858
50.93000 177.569
50.94000 178.198
50.95000 178.084
50.96000 177.971
50.97000 177.879
50.98000 177.796
50.99000 177.717
51.00000 171.789
51.01000 164.612
51.02000 158.784
51.03000 163.574
51.04000 170.636
51.05000 175.327
51.06000 168.154
51.07000 159.351
51.08000 152.456
51.09000 150.782
51.10000 149.780
51.11000 150.026
51.12000 153.120
51.13000 156.325
51.14000 158.380
51.15000 158.648
51.16000 158.895
51.17000 159.020
51.18000 158.224
51.19000 157.697
51.20000 157.863
51.21000 158.498
51.22000 159.087
51.23000 158.393
51.24000 157.112
51.25000 155.900
51.26000 153.656
51.27000 151.297
51.28000 149.044
51.29000 147.599
51.30000 146.325
51.31000 144.957
51.32000 143.131
51.33000 141.242
51.34000 139.770
51.35000 141.275
51.36000 142.661
51.37000 143.548
51.38000 143.315
51.39000 143.040
51.40000 144.056
51.41000 147.042
51.42000 150.049
51.43000 151.557
51.44000 146.573
51.45000 143.302
51.46000 145.499
51.47000 151.316
51.48000 156.936
51.49000 157.144
51.50000 154.917
51.51000 152.814
51.52000 151.521
51.53000 150.565
51.54000 149.539
51.55000 147.994
51.56000 146.343
51.57000 144.469
51.58000 141.523
51.59000 138.436
51.60000 136.039
51.61000 135.984
51.62000 136.082
51.63000 138.307
51.64000 145.228
51.65000 152.317
51.66000 154.643
51.67000 149.826
51.68000 144.938
51.69000 142.066
51.70000 141.181
51.71000 140.346
51.72000 144.052
51.73000 150.711
51.74000 157.070
51.75000 155.564
51.76000 150.578
51.77000 145.877
51.78000 141.500
51.79000 137.580
51.80000 134.181
51.81000 134.622
51.82000 135.840
51.83000 137.884
51.84000 143.838
51.85000 150.294
51.86000 155.286
51.87000 144.378
51.88000 134.790
51.89000 130.013
51.90000 135.670
51.91000 141.688
51.92000 146.697
51.93000 150.222
51.94000 153.734
51.95000 154.522
51.96000 152.677
51.97000 150.846
51.98000 150.139
51.99000 150.151
52.00000 150.185
52.01000 150.796
52.02000 151.658
52.03000 152.469
52.04000 151.561
52.05000 150.266
52.06000 148.678
52.07000 144.979
52.08000 140.860
52.09000 136.986
52.10000 134.240
52.11000 131.636
52.12000 129.632
52.13000 129.220
52.14000 128.985
52.15000 130.194
52.16000 134.484
52.17000 138.876
52.18000 142.087
52.19000 143.590
52.20000 145.079
52.21000 144.877
52.22000 143.073
52.23000 141.341
52.24000 145.144
52.25000 152.420
52.26000 159.235
52.27000 154.864
52.28000 145.709
52.29000 137.111
52.30000 137.156
52.31000 139.498
52.32000 141.700
52.33000 142.916
52.34000 143.941
52.35000 144.124
52.36000 140.477
52.37000 136.359
52.38000 133.203
52.39000 139.760
52.40000 145.473
52.41000 148.160
52.42000 144.506
52.43000 140.651
52.44000 138.658
52.45000 139.309
52.46000 139.981
52.47000 141.048
52.48000 142.484
52.49000 143.895
52.50000 143.595
52.51000 142.238
52.52000 140.988
52.53000 142.212
52.54000 144.476
52.55000 146.598
52.56000 143.782
52.57000 139.928
52.58000 136.710
52.59000 137.888
52.60000 139.906
52.61000 141.463
52.62000 140.960
52.63000 140.210
52.64000 139.637
52.65000 140.934
52.66000 142.055
52.67000 144.511
52.68000 149.717
52.69000 155.007
52.70000 155.671
52.71000 149.884
52.72000 144.055
52.73000 141.569
52.74000 142.128
52.75000 142.687
52.76000 143.233
52.77000 143.769
52.78000 144.297
52.79000 144.615
52.80000 144.846
52.81000 145.062
52.82000 141.417
52.83000 137.116
52.84000 134.268
52.85000 141.260
52.86000 150.094
52.87000 155.617
52.88000 146.612
52.89000 135.900
52.90000 127.766
52.91000 135.771
52.92000 142.899
52.93000 146.448
52.94000 142.749
52.95000 138.842
52.96000 137.518
52.97000 139.734
52.98000 141.970
52.99000 143.390
53.00000 144.080
53.01000 144.766
53.02000 145.245
53.03000 145.601
53.04000 146.079
53.05000 149.219
53.06000 153.441
53.07000 157.384
53.08000 153.582
53.09000 148.190
53.10000 143.477
53.11000 143.265
53.12000 143.879
53.13000 144.329
53.14000 144.073
53.15000 143.735
53.16000 143.479
53.17000 146.324
53.18000 148.710
53.19000 149.540
53.20000 147.275
53.21000 144.925
53.22000 144.768
53.23000 147.560
53.24000 150.367
53.25000 152.269
53.26000 153.376
53.27000 154.486
53.28000 155.739
53.29000 157.077
53.30000 158.361
53.31000 158.524
53.32000 158.240
53.33000 157.974
53.34000 160.974
53.35000 164.491
53.36000 167.546
53.37000 167.604
53.38000 167.121
53.39000 166.439
53.40000 164.917
53.41000 163.300
53.42000 162.083
53.43000 159.188
53.44000 156.841
53.45000 155.420
53.46000 155.808
53.47000 156.243
53.48000 156.069
53.49000 155.092
53.50000 154.111
53.51000 154.492
53.52000 156.039
53.53000 157.504
53.54000 154.390
53.55000 148.645
53.56000 143.166
53.57000 143.085
53.58000 145.122
53.59000 147.017
53.60000 145.469
53.61000 143.239
53.62000 141.609
53.63000 143.783
53.64000 146.630
53.65000 148.483
53.66000 146.211
53.67000 143.487
53.68000 141.448
53.69000 143.377
53.70000 145.068
53.71000 145.694
53.72000 144.272
53.73000 142.800
53.74000 140.949
53.75000 138.608
53.76000 136.268
53.77000 136.551
53.78000 139.041
53.79000 141.488
53.80000 141.680
53.81000 140.599
53.82000 139.526
53.83000 138.582
53.84000 137.689
53.85000 136.860
53.86000 137.800
53.87000 139.065
53.88000 140.194
53.89000 140.469
53.90000 140.597
53.91000 140.903
53.92000 141.942
53.93000 143.058
53.94000 143.890
53.95000 142.758
53.96000 141.787
53.97000 142.332
53.98000 145.740
53.99000 149.216
54.00000 149.914
54.01000 147.076
54.02000 144.230
54.03000 142.094
54.04000 140.551
54.05000 139.036
54.06000 138.887
54.07000 139.496
54.08000 140.022
54.09000 138.969
54.10000 137.316
54.11000 135.786
54.12000 138.114
54.13000 141.103
54.14000 143.669
54.15000 143.653
54.16000 143.199
54.17000 142.346
54.18000 139.890
54.19000 137.268
54.20000 135.323
54.21000 138.886
54.22000 141.895
54.23000 143.342
54.24000 141.889
54.25000 140.371
54.26000 139.350
54.27000 138.949
54.28000 138.550
54.29000 136.685
54.30000 133.641
54.31000 130.704
54.32000 132.737
54.33000 137.483
54.34000 141.964
54.35000 141.633
54.36000 139.507
54.37000 137.543
54.38000 137.393
54.39000 137.672
54.40000 137.948
54.41000 138.214
54.42000 138.478
54.43000 139.391
54.44000 142.857
54.45000 146.582
54.46000 149.331
54.47000 143.645
54.48000 138.883
54.49000 137.354
54.50000 141.726
54.51000 146.222
54.52000 147.449
54.53000 144.667
54.54000 141.880
54.55000 139.640
54.56000 137.842
54.57000 136.043
54.58000 134.172
54.59000 132.263
54.60000 130.710
54.61000 135.447
54.62000 142.491
54.63000 148.988
54.64000 145.009
54.65000 139.112
54.66000 134.401
54.67000 136.651
54.68000 140.034
54.69000 142.810
54.70000 143.238
54.71000 143.433
54.72000 143.576
54.73000 140.006
54.74000 137.096
54.75000 136.506
54.76000 140.077
54.77000 143.732
54.78000 146.915
54.79000 149.531
54.80000 152.140
54.81000 152.145
54.82000 150.123
54.83000 148.171
54.84000 149.107
54.85000 151.566
54.86000 154.168
54.87000 159.230
54.88000 165.177
54.89000 170.651
54.90000 165.501
54.91000 158.579
54.92000 152.917
54.93000 154.507
54.94000 157.254
54.95000 158.059
54.96000 151.489
54.97000 144.204
54.98000 138.882
54.99000 139.812
55.00000 140.775
55.01000 143.010
55.02000 147.487
55.03000 152.007
55.04000 152.338
55.05000 147.726
55.06000 143.117
55.07000 142.595
55.08000 145.194
55.09000 147.766
55.10000 149.247
55.11000 150.164
55.12000 150.956
55.13000 149.691
55.14000 147.696
55.15000 145.863
55.16000 150.690
55.17000 156.421
55.18000 160.422
55.19000 154.665
55.20000 147.383
55.21000 142.430
55.22000 146.160
55.23000 150.712
55.24000 154.021
55.25000 156.115
55.26000 157.680
55.27000 158.589
55.28000 158.364
55.29000 158.118
55.30000 159.555
55.31000 162.938
55.32000 166.315
55.33000 170.905
55.34000 176.371
55.35000 181.701
55.36000 181.925
55.37000 179.548
55.38000 177.469
55.39000 180.142
55.40000 184.469
55.41000 188.435
55.42000 194.704
55.43000 200.770
55.44000 207.291
55.45000 216.330
55.46000 225.754
55.47000 233.231
55.48000 233.577
55.49000 233.265
55.50000 233.040
55.51000 246.268
55.52000 256.908
55.53000 267.047
55.54000 276.332
55.55000 285.603
55.56000 294.330
55.57000 302.438
55.58000 310.520
55.59000 323.867
55.60000 340.978
55.61000 357.948
55.62000 369.829
55.63000 379.163
55.64000 388.909
55.65000 405.053
55.66000 423.387
55.67000 440.147
55.68000 452.881
55.69000 463.370
55.70000 475.546
55.71000 496.872
55.72000 519.570
55.73000 538.806
55.74000 545.581
55.75000 551.236
55.76000 555.305
55.77000 575.422
55.78000 591.384
55.79000 606.320
55.80000 619.541
55.81000 632.735
55.82000 643.587
55.83000 651.832
55.84000 660.045
55.85000 667.554
55.86000 674.490
55.87000 681.446
55.88000 689.066
55.89000 697.012
55.90000 704.374
55.91000 702.936
55.92000 698.537
55.93000 694.525
55.94000 683.432
55.95000 672.170
55.96000 662.774
55.97000 663.293
55.98000 665.268
55.99000 661.152
56.00000 635.502
56.01000 607.967
56.02000 588.263
56.03000 596.780
56.04000 604.234
56.05000 597.014
56.06000 565.680
56.07000 533.993
56.08000 508.049
56.09000 488.377
56.10000 468.787
56.11000 460.694
56.12000 460.804
56.13000 460.441
56.14000 444.603
56.15000 421.283
56.16000 398.874
56.17000 389.785
56.18000 385.098
56.19000 380.833
56.20000 363.610
56.21000 345.815
56.22000 328.595
56.23000 314.374
56.24000 300.584
56.25000 289.152
56.26000 285.904
56.27000 283.355
56.28000 281.540
56.29000 261.581
56.30000 245.789
56.31000 234.549
56.32000 230.657
56.33000 226.866
56.34000 222.643
56.35000 217.957
56.36000 213.292
56.37000 208.091
56.38000 202.572
56.39000 197.144
56.40000 194.527
56.41000 193.247
56.42000 191.641
56.43000 185.415
56.44000 177.688
56.45000 170.673
56.46000 168.317
56.47000 167.136
56.48000 165.480
56.49000 161.395
56.50000 156.969
56.51000 154.107
56.52000 156.585
56.53000 159.506
56.54000 161.574
56.55000 152.567
56.56000 145.379
56.57000 143.654
56.58000 150.597
56.59000 157.650
56.60000 160.410
56.61000 158.661
56.62000 156.920
56.63000 153.647
56.64000 149.371
56.65000 145.205
56.66000 144.377
56.67000 145.106
56.68000 145.576
56.69000 142.469
56.70000 138.219
56.71000 134.371
56.72000 135.134
56.73000 136.678
56.74000 137.926
56.75000 137.687
56.76000 137.242
56.77000 136.217
56.78000 133.247
56.79000 130.120
56.80000 127.918
56.81000 131.104
56.82000 133.680
56.83000 136.308
56.84000 139.019
56.85000 141.731
56.86000 143.183
56.87000 143.337
56.88000 143.490
56.89000 142.651
56.90000 141.159
56.91000 139.668
56.92000 138.182
56.93000 136.699
56.94000 135.198
56.95000 133.467
56.96000 131.662
56.97000 130.032
56.98000 129.545
56.99000 129.329
57.00000 128.829
57.01000 126.928
57.02000 124.839
57.03000 123.712
57.04000 125.756
57.05000 128.048
57.06000 129.654
57.07000 127.630
57.08000 125.997
57.09000 125.320
57.10000 126.109
57.11000 126.914
57.12000 128.432
57.13000 130.669
57.14000 132.893
57.15000 132.215
57.16000 129.646
57.17000 127.195
57.18000 127.991
57.19000 130.253
57.20000 132.378
57.21000 132.725
57.22000 132.524
57.23000 132.343
57.24000 134.316
57.25000 136.439
57.26000 137.288
57.27000 131.985
57.28000 125.871
57.29000 121.421
57.30000 122.361
57.31000 123.713
57.32000 124.655
57.33000 121.762
57.34000 119.475
57.35000 120.161
57.36000 125.319
57.37000 130.522
57.38000 133.666
57.39000 134.774
57.40000 135.875
57.41000 132.589
57.42000 126.534
57.43000 120.696
57.44000 120.564
57.45000 122.965
57.46000 125.359
57.47000 127.672
57.48000 129.960
57.49000 132.017
57.50000 133.688
57.51000 135.084
57.52000 135.263
57.53000 129.678
57.54000 123.349
57.55000 119.474
57.56000 123.412
57.57000 127.930
57.58000 131.057
57.59000 130.138
57.60000 129.340
57.61000 128.325
57.62000 126.990
57.63000 125.652
57.64000 123.510
57.65000 120.590
57.66000 117.691
57.67000 117.742
57.68000 119.651
57.69000 121.371
57.70000 118.302
57.71000 113.145
57.72000 108.544
57.73000 110.816
57.74000 115.134
57.75000 119.006
57.76000 122.489
57.77000 125.465
57.78000 128.201
57.79000 129.815
57.80000 131.288
57.81000 131.668
57.82000 128.632
57.83000 125.349
57.84000 123.089
57.85000 119.398
57.86000 116.593
57.87000 116.092
57.88000 118.935
57.89000 121.806
57.90000 123.052
57.91000 122.753
57.92000 122.456
57.93000 124.259
57.94000 127.330
57.95000 130.341
57.96000 131.884
57.97000 132.799
57.98000 133.506
57.99000 131.723
58.00000 129.212
58.01000 126.966
58.02000 129.645
58.03000 132.820
58.04000 134.129
58.05000 126.921
58.06000 118.663
58.07000 113.397
58.08000 117.330
58.09000 121.909
58.10000 125.042
58.11000 125.923
58.12000 126.528
58.13000 124.629
58.14000 119.160
58.15000 113.665
58.16000 111.128
58.17000 111.347
58.18000 111.565
58.19000 115.662
58.20000 122.039
58.21000 128.208
58.22000 129.502
58.23000 128.741
58.24000 128.108
58.25000 128.968
58.26000 130.256
58.27000 131.406
58.28000 128.040
58.29000 124.360
58.30000 121.275
58.31000 120.854
58.32000 120.754
58.33000 120.297
58.34000 118.757
58.35000 117.144
58.36000 116.047
58.37000 110.638
58.38000 106.501
58.39000 106.470
58.40000 112.182
58.41000 117.931
58.42000 120.055
58.43000 118.867
58.44000 117.689
58.45000 118.387
58.46000 120.187
58.47000 121.901
58.48000 121.666
58.49000 120.622
58.50000 119.722
58.51000 120.449
58.52000 121.636
58.53000 122.692
58.54000 120.922
58.55000 118.924
58.56000 117.931
58.57000 121.362
58.58000 125.314
58.59000 127.688
58.60000 125.379
58.61000 122.761
58.62000 120.990
58.63000 121.623
58.64000 122.147
58.65000 124.664
58.66000 129.919
58.67000 135.187
58.68000 135.693
58.69000 131.933
58.70000 128.209
58.71000 124.670
58.72000 121.312
58.73000 118.130
58.74000 118.778
58.75000 120.986
58.76000 122.989
58.77000 122.722
58.78000 121.824
58.79000 121.027
58.80000 122.237
58.81000 123.605
58.82000 123.974
58.83000 120.025
58.84000 115.578
58.85000 112.081
58.86000 111.359
58.87000 110.814
58.88000 110.449
58.89000 108.806
58.90000 107.559
58.91000 107.792
58.92000 110.022
58.93000 112.261
58.94000 113.134
58.95000 112.806
58.96000 112.481
58.97000 115.305
58.98000 119.871
58.99000 124.137
59.00000 122.081
59.01000 117.495
59.02000 113.372
59.03000 114.261
59.04000 116.517
59.05000 118.513
59.06000 119.008
59.07000 119.202
59.08000 119.014
59.09000 117.204
59.10000 115.212
59.11000 114.176
59.12000 115.880
59.13000 117.755
59.14000 119.007
59.15000 118.089
59.16000 117.366
59.17000 117.128
59.18000 117.533
59.19000 117.940
59.20000 117.634
59.21000 116.711
59.22000 115.800
59.23000 118.119
59.24000 122.200
59.25000 125.970
59.26000 123.421
59.27000 118.384
59.28000 113.557
59.29000 110.940
59.30000 108.914
59.31000 107.126
59.32000 110.338
59.33000 113.872
59.34000 116.649
59.35000 116.270
59.36000 115.544
59.37000 114.942
59.38000 114.690
59.39000 114.459
59.40000 114.305
59.41000 117.034
59.42000 119.103
59.43000 119.313
59.44000 117.106
59.45000 114.893
59.46000 115.789
59.47000 119.313
59.48000 122.795
59.49000 125.725
59.50000 128.278
59.51000 130.549
59.52000 127.314
59.53000 121.948
59.54000 117.300
59.55000 120.031
59.56000 124.702
59.57000 128.813
59.58000 125.226
59.59000 120.987
59.60000 117.484
59.61000 116.986
59.62000 116.811
59.63000 115.949
59.64000 113.179
59.65000 110.299
59.66000 108.398
59.67000 110.186
59.68000 111.569
59.69000 111.946
59.70000 111.038
59.71000 110.131
59.72000 112.006
59.73000 116.190
59.74000 120.320
59.75000 119.273
59.76000 115.447
59.77000 111.940
59.78000 114.467
59.79000 119.288
59.80000 123.623
59.81000 123.084
59.82000 121.285
59.83000 119.706
59.84000 123.670
59.85000 127.886
59.86000 131.037
59.87000 129.911
59.88000 128.337
59.89000 125.797
59.90000 120.626
59.91000 115.306
59.92000 111.818
59.93000 118.437
59.94000 123.473
59.95000 124.281
59.96000 119.797
59.97000 115.302
59.98000 113.214
59.99000 113.086
60.00000 112.960
60.01000 116.875
60.02000 122.831
60.03000 128.483
60.04000 128.589
60.05000 126.622
60.06000 124.975
60.07000 126.454
60.08000 128.727
60.09000 130.716
60.10000 129.862
60.11000 128.724
60.12000 127.513
60.13000 126.011
60.14000 124.479
60.15000 122.739
60.16000 120.439
60.17000 118.109
60.18000 116.591
60.19000 118.047
60.20000 119.162
60.21000 118.959
60.22000 117.137
60.23000 115.316
60.24000 115.310
60.25000 116.755
60.26000 118.179
60.27000 117.401
60.28000 115.496
60.29000 113.725
60.30000 114.323
60.31000 115.793
60.32000 117.165
60.33000 117.605
60.34000 117.813
60.35000 117.994
60.36000 117.628
60.37000 117.239
60.38000 116.786
60.39000 116.088
60.40000 115.366
60.41000 115.691
60.42000 118.771
60.43000 121.998
60.44000 124.086
60.45000 123.266
60.46000 122.622
60.47000 121.281
60.48000 119.099
60.49000 116.922
60.50000 116.877
60.51000 118.505
60.52000 120.107
60.53000 121.526
60.54000 122.807
60.55000 123.922
60.56000 122.197
60.57000 119.446
60.58000 116.695
60.59000 113.946
60.60000 111.197
60.61000 108.807
60.62000 113.510
60.63000 118.493
60.64000 122.224
60.65000 121.188
60.66000 119.688
60.67000 118.799
60.68000 119.489
60.69000 120.260
60.70000 120.756
60.71000 120.193
60.72000 119.768
60.73000 119.314
60.74000 118.826
60.75000 118.332
60.76000 116.529
60.77000 113.717
60.78000 110.951
60.79000 113.138
60.80000 117.745
60.81000 121.968
60.82000 119.825
60.83000 115.422
60.84000 111.664
60.85000 113.789
60.86000 117.328
60.87000 120.397
60.88000 121.121
60.89000 121.424
60.90000 121.688
60.91000 121.808
60.92000 121.915
60.93000 120.775
60.94000 116.466
60.95000 112.001
60.96000 109.150
60.97000 114.472
60.98000 118.451
60.99000 118.555
61.00000 114.161
61.01000 109.787
61.02000 111.110
61.03000 116.740
61.04000 122.273
61.05000 123.656
61.06000 122.945
61.07000 122.094
61.08000 118.983
61.09000 115.084
61.10000 111.954
61.11000 115.658
61.12000 120.975
61.13000 125.572
61.14000 127.194
61.15000 128.184
61.16000 129.079
61.17000 129.622
61.18000 130.134
61.19000 129.637
61.20000 126.619
61.21000 123.481
61.22000 121.490
61.23000 120.510
61.24000 119.811
61.25000 121.466
61.26000 125.804
61.27000 130.125
61.28000 130.993
61.29000 129.298
61.30000 127.634
61.31000 126.260
61.32000 125.075
61.33000 123.751
61.34000 120.270
61.35000 116.048
61.36000 112.339
61.37000 113.088
61.38000 114.870
61.39000 116.406
61.40000 118.100
61.41000 119.558
61.42000 121.214
61.43000 123.590
61.44000 126.031
61.45000 128.842
61.46000 132.562
61.47000 136.324
61.48000 138.695
61.49000 135.396
61.50000 132.943
61.51000 134.704
61.52000 141.171
61.53000 147.653
61.54000 156.132
61.55000 166.066
61.56000 175.811
61.57000 187.100
61.58000 198.712
61.59000 210.560
61.60000 225.976
61.61000 242.596
61.62000 258.440
61.63000 267.699
61.64000 275.462
61.65000 282.133
61.66000 286.558
61.67000 290.021
61.68000 295.279
61.69000 306.895
61.70000 319.069
61.71000 325.982
61.72000 320.185
61.73000 313.825
61.74000 309.845
61.75000 303.708
61.76000 299.254
61.77000 294.927
61.78000 290.739
61.79000 286.514
61.80000 276.797
61.81000 263.151
61.82000 249.779
61.83000 231.036
61.84000 210.501
61.85000 190.571
61.86000 179.544
61.87000 171.468
61.88000 163.869
61.89000 160.228
61.90000 157.470
61.91000 155.107
61.92000 152.125
61.93000 149.531
61.94000 147.637
61.95000 148.174
61.96000 148.919
61.97000 147.211
61.98000 139.677
61.99000 131.895
62.00000 127.059
62.01000 128.770
62.02000 130.066
62.03000 130.743
62.04000 130.754
62.05000 130.754
62.06000 129.351
62.07000 126.963
62.08000 124.626
62.09000 125.055
62.10000 126.733
62.11000 128.353
62.12000 129.125
62.13000 129.622
62.14000 129.771
62.15000 127.096
62.16000 123.802
62.17000 120.988
62.18000 119.347
62.19000 118.104
62.20000 117.583
62.21000 119.531
62.22000 121.684
62.23000 124.034
62.24000 126.842
62.25000 129.669
62.26000 131.413
62.27000 134.857
62.28000 137.345
62.29000 135.249
62.30000 128.323
62.31000 121.451
62.32000 121.206
62.33000 125.533
62.34000 129.764
62.35000 129.716
62.36000 127.748
62.37000 125.956
62.38000 126.608
62.39000 128.043
62.40000 129.427
62.41000 130.414
62.42000 131.315
62.43000 132.083
62.44000 131.691
62.45000 131.228
62.46000 131.122
62.47000 132.222
62.48000 133.419
62.49000 134.642
62.50000 135.923
62.51000 137.206
62.52000 137.992
62.53000 130.232
62.54000 124.604
62.55000 125.733
62.56000 133.839
62.57000 141.867
62.58000 141.066
62.59000 134.283
62.60000 127.657
62.61000 127.099
62.62000 129.239
62.63000 130.972
62.64000 127.237
62.65000 121.782
62.66000 117.428
62.67000 121.612
62.68000 127.599
62.69000 132.679
62.70000 133.943
62.71000 134.570
62.72000 134.404
62.73000 131.618
62.74000 128.626
62.75000 126.801
62.76000 127.610
62.77000 128.518
62.78000 129.071
62.79000 134.841
62.80000 139.003
62.81000 139.664
62.82000 136.784
62.83000 133.924
62.84000 133.150
62.85000 133.765
62.86000 134.364
62.87000 133.719
62.88000 132.566
62.89000 131.372
62.90000 129.646
62.91000 127.757
62.92000 126.269
62.93000 127.828
62.94000 130.019
62.95000 131.872
62.96000 130.273
62.97000 128.552
62.98000 128.297
62.99000 132.801
63.00000 137.671
63.01000 140.232
63.02000 137.672
63.03000 134.926
63.04000 133.268
63.05000 136.519
63.06000 138.870
63.07000 138.374
63.08000 135.056
63.09000 131.765
63.10000 131.023
63.11000 131.948
63.12000 132.849
63.13000 133.290
63.14000 133.516
63.15000 133.644
63.16000 132.525
63.17000 131.029
63.18000 129.958
63.19000 132.049
63.20000 134.783
63.21000 137.088
63.22000 135.509
63.23000 133.770
63.24000 132.958
63.25000 135.101
63.26000 137.464
63.27000 138.279
63.28000 135.719
63.29000 133.041
63.30000 131.437
63.31000 132.129
63.32000 132.636
63.33000 133.780
63.34000 135.543
63.35000 137.286
63.36000 137.327
63.37000 136.275
63.38000 135.251
63.39000 135.197
63.40000 135.550
63.41000 135.667
63.42000 132.862
63.43000 129.185
63.44000 126.549
63.45000 131.472
63.46000 137.903
63.47000 143.306
63.48000 135.850
63.49000 128.283
63.50000 123.879
63.51000 129.391
63.52000 135.623
63.53000 140.509
63.54000 142.515
63.55000 144.424
63.56000 145.559
63.57000 139.613
63.58000 135.361
63.59000 133.479
63.60000 133.855
63.61000 134.239
63.62000 135.247
63.63000 136.648
63.64000 138.011
63.65000 139.383
63.66000 140.691
63.67000 141.858
63.68000 141.326
63.69000 140.295
63.70000 139.428
63.71000 139.723
63.72000 140.245
63.73000 140.683
63.74000 141.431
63.75000 142.084
63.76000 142.098
63.77000 140.144
63.78000 138.052
63.79000 136.162
63.80000 134.701
63.81000 133.253
63.82000 132.398
63.83000 141.050
63.84000 147.209
63.85000 148.911
63.86000 146.449
63.87000 144.011
63.88000 143.424
63.89000 143.982
63.90000 144.524
63.91000 141.994
63.92000 138.360
63.93000 135.053
63.94000 135.576
63.95000 137.204
63.96000 139.127
63.97000 143.113
63.98000 147.495
63.99000 151.151
64.00000 145.432
64.01000 139.748
64.02000 135.821
64.03000 137.218
64.04000 138.980
64.05000 142.048
64.06000 147.825
64.07000 153.684
64.08000 157.114
64.09000 155.938
64.10000 155.087
64.11000 154.091
64.12000 152.962
64.13000 151.793
64.14000 147.879
64.15000 142.294
64.16000 136.878
64.17000 140.097
64.18000 146.546
64.19000 152.504
64.20000 152.843
64.21000 151.592
64.22000 150.409
64.23000 149.697
64.24000 149.072
64.25000 148.553
64.26000 144.315
64.27000 140.443
64.28000 138.461
64.29000 142.104
64.30000 146.121
64.31000 149.347
64.32000 150.963
64.33000 152.532
64.34000 153.443
64.35000 148.783
64.36000 145.488
64.37000 143.650
64.38000 143.122
64.39000 142.632
64.40000 144.569
64.41000 147.957
64.42000 151.240
64.43000 156.923
64.44000 163.226
64.45000 168.770
64.46000 165.851
64.47000 160.577
64.48000 155.848
64.49000 154.761
64.50000 154.345
64.51000 154.001
64.52000 156.519
64.53000 158.872
64.54000 160.721
64.55000 161.098
64.56000 161.381
64.57000 162.743
64.58000 166.267
64.59000 169.851
64.60000 171.916
64.61000 162.072
64.62000 155.140
64.63000 152.730
64.64000 154.306
64.65000 155.906
64.66000 158.950
64.67000 162.844
64.68000 166.610
64.69000 165.044
64.70000 161.543
64.71000 158.864
64.72000 165.102
64.73000 173.777
64.74000 181.186
64.75000 180.321
64.76000 177.958
64.77000 176.007
64.78000 181.353
64.79000 186.435
64.80000 188.806
64.81000 183.383
64.82000 177.473
64.83000 173.554
64.84000 173.547
64.85000 173.644
64.86000 173.700
64.87000 179.243
64.88000 183.128
64.89000 184.782
64.90000 184.506
64.91000 184.205
64.92000 182.480
64.93000 179.932
64.94000 177.471
64.95000 183.022
64.96000 191.235
64.97000 199.033
64.98000 202.440
64.99000 204.668
65.00000 206.346
65.01000 204.505
65.02000 202.040
65.03000 200.012
65.04000 200.398
65.05000 200.934
65.06000 202.187
65.07000 205.466
65.08000 208.868
65.09000 211.681
65.10000 213.355
65.11000 215.000
65.12000 215.933
65.13000 210.021
65.14000 205.900
65.15000 210.130
65.16000 221.442
65.17000 232.625
65.18000 236.948
65.19000 237.376
65.20000 237.789
65.21000 240.966
65.22000 244.965
65.23000 248.621
65.24000 248.746
65.25000 247.938
65.26000 247.781
65.27000 251.701
65.28000 256.330
65.29000 260.123
65.30000 260.810
65.31000 261.099
65.32000 261.490
65.33000 262.166
65.34000 262.859
65.35000 265.584
65.36000 272.171
65.37000 278.851
65.38000 282.606
65.39000 296.833
65.40000 306.718
65.41000 309.127
65.42000 305.314
65.43000 301.571
65.44000 301.356
65.45000 303.108
65.46000 304.797
65.47000 309.837
65.48000 315.773
65.49000 322.026
65.50000 331.477
65.51000 341.756
65.52000 351.697
65.53000 359.557
65.54000 367.062
65.55000 373.190
65.56000 375.429
65.57000 376.926
65.58000 380.925
65.59000 391.755
65.60000 402.974
65.61000 409.963
65.62000 409.058
65.63000 407.974
65.64000 407.369
65.65000 438.564
65.66000 460.226
65.67000 485.630
65.68000 514.089
65.69000 542.986
65.70000 592.602
65.71000 653.577
65.72000 712.233
65.73000 815.149
65.74000 927.197
65.75000 1042.287
65.76000 1187.264
65.77000 1339.846
65.78000 1486.045
65.79000 1593.819
65.80000 1695.167
65.81000 1777.609
65.82000 1875.865
65.83000 1957.410
65.84000 2021.879
65.85000 2040.523
65.86000 2056.647
65.87000 2075.079
65.88000 2097.747
65.89000 2120.506
65.90000 2133.084
65.91000 2120.360
65.92000 2111.469
65.93000 2080.327
65.94000 2031.351
65.95000 1981.470
65.96000 1891.077
65.97000 1778.856
65.98000 1671.061
65.99000 1532.495
66.00000 1392.203
66.01000 1252.844
66.02000 1122.425
66.03000 994.239
66.04000 871.417
66.05000 780.241
66.06000 694.252
66.07000 624.569
66.08000 566.667
66.09000 520.463
66.10000 482.729
66.11000 467.341
66.12000 453.140
66.13000 439.328
66.14000 426.215
66.15000 413.116
66.16000 405.938
66.17000 391.415
66.18000 381.418
66.19000 372.073
66.20000 363.242
66.21000 354.674
66.22000 357.231
66.23000 365.680
66.24000 373.784
66.25000 386.561
66.26000 400.077
66.27000 413.868
66.28000 430.225
66.29000 447.212
66.30000 464.713
66.31000 485.195
66.32000 506.154
66.33000 523.073
66.34000 543.504
66.35000 560.388
66.36000 578.179
66.37000 598.321
66.38000 618.585
66.39000 636.084
66.40000 648.686
66.41000 661.193
66.42000 667.986
66.43000 658.737
66.44000 652.394
66.45000 650.405
66.46000 651.777
66.47000 653.043
66.48000 650.026
66.49000 644.779
66.50000 639.755
66.51000 624.356
66.52000 606.555
66.53000 588.330
66.54000 566.234
66.55000 543.206
66.56000 519.274
66.57000 490.217
66.58000 460.353
66.59000 436.340
66.60000 433.508
66.61000 432.849
66.62000 424.961
66.63000 398.644
66.64000 371.413
66.65000 357.903
66.66000 368.288
66.67000 379.105
66.68000 384.927
66.69000 367.765
66.70000 356.043
66.71000 350.739
66.72000 350.302
66.73000 349.924
66.74000 351.836
66.75000 354.921
66.76000 357.870
66.77000 361.115
66.78000 364.230
66.79000 366.907
66.80000 365.669
66.81000 363.504
66.82000 361.582
66.83000 361.006
66.84000 360.637
66.85000 360.342
66.86000 356.266
66.87000 352.684
66.88000 349.957
66.89000 349.372
66.90000 348.890
66.91000 348.190
66.92000 347.120
66.93000 346.042
66.94000 345.468
66.95000 360.895
66.96000 371.392
66.97000 376.853
66.98000 378.567
66.99000 380.311
67.00000 383.142
67.01000 386.519
67.02000 389.742
67.03000 386.284
67.04000 380.938
67.05000 376.597
67.06000 381.029
67.07000 387.500
67.08000 392.000
67.09000 385.768
67.10000 377.915
67.11000 371.650
67.12000 378.510
67.13000 385.007
67.14000 389.394
67.15000 388.586
67.16000 387.538
67.17000 386.862
67.18000 386.813
67.19000 386.773
67.20000 386.752
67.21000 390.671
67.22000 393.334
67.23000 395.827
67.24000 398.195
67.25000 400.520
67.26000 401.368
67.27000 401.485
67.28000 401.596
67.29000 399.413
67.30000 396.670
67.31000 394.495
67.32000 397.162
67.33000 400.934
67.34000 404.210
67.35000 404.836
67.36000 405.071
67.37000 405.258
67.38000 402.544
67.39000 400.152
67.40000 401.305
67.41000 411.041
67.42000 421.159
67.43000 428.259
67.44000 430.374
67.45000 432.414
67.46000 433.482
67.47000 438.885
67.48000 442.508
67.49000 440.392
67.50000 434.159
67.51000 428.102
67.52000 427.863
67.53000 430.452
67.54000 432.915
67.55000 436.756
67.56000 440.736
67.57000 443.989
67.58000 441.192
67.59000 437.042
67.60000 433.753
67.61000 434.987
67.62000 436.874
67.63000 438.368
67.64000 439.520
67.65000 440.423
67.66000 443.299
67.67000 450.876
67.68000 458.654
67.69000 459.596
67.70000 449.441
67.71000 439.133
67.72000 433.786
67.73000 443.511
67.74000 450.044
67.75000 451.988
67.76000 450.699
67.77000 449.635
67.78000 455.719
67.79000 465.217
67.80000 474.240
67.81000 474.824
67.82000 472.817
67.83000 470.878
67.84000 469.490
67.85000 468.223
67.86000 467.047
67.87000 466.335
67.88000 465.688
67.89000 465.179
67.90000 474.245
67.91000 482.154
67.92000 486.390
67.93000 482.030
67.94000 477.316
67.95000 477.044
67.96000 483.856
67.97000 490.760
67.98000 494.306
67.99000 502.072
68.00000 507.295
68.01000 512.199
68.02000 516.884
68.03000 521.333
68.04000 518.620
68.05000 512.545
68.06000 506.784
68.07000 511.626
68.08000 519.226
68.09000 525.776
68.10000 523.969
68.11000 520.359
68.12000 518.434
68.13000 525.012
68.14000 532.769
68.15000 538.856
68.16000 536.208
68.17000 533.522
68.18000 530.120
68.19000 525.071
68.20000 519.957
68.21000 522.333
68.22000 536.443
68.23000 550.694
68.24000 557.944
68.25000 569.672
68.26000 577.466
68.27000 577.251
68.28000 571.596
68.29000 566.140
68.30000 566.475
68.31000 569.482
68.32000 572.328
68.33000 578.405
68.34000 584.933
68.35000 591.720
68.36000 600.518
68.37000 609.741
68.38000 618.664
68.39000 626.104
68.40000 633.343
68.41000 638.999
68.42000 640.859
68.43000 642.103
68.44000 643.985
68.45000 647.308
68.46000 650.686
68.47000 654.891
68.48000 660.367
68.49000 665.857
68.50000 668.623
68.51000 688.924
68.52000 702.419
68.53000 708.425
68.54000 709.434
68.55000 711.014
68.56000 728.497
68.57000 753.194
68.58000 776.535
68.59000 795.263
68.60000 811.150
68.61000 828.614
68.62000 858.077
68.63000 890.033
68.64000 924.402
68.65000 970.493
68.66000 1018.141
68.67000 1055.212
68.68000 1107.042
68.69000 1149.208
68.70000 1190.823
68.71000 1231.215
68.72000 1271.563
68.73000 1312.835
68.74000 1355.505
68.75000 1398.189
68.76000 1438.049
68.77000 1475.100
68.78000 1512.302
68.79000 1563.630
68.80000 1624.218
68.81000 1684.531
68.82000 1737.481
68.83000 1787.149
68.84000 1834.008
68.85000 1916.536
68.86000 2002.137
68.87000 2091.289
68.88000 2206.876
68.89000 2327.854
68.90000 2469.027
68.91000 2706.457
68.92000 2956.389
68.93000 3150.000
68.94000 4025.292
68.95000 4761.030
68.96000 5857.284
68.97000 7741.390
68.98000 9653.186
68.99000 12105.017
69.00000 15358.671
69.01000 18619.744
69.02000 22195.846
69.03000 26078.889
69.04000 29955.482
69.05000 33272.602
69.06000 36229.500
69.07000 39152.043
69.08000 41192.902
69.09000 42847.332
69.10000 44405.371
69.11000 45311.660
69.12000 45962.316
69.13000 46628.781
69.14000 47410.441
69.15000 48215.141
69.16000 49017.309
69.17000 49807.625
69.18000 50596.438
69.19000 51204.816
69.20000 51227.961
69.21000 51212.523
69.22000 50526.629
69.23000 48400.461
69.24000 46225.793
69.25000 43716.891
69.26000 40720.582
69.27000 37720.316
69.28000 35013.004
69.29000 32586.160
69.30000 30166.449
69.31000 28319.410
69.32000 26834.594
69.33000 25377.793
69.34000 24612.145
69.35000 24144.281
69.36000 23704.486
69.37000 23306.652
69.38000 22954.689
69.39000 22533.549
69.40000 21619.031
69.41000 20607.689
69.42000 19454.895
69.43000 17652.684
69.44000 15769.803
69.45000 14324.061
69.46000 11930.495
69.47000 9985.360
69.48000 8234.714
69.49000 6894.754
69.50000 5568.034
69.51000 4469.841
69.52000 3698.936
69.53000 2930.666
69.54000 2402.032
69.55000 2098.083
69.56000 1795.598
69.57000 1602.251
69.58000 1476.723
69.59000 1352.597
69.60000 1261.789
69.61000 1185.091
69.62000 1113.129
69.63000 1068.161
69.64000 1034.293
69.65000 999.259
69.66000 956.091
69.67000 911.357
69.68000 871.338
69.69000 852.570
69.70000 836.382
69.71000 824.008
69.72000 795.341
69.73000 771.851
69.74000 754.288
69.75000 749.032
69.76000 744.155
69.77000 734.778
69.78000 719.071
69.79000 703.323
69.80000 685.876
69.81000 666.880
69.82000 648.069
69.83000 642.114
69.84000 644.008
69.85000 645.125
69.86000 628.487
69.87000 604.455
69.88000 581.951
69.89000 576.604
69.90000 576.171
69.91000 575.139
69.92000 570.010
69.93000 564.107
69.94000 558.198
69.95000 552.263
69.96000 546.324
69.97000 541.805
69.98000 534.490
69.99000 528.589
70.00000 522.469
