20.00000 483.280
20.01000 486.627
20.02000 490.453
20.03000 491.832
20.04000 483.560
20.05000 474.302
20.06000 467.466
20.07000 462.617
20.08000 458.942
20.09000 457.881
20.10000 461.602
20.11000 465.425
20.12000 467.070
20.13000 466.038
20.14000 465.002
20.15000 464.562
20.16000 464.600
20.17000 464.653
20.18000 465.415
20.19000 466.557
20.20000 467.524
20.21000 465.389
20.22000 462.114
20.23000 459.092
20.24000 471.178
20.25000 485.381
20.26000 496.222
20.27000 487.301
20.28000 475.152
20.29000 466.356
20.30000 470.545
20.31000 476.028
20.32000 480.057
20.33000 471.961
20.34000 465.205
20.35000 463.540
20.36000 471.025
20.37000 478.695
20.38000 480.608
20.39000 475.582
20.40000 470.551
20.41000 469.977
20.42000 472.884
20.43000 475.532
20.44000 467.313
20.45000 453.356
20.46000 440.551
20.47000 447.492
20.48000 461.562
20.49000 474.516
20.50000 478.753
20.51000 480.636
20.52000 481.425
20.53000 475.914
20.54000 469.394
20.55000 462.408
20.56000 453.648
20.57000 444.715
20.58000 438.185
20.59000 448.389
20.60000 456.919
20.61000 462.149
20.62000 461.548
20.63000 460.836
20.64000 461.553
20.65000 463.960
20.66000 466.364
20.67000 464.103
20.68000 458.286
20.69000 452.645
20.70000 454.032
20.71000 459.067
20.72000 464.186
20.73000 470.693
20.74000 477.693
20.75000 484.124
20.76000 479.113
20.77000 472.189
20.78000 466.760
20.79000 469.781
20.80000 474.128
20.81000 477.770
20.82000 478.781
20.83000 479.543
20.84000 480.098
20.85000 475.285
20.86000 471.378
20.87000 468.483
20.88000 467.344
20.89000 466.237
20.90000 466.681
20.91000 468.926
20.92000 471.167
20.93000 472.066
20.94000 471.951
20.95000 471.816
20.96000 470.914
20.97000 469.621
20.98000 468.592
20.99000 471.805
21.00000 476.498
21.01000 480.799
21.02000 477.382
21.03000 472.717
21.04000 469.072
21.05000 471.074
21.06000 473.945
21.07000 475.914
21.08000 474.574
21.09000 472.929
21.10000 471.739
21.11000 465.175
21.12000 459.941
21.13000 457.179
21.14000 458.634
21.15000 460.161
21.16000 459.012
21.17000 454.817
21.18000 450.631
21.19000 454.837
21.20000 465.188
21.21000 475.267
21.22000 475.498
21.23000 470.793
21.24000 466.394
21.25000 466.781
21.26000 468.808
21.27000 470.662
21.28000 467.964
21.29000 464.630
21.30000 460.837
21.31000 454.554
21.32000 447.897
21.33000 445.183
21.34000 456.687
21.35000 469.473
21.36000 478.677
21.37000 469.944
21.38000 462.626
21.39000 460.522
21.40000 467.159
21.41000 473.933
21.42000 473.966
21.43000 466.472
21.44000 458.999
21.45000 462.802
21.46000 474.714
21.47000 486.360
21.48000 488.802
21.49000 486.709
21.50000 484.498
21.51000 480.503
21.52000 475.907
21.53000 471.713
21.54000 465.203
21.55000 458.961
21.56000 454.659
21.57000 460.686
21.58000 468.234
21.59000 473.240
21.60000 469.238
21.61000 464.444
21.62000 461.011
21.63000 470.645
21.64000 478.446
21.65000 480.750
21.66000 473.999
21.67000 467.114
21.68000 464.910
21.69000 467.832
21.70000 470.745
21.71000 468.316
21.72000 462.127
21.73000 456.232
21.74000 460.054
21.75000 468.583
21.76000 476.177
21.77000 470.051
21.78000 459.380
21.79000 449.666
21.80000 462.001
21.81000 477.275
21.82000 489.728
21.83000 487.438
21.84000 483.021
21.85000 480.117
21.86000 482.475
21.87000 485.283
21.88000 487.283
21.89000 481.860
21.90000 477.487
21.91000 476.235
21.92000 480.036
21.93000 483.906
21.94000 486.314
21.95000 487.151
21.96000 487.985
21.97000 491.911
21.98000 497.945
21.99000 503.887
22.00000 506.912
22.01000 508.548
22.02000 510.079
22.03000 510.119
22.04000 509.673
22.05000 509.268
22.06000 509.156
22.07000 509.113
22.08000 508.531
22.09000 505.185
22.10000 501.449
22.11000 498.329
22.12000 497.314
22.13000 496.475
22.14000 495.881
22.15000 491.177
22.16000 487.473
22.17000 487.260
22.18000 492.598
22.19000 498.005
22.20000 503.056
22.21000 507.730
22.22000 512.382
22.23000 510.264
22.24000 503.556
22.25000 496.847
22.26000 490.124
22.27000 483.395
22.28000 477.221
22.29000 478.742
22.30000 482.724
22.31000 486.332
22.32000 478.235
22.33000 468.879
22.34000 462.440
22.35000 470.671
22.36000 480.929
22.37000 486.847
22.38000 478.181
22.39000 468.332
22.40000 461.394
22.41000 462.035
22.42000 462.749
22.43000 463.961
22.44000 465.953
22.45000 467.953
22.46000 472.614
22.47000 480.021
22.48000 487.388
22.49000 487.959
22.50000 483.978
22.51000 479.996
22.52000 475.986
22.53000 471.964
22.54000 468.135
22.55000 466.930
22.56000 466.549
22.57000 466.205
22.58000 463.923
22.59000 461.556
22.60000 459.532
22.61000 459.200
22.62000 459.096
22.63000 457.921
22.64000 453.206
22.65000 448.211
22.66000 444.712
22.67000 452.942
22.68000 459.504
22.69000 462.389
22.70000 459.635
22.71000 456.819
22.72000 449.069
22.73000 436.326
22.74000 423.660
22.75000 424.510
22.76000 434.220
22.77000 443.689
22.78000 446.509
22.79000 446.321
22.80000 446.360
22.81000 449.362
22.82000 453.281
22.83000 456.813
22.84000 453.508
22.85000 449.363
22.86000 446.472
22.87000 449.650
22.88000 453.632
22.89000 454.742
22.90000 446.537
22.91000 437.617
22.92000 431.402
22.93000 447.395
22.94000 460.073
22.95000 467.922
22.96000 468.495
22.97000 468.996
22.98000 467.377
22.99000 463.656
23.00000 459.960
23.01000 453.199
23.02000 444.565
23.03000 436.020
23.04000 429.852
23.05000 424.742
23.06000 420.569
23.07000 428.320
23.08000 439.692
23.09000 449.919
23.10000 453.481
23.11000 455.415
23.12000 456.848
23.13000 455.906
23.14000 454.657
23.15000 451.041
23.16000 439.881
23.17000 428.159
23.18000 420.038
23.19000 432.890
23.20000 443.115
23.21000 446.303
23.22000 439.076
23.23000 431.753
23.24000 430.977
23.25000 436.561
23.26000 442.105
23.27000 444.634
23.28000 445.217
23.29000 445.517
23.30000 438.621
23.31000 428.579
23.32000 419.260
23.33000 418.895
23.34000 421.202
23.35000 423.271
23.36000 430.990
23.37000 438.721
23.38000 444.685
23.39000 442.405
23.40000 439.081
23.41000 437.496
23.42000 441.360
23.43000 445.619
23.44000 448.553
23.45000 452.443
23.46000 455.387
23.47000 457.292
23.48000 457.688
23.49000 458.070
23.50000 459.787
23.51000 462.775
23.52000 465.739
23.53000 470.627
23.54000 476.624
23.55000 482.064
23.56000 473.846
23.57000 459.761
23.58000 446.679
23.59000 445.695
23.60000 448.257
23.61000 450.550
23.62000 452.757
23.63000 454.668
23.64000 457.138
23.65000 462.169
23.66000 467.516
23.67000 471.039
23.68000 468.946
23.69000 466.456
23.70000 464.751
23.71000 472.824
23.72000 479.103
23.73000 481.153
23.74000 477.164
23.75000 473.133
23.76000 479.274
23.77000 494.918
23.78000 510.432
23.79000 510.156
23.80000 500.281
23.81000 490.634
23.82000 486.347
23.83000 484.325
23.84000 482.994
23.85000 489.787
23.86000 498.919
23.87000 507.069
23.88000 506.523
23.89000 504.595
23.90000 503.670
23.91000 507.246
23.92000 511.367
23.93000 517.721
23.94000 530.833
23.95000 544.407
23.96000 553.649
23.97000 553.188
23.98000 552.622
23.99000 545.881
24.00000 530.481
24.01000 515.026
24.02000 509.295
24.03000 512.469
24.04000 515.615
24.05000 521.108
24.06000 527.895
24.07000 534.220
24.08000 530.057
24.09000 521.539
24.10000 513.072
24.11000 505.189
24.12000 497.471
24.13000 490.603
24.14000 491.958
24.15000 494.479
24.16000 496.438
24.17000 495.917
24.18000 495.103
24.19000 493.849
24.20000 491.285
24.21000 488.633
24.22000 486.839
24.23000 480.227
24.24000 475.196
24.25000 472.489
24.26000 472.983
24.27000 473.495
24.28000 471.260
24.29000 466.556
24.30000 461.898
24.31000 452.061
24.32000 439.395
24.33000 427.350
24.34000 428.901
24.35000 436.002
24.36000 442.507
24.37000 442.394
24.38000 440.440
24.39000 438.705
24.40000 436.889
24.41000 435.301
24.42000 433.391
24.43000 430.084
24.44000 426.615
24.45000 425.047
24.46000 429.034
24.47000 433.379
24.48000 436.302
24.49000 439.187
24.50000 441.330
24.51000 440.097
24.52000 434.301
24.53000 428.484
24.54000 426.764
24.55000 428.653
24.56000 430.522
24.57000 432.288
24.58000 433.956
24.59000 435.300
24.60000 429.818
24.61000 421.596
24.62000 413.959
24.63000 412.659
24.64000 413.091
24.65000 413.474
24.66000 414.488
24.67000 415.464
24.68000 415.955
24.69000 414.386
24.70000 412.585
24.71000 412.758
24.72000 418.606
24.73000 424.809
24.74000 428.956
24.75000 420.804
24.76000 414.519
24.77000 412.257
24.78000 415.333
24.79000 418.434
24.80000 420.011
24.81000 420.271
24.82000 420.529
24.83000 422.022
24.84000 424.177
24.85000 426.111
24.86000 423.534
24.87000 419.177
24.88000 414.900
24.89000 411.450
24.90000 408.224
24.91000 405.375
24.92000 409.406
24.93000 413.937
24.94000 417.419
24.95000 416.521
24.96000 415.140
24.97000 414.217
24.98000 414.590
24.99000 415.041
25.00000 415.341
25.01000 420.683
25.02000 424.727
25.03000 423.517
25.04000 415.463
25.05000 407.393
25.06000 406.598
25.07000 411.971
25.08000 417.281
25.09000 413.726
25.10000 405.353
25.11000 397.398
25.12000 397.681
25.13000 401.157
25.14000 404.383
25.15000 405.033
25.16000 405.003
25.17000 404.977
25.18000 407.427
25.19000 409.908
25.20000 412.698
25.21000 416.752
25.22000 420.942
25.23000 421.603
25.24000 412.464
25.25000 402.750
25.26000 396.335
25.27000 403.775
25.28000 409.506
25.29000 411.744
25.30000 409.515
25.31000 407.263
25.32000 402.154
25.33000 394.669
25.34000 387.278
25.35000 392.910
25.36000 405.469
25.37000 417.389
25.38000 417.172
25.39000 412.329
25.40000 408.083
25.41000 409.842
25.42000 413.154
25.43000 416.062
25.44000 406.605
25.45000 396.667
25.46000 390.165
25.47000 397.490
25.48000 406.268
25.49000 412.252
25.50000 410.609
25.51000 408.532
25.52000 407.170
25.53000 410.223
25.54000 412.543
25.55000 411.423
25.56000 405.986
25.57000 400.545
25.58000 399.194
25.59000 401.182
25.60000 403.143
25.61000 400.660
25.62000 395.875
25.63000 391.293
25.64000 390.430
25.65000 390.961
25.66000 391.478
25.67000 391.862
25.68000 392.212
25.69000 392.518
25.70000 397.933
25.71000 403.308
25.72000 406.029
25.73000 398.261
25.74000 389.417
25.75000 384.470
25.76000 389.982
25.77000 396.068
25.78000 400.036
25.79000 397.079
25.80000 394.801
25.81000 392.435
25.82000 389.964
25.83000 387.509
25.84000 390.800
25.85000 398.694
25.86000 406.475
25.87000 409.116
25.88000 408.991
25.89000 408.524
25.90000 401.957
25.91000 393.146
25.92000 385.675
25.93000 391.060
25.94000 399.656
25.95000 407.158
25.96000 409.218
25.97000 410.217
25.98000 409.308
25.99000 400.992
26.00000 391.934
26.01000 388.813
26.02000 401.349
26.03000 414.717
26.04000 423.377
26.05000 406.679
26.06000 394.082
26.07000 389.120
26.08000 393.387
26.09000 397.661
26.10000 398.363
26.11000 396.257
26.12000 394.182
26.13000 389.478
26.14000 383.568
26.15000 377.962
26.16000 377.586
26.17000 379.103
26.18000 381.038
26.19000 386.877
26.20000 393.673
26.21000 399.588
26.22000 390.692
26.23000 381.067
26.24000 374.908
26.25000 381.963
26.26000 390.309
26.27000 396.591
26.28000 397.523
26.29000 398.180
26.30000 398.603
26.31000 394.125
26.32000 390.788
26.33000 386.103
26.34000 379.817
26.35000 373.552
26.36000 372.868
26.37000 376.491
26.38000 380.056
26.39000 382.399
26.40000 384.052
26.41000 385.868
26.42000 390.408
26.43000 395.916
26.44000 400.288
26.45000 394.289
26.46000 385.793
26.47000 378.420
26.48000 385.340
26.49000 393.149
26.50000 398.817
26.51000 396.463
26.52000 393.345
26.53000 391.462
26.54000 392.728
26.55000 394.150
26.56000 395.059
26.57000 379.364
26.58000 367.721
26.59000 366.809
26.60000 378.385
26.61000 389.920
26.62000 388.907
26.63000 378.387
26.64000 368.045
26.65000 366.752
26.66000 369.974
26.67000 373.144
26.68000 375.468
26.69000 377.497
26.70000 378.929
26.71000 375.035
26.72000 369.881
26.73000 365.422
26.74000 368.791
26.75000 372.679
26.76000 376.324
26.77000 379.076
26.78000 381.746
26.79000 385.028
26.80000 389.843
26.81000 394.732
26.82000 397.837
26.83000 394.961
26.84000 392.800
26.85000 387.903
26.86000 379.882
26.87000 371.921
26.88000 375.916
26.89000 388.803
26.90000 401.459
26.91000 404.466
26.92000 402.687
26.93000 400.629
26.94000 394.180
26.95000 386.222
26.96000 379.813
26.97000 386.897
26.98000 397.114
26.99000 405.926
27.00000 396.562
27.01000 386.294
27.02000 378.534
27.03000 379.843
27.04000 381.972
27.05000 383.312
27.06000 382.711
27.07000 382.020
27.08000 381.584
27.09000 389.341
27.10000 395.051
27.11000 395.282
27.12000 389.377
27.13000 383.481
27.14000 379.880
27.15000 377.953
27.16000 376.063
27.17000 377.813
27.18000 381.231
27.19000 384.473
27.20000 385.024
27.21000 384.666
27.22000 384.153
27.23000 382.320
27.24000 380.187
27.25000 378.353
27.26000 382.211
27.27000 386.189
27.28000 389.733
27.29000 391.740
27.30000 393.612
27.31000 393.201
27.32000 387.267
27.33000 381.086
27.34000 377.215
27.35000 371.047
27.36000 366.569
27.37000 366.596
27.38000 371.570
27.39000 376.499
27.40000 374.302
27.41000 366.993
27.42000 359.831
27.43000 366.175
27.44000 378.592
27.45000 389.990
27.46000 386.367
27.47000 377.755
27.48000 369.928
27.49000 368.629
27.50000 368.793
27.51000 368.932
27.52000 373.963
27.53000 378.809
27.54000 381.586
27.55000 377.141
27.56000 372.075
27.57000 369.103
27.58000 371.109
27.59000 373.328
27.60000 374.709
27.61000 362.483
27.62000 353.542
27.63000 353.209
27.64000 362.143
27.65000 371.022
27.66000 371.802
27.67000 366.881
27.68000 362.063
27.69000 362.001
27.70000 364.123
27.71000 366.318
27.72000 369.541
27.73000 373.101
27.74000 376.258
27.75000 376.132
27.76000 375.286
27.77000 374.562
27.78000 376.326
27.79000 378.109
27.80000 378.012
27.81000 371.474
27.82000 364.397
27.83000 359.183
27.84000 358.327
27.85000 357.650
27.86000 357.232
27.87000 366.748
27.88000 373.675
27.89000 374.493
27.90000 368.863
27.91000 363.240
27.92000 358.719
27.93000 354.958
27.94000 351.279
27.95000 354.034
27.96000 359.572
27.97000 364.729
27.98000 364.604
27.99000 362.784
28.00000 361.131
28.01000 360.800
28.02000 360.755
28.03000 360.716
28.04000 358.118
28.05000 355.635
28.06000 354.061
28.07000 355.547
28.08000 357.283
28.09000 359.009
28.10000 360.715
28.11000 362.419
28.12000 363.465
28.13000 366.795
28.14000 369.199
28.15000 370.825
28.16000 371.643
28.17000 372.439
28.18000 370.847
28.19000 367.632
28.20000 364.490
28.21000 363.373
28.22000 363.197
28.23000 363.066
28.24000 363.541
28.25000 364.206
28.26000 365.065
28.27000 367.433
28.28000 370.120
28.29000 372.401
28.30000 367.875
28.31000 363.304
28.32000 359.910
28.33000 360.416
28.34000 361.231
28.35000 360.516
28.36000 356.340
28.37000 352.032
28.38000 349.410
28.39000 349.144
28.40000 348.972
28.41000 352.203
28.42000 358.888
28.43000 365.493
28.44000 363.989
28.45000 357.078
28.46000 350.333
28.47000 352.358
28.48000 358.096
28.49000 363.669
28.50000 367.084
28.51000 369.830
28.52000 371.915
28.53000 368.970
28.54000 364.980
28.55000 361.604
28.56000 367.541
28.57000 373.544
28.58000 378.329
28.59000 379.148
28.60000 379.662
28.61000 378.734
28.62000 374.601
28.63000 370.350
28.64000 367.782
28.65000 361.583
28.66000 357.142
28.67000 359.394
28.68000 368.303
28.69000 377.093
28.70000 374.787
28.71000 365.212
28.72000 355.878
28.73000 352.525
28.74000 351.870
28.75000 351.402
28.76000 353.334
28.77000 355.996
28.78000 358.493
28.79000 359.749
28.80000 360.752
28.81000 361.599
28.82000 362.230
28.83000 362.733
28.84000 364.001
28.85000 367.712
28.86000 371.606
28.87000 375.095
28.88000 377.698
28.89000 380.270
28.90000 381.813
28.91000 375.031
28.92000 370.158
28.93000 366.038
28.94000 362.650
28.95000 359.242
28.96000 354.002
28.97000 347.583
28.98000 341.334
28.99000 342.222
29.00000 346.047
29.01000 349.936
29.02000 354.615
29.03000 359.530
29.04000 363.670
29.05000 362.163
29.06000 359.527
29.07000 357.311
29.08000 362.312
29.09000 367.244
29.10000 370.174
29.11000 366.821
29.12000 363.011
29.13000 361.207
29.14000 363.712
29.15000 366.362
29.16000 367.939
29.17000 368.200
29.18000 368.378
29.19000 367.688
29.20000 366.169
29.21000 364.697
29.22000 366.890
29.23000 371.401
29.24000 375.788
29.25000 373.942
29.26000 369.633
29.27000 365.613
29.28000 365.085
29.29000 365.585
29.30000 366.439
29.31000 369.829
29.32000 373.717
29.33000 376.973
29.34000 372.307
29.35000 367.610
29.36000 364.402
29.37000 365.791
29.38000 367.506
29.39000 368.346
29.40000 367.342
29.41000 366.278
29.42000 365.650
29.43000 367.965
29.44000 369.614
29.45000 366.395
29.46000 358.615
29.47000 350.930
29.48000 350.356
29.49000 354.199
29.50000 357.931
29.51000 357.338
29.52000 355.036
29.53000 353.045
29.54000 354.704
29.55000 357.417
29.56000 360.446
29.57000 365.678
29.58000 371.333
29.59000 376.054
29.60000 368.129
29.61000 360.280
29.62000 355.023
29.63000 357.627
29.64000 360.771
29.65000 364.944
29.66000 371.255
29.67000 377.632
29.68000 381.368
29.69000 375.429
29.70000 371.200
29.71000 372.535
29.72000 378.982
29.73000 385.356
29.74000 386.743
29.75000 385.087
29.76000 383.481
29.77000 379.221
29.78000 374.136
29.79000 369.744
29.80000 373.295
29.81000 379.099
29.82000 383.861
29.83000 381.499
29.84000 377.792
29.85000 374.709
29.86000 375.492
29.87000 376.520
29.88000 376.638
29.89000 374.040
29.90000 371.261
29.91000 370.025
29.92000 371.938
29.93000 373.943
29.94000 375.109
29.95000 378.752
29.96000 381.321
29.97000 381.806
29.98000 380.414
29.99000 379.135
30.00000 385.188
30.01000 395.639
30.02000 405.762
30.03000 399.882
30.04000 388.122
30.05000 377.326
30.06000 377.298
30.07000 380.272
30.08000 382.854
30.09000 382.812
30.10000 382.284
30.11000 381.847
30.12000 383.685
30.13000 385.420
30.14000 386.118
30.15000 383.775
30.16000 381.234
30.17000 378.139
30.18000 373.932
30.19000 369.694
30.20000 367.250
30.21000 381.539
30.22000 391.603
30.23000 392.096
30.24000 384.134
30.25000 376.306
30.26000 376.529
30.27000 381.496
30.28000 386.301
30.29000 385.315
30.30000 382.184
30.31000 379.476
30.32000 381.388
30.33000 384.563
30.34000 387.026
30.35000 384.812
30.36000 381.750
30.37000 379.221
30.38000 375.074
30.39000 371.506
30.40000 367.938
30.41000 364.369
30.42000 360.800
30.43000 361.345
30.44000 369.996
30.45000 378.864
30.46000 383.938
30.47000 375.621
30.48000 369.776
30.49000 370.303
30.50000 376.354
30.51000 382.320
30.52000 383.416
30.53000 381.693
30.54000 380.029
30.55000 380.074
30.56000 380.755
30.57000 381.188
30.58000 378.998
30.59000 376.102
30.60000 374.004
30.61000 377.025
30.62000 380.958
30.63000 384.195
30.64000 383.854
30.65000 383.248
30.66000 383.818
30.67000 387.716
30.68000 391.817
30.69000 394.291
30.70000 393.615
30.71000 392.859
30.72000 392.430
30.73000 389.141
30.74000 386.845
30.75000 385.725
30.76000 385.606
30.77000 385.426
30.78000 381.965
30.79000 376.638
30.80000 371.498
30.81000 372.302
30.82000 375.233
30.83000 378.627
30.84000 386.806
30.85000 396.251
30.86000 405.081
30.87000 410.056
30.88000 414.357
30.89000 417.884
30.90000 424.820
30.91000 430.812
30.92000 434.520
30.93000 431.872
30.94000 428.850
30.95000 429.290
30.96000 436.324
30.97000 443.516
30.98000 447.564
30.99000 464.223
31.00000 475.814
31.01000 484.063
31.02000 489.524
31.03000 494.936
31.04000 497.844
31.05000 499.351
31.06000 500.804
31.07000 505.799
31.08000 511.765
31.09000 518.412
31.10000 531.943
31.11000 547.261
31.12000 564.271
31.13000 591.701
31.14000 620.913
31.15000 644.776
31.16000 663.606
31.17000 678.583
31.18000 697.767
31.19000 728.459
31.20000 759.808
31.21000 790.425
31.22000 819.673
31.23000 848.890
31.24000 865.194
31.25000 888.534
31.26000 904.712
31.27000 924.091
31.28000 946.089
31.29000 968.042
31.30000 987.859
31.31000 1006.503
31.32000 1024.441
31.33000 1041.336
31.34000 1056.812
31.35000 1071.470
31.36000 1078.068
31.37000 1082.611
31.38000 1085.839
31.39000 1081.126
31.40000 1075.082
31.41000 1070.163
31.42000 1076.177
31.43000 1082.007
31.44000 1079.910
31.45000 1056.496
31.46000 1031.905
31.47000 1009.827
31.48000 992.370
31.49000 975.013
31.50000 965.410
31.51000 933.943
31.52000 912.176
31.53000 886.613
31.54000 857.999
31.55000 829.510
31.56000 806.625
31.57000 786.767
31.58000 767.688
31.59000 740.177
31.60000 711.509
31.61000 683.456
31.62000 661.304
31.63000 640.629
31.64000 619.880
31.65000 598.686
31.66000 577.420
31.67000 560.179
31.68000 544.372
31.69000 531.610
31.70000 519.314
31.71000 508.250
31.72000 497.252
31.73000 484.531
31.74000 468.697
31.75000 452.799
31.76000 444.079
31.77000 438.162
31.78000 434.112
31.79000 434.860
31.80000 439.391
31.81000 443.634
31.82000 435.590
31.83000 421.026
31.84000 407.054
31.85000 405.765
31.86000 408.861
31.87000 411.136
31.88000 405.703
31.89000 398.375
31.90000 391.711
31.91000 388.899
31.92000 386.707
31.93000 384.937
31.94000 383.347
31.95000 382.069
31.96000 381.453
31.97000 382.560
31.98000 383.755
31.99000 383.226
32.00000 379.634
32.01000 375.984
32.02000 373.999
32.03000 382.134
32.04000 387.693
32.05000 384.822
32.06000 375.427
32.07000 366.082
32.08000 358.789
32.09000 352.568
32.10000 346.608
32.11000 347.291
32.12000 350.138
32.13000 352.514
32.14000 350.578
32.15000 347.601
32.16000 346.311
32.17000 354.610
32.18000 364.422
32.19000 372.315
32.20000 360.418
32.21000 349.234
32.22000 340.489
32.23000 337.975
32.24000 335.771
32.25000 337.802
32.26000 347.223
32.27000 356.778
32.28000 361.927
32.29000 359.200
32.30000 357.338
32.31000 357.662
32.32000 359.646
32.33000 361.457
32.34000 356.622
32.35000 348.379
32.36000 340.496
32.37000 337.803
32.38000 336.991
32.39000 336.261
32.40000 336.264
32.41000 336.440
32.42000 337.276
32.43000 341.785
32.44000 346.862
32.45000 350.930
32.46000 342.724
32.47000 335.158
32.48000 330.976
32.49000 335.291
32.50000 340.016
32.51000 339.608
32.52000 330.399
32.53000 321.039
32.54000 316.041
32.55000 319.717
32.56000 322.243
32.57000 327.350
32.58000 334.384
32.59000 341.129
32.60000 337.340
32.61000 328.241
32.62000 319.554
32.63000 323.886
32.64000 332.080
32.65000 339.010
32.66000 334.899
32.67000 328.217
32.68000 322.249
32.69000 320.189
32.70000 318.721
32.71000 317.549
32.72000 319.503
32.73000 321.310
32.74000 321.211
32.75000 316.407
32.76000 311.384
32.77000 310.781
32.78000 317.626
32.79000 324.590
32.80000 328.275
32.81000 329.149
32.82000 329.716
32.83000 325.868
32.84000 318.787
32.85000 311.875
32.86000 310.892
32.87000 312.844
32.88000 314.705
32.89000 317.385
32.90000 320.128
32.91000 322.556
32.92000 322.298
32.93000 321.427
32.94000 320.441
32.95000 318.846
32.96000 317.162
32.97000 315.822
32.98000 316.859
32.99000 317.863
33.00000 319.116
33.01000 320.970
33.02000 322.851
33.03000 322.089
33.04000 316.953
33.05000 311.751
33.06000 309.024
33.07000 311.797
33.08000 313.636
33.09000 309.150
33.10000 300.115
33.11000 291.322
33.12000 290.604
33.13000 293.817
33.14000 296.876
33.15000 293.378
33.16000 288.120
33.17000 283.497
33.18000 284.176
33.19000 286.046
33.20000 288.826
33.21000 296.391
33.22000 304.650
33.23000 311.188
33.24000 309.543
33.25000 307.653
33.26000 305.498
33.27000 302.711
33.28000 299.896
33.29000 299.741
33.30000 303.913
33.31000 308.146
33.32000 310.344
33.33000 308.561
33.34000 307.351
33.35000 305.452
33.36000 303.066
33.37000 300.659
33.38000 297.550
33.39000 294.104
33.40000 290.831
33.41000 292.977
33.42000 296.598
33.43000 299.556
33.44000 297.100
33.45000 293.452
33.46000 290.439
33.47000 290.705
33.48000 291.437
33.49000 292.013
33.50000 293.411
33.51000 294.587
33.52000 295.681
33.53000 296.584
33.54000 297.479
33.55000 297.876
33.56000 297.477
33.57000 297.068
33.58000 296.857
33.59000 299.426
33.60000 301.145
33.61000 301.482
33.62000 300.862
33.63000 300.302
33.64000 301.609
33.65000 303.795
33.66000 305.868
33.67000 303.816
33.68000 300.700
33.69000 298.103
33.70000 299.645
33.71000 302.082
33.72000 303.785
33.73000 301.779
33.74000 299.257
33.75000 297.278
33.76000 296.696
33.77000 296.322
33.78000 295.701
33.79000 294.512
33.80000 293.299
33.81000 296.894
33.82000 308.034
33.83000 319.266
33.84000 324.987
33.85000 316.900
33.86000 311.517
33.87000 310.992
33.88000 313.774
33.89000 316.413
33.90000 314.846
33.91000 311.333
33.92000 308.008
33.93000 307.765
33.94000 308.439
33.95000 308.750
33.96000 306.228
33.97000 303.105
33.98000 300.312
33.99000 299.155
34.00000 298.221
34.01000 297.491
34.02000 299.322
34.03000 300.947
34.04000 302.351
34.05000 303.257
34.06000 304.144
34.07000 306.715
34.08000 311.881
34.09000 317.077
34.10000 319.698
34.11000 319.517
34.12000 319.407
34.13000 320.416
34.14000 322.174
34.15000 323.854
34.16000 323.342
34.17000 321.833
34.18000 320.407
34.19000 324.736
34.20000 330.354
34.21000 335.203
34.22000 334.177
34.23000 331.928
34.24000 329.939
34.25000 329.221
34.26000 328.673
34.27000 328.246
34.28000 326.329
34.29000 324.712
34.30000 325.914
34.31000 333.398
34.32000 341.113
34.33000 343.849
34.34000 339.042
34.35000 334.158
34.36000 330.200
34.37000 327.166
34.38000 324.197
34.39000 327.354
34.40000 334.536
34.41000 341.316
34.42000 337.308
34.43000 328.479
34.44000 320.148
34.45000 320.155
34.46000 322.493
34.47000 324.790
34.48000 326.773
34.49000 328.691
34.50000 330.361
34.51000 330.842
34.52000 331.167
34.53000 331.419
34.54000 324.834
34.55000 319.194
34.56000 314.501
34.57000 311.880
34.58000 309.332
34.59000 306.351
34.60000 302.727
34.61000 299.097
34.62000 298.690
34.63000 301.433
34.64000 304.148
34.65000 304.379
34.66000 303.006
34.67000 301.757
34.68000 303.676
34.69000 306.986
34.70000 310.104
34.71000 308.281
34.72000 305.256
34.73000 301.647
34.74000 293.769
34.75000 285.034
34.76000 278.587
34.77000 282.871
34.78000 288.521
34.79000 292.882
34.80000 289.453
34.81000 286.284
34.82000 283.259
34.83000 280.544
34.84000 277.839
34.85000 276.496
34.86000 277.146
34.87000 277.812
34.88000 277.193
34.89000 275.342
34.90000 273.497
34.91000 272.056
34.92000 270.871
34.93000 269.742
34.94000 269.971
34.95000 270.787
34.96000 271.555
34.97000 270.846
34.98000 269.800
34.99000 270.069
35.00000 279.734
35.01000 291.247
35.02000 299.270
35.03000 291.234
35.04000 281.197
35.05000 273.487
35.06000 270.163
35.07000 267.781
35.08000 266.683
35.09000 268.298
35.10000 270.002
35.11000 271.799
35.12000 273.729
35.13000 275.661
35.14000 273.740
35.15000 268.203
35.16000 262.754
35.17000 264.003
35.18000 269.423
35.19000 274.625
35.20000 274.649
35.21000 272.474
35.22000 270.432
35.23000 269.607
35.24000 269.174
35.25000 268.535
35.26000 266.443
35.27000 264.070
35.28000 261.886
35.29000 260.550
35.30000 259.318
35.31000 258.375
35.32000 262.524
35.33000 266.074
35.34000 267.378
35.35000 264.009
35.36000 260.495
35.37000 259.527
35.38000 262.146
35.39000 264.790
35.40000 266.319
35.41000 266.821
35.42000 267.273
35.43000 264.257
35.44000 259.118
35.45000 254.056
35.46000 250.753
35.47000 248.184
35.48000 245.777
35.49000 257.626
35.50000 272.093
35.51000 283.981
35.52000 278.198
35.53000 269.071
35.54000 262.676
35.55000 268.394
35.56000 275.554
35.57000 281.005
35.58000 276.336
35.59000 272.129
35.60000 268.212
35.61000 264.892
35.62000 261.590
35.63000 263.357
35.64000 272.140
35.65000 280.965
35.66000 279.632
35.67000 269.134
35.68000 258.806
35.69000 259.578
35.70000 267.024
35.71000 274.095
35.72000 272.872
35.73000 268.248
35.74000 263.926
35.75000 265.113
35.76000 267.589
35.77000 269.758
35.78000 269.873
35.79000 269.607
35.80000 269.878
35.81000 272.489
35.82000 275.372
35.83000 277.557
35.84000 273.386
35.85000 269.787
35.86000 267.521
35.87000 267.934
35.88000 268.423
35.89000 266.416
35.90000 261.018
35.91000 255.603
35.92000 255.399
35.93000 259.808
35.94000 264.098
35.95000 261.098
35.96000 253.794
35.97000 247.047
35.98000 252.201
35.99000 262.153
36.00000 271.439
36.01000 267.549
36.02000 260.746
36.03000 255.024
36.04000 256.403
36.05000 259.074
36.06000 260.624
36.07000 257.380
36.08000 253.592
36.09000 250.735
36.10000 246.739
36.11000 243.554
36.12000 242.425
36.13000 245.360
36.14000 248.404
36.15000 249.698
36.16000 248.658
36.17000 247.608
36.18000 247.045
36.19000 246.906
36.20000 246.885
36.21000 253.598
36.22000 264.221
36.23000 274.141
36.24000 269.610
36.25000 259.350
36.26000 249.797
36.27000 252.904
36.28000 258.801
36.29000 263.758
36.30000 262.658
36.31000 260.478
36.32000 259.284
36.33000 262.229
36.34000 265.633
36.35000 268.189
36.36000 263.430
36.37000 259.362
36.38000 257.787
36.39000 261.053
36.40000 264.443
36.41000 263.968
36.42000 258.431
36.43000 252.876
36.44000 253.186
36.45000 258.483
36.46000 263.756
36.47000 267.736
36.48000 270.978
36.49000 273.853
36.50000 269.421
36.51000 262.141
36.52000 255.377
36.53000 256.095
36.54000 258.533
36.55000 260.557
36.56000 259.973
36.57000 258.934
36.58000 257.635
36.59000 255.267
36.60000 252.782
36.61000 250.926
36.62000 252.825
36.63000 254.478
36.64000 254.821
36.65000 252.663
36.66000 250.444
36.67000 251.161
36.68000 255.651
36.69000 260.151
36.70000 259.746
36.71000 255.251
36.72000 250.837
36.73000 250.571
36.74000 252.631
36.75000 254.627
36.76000 255.394
36.77000 255.690
36.78000 255.964
36.79000 255.038
36.80000 253.922
36.81000 253.239
36.82000 255.235
36.83000 257.691
36.84000 260.057
36.85000 262.065
36.86000 264.034
36.87000 265.499
36.88000 266.003
36.89000 266.352
36.90000 267.692
36.91000 270.892
36.92000 274.134
36.93000 276.471
36.94000 277.667
36.95000 278.857
36.96000 279.506
36.97000 279.710
36.98000 279.829
36.99000 275.856
37.00000 269.629
37.01000 263.723
37.02000 263.773
37.03000 266.065
37.04000 268.186
37.05000 268.637
37.06000 268.658
37.07000 267.839
37.08000 261.932
37.09000 255.169
37.10000 251.088
37.11000 257.664
37.12000 265.341
37.13000 271.022
37.14000 258.597
37.15000 248.177
37.16000 243.557
37.17000 249.629
37.18000 255.935
37.19000 262.318
37.20000 268.798
37.21000 275.267
37.22000 275.540
37.23000 270.841
37.24000 266.148
37.25000 261.765
37.26000 257.548
37.27000 253.615
37.28000 254.792
37.29000 257.860
37.30000 260.693
37.31000 258.461
37.32000 255.319
37.33000 252.633
37.34000 252.651
37.35000 253.115
37.36000 253.391
37.37000 252.930
37.38000 252.394
37.39000 252.000
37.40000 248.293
37.41000 245.285
37.42000 245.428
37.43000 251.278
37.44000 257.245
37.45000 261.423
37.46000 263.426
37.47000 265.421
37.48000 264.290
37.49000 260.705
37.50000 257.159
37.51000 255.259
37.52000 254.234
37.53000 253.318
37.54000 254.298
37.55000 255.968
37.56000 257.507
37.57000 256.243
37.58000 254.492
37.59000 252.012
37.60000 245.291
37.61000 237.886
37.62000 232.697
37.63000 236.009
37.64000 240.158
37.65000 243.197
37.66000 246.338
37.67000 248.767
37.68000 249.640
37.69000 247.741
37.70000 245.788
37.71000 244.640
37.72000 244.453
37.73000 244.268
37.74000 244.724
37.75000 245.672
37.76000 246.656
37.77000 249.071
37.78000 252.236
37.79000 255.214
37.80000 255.054
37.81000 253.771
37.82000 252.592
37.83000 246.777
37.84000 240.579
37.85000 237.091
37.86000 249.054
37.87000 263.461
37.88000 273.222
37.89000 265.489
37.90000 256.078
37.91000 249.217
37.92000 253.542
37.93000 257.305
37.94000 257.954
37.95000 253.156
37.96000 248.258
37.97000 248.600
37.98000 255.075
37.99000 261.543
38.00000 263.342
38.01000 261.596
38.02000 259.853
38.03000 258.191
38.04000 256.571
38.05000 255.279
38.06000 259.330
38.07000 265.259
38.08000 270.698
38.09000 274.443
38.10000 277.422
38.11000 278.703
38.12000 270.502
38.13000 260.830
38.14000 254.465
38.15000 260.330
38.16000 267.339
38.17000 272.422
38.18000 271.250
38.19000 270.117
38.20000 269.344
38.21000 269.190
38.22000 269.047
38.23000 270.422
38.24000 273.540
38.25000 276.650
38.26000 276.559
38.27000 274.092
38.28000 271.604
38.29000 268.326
38.30000 264.650
38.31000 261.483
38.32000 266.379
38.33000 274.060
38.34000 281.091
38.35000 289.740
38.36000 297.772
38.37000 305.524
38.38000 311.749
38.39000 317.742
38.40000 323.598
38.41000 328.958
38.42000 334.272
38.43000 338.107
38.44000 352.845
38.45000 364.533
38.46000 373.690
38.47000 378.572
38.48000 383.385
38.49000 393.920
38.50000 410.897
38.51000 427.824
38.52000 438.912
38.53000 445.660
38.54000 452.797
38.55000 473.665
38.56000 501.351
38.57000 527.926
38.58000 537.455
38.59000 541.196
38.60000 544.613
38.61000 562.860
38.62000 582.077
38.63000 599.584
38.64000 607.897
38.65000 614.844
38.66000 623.418
38.67000 637.797
38.68000 652.693
38.69000 663.384
38.70000 676.473
38.71000 686.565
38.72000 688.955
38.73000 678.562
38.74000 667.974
38.75000 658.839
38.76000 651.308
38.77000 643.806
38.78000 641.393
38.79000 642.637
38.80000 643.370
38.81000 626.910
38.82000 602.059
38.83000 577.504
38.84000 557.344
38.85000 538.651
38.86000 521.618
38.87000 507.337
38.88000 495.232
38.89000 481.542
38.90000 459.489
38.91000 436.220
38.92000 415.014
38.93000 401.047
38.94000 387.706
38.95000 378.182
38.96000 355.408
38.97000 337.597
38.98000 325.743
38.99000 323.604
39.00000 321.601
39.01000 318.812
39.02000 315.171
39.03000 311.544
39.04000 304.779
39.05000 295.882
39.06000 287.146
39.07000 283.569
39.08000 282.466
39.09000 281.261
39.10000 278.575
39.11000 275.403
39.12000 272.520
39.13000 267.211
39.14000 262.045
39.15000 256.722
39.16000 250.594
39.17000 244.352
39.18000 239.686
39.19000 240.450
39.20000 241.673
39.21000 242.540
39.22000 244.389
39.23000 245.828
39.24000 246.697
39.25000 246.656
39.26000 246.603
39.27000 246.841
39.28000 247.389
39.29000 247.934
39.30000 246.533
39.31000 243.808
39.32000 241.115
39.33000 239.401
39.34000 238.147
39.35000 236.597
39.36000 230.878
39.37000 223.816
39.38000 217.410
39.39000 222.042
39.40000 228.238
39.41000 233.623
39.42000 234.887
39.43000 235.576
39.44000 236.276
39.45000 237.013
39.46000 237.752
39.47000 238.274
39.48000 235.831
39.49000 233.886
39.50000 233.367
39.51000 235.092
39.52000 236.844
39.53000 238.645
39.54000 240.497
39.55000 242.339
39.56000 239.776
39.57000 234.272
39.58000 228.948
39.59000 228.884
39.60000 231.258
39.61000 233.714
39.62000 237.272
39.63000 241.179
39.64000 244.714
39.65000 244.215
39.66000 243.018
39.67000 241.667
39.68000 239.543
39.69000 237.313
39.70000 235.794
39.71000 236.641
39.72000 237.677
39.73000 238.405
39.74000 236.834
39.75000 235.577
39.76000 234.924
39.77000 235.203
39.78000 235.493
39.79000 233.839
39.80000 230.201
39.81000 226.585
39.82000 226.628
39.83000 229.092
39.84000 231.511
39.85000 232.641
39.86000 233.184
39.87000 233.342
39.88000 228.405
39.89000 221.881
39.90000 215.993
39.91000 220.598
39.92000 226.569
39.93000 231.306
39.94000 230.016
39.95000 227.921
39.96000 227.426
39.97000 232.163
39.98000 237.306
39.99000 240.898
40.00000 230.756
40.01000 222.711
40.02000 220.132
40.03000 225.854
40.04000 231.663
40.05000 231.408
40.06000 225.087
40.07000 218.806
40.08000 219.727
40.09000 225.310
40.10000 230.651
40.11000 229.427
40.12000 225.263
40.13000 221.781
40.14000 227.095
40.15000 235.100
40.16000 242.307
40.17000 235.227
40.18000 226.454
40.19000 219.271
40.20000 219.707
40.21000 221.138
40.22000 222.986
40.23000 226.170
40.24000 229.455
40.25000 231.736
40.26000 232.791
40.27000 233.554
40.28000 232.695
40.29000 229.419
40.30000 226.120
40.31000 224.915
40.32000 225.763
40.33000 226.605
40.34000 227.214
40.35000 227.665
40.36000 227.954
40.37000 224.031
40.38000 218.254
40.39000 213.235
40.40000 217.720
40.41000 225.061
40.42000 231.654
40.43000 226.541
40.44000 220.009
40.45000 214.996
40.46000 217.128
40.47000 220.172
40.48000 223.105
40.49000 225.688
40.50000 228.245
40.51000 230.011
40.52000 226.595
40.53000 223.894
40.54000 222.662
40.55000 223.580
40.56000 224.518
40.57000 225.138
40.58000 225.453
40.59000 225.767
40.60000 223.547
40.61000 219.782
40.62000 216.105
40.63000 214.626
40.64000 214.099
40.65000 213.527
40.66000 212.411
40.67000 211.134
40.68000 209.991
40.69000 215.924
40.70000 222.322
40.71000 227.716
40.72000 228.477
40.73000 228.658
40.74000 227.879
40.75000 224.118
40.76000 220.145
40.77000 217.416
40.78000 222.484
40.79000 226.473
40.80000 227.492
40.81000 224.234
40.82000 220.942
40.83000 218.865
40.84000 217.934
40.85000 217.009
40.86000 213.866
40.87000 209.417
40.88000 205.262
40.89000 208.156
40.90000 214.050
40.91000 220.085
40.92000 227.795
40.93000 235.992
40.94000 243.314
40.95000 238.815
40.96000 232.902
40.97000 227.414
40.98000 223.852
40.99000 220.525
41.00000 218.183
41.01000 218.845
41.02000 219.716
41.03000 220.310
41.04000 214.914
41.05000 210.740
41.06000 210.062
41.07000 214.326
41.08000 218.625
41.09000 222.824
41.10000 226.931
41.11000 231.003
41.12000 228.870
41.13000 223.044
41.14000 217.511
41.15000 218.755
41.16000 222.834
41.17000 226.320
41.18000 222.939
41.19000 217.600
41.20000 212.842
41.21000 213.800
41.22000 215.575
41.23000 216.456
41.24000 213.359
41.25000 209.788
41.26000 207.722
41.27000 210.171
41.28000 212.923
41.29000 214.790
41.30000 215.623
41.31000 216.222
41.32000 214.392
41.33000 209.191
41.34000 203.970
41.35000 202.038
41.36000 203.085
41.37000 204.123
41.38000 205.092
41.39000 206.001
41.40000 206.989
41.41000 209.714
41.42000 213.154
41.43000 216.194
41.44000 214.741
41.45000 212.028
41.46000 209.617
41.47000 206.772
41.48000 204.234
41.49000 202.718
41.50000 205.660
41.51000 209.123
41.52000 212.586
41.53000 216.052
41.54000 219.518
41.55000 221.856
41.56000 218.171
41.57000 215.302
41.58000 214.865
41.59000 217.745
41.60000 220.641
41.61000 221.738
41.62000 221.236
41.63000 220.739
41.64000 219.082
41.65000 216.788
41.66000 214.601
41.67000 214.709
41.68000 215.745
41.69000 216.580
41.70000 215.205
41.71000 213.221
41.72000 211.464
41.73000 208.904
41.74000 206.561
41.75000 205.780
41.76000 211.693
41.77000 218.369
41.78000 222.999
41.79000 221.703
41.80000 220.033
41.81000 218.913
41.82000 216.468
41.83000 214.626
41.84000 213.626
41.85000 213.752
41.86000 213.888
41.87000 217.620
41.88000 224.487
41.89000 231.279
41.90000 230.566
41.91000 225.601
41.92000 220.769
41.93000 218.681
41.94000 217.684
41.95000 216.574
41.96000 214.246
41.97000 211.589
41.98000 209.240
41.99000 214.911
42.00000 221.050
42.01000 224.985
42.02000 219.649
42.03000 213.280
42.04000 209.884
42.05000 214.950
42.06000 220.536
42.07000 224.258
42.08000 225.803
42.09000 226.905
42.10000 227.988
42.11000 229.048
42.12000 230.104
42.13000 229.336
42.14000 227.008
42.15000 224.707
42.16000 224.339
42.17000 225.058
42.18000 225.834
42.19000 227.741
42.20000 230.091
42.21000 232.530
42.22000 235.889
42.23000 239.493
42.24000 242.670
42.25000 236.443
42.26000 229.654
42.27000 223.554
42.28000 220.308
42.29000 217.372
42.30000 215.101
42.31000 214.693
42.32000 214.395
42.33000 214.198
42.34000 218.837
42.35000 222.350
42.36000 224.756
42.37000 225.734
42.38000 226.699
42.39000 223.254
42.40000 216.109
42.41000 209.052
42.42000 206.729
42.43000 207.058
42.44000 207.505
42.45000 210.241
42.46000 213.857
42.47000 216.984
42.48000 215.149
42.49000 212.019
42.50000 209.268
42.51000 210.422
42.52000 211.992
42.53000 213.815
42.54000 216.666
42.55000 219.626
42.56000 221.196
42.57000 218.943
42.58000 216.470
42.59000 214.843
42.60000 214.242
42.61000 213.817
42.62000 214.177
42.63000 215.531
42.64000 216.882
42.65000 215.820
42.66000 212.771
42.67000 209.763
42.68000 207.151
42.69000 204.822
42.70000 202.607
42.71000 202.506
42.72000 203.204
42.73000 203.706
42.74000 202.261
42.75000 200.316
42.76000 198.612
42.77000 201.979
42.78000 205.603
42.79000 207.967
42.80000 205.314
42.81000 202.141
42.82000 200.280
42.83000 201.965
42.84000 203.849
42.85000 205.080
42.86000 206.781
42.87000 208.038
42.88000 211.227
42.89000 216.817
42.90000 222.391
42.91000 219.755
42.92000 210.487
42.93000 201.349
42.94000 204.149
42.95000 213.167
42.96000 221.408
42.97000 215.642
42.98000 204.678
42.99000 194.926
43.00000 196.899
43.01000 201.824
43.02000 206.129
43.03000 209.905
43.04000 213.065
43.05000 215.325
43.06000 214.065
43.07000 212.449
43.08000 210.074
43.09000 205.684
43.10000 201.185
43.11000 198.263
43.12000 202.463
43.13000 205.649
43.14000 206.965
43.15000 206.002
43.16000 205.035
43.17000 204.588
43.18000 204.553
43.19000 204.519
43.20000 204.405
43.21000 204.253
43.22000 204.040
43.23000 202.754
43.24000 201.076
43.25000 199.166
43.26000 195.055
43.27000 190.400
43.28000 186.344
43.29000 196.086
43.30000 206.320
43.31000 213.795
43.32000 210.664
43.33000 206.486
43.34000 202.543
43.35000 199.217
43.36000 195.923
43.37000 193.796
43.38000 193.602
43.39000 193.488
43.40000 194.433
43.41000 196.645
43.42000 198.851
43.43000 198.929
43.44000 197.350
43.45000 195.797
43.46000 191.871
43.47000 186.863
43.48000 182.133
43.49000 182.108
43.50000 183.770
43.51000 185.778
43.52000 190.989
43.53000 196.978
43.54000 202.181
43.55000 202.199
43.56000 201.513
43.57000 199.904
43.58000 194.811
43.59000 189.383
43.60000 185.596
43.61000 186.025
43.62000 186.666
43.63000 187.078
43.64000 189.680
43.65000 191.606
43.66000 193.806
43.67000 196.328
43.68000 198.846
43.69000 200.127
43.70000 200.464
43.71000 200.796
43.72000 198.771
43.73000 195.637
43.74000 192.654
43.75000 192.146
43.76000 192.510
43.77000 193.028
43.78000 194.929
43.79000 197.160
43.80000 199.093
43.81000 196.917
43.82000 194.522
43.83000 192.695
43.84000 192.969
43.85000 193.440
43.86000 194.221
43.87000 195.784
43.88000 197.384
43.89000 198.404
43.90000 199.940
43.91000 201.063
43.92000 198.896
43.93000 192.942
43.94000 187.022
43.95000 188.836
43.96000 196.449
43.97000 203.929
43.98000 200.717
43.99000 192.385
44.00000 184.519
44.01000 184.079
44.02000 186.210
44.03000 188.294
44.04000 189.967
44.05000 191.544
44.06000 192.906
44.07000 199.052
44.08000 204.888
44.09000 209.208
44.10000 208.002
44.11000 206.290
44.12000 204.159
44.13000 200.986
44.14000 197.765
44.15000 195.728
44.16000 194.623
44.17000 193.834
44.18000 192.467
44.19000 190.449
44.20000 188.424
44.21000 185.333
44.22000 181.457
44.23000 177.653
44.24000 179.641
44.25000 184.339
44.26000 188.887
44.27000 191.134
44.28000 192.598
44.29000 194.113
44.30000 196.064
44.31000 198.117
44.32000 199.884
44.33000 201.711
44.34000 203.267
44.35000 204.127
44.36000 202.495
44.37000 200.642
44.38000 200.599
44.39000 204.972
44.40000 209.545
44.41000 212.418
44.42000 211.074
44.43000 210.056
44.44000 208.530
44.45000 206.442
44.46000 204.363
44.47000 203.855
44.48000 204.482
44.49000 205.097
44.50000 205.297
44.51000 205.295
44.52000 205.633
44.53000 211.061
44.54000 218.192
44.55000 224.082
44.56000 219.550
44.57000 212.666
44.58000 206.758
44.59000 208.451
44.60000 210.820
44.61000 212.950
44.62000 214.234
44.63000 215.446
44.64000 217.272
44.65000 220.572
44.66000 223.936
44.67000 226.034
44.68000 223.694
44.69000 221.962
44.70000 220.046
44.71000 217.930
44.72000 215.781
44.73000 208.848
44.74000 198.520
44.75000 188.403
44.76000 192.968
44.77000 204.146
44.78000 214.865
44.79000 218.937
44.80000 220.823
44.81000 222.452
44.82000 221.972
44.83000 221.025
44.84000 220.215
44.85000 225.768
44.86000 231.219
44.87000 234.127
44.88000 228.247
44.89000 221.623
44.90000 217.009
44.91000 217.130
44.92000 217.451
44.93000 217.649
44.94000 229.315
44.95000 237.814
44.96000 239.806
44.97000 234.871
44.98000 229.980
44.99000 231.075
45.00000 236.342
45.01000 241.496
45.02000 239.563
45.03000 234.492
45.04000 229.677
45.05000 228.480
45.06000 228.452
45.07000 227.781
45.08000 221.944
45.09000 214.984
45.10000 209.048
45.11000 214.500
45.12000 220.429
45.13000 225.573
45.14000 228.050
45.15000 230.308
45.16000 230.996
45.17000 228.048
45.18000 224.953
45.19000 223.050
45.20000 217.587
45.21000 213.638
45.22000 209.605
45.23000 205.483
45.24000 201.419
45.25000 203.910
45.26000 210.890
45.27000 217.711
45.28000 218.320
45.29000 216.137
45.30000 214.439
45.31000 219.392
45.32000 226.456
45.33000 232.634
45.34000 231.844
45.35000 229.567
45.36000 227.632
45.37000 218.173
45.38000 209.366
45.39000 203.151
45.40000 205.583
45.41000 208.708
45.42000 209.817
45.43000 206.332
45.44000 202.670
45.45000 200.433
45.46000 201.820
45.47000 202.842
45.48000 202.504
45.49000 200.774
45.50000 199.069
45.51000 200.029
45.52000 202.779
45.53000 205.464
45.54000 202.916
45.55000 198.191
45.56000 193.850
45.57000 194.637
45.58000 197.024
45.59000 199.377
45.60000 201.459
45.61000 203.485
45.62000 205.201
45.63000 196.074
45.64000 187.209
45.65000 181.106
45.66000 184.057
45.67000 187.715
45.68000 190.405
45.69000 190.930
45.70000 191.374
45.71000 191.643
45.72000 184.118
45.73000 178.693
45.74000 178.703
45.75000 184.165
45.76000 189.583
45.77000 190.615
45.78000 188.752
45.79000 186.935
45.80000 185.243
45.81000 183.679
45.82000 182.192
45.83000 181.693
45.84000 181.497
45.85000 181.646
45.86000 184.395
45.87000 187.677
45.88000 190.449
45.89000 188.995
45.90000 187.317
45.91000 184.845
45.92000 179.816
45.93000 174.593
45.94000 170.665
45.95000 169.586
45.96000 168.608
45.97000 168.020
45.98000 167.663
45.99000 167.411
46.00000 167.994
46.01000 169.399
46.02000 170.828
46.03000 174.429
46.04000 179.437
46.05000 184.316
46.06000 182.553
46.07000 178.075
46.08000 173.816
46.09000 172.306
46.10000 171.625
46.11000 171.256
46.12000 173.183
46.13000 175.571
46.14000 177.582
46.15000 177.897
46.16000 177.979
46.17000 177.117
46.18000 173.273
46.19000 169.208
46.20000 165.749
46.21000 163.599
46.22000 161.493
46.23000 160.236
46.24000 171.777
46.25000 180.042
46.26000 181.816
46.27000 177.335
46.28000 172.903
46.29000 172.518
46.30000 174.712
46.31000 176.846
46.32000 176.672
46.33000 175.552
46.34000 174.595
46.35000 175.624
46.36000 177.241
46.37000 178.678
46.38000 178.818
46.39000 178.702
46.40000 178.604
46.41000 172.931
46.42000 167.627
46.43000 165.095
46.44000 171.190
46.45000 177.903
46.46000 181.655
46.47000 179.110
46.48000 176.359
46.49000 174.728
46.50000 177.987
46.51000 180.320
46.52000 181.211
46.53000 180.742
46.54000 180.261
46.55000 178.900
46.56000 176.987
46.57000 175.127
46.58000 177.507
46.59000 181.487
46.60000 184.928
46.61000 181.942
46.62000 177.086
46.63000 172.864
46.64000 173.116
46.65000 174.235
46.66000 175.171
46.67000 175.998
46.68000 176.673
46.69000 175.794
46.70000 170.161
46.71000 164.196
46.72000 161.964
46.73000 167.533
46.74000 173.346
46.75000 176.765
46.76000 181.087
46.77000 184.139
46.78000 183.934
46.79000 180.714
46.80000 177.501
46.81000 174.798
46.82000 172.408
46.83000 170.088
46.84000 164.104
46.85000 156.969
46.86000 150.999
46.87000 158.541
46.88000 169.947
46.89000 179.916
46.90000 179.983
46.91000 178.164
46.92000 176.649
46.93000 176.923
46.94000 177.327
46.95000 178.363
46.96000 181.298
46.97000 184.360
46.98000 185.032
46.99000 180.789
47.00000 176.399
47.01000 173.838
47.02000 173.059
47.03000 172.519
47.04000 171.085
47.05000 168.839
47.06000 166.631
47.07000 166.952
47.08000 168.802
47.09000 170.596
47.10000 168.953
47.11000 166.056
47.12000 163.107
47.13000 159.568
47.14000 155.863
47.15000 153.367
47.16000 159.034
47.17000 166.225
47.18000 172.194
47.19000 173.402
47.20000 173.939
47.21000 173.542
47.22000 170.389
47.23000 167.055
47.24000 165.745
47.25000 168.521
47.26000 171.415
47.27000 173.090
47.28000 166.854
47.29000 162.451
47.30000 160.826
47.31000 161.676
47.32000 162.542
47.33000 164.475
47.34000 167.040
47.35000 169.523
47.36000 169.669
47.37000 168.910
47.38000 168.130
47.39000 167.108
47.40000 166.020
47.41000 165.560
47.42000 169.253
47.43000 173.707
47.44000 177.391
47.45000 178.817
47.46000 179.780
47.47000 178.146
47.48000 168.973
47.49000 159.321
47.50000 154.530
47.51000 159.391
47.52000 164.515
47.53000 167.457
47.54000 159.441
47.55000 153.800
47.56000 152.335
47.57000 154.518
47.58000 156.695
47.59000 158.569
47.60000 160.265
47.61000 161.905
47.62000 165.135
47.63000 168.780
47.64000 171.974
47.65000 170.311
47.66000 167.332
47.67000 164.678
47.68000 164.132
47.69000 163.964
47.70000 163.825
47.71000 165.864
47.72000 167.743
47.73000 169.140
47.74000 169.164
47.75000 169.102
47.76000 167.498
47.77000 162.883
47.78000 158.190
47.79000 155.517
47.80000 158.129
47.81000 159.964
47.82000 159.568
47.83000 157.258
47.84000 154.961
47.85000 153.349
47.86000 152.129
47.87000 150.950
47.88000 150.871
47.89000 151.201
47.90000 151.859
47.91000 155.941
47.92000 160.935
47.93000 165.441
47.94000 166.850
47.95000 167.713
47.96000 168.423
47.97000 170.942
47.98000 173.173
47.99000 173.003
48.00000 166.097
48.01000 158.788
48.02000 154.962
48.03000 157.815
48.04000 160.833
48.05000 162.537
48.06000 167.826
48.07000 171.499
48.08000 167.685
48.09000 157.574
48.10000 147.659
48.11000 147.816
48.12000 153.649
48.13000 159.273
48.14000 162.345
48.15000 164.310
48.16000 165.817
48.17000 162.652
48.18000 158.265
48.19000 154.673
48.20000 156.028
48.21000 158.237
48.22000 160.044
48.23000 154.080
48.24000 148.515
48.25000 145.430
48.26000 149.186
48.27000 153.338
48.28000 157.062
48.29000 159.980
48.30000 162.879
48.31000 164.502
48.32000 160.744
48.33000 158.128
48.34000 156.171
48.35000 154.759
48.36000 153.441
48.37000 156.696
48.38000 162.484
48.39000 168.056
48.40000 164.386
48.41000 157.658
48.42000 151.722
48.43000 153.666
48.44000 157.636
48.45000 161.116
48.46000 161.612
48.47000 161.605
48.48000 161.598
48.49000 161.314
48.50000 161.057
48.51000 161.079
48.52000 161.855
48.53000 162.673
48.54000 163.795
48.55000 165.482
48.56000 167.181
48.57000 168.125
48.58000 165.108
48.59000 163.018
48.60000 161.936
48.61000 161.669
48.62000 161.417
48.63000 161.882
48.64000 162.735
48.65000 163.556
48.66000 164.979
48.67000 166.522
48.68000 167.623
48.69000 164.424
48.70000 160.140
48.71000 156.088
48.72000 153.413
48.73000 150.966
48.74000 148.979
48.75000 152.954
48.76000 156.689
48.77000 159.307
48.78000 158.947
48.79000 158.425
48.80000 156.577
48.81000 152.313
48.82000 147.998
48.83000 145.623
48.84000 156.340
48.85000 163.725
48.86000 164.389
48.87000 159.713
48.88000 155.033
48.89000 150.163
48.90000 145.193
48.91000 140.421
48.92000 141.777
48.93000 145.139
48.94000 148.367
48.95000 150.318
48.96000 151.952
48.97000 153.896
48.98000 157.654
48.99000 161.707
49.00000 164.986
49.01000 157.735
49.02000 150.985
49.03000 147.930
49.04000 154.547
49.05000 161.671
49.06000 164.517
49.07000 159.707
49.08000 154.744
49.09000 152.036
49.10000 156.864
49.11000 160.175
49.12000 159.220
49.13000 154.938
49.14000 150.785
49.15000 151.992
49.16000 156.017
49.17000 159.875
49.18000 162.874
49.19000 165.386
49.20000 167.440
49.21000 165.264
49.22000 162.059
49.23000 159.584
49.24000 161.300
49.25000 163.684
49.26000 165.604
49.27000 164.522
49.28000 163.407
49.29000 161.949
49.30000 159.605
49.31000 157.216
49.32000 156.224
49.33000 157.686
49.34000 159.194
49.35000 160.010
49.36000 155.688
49.37000 152.728
49.38000 151.047
49.39000 150.345
49.40000 149.655
49.41000 149.414
49.42000 149.406
49.43000 149.398
49.44000 152.926
49.45000 157.376
49.46000 161.169
49.47000 159.028
49.48000 155.467
49.49000 152.273
49.50000 151.140
49.51000 150.329
49.52000 149.678
49.53000 148.479
49.54000 147.466
49.55000 147.359
49.56000 149.549
49.57000 151.850
49.58000 153.245
49.59000 153.073
49.60000 152.874
49.61000 152.768
49.62000 155.594
49.63000 157.529
49.64000 160.209
49.65000 163.449
49.66000 166.488
49.67000 161.989
49.68000 153.661
49.69000 145.704
49.70000 146.941
49.71000 151.059
49.72000 154.836
49.73000 155.593
49.74000 155.641
49.75000 155.060
49.76000 151.018
49.77000 146.447
49.78000 142.792
49.79000 151.049
49.80000 158.607
49.81000 162.704
49.82000 158.191
49.83000 153.271
49.84000 151.716
49.85000 155.874
49.86000 160.125
49.87000 162.384
49.88000 164.055
49.89000 165.185
49.90000 165.102
49.91000 164.124
49.92000 163.085
49.93000 159.894
49.94000 155.628
49.95000 151.559
49.96000 149.429
49.97000 148.067
49.98000 147.007
49.99000 148.551
50.00000 150.694
50.01000 152.726
50.02000 154.149
50.03000 155.480
50.04000 156.541
50.05000 155.129
50.06000 153.811
50.07000 153.052
50.08000 153.659
50.09000 154.328
50.10000 155.330
50.11000 156.886
50.12000 158.450
50.13000 159.274
50.14000 162.154
50.15000 164.100
50.16000 164.649
50.17000 164.185
50.18000 163.648
50.19000 160.633
50.20000 156.403
50.21000 152.374
50.22000 151.012
50.23000 150.580
50.24000 150.523
50.25000 153.627
50.26000 157.447
50.27000 160.273
50.28000 157.836
50.29000 154.628
50.30000 152.083
50.31000 158.002
50.32000 163.358
50.33000 167.121
50.34000 167.057
50.35000 166.825
50.36000 165.899
50.37000 163.838
50.38000 161.760
50.39000 160.676
50.40000 162.411
50.41000 163.584
50.42000 164.563
50.43000 165.404
50.44000 166.174
50.45000 164.628
50.46000 161.966
50.47000 159.435
50.48000 162.716
50.49000 167.522
50.50000 171.833
50.51000 172.060
50.52000 171.382
50.53000 170.651
50.54000 169.653
50.55000 168.617
50.56000 167.798
50.57000 166.211
50.58000 164.885
50.59000 164.782
50.60000 167.569
50.61000 170.477
50.62000 174.248
50.63000 179.408
50.64000 184.587
50.65000 187.262
50.66000 176.718
50.67000 169.631
50.68000 165.359
50.69000 163.056
50.70000 160.945
50.71000 164.848
50.72000 171.601
50.73000 178.011
50.74000 180.925
50.75000 182.570
50.76000 183.833
50.77000 182.029
50.78000 179.556
50.79000 177.134
50.80000 174.976
50.81000 172.855
50.82000 171.187
50.83000 175.562
50.84000 179.465
50.85000 179.178
50.86000 169.155
50.87000 158.736
50.88000 153.578
50.89000 156.743
50.90000 160.012
50.91000 161.685
50.92000 167.035
50.93000 170.582
50.94000 168.616
50.95000 162.865
50.96000 157.217
50.97000 154.598
50.98000 153.390
50.99000 152.246
51.00000 156.019
51.01000 160.937
51.02000 165.340
51.03000 165.690
51.04000 165.173
51.05000 164.373
51.06000 162.158
51.07000 159.750
51.08000 157.863
51.09000 154.863
51.10000 152.394
51.11000 151.986
51.12000 156.282
51.13000 160.761
51.14000 160.749
51.15000 153.754
51.16000 146.677
51.17000 143.093
51.18000 150.683
51.19000 155.733
51.20000 157.340
51.21000 156.626
51.22000 155.856
51.23000 153.497
51.24000 150.408
51.25000 147.487
51.26000 148.389
51.27000 150.317
51.28000 152.106
51.29000 152.817
51.30000 153.301
51.31000 153.823
51.32000 154.532
51.33000 155.267
51.34000 155.839
51.35000 154.394
51.36000 153.116
51.37000 150.944
51.38000 146.764
51.39000 142.510
51.40000 143.066
51.41000 150.969
51.42000 158.951
51.43000 162.954
51.44000 151.937
51.45000 144.624
51.46000 141.218
51.47000 140.398
51.48000 139.662
51.49000 141.202
51.50000 143.767
51.51000 146.190
51.52000 143.414
51.53000 139.399
51.54000 135.990
51.55000 137.153
51.56000 139.258
51.57000 141.886
51.58000 147.039
51.59000 152.524
51.60000 156.784
51.61000 153.117
51.62000 149.721
51.63000 147.029
51.64000 145.888
51.65000 144.802
51.66000 144.761
51.67000 146.286
51.68000 147.826
51.69000 148.031
51.70000 146.921
51.71000 145.808
51.72000 144.409
51.73000 142.823
51.74000 141.350
51.75000 142.816
51.76000 145.583
51.77000 148.192
51.78000 144.399
51.79000 139.154
51.80000 134.874
51.81000 137.717
51.82000 141.999
51.83000 145.216
51.84000 143.392
51.85000 140.920
51.86000 139.009
51.87000 140.332
51.88000 141.572
51.89000 140.507
51.90000 134.441
51.91000 128.204
51.92000 126.657
51.93000 132.020
51.94000 137.445
51.95000 140.831
51.96000 142.244
51.97000 143.677
51.98000 146.721
51.99000 150.794
52.00000 154.544
52.01000 150.137
52.02000 142.183
52.03000 134.698
52.04000 131.151
52.05000 128.977
52.06000 127.600
52.07000 131.983
52.08000 137.508
52.09000 141.410
52.10000 137.780
52.11000 133.204
52.12000 129.681
52.13000 135.512
52.14000 140.661
52.15000 144.065
52.16000 143.747
52.17000 143.307
52.18000 141.693
52.19000 138.379
52.20000 135.052
52.21000 134.454
52.22000 136.442
52.23000 138.406
52.24000 138.453
52.25000 137.298
52.26000 136.198
52.27000 136.425
52.28000 137.220
52.29000 137.966
52.30000 138.177
52.31000 138.227
52.32000 138.615
52.33000 141.389
52.34000 144.628
52.35000 147.064
52.36000 145.845
52.37000 144.176
52.38000 142.897
52.39000 138.321
52.40000 134.524
52.41000 132.321
52.42000 133.455
52.43000 134.696
52.44000 136.283
52.45000 138.364
52.46000 140.448
52.47000 140.995
52.48000 140.114
52.49000 139.242
52.50000 139.091
52.51000 139.383
52.52000 139.596
52.53000 137.956
52.54000 135.536
52.55000 133.267
52.56000 134.932
52.57000 137.474
52.58000 140.062
52.59000 142.971
52.60000 145.942
52.61000 147.521
52.62000 142.882
52.63000 137.495
52.64000 133.385
52.65000 138.219
52.66000 142.505
52.67000 145.089
52.68000 144.163
52.69000 143.132
52.70000 140.677
52.71000 136.236
52.72000 131.783
52.73000 130.562
52.74000 132.283
52.75000 133.992
52.76000 134.909
52.77000 135.346
52.78000 135.931
52.79000 139.864
52.80000 145.181
52.81000 150.156
52.82000 148.320
52.83000 144.908
52.84000 141.701
52.85000 139.881
52.86000 138.320
52.87000 136.902
52.88000 136.114
52.89000 135.400
52.90000 134.858
52.91000 139.359
52.92000 143.158
52.93000 145.178
52.94000 143.598
52.95000 141.913
52.96000 142.560
52.97000 146.400
52.98000 150.257
52.99000 149.145
53.00000 143.600
53.01000 138.149
53.02000 138.648
53.03000 142.689
53.04000 146.648
53.05000 148.829
53.06000 150.287
53.07000 151.649
53.08000 149.028
53.09000 145.651
53.10000 142.492
53.11000 140.768
53.12000 139.309
53.13000 138.165
53.14000 138.377
53.15000 138.745
53.16000 139.023
53.17000 139.528
53.18000 139.936
53.19000 141.543
53.20000 145.536
53.21000 149.595
53.22000 150.735
53.23000 147.950
53.24000 145.145
53.25000 145.157
53.26000 147.635
53.27000 150.037
53.28000 148.023
53.29000 143.426
53.30000 139.127
53.31000 141.053
53.32000 145.464
53.33000 149.576
53.34000 149.032
53.35000 147.395
53.36000 145.943
53.37000 145.696
53.38000 145.667
53.39000 145.737
53.40000 146.231
53.41000 146.772
53.42000 147.179
53.43000 151.806
53.44000 155.630
53.45000 156.088
53.46000 149.961
53.47000 143.661
53.48000 140.762
53.49000 142.356
53.50000 143.969
53.51000 143.666
53.52000 141.719
53.53000 139.882
53.54000 144.149
53.55000 151.925
53.56000 159.239
53.57000 157.223
53.58000 151.545
53.59000 146.264
53.60000 148.025
53.61000 151.315
53.62000 153.353
53.63000 147.428
53.64000 140.096
53.65000 134.874
53.66000 138.411
53.67000 142.908
53.68000 146.275
53.69000 148.933
53.70000 150.975
53.71000 152.333
53.72000 152.379
53.73000 152.391
53.74000 152.566
53.75000 152.951
53.76000 153.337
53.77000 151.827
53.78000 148.726
53.79000 145.659
53.80000 144.336
53.81000 143.997
53.82000 143.691
53.83000 144.017
53.84000 144.588
53.85000 145.118
53.86000 142.180
53.87000 138.712
53.88000 135.990
53.89000 137.921
53.90000 140.657
53.91000 142.360
53.92000 139.848
53.93000 136.886
53.94000 134.678
53.95000 141.001
53.96000 146.309
53.97000 148.154
53.98000 143.453
53.99000 138.596
54.00000 137.092
54.01000 139.852
54.02000 142.624
54.03000 143.508
54.04000 142.832
54.05000 142.125
54.06000 139.899
54.07000 136.830
54.08000 134.050
54.09000 136.719
54.10000 141.456
54.11000 145.843
54.12000 144.021
54.13000 140.942
54.14000 138.279
54.15000 138.153
54.16000 138.457
54.17000 138.640
54.18000 138.334
54.19000 137.977
54.20000 137.712
54.21000 139.839
54.22000 141.595
54.23000 143.155
54.24000 144.349
54.25000 145.535
54.26000 144.130
54.27000 139.487
54.28000 134.841
54.29000 132.312
54.30000 131.504
54.31000 130.779
54.32000 133.922
54.33000 139.173
54.34000 144.122
54.35000 143.542
54.36000 140.901
54.37000 138.460
54.38000 142.149
54.39000 146.854
54.40000 150.187
54.41000 145.315
54.42000 139.079
54.43000 133.785
54.44000 132.199
54.45000 130.991
54.46000 130.100
54.47000 137.443
54.48000 143.480
54.49000 145.658
54.50000 140.790
54.51000 135.773
54.52000 132.763
54.53000 132.211
54.54000 131.666
54.55000 135.972
54.56000 144.107
54.57000 152.078
54.58000 152.852
54.59000 149.766
54.60000 146.707
54.61000 144.115
54.62000 141.694
54.63000 139.461
54.64000 140.502
54.65000 142.165
54.66000 143.488
54.67000 142.814
54.68000 141.814
54.69000 140.875
54.70000 140.168
54.71000 139.483
54.72000 138.981
54.73000 137.676
54.74000 136.636
54.75000 135.878
54.76000 135.629
54.77000 135.389
54.78000 135.534
54.79000 136.139
54.80000 136.745
54.81000 138.264
54.82000 140.486
54.83000 142.569
54.84000 138.845
54.85000 132.061
54.86000 125.874
54.87000 129.859
54.88000 137.510
54.89000 144.551
54.90000 140.847
54.91000 135.190
54.92000 131.049
54.93000 135.625
54.94000 141.593
54.95000 145.791
54.96000 143.273
54.97000 140.103
54.98000 137.788
54.99000 142.933
55.00000 147.194
55.01000 148.961
55.02000 146.332
55.03000 143.620
55.04000 142.368
55.05000 142.838
55.06000 143.311
55.07000 144.093
55.08000 145.108
55.09000 146.170
55.10000 149.124
55.11000 153.059
55.12000 156.645
55.13000 154.480
55.14000 150.279
55.15000 146.421
55.16000 144.707
55.17000 143.636
55.18000 143.006
55.19000 144.864
55.20000 147.111
55.21000 148.959
55.22000 149.319
55.23000 149.539
55.24000 149.698
55.25000 149.784
55.26000 149.847
55.27000 151.840
55.28000 157.175
55.29000 162.569
55.30000 165.067
55.31000 164.213
55.32000 163.357
55.33000 161.608
55.34000 159.202
55.35000 156.832
55.36000 155.809
55.37000 155.472
55.38000 155.355
55.39000 158.784
55.40000 163.445
55.41000 167.717
55.42000 171.201
55.43000 174.138
55.44000 176.500
55.45000 175.682
55.46000 174.377
55.47000 173.298
55.48000 173.045
55.49000 172.869
55.50000 172.741
55.51000 179.410
55.52000 184.776
55.53000 187.630
55.54000 186.210
55.55000 184.718
55.56000 184.154
55.57000 184.642
55.58000 185.130
55.59000 192.193
55.60000 204.029
55.61000 215.746
55.62000 223.200
55.63000 228.523
55.64000 233.445
55.65000 232.148
55.66000 228.723
55.67000 225.593
55.68000 232.583
55.69000 240.873
55.70000 248.317
55.71000 251.178
55.72000 253.352
55.73000 255.673
55.74000 258.527
55.75000 261.429
55.76000 263.517
55.77000 273.251
55.78000 280.970
55.79000 286.802
55.80000 289.477
55.81000 292.103
55.82000 295.392
55.83000 299.419
55.84000 303.432
55.85000 307.011
55.86000 310.244
55.87000 313.461
55.88000 316.098
55.89000 318.449
55.90000 320.683
55.91000 321.134
55.92000 320.985
55.93000 320.850
55.94000 321.988
55.95000 323.254
55.96000 325.549
55.97000 333.321
55.98000 341.898
55.99000 345.794
56.00000 333.146
56.01000 319.049
56.02000 308.962
56.03000 306.083
56.04000 304.126
56.05000 301.101
56.06000 296.319
56.07000 291.512
56.08000 290.824
56.09000 294.636
56.10000 298.435
56.11000 295.620
56.12000 288.159
56.13000 280.686
56.14000 272.830
56.15000 264.790
56.16000 257.091
56.17000 254.381
56.18000 253.320
56.19000 252.354
56.20000 250.061
56.21000 247.770
56.22000 245.130
56.23000 240.668
56.24000 235.943
56.25000 230.336
56.26000 221.662
56.27000 212.726
56.28000 206.366
56.29000 202.173
56.30000 199.049
56.31000 196.090
56.32000 193.396
56.33000 190.706
56.34000 187.868
56.35000 184.871
56.36000 181.887
56.37000 178.923
56.38000 176.003
56.39000 173.140
56.40000 172.040
56.41000 171.779
56.42000 171.532
56.43000 171.501
56.44000 171.541
56.45000 171.576
56.46000 168.998
56.47000 166.216
56.48000 163.048
56.49000 157.906
56.50000 152.487
56.51000 148.356
56.52000 148.618
56.53000 149.245
56.54000 149.688
56.55000 145.981
56.56000 143.035
56.57000 143.090
56.58000 147.906
56.59000 152.782
56.60000 153.675
56.61000 150.384
56.62000 147.108
56.63000 148.676
56.64000 153.521
56.65000 158.067
56.66000 153.690
56.67000 145.144
56.68000 137.210
56.69000 137.712
56.70000 140.906
56.71000 143.800
56.72000 141.298
56.73000 138.075
56.74000 135.470
56.75000 135.970
56.76000 136.898
56.77000 137.455
56.78000 136.772
56.79000 135.988
56.80000 135.436
56.81000 133.910
56.82000 132.724
56.83000 132.591
56.84000 134.098
56.85000 135.625
56.86000 136.084
56.87000 135.443
56.88000 134.805
56.89000 137.004
56.90000 141.069
56.91000 144.967
56.92000 144.054
56.93000 140.932
56.94000 137.725
56.95000 133.374
56.96000 128.665
56.97000 124.409
56.98000 126.910
56.99000 130.360
57.00000 133.059
57.01000 132.062
57.02000 130.567
57.03000 130.379
57.04000 134.497
57.05000 138.953
57.06000 142.073
57.07000 137.957
57.08000 134.639
57.09000 133.666
57.10000 136.283
57.11000 138.939
57.12000 137.457
57.13000 131.799
57.14000 126.175
57.15000 123.867
57.16000 123.762
57.17000 123.707
57.18000 125.025
57.19000 126.962
57.20000 128.750
57.21000 128.598
57.22000 127.847
57.23000 127.170
57.24000 131.540
57.25000 136.290
57.26000 139.481
57.27000 135.147
57.28000 129.821
57.29000 126.237
57.30000 128.293
57.31000 130.781
57.32000 132.514
57.33000 128.155
57.34000 124.701
57.35000 124.188
57.36000 128.098
57.37000 132.051
57.38000 133.078
57.39000 131.209
57.40000 129.352
57.41000 128.468
57.42000 128.221
57.43000 128.068
57.44000 130.422
57.45000 133.887
57.46000 136.984
57.47000 135.403
57.48000 132.405
57.49000 129.710
57.50000 126.629
57.51000 123.863
57.52000 122.089
57.53000 125.016
57.54000 128.550
57.55000 130.391
57.56000 126.851
57.57000 122.909
57.58000 120.181
57.59000 124.168
57.60000 127.343
57.61000 127.254
57.62000 122.347
57.63000 117.395
57.64000 117.330
57.65000 122.002
57.66000 126.641
57.67000 127.719
57.68000 126.535
57.69000 125.402
57.70000 125.557
57.71000 126.273
57.72000 126.859
57.73000 125.837
57.74000 124.337
57.75000 122.991
57.76000 126.042
57.77000 129.472
57.78000 131.666
57.79000 128.112
57.80000 123.833
57.81000 120.988
57.82000 122.629
57.83000 124.595
57.84000 125.947
57.85000 120.687
57.86000 116.574
57.87000 114.855
57.88000 116.608
57.89000 118.389
57.90000 120.708
57.91000 123.537
57.92000 126.344
57.93000 126.726
57.94000 125.602
57.95000 124.572
57.96000 125.855
57.97000 128.129
57.98000 130.136
57.99000 128.950
58.00000 126.828
58.01000 124.931
58.02000 126.119
58.03000 127.679
58.04000 128.126
58.05000 123.486
58.06000 118.219
58.07000 115.977
58.08000 123.032
58.09000 130.739
58.10000 136.014
58.11000 129.755
58.12000 124.794
58.13000 120.878
58.14000 118.449
58.15000 116.031
58.16000 115.073
58.17000 115.473
58.18000 115.870
58.19000 118.436
58.20000 122.272
58.21000 126.003
58.22000 127.256
58.23000 127.464
58.24000 127.405
58.25000 124.214
58.26000 120.121
58.27000 116.471
58.28000 117.292
58.29000 118.752
58.30000 120.953
58.31000 126.479
58.32000 132.407
58.33000 135.724
58.34000 131.156
58.35000 126.051
58.36000 122.578
58.37000 125.633
58.38000 128.062
58.39000 128.187
58.40000 125.090
58.41000 121.970
58.42000 119.008
58.43000 116.191
58.44000 113.398
58.45000 115.735
58.46000 121.079
58.47000 126.205
58.48000 126.389
58.49000 124.526
58.50000 122.810
58.51000 122.779
58.52000 123.223
58.53000 123.618
58.54000 120.856
58.55000 117.944
58.56000 115.862
58.57000 117.432
58.58000 119.433
58.59000 121.061
58.60000 121.579
58.61000 122.023
58.62000 122.324
58.63000 116.315
58.64000 111.703
58.65000 109.384
58.66000 110.213
58.67000 111.061
58.68000 112.756
58.69000 115.208
58.70000 117.637
58.71000 118.611
58.72000 118.714
58.73000 118.909
58.74000 121.077
58.75000 124.048
58.76000 126.535
58.77000 123.646
58.78000 119.265
58.79000 115.377
58.80000 116.670
58.81000 118.617
58.82000 120.421
58.83000 121.604
58.84000 122.716
58.85000 122.827
58.86000 120.017
58.87000 117.020
58.88000 115.005
58.89000 115.201
58.90000 115.392
58.91000 116.945
58.92000 120.333
58.93000 123.727
58.94000 123.806
58.95000 120.971
58.96000 118.165
58.97000 119.894
58.98000 124.186
58.99000 128.145
59.00000 125.130
59.01000 119.324
59.02000 114.064
59.03000 114.727
59.04000 117.004
59.05000 119.019
59.06000 120.116
59.07000 120.921
59.08000 122.345
59.09000 126.395
59.10000 130.741
59.11000 132.580
59.12000 127.230
59.13000 121.433
59.14000 117.559
59.15000 117.774
59.16000 118.013
59.17000 118.245
59.18000 118.467
59.19000 118.691
59.20000 120.049
59.21000 122.384
59.22000 124.693
59.23000 124.271
59.24000 122.322
59.25000 120.466
59.26000 120.499
59.27000 121.274
59.28000 122.049
59.29000 122.810
59.30000 123.569
59.31000 124.238
59.32000 125.696
59.33000 127.075
59.34000 127.796
59.35000 125.773
59.36000 123.449
59.37000 121.373
59.38000 119.999
59.39000 118.667
59.40000 117.782
59.41000 118.989
59.42000 119.920
59.43000 118.843
59.44000 115.155
59.45000 111.461
59.46000 110.340
59.47000 111.395
59.48000 112.438
59.49000 115.769
59.50000 120.279
59.51000 124.614
59.52000 125.502
59.53000 125.057
59.54000 124.499
59.55000 122.778
59.56000 120.751
59.57000 118.967
59.58000 118.566
59.59000 118.429
59.60000 119.082
59.61000 122.969
59.62000 127.203
59.63000 129.615
59.64000 126.977
59.65000 124.044
59.66000 122.109
59.67000 122.201
59.68000 122.304
59.69000 122.923
59.70000 124.199
59.71000 125.475
59.72000 125.509
59.73000 124.511
59.74000 123.526
59.75000 120.758
59.76000 117.099
59.77000 113.541
59.78000 111.926
59.79000 111.049
59.80000 110.527
59.81000 113.570
59.82000 117.534
59.83000 121.012
59.84000 119.468
59.85000 117.407
59.86000 116.213
59.87000 118.498
59.88000 121.148
59.89000 123.624
59.90000 125.624
59.91000 127.598
59.92000 128.892
59.93000 125.822
59.94000 123.492
59.95000 121.728
59.96000 120.670
59.97000 119.618
59.98000 119.405
59.99000 119.876
60.00000 120.341
60.01000 119.940
60.02000 119.090
60.03000 118.306
60.04000 118.737
60.05000 119.623
60.06000 120.549
60.07000 121.872
60.08000 123.295
60.09000 124.541
60.10000 121.895
60.11000 119.070
60.12000 116.879
60.13000 117.191
60.14000 117.759
60.15000 117.784
60.16000 116.358
60.17000 114.852
60.18000 113.872
60.19000 113.046
60.20000 112.442
60.21000 109.688
60.22000 104.291
60.23000 98.905
60.24000 99.050
60.25000 103.618
60.26000 108.120
60.27000 111.809
60.28000 114.968
60.29000 117.978
60.30000 118.350
60.31000 117.751
60.32000 117.160
60.33000 116.646
60.34000 116.150
60.35000 115.718
60.36000 117.371
60.37000 119.077
60.38000 120.947
60.39000 123.452
60.40000 126.020
60.41000 128.230
60.42000 129.497
60.43000 130.715
60.44000 131.502
60.45000 122.988
60.46000 116.621
60.47000 113.795
60.48000 115.237
60.49000 116.694
60.50000 119.776
60.51000 124.132
60.52000 128.421
60.53000 125.181
60.54000 118.185
60.55000 111.602
60.56000 112.112
60.57000 115.185
60.58000 117.887
60.59000 117.128
60.60000 115.522
60.61000 114.125
60.62000 111.507
60.63000 109.105
60.64000 107.682
60.65000 109.984
60.66000 112.648
60.67000 115.404
60.68000 118.400
60.69000 121.408
60.70000 123.342
60.71000 122.243
60.72000 121.399
60.73000 120.789
60.74000 120.455
60.75000 120.128
60.76000 121.348
60.77000 123.760
60.78000 126.132
60.79000 127.231
60.80000 127.656
60.81000 128.127
60.82000 129.356
60.83000 130.855
60.84000 131.812
60.85000 127.834
60.86000 122.670
60.87000 118.190
60.88000 122.906
60.89000 128.150
60.90000 131.446
60.91000 127.461
60.92000 122.786
60.93000 119.204
60.94000 118.403
60.95000 117.740
60.96000 117.317
60.97000 124.970
60.98000 130.644
60.99000 131.192
61.00000 125.790
61.01000 120.402
61.02000 119.859
61.03000 122.977
61.04000 126.041
61.05000 126.546
61.06000 125.772
61.07000 125.227
61.08000 128.358
61.09000 132.771
61.10000 136.210
61.11000 130.979
61.12000 123.702
61.13000 117.408
61.14000 115.236
61.15000 113.927
61.16000 113.955
61.17000 118.887
61.18000 124.274
61.19000 127.405
61.20000 124.896
61.21000 122.119
61.22000 120.358
61.23000 121.497
61.24000 122.360
61.25000 122.424
61.26000 121.578
61.27000 120.740
61.28000 121.449
61.29000 123.307
61.30000 125.131
61.31000 125.725
61.32000 125.704
61.33000 125.822
61.34000 128.124
61.35000 131.174
61.36000 133.613
61.37000 130.749
61.38000 126.656
61.39000 123.127
61.40000 125.861
61.41000 128.978
61.42000 131.937
61.43000 134.326
61.44000 136.664
61.45000 137.748
61.46000 135.754
61.47000 133.617
61.48000 132.271
61.49000 138.948
61.50000 143.873
61.51000 149.765
61.52000 156.738
61.53000 163.733
61.54000 174.107
61.55000 186.942
61.56000 199.533
61.57000 214.632
61.58000 230.372
61.59000 245.537
61.60000 251.989
61.61000 255.503
61.62000 259.651
61.63000 269.170
61.64000 279.911
61.65000 289.143
61.66000 293.902
61.67000 297.371
61.68000 300.290
61.69000 301.263
61.70000 302.064
61.71000 301.787
61.72000 298.904
61.73000 295.905
61.74000 294.029
61.75000 288.980
61.76000 285.301
61.77000 276.946
61.78000 263.469
61.79000 249.990
61.80000 236.539
61.81000 223.109
61.82000 209.948
61.83000 193.606
61.84000 176.402
61.85000 159.945
61.86000 154.456
61.87000 152.602
61.88000 150.599
61.89000 147.357
61.90000 143.839
61.91000 140.825
61.92000 136.969
61.93000 133.611
61.94000 131.253
61.95000 132.377
61.96000 133.799
61.97000 135.384
61.98000 137.358
61.99000 139.348
62.00000 140.585
62.01000 136.388
62.02000 133.314
62.03000 132.242
62.04000 133.321
62.05000 134.389
62.06000 133.874
62.07000 132.247
62.08000 130.654
62.09000 128.477
62.10000 126.118
62.11000 124.009
62.12000 125.464
62.13000 128.081
62.14000 130.372
62.15000 130.018
62.16000 129.084
62.17000 128.287
62.18000 126.521
62.19000 124.919
62.20000 124.254
62.21000 126.795
62.22000 129.603
62.23000 131.642
62.24000 131.882
62.25000 132.048
62.26000 132.150
62.27000 135.594
62.28000 138.097
62.29000 134.904
62.30000 125.712
62.31000 116.599
62.32000 117.096
62.33000 124.226
62.34000 131.197
62.35000 134.742
62.36000 136.602
62.37000 138.105
62.38000 134.655
62.39000 129.621
62.40000 124.640
62.41000 120.084
62.42000 115.619
62.43000 111.819
62.44000 117.810
62.45000 123.983
62.46000 128.287
62.47000 126.305
62.48000 123.814
62.49000 122.578
62.50000 124.222
62.51000 125.981
62.52000 127.058
62.53000 129.456
62.54000 131.184
62.55000 130.755
62.56000 128.098
62.57000 125.482
62.58000 127.289
62.59000 132.094
62.60000 136.787
62.61000 136.047
62.62000 132.946
62.63000 129.934
62.64000 128.136
62.65000 126.720
62.66000 125.612
62.67000 126.889
62.68000 128.670
62.69000 130.181
62.70000 129.191
62.71000 128.076
62.72000 127.030
62.73000 126.208
62.74000 125.404
62.75000 126.009
62.76000 129.796
62.77000 133.704
62.78000 136.080
62.79000 134.317
62.80000 133.027
62.81000 132.769
62.82000 133.557
62.83000 134.345
62.84000 135.112
62.85000 135.866
62.86000 136.602
62.87000 135.800
62.88000 134.367
62.89000 132.840
62.90000 130.076
62.91000 126.930
62.92000 124.508
62.93000 127.586
62.94000 131.803
62.95000 135.370
62.96000 137.258
62.97000 138.651
62.98000 139.187
62.99000 136.937
63.00000 134.473
63.01000 133.589
63.02000 136.210
63.03000 138.959
63.04000 140.619
63.05000 136.370
63.06000 133.303
63.07000 133.872
63.08000 138.047
63.09000 142.178
63.10000 142.187
63.11000 139.501
63.12000 136.884
63.13000 133.383
63.14000 129.667
63.15000 126.229
63.16000 126.317
63.17000 127.475
63.18000 128.644
63.19000 129.888
63.20000 131.147
63.21000 132.208
63.22000 134.873
63.23000 137.271
63.24000 137.864
63.25000 132.699
63.26000 127.103
63.27000 124.053
63.28000 126.552
63.29000 129.245
63.30000 130.858
63.31000 130.232
63.32000 129.774
63.33000 131.640
63.34000 135.766
63.35000 139.837
63.36000 139.158
63.37000 135.430
63.38000 131.800
63.39000 131.403
63.40000 132.371
63.41000 133.548
63.42000 137.310
63.43000 141.843
63.44000 145.297
63.45000 140.916
63.46000 134.971
63.47000 129.977
63.48000 133.381
63.49000 137.103
63.50000 140.438
63.51000 142.562
63.52000 144.598
63.53000 144.333
63.54000 139.135
63.55000 133.773
63.56000 130.585
63.57000 132.495
63.58000 133.877
63.59000 132.912
63.60000 129.709
63.61000 126.567
63.62000 128.340
63.63000 133.213
63.64000 137.951
63.65000 141.805
63.66000 145.108
63.67000 147.703
63.68000 141.749
63.69000 133.288
63.70000 126.268
63.71000 129.491
63.72000 134.718
63.73000 139.095
63.74000 142.462
63.75000 145.156
63.76000 147.436
63.77000 148.439
63.78000 149.352
63.79000 149.704
63.80000 148.877
63.81000 148.012
63.82000 147.502
63.83000 149.002
63.84000 150.072
63.85000 151.125
63.86000 152.163
63.87000 153.170
63.88000 151.957
63.89000 149.368
63.90000 146.855
63.91000 149.059
63.92000 153.044
63.93000 156.375
63.94000 152.023
63.95000 145.456
63.96000 140.048
63.97000 142.698
63.98000 146.896
63.99000 150.398
64.00000 146.899
64.01000 143.294
64.02000 141.552
64.03000 145.451
64.04000 149.735
64.05000 151.533
64.06000 148.181
64.07000 144.671
64.08000 142.616
64.09000 144.847
64.10000 146.438
64.11000 148.264
64.12000 150.305
64.13000 152.312
64.14000 152.025
64.15000 150.341
64.16000 148.707
64.17000 150.755
64.18000 154.146
64.19000 157.041
64.20000 154.261
64.21000 149.875
64.22000 146.520
64.23000 150.192
64.24000 155.187
64.25000 159.339
64.26000 158.128
64.27000 156.600
64.28000 155.437
64.29000 155.359
64.30000 155.353
64.31000 155.924
64.32000 157.668
64.33000 159.447
64.34000 160.480
64.35000 151.172
64.36000 144.597
64.37000 143.708
64.38000 147.930
64.39000 152.141
64.40000 155.639
64.41000 158.710
64.42000 161.686
64.43000 160.894
64.44000 158.691
64.45000 156.644
64.46000 156.341
64.47000 156.522
64.48000 156.821
64.49000 157.904
64.50000 159.130
64.51000 160.147
64.52000 160.423
64.53000 160.580
64.54000 159.724
64.55000 155.904
64.56000 151.894
64.57000 151.159
64.58000 156.976
64.59000 162.976
64.60000 166.434
64.61000 169.367
64.62000 171.415
64.63000 170.774
64.64000 167.762
64.65000 164.808
64.66000 165.324
64.67000 167.881
64.68000 170.354
64.69000 167.154
64.70000 161.981
64.71000 157.607
64.72000 161.904
64.73000 168.571
64.74000 174.566
64.75000 176.170
64.76000 176.978
64.77000 177.645
64.78000 177.035
64.79000 176.414
64.80000 176.328
64.81000 177.779
64.82000 179.326
64.83000 181.074
64.84000 183.216
64.85000 185.368
64.86000 186.599
64.87000 186.821
64.88000 186.972
64.89000 187.130
64.90000 187.292
64.91000 187.472
64.92000 188.612
64.93000 190.308
64.94000 191.945
64.95000 189.795
64.96000 186.358
64.97000 183.674
64.98000 188.945
64.99000 196.352
65.00000 202.227
65.01000 198.300
65.02000 192.632
65.03000 187.970
65.04000 188.567
65.05000 189.535
65.06000 191.245
65.07000 195.055
65.08000 198.992
65.09000 201.865
65.10000 202.683
65.11000 203.448
65.12000 203.882
65.13000 206.975
65.14000 209.133
65.15000 210.230
65.16000 210.428
65.17000 210.674
65.18000 213.455
65.19000 217.675
65.20000 221.747
65.21000 222.670
65.22000 222.390
65.23000 222.170
65.24000 222.562
65.25000 223.116
65.26000 224.018
65.27000 227.104
65.28000 230.570
65.29000 233.411
65.30000 236.108
65.31000 238.306
65.32000 241.928
65.33000 249.506
65.34000 257.315
65.35000 259.010
65.36000 249.089
65.37000 238.889
65.38000 233.156
65.39000 242.229
65.40000 248.554
65.41000 250.065
65.42000 247.569
65.43000 245.247
65.44000 251.625
65.45000 262.856
65.46000 273.675
65.47000 278.885
65.48000 281.770
65.49000 284.466
65.50000 285.258
65.51000 285.557
65.52000 287.141
65.53000 296.616
65.54000 307.438
65.55000 316.274
65.56000 326.033
65.57000 334.099
65.58000 342.330
65.59000 351.015
65.60000 359.726
65.61000 370.317
65.62000 384.419
65.63000 398.601
65.64000 406.507
65.65000 448.113
65.66000 476.997
65.67000 515.312
65.68000 561.330
65.69000 607.973
65.70000 684.212
65.71000 776.675
65.72000 865.621
65.73000 986.259
65.74000 1110.505
65.75000 1234.149
65.76000 1351.869
65.77000 1468.083
65.78000 1578.602
65.79000 1654.843
65.80000 1725.352
65.81000 1782.707
65.82000 1859.752
65.83000 1924.303
65.84000 1968.812
65.85000 1959.529
65.86000 1947.288
65.87000 1939.404
65.88000 1939.513
65.89000 1939.794
65.90000 1939.949
65.91000 1932.476
65.92000 1927.123
65.93000 1860.125
65.94000 1743.723
65.95000 1627.492
65.96000 1518.950
65.97000 1414.550
65.98000 1314.267
65.99000 1187.801
66.00000 1060.414
66.01000 935.434
66.02000 833.520
66.03000 737.371
66.04000 648.340
66.05000 601.313
66.06000 561.170
66.07000 528.639
66.08000 491.678
66.09000 461.209
66.10000 433.260
66.11000 411.959
66.12000 391.011
66.13000 378.049
66.14000 379.487
66.15000 381.219
66.16000 382.168
66.17000 372.745
66.18000 366.262
66.19000 363.412
66.20000 363.422
66.21000 363.631
66.22000 372.309
66.23000 385.473
66.24000 398.098
66.25000 409.181
66.26000 419.012
66.27000 429.616
66.28000 447.437
66.29000 467.031
66.30000 486.664
66.31000 506.532
66.32000 526.437
66.33000 542.505
66.34000 567.796
66.35000 589.084
66.36000 604.951
66.37000 606.761
66.38000 607.849
66.39000 614.110
66.40000 629.535
66.41000 645.137
66.42000 653.610
66.43000 647.809
66.44000 643.799
66.45000 636.130
66.46000 625.636
66.47000 615.030
66.48000 599.944
66.49000 582.525
66.50000 565.843
66.51000 552.998
66.52000 542.293
66.53000 530.552
66.54000 509.341
66.55000 485.848
66.56000 463.063
66.57000 444.295
66.58000 426.159
66.59000 411.576
66.60000 404.438
66.61000 399.225
66.62000 391.902
66.63000 379.196
66.64000 366.223
66.65000 358.230
66.66000 358.906
66.67000 359.740
66.68000 360.189
66.69000 349.650
66.70000 342.456
66.71000 339.475
66.72000 339.689
66.73000 339.794
66.74000 335.768
66.75000 329.627
66.76000 323.756
66.77000 326.352
66.78000 331.526
66.79000 336.921
66.80000 344.283
66.81000 352.111
66.82000 359.306
66.83000 362.976
66.84000 366.103
66.85000 368.608
66.86000 364.140
66.87000 360.001
66.88000 354.831
66.89000 347.076
66.90000 339.198
66.91000 339.453
66.92000 353.623
66.93000 368.029
66.94000 375.714
66.95000 376.012
66.96000 376.201
66.97000 374.739
66.98000 372.048
66.99000 369.511
67.00000 372.599
67.01000 378.514
67.02000 384.162
67.03000 388.300
67.04000 391.662
67.05000 394.413
67.06000 391.831
67.07000 388.010
67.08000 385.843
67.09000 392.693
67.10000 400.903
67.11000 407.452
67.12000 403.422
67.13000 399.395
67.14000 395.435
67.15000 391.641
67.16000 387.854
67.17000 384.339
67.18000 381.280
67.19000 378.228
67.20000 376.615
67.21000 378.618
67.22000 379.979
67.23000 380.973
67.24000 381.698
67.25000 382.484
67.26000 385.362
67.27000 389.274
67.28000 393.003
67.29000 397.021
67.30000 400.838
67.31000 404.530
67.32000 407.166
67.33000 409.561
67.34000 411.490
67.35000 410.928
67.36000 409.997
67.37000 409.257
67.38000 410.860
67.39000 412.317
67.40000 412.580
67.41000 409.950
67.42000 407.191
67.43000 406.826
67.44000 410.417
67.45000 414.066
67.46000 415.978
67.47000 425.024
67.48000 431.105
67.49000 430.012
67.50000 423.773
67.51000 417.705
67.52000 417.291
67.53000 419.623
67.54000 421.842
67.55000 423.954
67.56000 425.875
67.57000 428.044
67.58000 432.280
67.59000 436.978
67.60000 441.939
67.61000 448.273
67.62000 454.807
67.63000 459.977
67.64000 454.811
67.65000 449.948
67.66000 446.748
67.67000 447.511
67.68000 448.443
67.69000 450.764
67.70000 455.339
67.71000 459.945
67.72000 462.334
67.73000 467.980
67.74000 471.758
67.75000 470.881
67.76000 466.725
67.77000 462.790
67.78000 465.869
67.79000 472.297
67.80000 478.404
67.81000 474.315
67.82000 467.464
67.83000 461.532
67.84000 463.082
67.85000 466.276
67.86000 470.040
67.87000 476.739
67.88000 483.853
67.89000 489.459
67.90000 494.540
67.91000 498.579
67.92000 498.944
67.93000 490.714
67.94000 482.129
67.95000 480.838
67.96000 491.178
67.97000 501.667
67.98000 507.056
67.99000 497.667
68.00000 491.441
68.01000 496.660
68.02000 509.796
68.03000 522.537
68.04000 523.297
68.05000 518.432
68.06000 513.819
68.07000 512.261
68.08000 511.729
68.09000 511.467
68.10000 513.362
68.11000 515.722
68.12000 519.171
68.13000 528.111
68.14000 537.813
68.15000 545.425
68.16000 544.152
68.17000 542.554
68.18000 544.019
68.19000 552.527
68.20000 561.316
68.21000 565.383
68.22000 562.052
68.23000 558.633
68.24000 556.894
68.25000 574.555
68.26000 586.378
68.27000 595.869
68.28000 603.775
68.29000 611.534
68.30000 615.015
68.31000 616.521
68.32000 617.947
68.33000 615.296
68.34000 611.674
68.35000 608.890
68.36000 612.627
68.37000 617.744
68.38000 623.279
68.39000 630.883
68.40000 638.768
68.41000 644.929
68.42000 642.667
68.43000 640.329
68.44000 641.619
68.45000 651.112
68.46000 660.918
68.47000 669.942
68.48000 677.761
68.49000 685.567
68.50000 689.499
68.51000 706.276
68.52000 717.525
68.53000 732.489
68.54000 749.931
68.55000 767.275
68.56000 781.873
68.57000 795.225
68.58000 807.845
68.59000 828.144
68.60000 848.971
68.61000 871.389
68.62000 905.909
68.63000 942.945
68.64000 979.478
68.65000 1013.570
68.66000 1047.338
68.67000 1073.611
68.68000 1132.082
68.69000 1180.605
68.70000 1226.370
68.71000 1266.006
68.72000 1305.418
68.73000 1352.090
68.74000 1409.740
68.75000 1467.501
68.76000 1508.859
68.77000 1533.900
68.78000 1559.039
68.79000 1593.295
68.80000 1633.527
68.81000 1674.723
68.82000 1741.644
68.83000 1820.035
68.84000 1893.993
68.85000 1978.746
68.86000 2059.443
68.87000 2146.997
68.88000 2285.613
68.89000 2434.640
68.90000 2632.645
68.91000 3064.095
68.92000 3525.865
68.93000 3883.578
68.94000 5387.778
68.95000 6650.665
68.96000 8345.369
68.97000 10983.740
68.98000 13655.276
68.99000 16696.438
69.00000 20286.406
69.01000 23881.424
69.02000 27228.236
69.03000 30332.854
69.04000 33429.438
69.05000 35828.992
69.06000 37779.766
69.07000 39702.676
69.08000 40910.539
69.09000 41805.012
69.10000 42647.367
69.11000 43337.980
69.12000 43928.215
69.13000 44544.359
69.14000 45349.324
69.15000 46192.059
69.16000 46972.484
69.17000 47461.473
69.18000 47913.438
69.19000 48262.020
69.20000 46969.285
69.21000 45850.254
69.22000 44169.750
69.23000 41283.098
69.24000 38355.832
69.25000 35467.520
69.26000 32636.012
69.27000 29805.172
69.28000 27626.783
69.29000 26072.318
69.30000 24524.664
69.31000 23523.672
69.32000 22868.449
69.33000 22223.635
69.34000 21835.615
69.35000 21558.232
69.36000 21297.492
69.37000 20733.244
69.38000 20136.602
69.39000 19458.881
69.40000 18202.916
69.41000 16833.473
69.42000 15357.013
69.43000 13389.243
69.44000 11360.443
69.45000 9802.658
69.46000 7938.241
69.47000 6447.268
69.48000 5158.882
69.49000 4298.290
69.50000 3451.487
69.51000 2782.026
69.52000 2366.546
69.53000 1953.086
69.54000 1682.253
69.55000 1545.130
69.56000 1408.423
69.57000 1302.634
69.58000 1216.058
69.59000 1130.607
69.60000 1071.858
69.61000 1024.419
69.62000 979.909
69.63000 956.520
69.64000 940.767
69.65000 922.944
69.66000 890.668
69.67000 855.609
69.68000 823.499
69.69000 804.679
69.70000 787.473
69.71000 774.321
69.72000 749.102
69.73000 728.560
69.74000 711.403
69.75000 701.270
69.76000 691.355
69.77000 680.018
69.78000 666.682
69.79000 653.335
69.80000 637.983
69.81000 620.800
69.82000 603.759
69.83000 596.517
69.84000 595.257
69.85000 593.733
69.86000 586.147
69.87000 576.038
69.88000 566.572
69.89000 554.280
69.90000 542.373
69.91000 531.510
69.92000 527.778
69.93000 525.394
69.94000 522.405
69.95000 516.746
69.96000 510.769
69.97000 506.221
69.98000 513.273
69.99000 519.431
70.00000 516.947
