20.00000 473.658
20.01000 480.111
20.02000 487.485
20.03000 492.567
20.04000 488.615
20.05000 483.739
20.06000 480.139
20.07000 475.681
20.08000 472.189
20.09000 469.277
20.10000 467.426
20.11000 465.598
20.12000 467.981
20.13000 475.539
20.14000 483.098
20.15000 485.028
20.16000 482.472
20.17000 479.946
20.18000 478.757
20.19000 478.286
20.20000 477.597
20.21000 473.066
20.22000 467.124
20.23000 461.641
20.24000 468.379
20.25000 477.145
20.26000 485.192
20.27000 489.005
20.28000 492.127
20.29000 493.535
20.30000 488.309
20.31000 482.422
20.32000 478.097
20.33000 481.997
20.34000 485.349
20.35000 486.705
20.36000 484.471
20.37000 482.165
20.38000 478.027
20.39000 471.680
20.40000 465.341
20.41000 463.979
20.42000 466.506
20.43000 468.859
20.44000 463.864
20.45000 454.988
20.46000 446.628
20.47000 447.087
20.48000 450.732
20.49000 454.087
20.50000 461.849
20.51000 469.754
20.52000 476.659
20.53000 477.795
20.54000 478.009
20.55000 476.752
20.56000 469.905
20.57000 462.514
20.58000 457.111
20.59000 472.584
20.60000 485.341
20.61000 488.762
20.62000 475.684
20.63000 462.294
20.64000 454.536
20.65000 453.440
20.66000 452.359
20.67000 457.356
20.68000 466.975
20.69000 476.375
20.70000 477.062
20.71000 473.227
20.72000 469.464
20.73000 466.893
20.74000 464.746
20.75000 462.773
20.76000 472.259
20.77000 483.181
20.78000 491.457
20.79000 484.784
20.80000 475.766
20.81000 470.005
20.82000 476.411
20.83000 483.970
20.84000 489.469
20.85000 485.972
20.86000 482.940
20.87000 481.277
20.88000 481.991
20.89000 482.746
20.90000 475.211
20.91000 458.053
20.92000 440.928
20.93000 440.638
20.94000 452.984
20.95000 465.038
20.96000 466.059
20.97000 461.450
20.98000 457.467
20.99000 463.538
21.00000 473.116
21.01000 481.895
21.02000 482.586
21.03000 481.502
21.04000 479.735
21.05000 474.182
21.06000 468.048
21.07000 463.195
21.08000 463.042
21.09000 463.323
21.10000 463.527
21.11000 463.412
21.12000 463.311
21.13000 465.291
21.14000 470.818
21.15000 476.404
21.16000 476.725
21.17000 471.053
21.18000 465.391
21.19000 463.800
21.20000 465.218
21.21000 466.618
21.22000 467.358
21.23000 467.767
21.24000 467.994
21.25000 465.384
21.26000 461.800
21.27000 458.523
21.28000 456.871
21.29000 455.737
21.30000 455.458
21.31000 459.822
21.32000 464.884
21.33000 469.412
21.34000 472.012
21.35000 474.439
21.36000 476.185
21.37000 473.065
21.38000 470.505
21.39000 468.904
21.40000 468.909
21.41000 468.939
21.42000 464.264
21.43000 454.336
21.44000 444.439
21.45000 444.502
21.46000 451.758
21.47000 458.841
21.48000 459.933
21.49000 458.075
21.50000 456.512
21.51000 459.436
21.52000 463.871
21.53000 467.917
21.54000 469.702
21.55000 470.829
21.56000 472.137
21.57000 474.408
21.58000 476.821
21.59000 478.559
21.60000 477.910
21.61000 477.052
21.62000 476.437
21.63000 466.700
21.64000 458.953
21.65000 456.512
21.66000 462.806
21.67000 469.230
21.68000 473.734
21.69000 476.138
21.70000 478.531
21.71000 482.183
21.72000 486.693
21.73000 491.157
21.74000 494.114
21.75000 496.341
21.76000 498.374
21.77000 497.566
21.78000 495.817
21.79000 494.225
21.80000 489.808
21.81000 485.342
21.82000 483.966
21.83000 498.748
21.84000 515.860
21.85000 528.223
21.86000 524.060
21.87000 518.482
21.88000 514.509
21.89000 513.684
21.90000 513.157
21.91000 517.842
21.92000 530.962
21.93000 544.197
21.94000 553.388
21.95000 558.239
21.96000 563.066
21.97000 564.214
21.98000 562.793
21.99000 561.458
22.00000 562.817
22.01000 565.460
22.02000 568.115
22.03000 570.933
22.04000 573.805
22.05000 576.414
22.06000 576.755
22.07000 576.619
22.08000 576.729
22.09000 578.109
22.10000 579.667
22.11000 578.345
22.12000 567.171
22.13000 555.176
22.14000 546.680
22.15000 544.963
22.16000 543.870
22.17000 541.734
22.18000 537.938
22.19000 534.121
22.20000 529.481
22.21000 523.975
22.22000 518.495
22.23000 518.770
22.24000 522.965
22.25000 526.842
22.26000 521.109
22.27000 510.879
22.28000 501.719
22.29000 507.376
22.30000 517.774
22.31000 527.194
22.32000 518.249
22.33000 506.883
22.34000 496.178
22.35000 488.800
22.36000 481.882
22.37000 474.590
22.38000 466.043
22.39000 457.393
22.40000 451.299
22.41000 448.855
22.42000 447.110
22.43000 448.257
22.44000 453.920
22.45000 459.636
22.46000 462.431
22.47000 462.211
22.48000 461.992
22.49000 464.838
22.50000 469.699
22.51000 473.932
22.52000 460.104
22.53000 437.965
22.54000 417.869
22.55000 425.272
22.56000 441.321
22.57000 455.825
22.58000 459.400
22.59000 460.515
22.60000 459.524
22.61000 448.137
22.62000 435.344
22.63000 427.226
22.64000 434.545
22.65000 443.082
22.66000 449.063
22.67000 445.977
22.68000 443.382
22.69000 441.277
22.70000 439.923
22.71000 438.576
22.72000 440.019
22.73000 444.282
22.74000 448.520
22.75000 450.094
22.76000 449.897
22.77000 449.549
22.78000 445.017
22.79000 438.591
22.80000 432.890
22.81000 436.670
22.82000 443.380
22.83000 449.428
22.84000 453.056
22.85000 455.800
22.86000 457.630
22.87000 455.032
22.88000 451.849
22.89000 450.449
22.90000 454.837
22.91000 459.668
22.92000 463.035
22.93000 449.932
22.94000 439.594
22.95000 435.188
22.96000 439.724
22.97000 444.349
22.98000 443.872
22.99000 438.334
23.00000 432.832
23.01000 433.073
23.02000 437.009
23.03000 440.666
23.04000 436.932
23.05000 429.912
23.06000 423.581
23.07000 426.005
23.08000 431.089
23.09000 435.660
23.10000 440.854
23.11000 445.514
23.12000 448.252
23.13000 441.853
23.14000 434.271
23.15000 430.690
23.16000 439.865
23.17000 449.992
23.18000 457.008
23.19000 452.380
23.20000 448.591
23.21000 443.974
23.22000 438.132
23.23000 432.278
23.24000 429.323
23.25000 429.185
23.26000 429.048
23.27000 431.256
23.28000 434.911
23.29000 438.210
23.30000 432.428
23.31000 422.677
23.32000 413.999
23.33000 418.616
23.34000 427.199
23.35000 434.898
23.36000 440.083
23.37000 444.176
23.38000 446.421
23.39000 440.047
23.40000 432.582
23.41000 425.250
23.42000 418.335
23.43000 411.450
23.44000 406.707
23.45000 419.939
23.46000 430.323
23.47000 438.864
23.48000 444.722
23.49000 450.557
23.50000 449.351
23.51000 441.436
23.52000 433.581
23.53000 435.178
23.54000 442.606
23.55000 449.616
23.56000 446.375
23.57000 438.731
23.58000 431.460
23.59000 428.682
23.60000 427.223
23.61000 425.917
23.62000 433.310
23.63000 441.242
23.64000 445.903
23.65000 435.593
23.66000 423.431
23.67000 416.071
23.68000 423.496
23.69000 431.962
23.70000 437.760
23.71000 446.386
23.72000 452.914
23.73000 454.010
23.74000 447.353
23.75000 440.639
23.76000 439.917
23.77000 444.792
23.78000 449.627
23.79000 447.453
23.80000 441.056
23.81000 435.139
23.82000 440.533
23.83000 450.704
23.84000 460.089
23.85000 460.239
23.86000 457.730
23.87000 455.490
23.88000 460.411
23.89000 465.891
23.90000 470.479
23.91000 471.066
23.92000 471.168
23.93000 470.695
23.94000 468.481
23.95000 466.147
23.96000 464.559
23.97000 465.734
23.98000 466.676
23.99000 466.579
24.00000 465.028
24.01000 463.465
24.02000 460.002
24.03000 454.797
24.04000 449.639
24.05000 451.995
24.06000 458.790
24.07000 465.273
24.08000 464.662
24.09000 461.105
24.10000 457.406
24.11000 452.079
24.12000 446.291
24.13000 441.139
24.14000 447.273
24.15000 454.446
24.16000 458.141
24.17000 446.502
24.18000 433.050
24.19000 426.781
24.20000 441.880
24.21000 458.397
24.22000 469.575
24.23000 460.629
24.24000 453.525
24.25000 447.136
24.26000 441.730
24.27000 436.332
24.28000 431.892
24.29000 428.313
24.30000 424.768
24.31000 426.717
24.32000 431.844
24.33000 436.422
24.34000 429.002
24.35000 416.685
24.36000 405.859
24.37000 411.625
24.38000 422.004
24.39000 431.217
24.40000 427.881
24.41000 422.981
24.42000 418.314
24.43000 414.651
24.44000 411.104
24.45000 409.032
24.46000 411.273
24.47000 413.791
24.48000 415.485
24.49000 419.807
24.50000 423.074
24.51000 423.112
24.52000 418.787
24.53000 414.443
24.54000 416.163
24.55000 423.224
24.56000 430.211
24.57000 424.651
24.58000 412.002
24.59000 399.797
24.60000 396.947
24.61000 397.850
24.62000 398.992
24.63000 402.733
24.64000 407.183
24.65000 411.123
24.66000 405.647
24.67000 399.438
24.68000 396.486
24.69000 407.382
24.70000 419.840
24.71000 426.956
24.72000 418.716
24.73000 409.518
24.74000 403.367
24.75000 416.330
24.76000 426.314
24.77000 425.889
24.78000 411.649
24.79000 397.351
24.80000 390.254
24.81000 389.379
24.82000 388.513
24.83000 397.155
24.84000 410.955
24.85000 423.993
24.86000 421.497
24.87000 412.874
24.88000 404.355
24.89000 396.938
24.90000 389.816
24.91000 383.530
24.92000 390.452
24.93000 398.449
24.94000 405.839
24.95000 410.702
24.96000 415.285
24.97000 417.876
24.98000 414.840
24.99000 411.462
25.00000 409.218
25.01000 412.721
25.02000 415.419
25.03000 412.511
25.04000 402.301
25.05000 392.075
25.06000 391.146
25.07000 398.098
25.08000 404.968
25.09000 404.992
25.10000 401.227
25.11000 397.722
25.12000 399.329
25.13000 402.918
25.14000 406.184
25.15000 406.128
25.16000 405.196
25.17000 404.376
25.18000 402.732
25.19000 401.194
25.20000 400.154
25.21000 401.156
25.22000 402.378
25.23000 401.850
25.24000 396.459
25.25000 390.783
25.26000 387.035
25.27000 386.285
25.28000 385.785
25.29000 386.817
25.30000 389.808
25.31000 392.802
25.32000 394.120
25.33000 394.044
25.34000 393.968
25.35000 392.152
25.36000 389.438
25.37000 387.140
25.38000 392.757
25.39000 401.391
25.40000 408.723
25.41000 402.954
25.42000 393.793
25.43000 385.751
25.44000 391.101
25.45000 397.660
25.46000 403.047
25.47000 403.714
25.48000 403.886
25.49000 403.917
25.50000 403.567
25.51000 403.195
25.52000 402.951
25.53000 396.902
25.54000 392.356
25.55000 388.882
25.56000 386.753
25.57000 384.644
25.58000 388.642
25.59000 397.625
25.60000 406.486
25.61000 407.878
25.62000 405.251
25.63000 402.592
25.64000 399.355
25.65000 395.901
25.66000 393.326
25.67000 399.372
25.68000 407.611
25.69000 414.823
25.70000 409.373
25.71000 402.885
25.72000 397.139
25.73000 394.325
25.74000 391.812
25.75000 389.934
25.76000 389.761
25.77000 389.680
25.78000 389.628
25.79000 380.027
25.80000 372.833
25.81000 370.965
25.82000 375.658
25.83000 380.355
25.84000 380.209
25.85000 376.185
25.86000 372.218
25.87000 380.846
25.88000 395.812
25.89000 409.888
25.90000 408.130
25.91000 400.541
25.92000 393.997
25.93000 397.456
25.94000 403.414
25.95000 408.614
25.96000 404.643
25.97000 399.960
25.98000 395.821
25.99000 393.789
26.00000 391.968
26.01000 388.896
26.02000 382.524
26.03000 375.977
26.04000 371.736
26.05000 383.974
26.06000 393.174
26.07000 398.305
26.08000 398.515
26.09000 398.701
26.10000 395.041
26.11000 388.358
26.12000 381.777
26.13000 379.101
26.14000 378.510
26.15000 378.062
26.16000 380.084
26.17000 383.000
26.18000 385.795
26.19000 387.456
26.20000 388.839
26.21000 390.043
26.22000 380.250
26.23000 370.383
26.24000 362.867
26.25000 364.316
26.26000 366.641
26.27000 368.828
26.28000 370.656
26.29000 372.466
26.30000 373.631
26.31000 393.161
26.32000 407.672
26.33000 412.469
26.34000 405.743
26.35000 399.007
26.36000 394.988
26.37000 393.066
26.38000 391.174
26.39000 389.511
26.40000 388.015
26.41000 386.496
26.42000 384.592
26.43000 382.550
26.44000 381.325
26.45000 387.551
26.46000 395.572
26.47000 402.531
26.48000 392.218
26.49000 381.119
26.50000 373.331
26.51000 377.951
26.52000 383.752
26.53000 386.351
26.54000 380.789
26.55000 374.822
26.56000 371.008
26.57000 384.672
26.58000 394.848
26.59000 398.685
26.60000 395.143
26.61000 391.582
26.62000 385.792
26.63000 378.316
26.64000 370.967
26.65000 373.133
26.66000 379.931
26.67000 386.246
26.68000 384.743
26.69000 380.506
26.70000 376.713
26.71000 376.883
26.72000 377.989
26.73000 378.946
26.74000 376.009
26.75000 373.003
26.76000 370.642
26.77000 370.656
26.78000 370.890
26.79000 372.441
26.80000 377.292
26.81000 382.300
26.82000 385.481
26.83000 384.597
26.84000 383.905
26.85000 388.059
26.86000 397.743
26.87000 407.378
26.88000 406.437
26.89000 397.631
26.90000 388.983
26.91000 383.703
26.92000 380.240
26.93000 376.932
26.94000 376.044
26.95000 375.987
26.96000 375.807
26.97000 374.556
26.98000 373.056
26.99000 371.762
27.00000 372.929
27.01000 374.233
27.02000 376.609
27.03000 382.856
27.04000 389.454
27.05000 392.931
27.06000 388.720
27.07000 384.155
27.08000 381.276
27.09000 391.144
27.10000 398.436
27.11000 399.080
27.12000 392.281
27.13000 385.483
27.14000 379.899
27.15000 375.201
27.16000 370.592
27.17000 370.916
27.18000 373.576
27.19000 375.917
27.20000 373.392
27.21000 369.224
27.22000 365.733
27.23000 368.003
27.24000 371.586
27.25000 374.667
27.26000 377.766
27.27000 380.391
27.28000 382.950
27.29000 385.275
27.30000 387.580
27.31000 390.021
27.32000 392.792
27.33000 395.577
27.34000 397.322
27.35000 389.237
27.36000 383.293
27.37000 379.569
27.38000 378.281
27.39000 376.995
27.40000 375.756
27.41000 374.551
27.42000 373.370
27.43000 373.313
27.44000 373.784
27.45000 374.090
27.46000 371.960
27.47000 369.021
27.48000 366.517
27.49000 367.626
27.50000 369.545
27.51000 371.190
27.52000 372.865
27.53000 374.283
27.54000 375.378
27.55000 375.344
27.56000 375.213
27.57000 375.592
27.58000 377.183
27.59000 378.826
27.60000 379.847
27.61000 385.696
27.62000 389.956
27.63000 389.435
27.64000 383.766
27.65000 378.125
27.66000 376.567
27.67000 377.883
27.68000 379.171
27.69000 376.057
27.70000 371.047
27.71000 366.511
27.72000 368.759
27.73000 373.222
27.74000 377.056
27.75000 375.777
27.76000 373.376
27.77000 371.324
27.78000 368.919
27.79000 366.850
27.80000 366.482
27.81000 371.942
27.82000 377.890
27.83000 382.145
27.84000 382.441
27.85000 382.573
27.86000 382.654
27.87000 378.756
27.88000 375.919
27.89000 372.926
27.90000 369.768
27.91000 366.660
27.92000 369.645
27.93000 376.844
27.94000 383.885
27.95000 381.410
27.96000 374.755
27.97000 368.700
27.98000 370.987
27.99000 375.951
28.00000 379.536
28.01000 372.148
28.02000 362.394
28.03000 354.087
28.04000 354.319
28.05000 355.509
28.06000 357.022
28.07000 359.626
28.08000 362.318
28.09000 366.976
28.10000 376.154
28.11000 385.511
28.12000 391.248
28.13000 375.825
28.14000 364.596
28.15000 357.112
28.16000 353.503
28.17000 349.947
28.18000 352.270
28.19000 358.585
28.20000 364.754
28.21000 363.753
28.22000 359.626
28.23000 355.922
28.24000 357.929
28.25000 361.735
28.26000 364.679
28.27000 360.916
28.28000 355.734
28.29000 351.335
28.30000 356.719
28.31000 362.349
28.32000 366.642
28.33000 366.510
28.34000 366.026
28.35000 365.087
28.36000 363.119
28.37000 361.112
28.38000 359.890
28.39000 356.198
28.40000 353.541
28.41000 351.470
28.42000 349.994
28.43000 348.544
28.44000 349.726
28.45000 352.665
28.46000 355.533
28.47000 355.221
28.48000 353.545
28.49000 352.084
28.50000 353.440
28.51000 355.668
28.52000 357.759
28.53000 358.800
28.54000 359.623
28.55000 360.320
28.56000 356.543
28.57000 352.885
28.58000 350.724
28.59000 353.433
28.60000 356.518
28.61000 358.520
28.62000 358.116
28.63000 357.624
28.64000 357.327
28.65000 360.222
28.66000 362.307
28.67000 360.568
28.68000 355.026
28.69000 349.564
28.70000 351.590
28.71000 358.521
28.72000 365.276
28.73000 364.912
28.74000 361.537
28.75000 358.257
28.76000 356.198
28.77000 354.511
28.78000 352.426
28.79000 347.382
28.80000 341.733
28.81000 336.970
28.82000 349.006
28.83000 360.880
28.84000 368.456
28.85000 362.292
28.86000 355.100
28.87000 350.917
28.88000 353.308
28.89000 355.930
28.90000 357.503
28.91000 354.662
28.92000 352.615
28.93000 355.020
28.94000 361.765
28.95000 368.445
28.96000 369.545
28.97000 367.052
28.98000 364.626
28.99000 362.537
29.00000 360.687
29.01000 359.155
29.02000 361.585
29.03000 365.199
29.04000 367.829
29.05000 363.290
29.06000 357.316
29.07000 352.296
29.08000 356.055
29.09000 360.117
29.10000 362.867
29.11000 361.496
29.12000 359.825
29.13000 358.650
29.14000 358.539
29.15000 358.465
29.16000 358.420
29.17000 344.652
29.18000 334.818
29.19000 337.846
29.20000 353.163
29.21000 368.283
29.22000 367.570
29.23000 356.848
29.24000 346.421
29.25000 346.039
29.26000 349.790
29.27000 353.077
29.28000 350.752
29.29000 346.777
29.30000 342.906
29.31000 339.772
29.32000 336.782
29.33000 334.278
29.34000 342.225
29.35000 349.911
29.36000 356.134
29.37000 357.837
29.38000 359.221
29.39000 359.695
29.40000 358.248
29.41000 356.740
29.42000 355.850
29.43000 356.001
29.44000 356.114
29.45000 358.096
29.46000 361.828
29.47000 365.495
29.48000 364.276
29.49000 360.021
29.50000 355.889
29.51000 356.568
29.52000 359.146
29.53000 361.510
29.54000 361.338
29.55000 360.433
29.56000 358.947
29.57000 353.402
29.58000 347.076
29.59000 341.796
29.60000 347.344
29.61000 353.038
29.62000 357.857
29.63000 360.022
29.64000 362.005
29.65000 363.637
29.66000 364.539
29.67000 365.418
29.68000 365.933
29.69000 358.007
29.70000 352.385
29.71000 354.598
29.72000 364.005
29.73000 373.295
29.74000 374.458
29.75000 370.662
29.76000 366.980
29.77000 365.966
29.78000 366.059
29.79000 366.274
29.80000 367.893
29.81000 369.910
29.82000 372.639
29.83000 380.227
29.84000 388.731
29.85000 395.806
29.86000 396.994
29.87000 397.400
29.88000 398.554
29.89000 401.938
29.90000 405.471
29.91000 406.247
29.92000 401.398
29.93000 396.385
29.94000 393.470
29.95000 402.593
29.96000 409.050
29.97000 410.347
29.98000 406.994
29.99000 403.693
30.00000 403.706
30.01000 405.708
30.02000 407.647
30.03000 411.387
30.04000 415.624
30.05000 418.725
30.06000 409.128
30.07000 395.990
30.08000 384.668
30.09000 385.488
30.10000 388.555
30.11000 391.098
30.12000 394.424
30.13000 397.245
30.14000 398.890
30.15000 397.082
30.16000 395.050
30.17000 392.606
30.18000 389.333
30.19000 386.037
30.20000 384.136
30.21000 374.746
30.22000 368.146
30.23000 366.102
30.24000 368.083
30.25000 370.049
30.26000 371.082
30.27000 371.565
30.28000 372.033
30.29000 371.066
30.30000 369.608
30.31000 367.637
30.32000 360.089
30.33000 351.014
30.34000 344.019
30.35000 350.652
30.36000 359.759
30.37000 367.281
30.38000 361.821
30.39000 356.110
30.40000 353.145
30.41000 358.093
30.42000 363.538
30.43000 367.234
30.44000 367.487
30.45000 367.647
30.46000 367.739
30.47000 366.365
30.48000 365.400
30.49000 364.503
30.50000 363.665
30.51000 362.889
30.52000 365.648
30.53000 370.454
30.54000 375.098
30.55000 378.703
30.56000 381.715
30.57000 384.008
30.58000 378.669
30.59000 371.276
30.60000 365.001
30.61000 365.898
30.62000 368.070
30.63000 369.859
30.64000 373.614
30.65000 376.880
30.66000 377.584
30.67000 371.031
30.68000 364.038
30.69000 360.243
30.70000 362.645
30.71000 365.205
30.72000 366.658
30.73000 369.858
30.74000 372.089
30.75000 373.519
30.76000 374.265
30.77000 375.088
30.78000 379.957
30.79000 387.128
30.80000 394.048
30.81000 395.130
30.82000 394.013
30.83000 392.864
30.84000 391.378
30.85000 389.804
30.86000 389.176
30.87000 394.496
30.88000 400.855
30.89000 406.068
30.90000 410.049
30.91000 413.206
30.92000 420.886
30.93000 441.158
30.94000 462.171
30.95000 477.657
30.96000 482.621
30.97000 487.331
30.98000 489.982
30.99000 504.418
31.00000 514.491
31.01000 534.888
31.02000 563.896
31.03000 592.852
31.04000 619.205
31.05000 644.103
31.06000 668.092
31.07000 693.249
31.08000 717.303
31.09000 743.020
31.10000 785.529
31.11000 832.396
31.12000 878.398
31.13000 919.066
31.14000 958.821
31.15000 991.298
31.16000 1038.035
31.17000 1077.522
31.18000 1124.557
31.19000 1192.247
31.20000 1261.114
31.21000 1323.790
31.22000 1374.884
31.23000 1425.713
31.24000 1454.077
31.25000 1514.178
31.26000 1555.838
31.27000 1594.061
31.28000 1629.471
31.29000 1664.613
31.30000 1686.997
31.31000 1702.371
31.32000 1717.162
31.33000 1734.937
31.34000 1752.656
31.35000 1768.177
31.36000 1762.032
31.37000 1750.362
31.38000 1740.588
31.39000 1742.249
31.40000 1745.827
31.41000 1748.739
31.42000 1674.725
31.43000 1607.814
31.44000 1543.782
31.45000 1487.496
31.46000 1431.637
31.47000 1378.968
31.48000 1332.166
31.49000 1285.491
31.50000 1259.666
31.51000 1170.829
31.52000 1109.423
31.53000 1053.464
31.54000 1001.880
31.55000 950.346
31.56000 901.036
31.57000 852.928
31.58000 806.709
31.59000 763.628
31.60000 724.384
31.61000 686.371
31.62000 660.188
31.63000 636.968
31.64000 614.207
31.65000 594.169
31.66000 574.577
31.67000 558.693
31.68000 528.744
31.69000 503.189
31.70000 482.079
31.71000 472.718
31.72000 463.984
31.73000 453.018
31.74000 438.020
31.75000 422.940
31.76000 414.668
31.77000 405.070
31.78000 398.483
31.79000 397.050
31.80000 399.680
31.81000 402.186
31.82000 399.383
31.83000 393.761
31.84000 388.368
31.85000 385.814
31.86000 384.389
31.87000 382.753
31.88000 379.135
31.89000 375.031
31.90000 371.245
31.91000 369.308
31.92000 367.670
31.93000 366.346
31.94000 359.902
31.95000 354.256
31.96000 349.393
31.97000 346.564
31.98000 343.841
31.99000 341.211
32.00000 338.750
32.01000 336.293
32.02000 334.957
32.03000 336.106
32.04000 336.907
32.05000 340.128
32.06000 345.223
32.07000 350.129
32.08000 347.416
32.09000 340.729
32.10000 334.323
32.11000 338.401
32.12000 345.691
32.13000 352.224
32.14000 351.824
32.15000 349.749
32.16000 347.119
32.17000 341.327
32.18000 335.036
32.19000 329.976
32.20000 337.445
32.21000 344.474
32.22000 347.960
32.23000 342.393
32.24000 336.374
32.25000 332.957
32.26000 334.079
32.27000 335.283
32.28000 335.932
32.29000 327.285
32.30000 321.375
32.31000 318.196
32.32000 317.091
32.33000 316.027
32.34000 316.530
32.35000 317.836
32.36000 319.085
32.37000 323.736
32.38000 329.178
32.39000 333.535
32.40000 328.187
32.41000 320.538
32.42000 314.962
32.43000 320.932
32.44000 328.687
32.45000 334.900
32.46000 337.082
32.47000 338.543
32.48000 338.645
32.49000 335.335
32.50000 331.862
32.51000 330.495
32.52000 332.742
32.53000 335.050
32.54000 336.283
32.55000 320.219
32.56000 309.303
32.57000 307.301
32.58000 311.947
32.59000 316.525
32.60000 318.607
32.61000 319.430
32.62000 320.216
32.63000 317.187
32.64000 313.151
32.65000 309.946
32.66000 314.002
32.67000 319.750
32.68000 323.713
32.69000 317.925
32.70000 310.662
32.71000 304.866
32.72000 306.022
32.73000 307.465
32.74000 311.482
32.75000 321.853
32.76000 332.519
32.77000 338.462
32.78000 336.447
32.79000 334.304
32.80000 333.170
32.81000 323.799
32.82000 317.453
32.83000 315.530
32.84000 316.846
32.85000 318.294
32.86000 324.321
32.87000 332.616
32.88000 340.525
32.89000 335.079
32.90000 325.833
32.91000 317.678
32.92000 318.845
32.93000 322.143
32.94000 324.157
32.95000 319.285
32.96000 313.393
32.97000 308.710
32.98000 311.124
32.99000 313.574
33.00000 313.867
33.01000 308.925
33.02000 303.748
33.03000 301.104
33.04000 302.654
33.05000 304.266
33.06000 305.111
33.07000 299.932
33.08000 296.454
33.09000 297.908
33.10000 302.908
33.11000 307.789
33.12000 308.690
33.13000 307.654
33.14000 306.668
33.15000 307.971
33.16000 309.883
33.17000 310.672
33.18000 302.079
33.19000 291.381
33.20000 283.702
33.21000 291.890
33.22000 302.381
33.23000 310.686
33.24000 311.098
33.25000 310.883
33.26000 309.715
33.27000 306.278
33.28000 302.742
33.29000 297.569
33.30000 289.733
33.31000 281.859
33.32000 277.770
33.33000 290.831
33.34000 299.603
33.35000 301.405
33.36000 298.288
33.37000 295.246
33.38000 294.625
33.39000 295.163
33.40000 295.674
33.41000 294.737
33.42000 293.434
33.43000 291.979
33.44000 289.289
33.45000 286.326
33.46000 284.227
33.47000 286.581
33.48000 289.567
33.49000 291.921
33.50000 294.558
33.51000 296.691
33.52000 297.439
33.53000 294.936
33.54000 292.298
33.55000 292.622
33.56000 297.682
33.57000 302.803
33.58000 305.436
33.59000 301.746
33.60000 299.253
33.61000 295.648
33.62000 291.273
33.63000 287.120
33.64000 289.766
33.65000 295.610
33.66000 301.154
33.67000 299.849
33.68000 296.615
33.69000 294.163
33.70000 297.948
33.71000 303.081
33.72000 306.379
33.73000 300.401
33.74000 293.133
33.75000 287.426
33.76000 294.557
33.77000 301.101
33.78000 305.994
33.79000 307.083
33.80000 308.020
33.81000 307.653
33.82000 305.238
33.83000 302.799
33.84000 301.557
33.85000 301.940
33.86000 302.228
33.87000 306.103
33.88000 312.421
33.89000 318.545
33.90000 318.992
33.91000 316.814
33.92000 314.751
33.93000 312.754
33.94000 310.934
33.95000 308.980
33.96000 305.972
33.97000 302.739
33.98000 300.759
33.99000 304.990
34.00000 310.066
34.01000 314.034
34.02000 316.169
34.03000 317.757
34.04000 320.467
34.05000 325.721
34.06000 331.073
34.07000 332.559
34.08000 328.082
34.09000 323.539
34.10000 321.248
34.11000 319.808
34.12000 318.875
34.13000 321.023
34.14000 325.232
34.15000 329.436
34.16000 333.514
34.17000 337.533
34.18000 341.333
34.19000 340.965
34.20000 339.437
34.21000 337.082
34.22000 328.416
34.23000 318.435
34.24000 311.714
34.25000 320.860
34.26000 332.118
34.27000 340.882
34.28000 331.784
34.29000 323.439
34.30000 318.357
34.31000 320.544
34.32000 323.000
34.33000 325.112
34.34000 326.705
34.35000 328.293
34.36000 330.292
34.37000 332.701
34.38000 335.136
34.39000 339.907
34.40000 346.213
34.41000 352.159
34.42000 348.453
34.43000 340.433
34.44000 332.865
34.45000 335.579
34.46000 340.943
34.47000 345.324
34.48000 342.363
34.49000 337.902
34.50000 334.057
34.51000 333.158
34.52000 332.642
34.53000 332.243
34.54000 330.689
34.55000 329.386
34.56000 329.365
34.57000 332.152
34.58000 335.039
34.59000 334.486
34.60000 328.814
34.61000 323.094
34.62000 318.293
34.63000 314.390
34.64000 310.533
34.65000 310.672
34.66000 313.391
34.67000 316.100
34.68000 318.569
34.69000 320.933
34.70000 323.160
34.71000 318.193
34.72000 311.675
34.73000 305.745
34.74000 304.119
34.75000 303.356
34.76000 302.131
34.77000 298.742
34.78000 295.077
34.79000 292.248
34.80000 294.519
34.81000 296.613
34.82000 296.023
34.83000 289.652
34.84000 283.085
34.85000 281.199
34.86000 286.156
34.87000 291.172
34.88000 296.937
34.89000 303.419
34.90000 309.741
34.91000 303.028
34.92000 288.053
34.93000 273.569
34.94000 271.246
34.95000 274.173
34.96000 276.925
34.97000 278.042
34.98000 278.621
34.99000 278.604
35.00000 274.319
35.01000 269.194
35.02000 264.066
35.03000 258.924
35.04000 253.780
35.05000 249.829
35.06000 263.776
35.07000 275.811
35.08000 280.719
35.09000 270.549
35.10000 259.891
35.11000 255.177
35.12000 258.997
35.13000 262.882
35.14000 265.537
35.15000 267.035
35.16000 268.504
35.17000 267.796
35.18000 265.733
35.19000 263.829
35.20000 265.716
35.21000 269.213
35.22000 272.495
35.23000 275.510
35.24000 278.187
35.25000 279.778
35.26000 273.770
35.27000 266.295
35.28000 261.179
35.29000 266.719
35.30000 273.557
35.31000 278.787
35.32000 273.553
35.33000 268.854
35.34000 267.255
35.35000 272.104
35.36000 277.152
35.37000 280.423
35.38000 281.187
35.39000 281.934
35.40000 281.177
35.41000 279.037
35.42000 276.878
35.43000 273.380
35.44000 269.064
35.45000 264.948
35.46000 265.431
35.47000 267.831
35.48000 270.080
35.49000 268.092
35.50000 265.187
35.51000 262.676
35.52000 262.869
35.53000 263.572
35.54000 263.824
35.55000 262.072
35.56000 260.081
35.57000 258.565
35.58000 261.666
35.59000 264.350
35.60000 265.958
35.61000 265.366
35.62000 264.708
35.63000 265.233
35.64000 267.395
35.65000 269.567
35.66000 271.535
35.67000 273.317
35.68000 275.018
35.69000 271.379
35.70000 264.531
35.71000 258.023
35.72000 259.047
35.73000 263.161
35.74000 267.006
35.75000 267.302
35.76000 266.670
35.77000 265.627
35.78000 261.820
35.79000 257.499
35.80000 254.889
35.81000 259.723
35.82000 265.423
35.83000 269.743
35.84000 268.737
35.85000 267.676
35.86000 264.928
35.87000 258.787
35.88000 252.550
35.89000 249.428
35.90000 250.539
35.91000 251.672
35.92000 253.919
35.93000 257.147
35.94000 260.310
35.95000 259.533
35.96000 256.428
35.97000 253.352
35.98000 250.908
35.99000 248.719
36.00000 246.677
36.01000 247.357
36.02000 248.650
36.03000 250.861
36.04000 259.092
36.05000 268.421
36.06000 274.796
36.07000 268.549
36.08000 260.868
36.09000 255.074
36.10000 259.898
36.11000 264.202
36.12000 266.126
36.13000 263.350
36.14000 260.447
36.15000 255.993
36.16000 249.467
36.17000 242.936
36.18000 241.962
36.19000 245.810
36.20000 249.648
36.21000 252.853
36.22000 255.690
36.23000 258.430
36.24000 259.164
36.25000 259.104
36.26000 259.048
36.27000 257.005
36.28000 254.672
36.29000 252.799
36.30000 253.880
36.31000 255.489
36.32000 256.830
36.33000 257.048
36.34000 257.141
36.35000 257.211
36.36000 259.703
36.37000 261.766
36.38000 261.578
36.39000 257.021
36.40000 252.352
36.41000 250.452
36.42000 252.178
36.43000 253.918
36.44000 254.635
36.45000 254.478
36.46000 254.315
36.47000 253.798
36.48000 253.078
36.49000 252.201
36.50000 248.181
36.51000 242.937
36.52000 238.064
36.53000 243.631
36.54000 251.151
36.55000 257.870
36.56000 259.545
36.57000 260.336
36.58000 260.077
36.59000 255.489
36.60000 250.432
36.61000 246.653
36.62000 250.599
36.63000 254.031
36.64000 256.548
36.65000 257.316
36.66000 258.041
36.67000 258.253
36.68000 257.803
36.69000 257.351
36.70000 256.937
36.71000 256.556
36.72000 256.265
36.73000 260.547
36.74000 267.393
36.75000 273.610
36.76000 267.772
36.77000 257.315
36.78000 247.617
36.79000 249.830
36.80000 254.615
36.81000 259.770
36.82000 267.216
36.83000 275.055
36.84000 281.892
36.85000 284.671
36.86000 287.020
36.87000 288.767
36.88000 287.974
36.89000 287.244
36.90000 287.353
36.91000 289.035
36.92000 290.754
36.93000 291.293
36.94000 290.342
36.95000 289.389
36.96000 290.989
36.97000 294.673
36.98000 298.264
36.99000 297.358
37.00000 293.976
37.01000 290.674
37.02000 288.856
37.03000 287.595
37.04000 286.429
37.05000 295.701
37.06000 306.433
37.07000 314.185
37.08000 303.898
37.09000 290.578
37.10000 280.346
37.11000 282.388
37.12000 285.699
37.13000 288.148
37.14000 288.644
37.15000 288.944
37.16000 284.519
37.17000 271.382
37.18000 258.055
37.19000 254.403
37.20000 262.736
37.21000 271.089
37.22000 274.756
37.23000 274.647
37.24000 274.522
37.25000 273.641
37.26000 272.351
37.27000 270.977
37.28000 268.098
37.29000 264.660
37.30000 261.486
37.31000 258.113
37.32000 255.043
37.33000 253.006
37.34000 257.102
37.35000 262.207
37.36000 265.358
37.37000 260.879
37.38000 255.631
37.39000 251.767
37.40000 256.450
37.41000 260.430
37.42000 262.567
37.43000 261.365
37.44000 260.093
37.45000 262.413
37.46000 269.097
37.47000 275.779
37.48000 273.611
37.49000 264.491
37.50000 255.539
37.51000 253.818
37.52000 255.944
37.53000 257.944
37.54000 257.763
37.55000 256.788
37.56000 255.890
37.57000 264.664
37.58000 274.651
37.59000 282.389
37.60000 277.046
37.61000 269.590
37.62000 262.350
37.63000 255.936
37.64000 249.602
37.65000 244.962
37.66000 245.523
37.67000 246.164
37.68000 247.656
37.69000 250.664
37.70000 253.702
37.71000 253.809
37.72000 250.421
37.73000 247.035
37.74000 249.716
37.75000 257.065
37.76000 264.179
37.77000 261.722
37.78000 254.259
37.79000 247.268
37.80000 248.207
37.81000 251.980
37.82000 255.451
37.83000 256.601
37.84000 257.126
37.85000 257.294
37.86000 255.419
37.87000 253.221
37.88000 251.753
37.89000 253.035
37.90000 254.582
37.91000 255.709
37.92000 258.978
37.93000 261.580
37.94000 263.708
37.95000 265.008
37.96000 266.293
37.97000 266.829
37.98000 266.490
37.99000 266.150
38.00000 266.461
38.01000 267.262
38.02000 267.952
38.03000 264.298
38.04000 258.411
38.05000 252.979
38.06000 254.948
38.07000 259.518
38.08000 263.710
38.09000 266.259
38.10000 268.182
38.11000 270.512
38.12000 275.116
38.13000 280.072
38.14000 283.195
38.15000 279.534
38.16000 275.239
38.17000 272.124
38.18000 274.527
38.19000 276.579
38.20000 280.500
38.21000 287.631
38.22000 294.818
38.23000 297.812
38.24000 295.993
38.25000 294.173
38.26000 297.678
38.27000 305.112
38.28000 312.586
38.29000 321.563
38.30000 331.299
38.31000 341.153
38.32000 352.869
38.33000 365.229
38.34000 376.543
38.35000 390.119
38.36000 402.666
38.37000 416.792
38.38000 439.573
38.39000 463.667
38.40000 487.231
38.41000 508.864
38.42000 530.322
38.43000 545.803
38.44000 575.101
38.45000 598.055
38.46000 624.318
38.47000 656.174
38.48000 688.120
38.49000 716.836
38.50000 741.916
38.51000 766.909
38.52000 796.862
38.53000 830.184
38.54000 863.555
38.55000 898.692
38.56000 934.704
38.57000 970.152
38.58000 996.947
38.59000 1020.805
38.60000 1042.594
38.61000 1070.791
38.62000 1097.128
38.63000 1119.979
38.64000 1124.097
38.65000 1125.430
38.66000 1132.007
38.67000 1157.306
38.68000 1184.269
38.69000 1203.620
38.70000 1184.444
38.71000 1168.455
38.72000 1159.478
38.73000 1162.142
38.74000 1164.982
38.75000 1149.803
38.76000 1114.724
38.77000 1079.764
38.78000 1043.786
38.79000 1007.405
38.80000 971.134
38.81000 938.556
38.82000 907.781
38.83000 877.683
38.84000 857.663
38.85000 841.006
38.86000 825.828
38.87000 782.060
38.88000 737.584
38.89000 695.259
38.90000 664.265
38.91000 634.920
38.92000 604.313
38.93000 569.281
38.94000 533.866
38.95000 508.582
38.96000 487.208
38.97000 471.032
38.98000 452.200
38.99000 429.036
39.00000 405.811
39.01000 387.185
39.02000 373.540
39.03000 359.954
39.04000 343.217
39.05000 324.440
39.06000 305.963
39.07000 297.122
39.08000 292.904
39.09000 288.723
39.10000 285.077
39.11000 281.608
39.12000 278.454
39.13000 272.376
39.14000 266.430
39.15000 261.320
39.16000 260.523
39.17000 260.341
39.18000 259.388
39.19000 255.781
39.20000 251.950
39.21000 249.230
39.22000 245.821
39.23000 243.205
39.24000 243.269
39.25000 247.626
39.26000 252.040
39.27000 252.196
39.28000 247.830
39.29000 243.483
39.30000 241.653
39.31000 241.575
39.32000 241.434
39.33000 239.397
39.34000 236.465
39.35000 233.876
39.36000 236.084
39.37000 239.839
39.38000 243.244
39.39000 246.842
39.40000 250.054
39.41000 252.333
39.42000 249.889
39.43000 246.787
39.44000 243.833
39.45000 241.385
39.46000 238.979
39.47000 237.279
39.48000 231.374
39.49000 226.763
39.50000 224.292
39.51000 225.189
39.52000 226.127
39.53000 229.595
39.54000 235.696
39.55000 241.765
39.56000 242.376
39.57000 239.298
39.58000 236.177
39.59000 231.800
39.60000 226.842
39.61000 222.500
39.62000 226.559
39.63000 233.281
39.64000 239.361
39.65000 238.166
39.66000 235.751
39.67000 233.829
39.68000 234.365
39.69000 235.236
39.70000 235.750
39.71000 235.077
39.72000 234.309
39.73000 233.769
39.74000 229.802
39.75000 226.697
39.76000 225.117
39.77000 225.893
39.78000 226.696
39.79000 227.478
39.80000 228.240
39.81000 228.997
39.82000 228.809
39.83000 227.996
39.84000 227.231
39.85000 227.784
39.86000 228.937
39.87000 230.353
39.88000 235.236
39.89000 241.198
39.90000 246.579
39.91000 241.988
39.92000 236.125
39.93000 230.786
39.94000 228.003
39.95000 225.561
39.96000 224.009
39.97000 225.367
39.98000 226.950
39.99000 228.056
40.00000 227.067
40.01000 226.261
40.02000 225.898
40.03000 226.208
40.04000 226.525
40.05000 227.226
40.06000 228.312
40.07000 229.391
40.08000 230.800
40.09000 232.405
40.10000 233.883
40.11000 231.948
40.12000 228.485
40.13000 225.389
40.14000 227.032
40.15000 230.125
40.16000 232.909
40.17000 228.865
40.18000 224.092
40.19000 219.880
40.20000 218.349
40.21000 217.169
40.22000 217.581
40.23000 223.113
40.24000 229.032
40.25000 233.142
40.26000 227.478
40.27000 222.949
40.28000 221.134
40.29000 223.367
40.30000 225.639
40.31000 226.653
40.32000 226.433
40.33000 226.214
40.34000 226.899
40.35000 228.149
40.36000 229.337
40.37000 228.890
40.38000 227.724
40.39000 226.686
40.40000 227.247
40.41000 228.288
40.42000 229.223
40.43000 225.547
40.44000 221.520
40.45000 217.958
40.46000 216.581
40.47000 215.483
40.48000 214.978
40.49000 216.342
40.50000 217.843
40.51000 218.879
40.52000 221.055
40.53000 222.720
40.54000 221.882
40.55000 217.377
40.56000 212.840
40.57000 209.275
40.58000 206.646
40.59000 204.035
40.60000 209.405
40.61000 219.673
40.62000 229.370
40.63000 224.812
40.64000 214.084
40.65000 204.414
40.66000 207.640
40.67000 214.676
40.68000 220.978
40.69000 218.584
40.70000 214.997
40.71000 212.469
40.72000 214.825
40.73000 217.792
40.74000 219.960
40.75000 219.653
40.76000 219.169
40.77000 218.836
40.78000 219.473
40.79000 219.974
40.80000 218.449
40.81000 214.008
40.82000 209.545
40.83000 212.153
40.84000 221.422
40.85000 230.617
40.86000 227.953
40.87000 218.064
40.88000 208.376
40.89000 203.500
40.90000 200.672
40.91000 198.482
40.92000 203.870
40.93000 211.456
40.94000 218.234
40.95000 221.803
40.96000 224.372
40.97000 225.468
40.98000 219.897
40.99000 213.511
41.00000 209.803
41.01000 214.259
41.02000 219.281
41.03000 222.709
41.04000 218.279
41.05000 214.783
41.06000 211.513
41.07000 208.561
41.08000 205.613
41.09000 206.091
41.10000 209.735
41.11000 213.348
41.12000 219.459
41.13000 226.959
41.14000 233.917
41.15000 228.356
41.16000 217.557
41.17000 207.107
41.18000 200.673
41.19000 195.384
41.20000 190.672
41.21000 199.709
41.22000 209.834
41.23000 217.610
41.24000 214.941
41.25000 211.023
41.26000 208.031
41.27000 207.809
41.28000 207.774
41.29000 207.751
41.30000 214.215
41.31000 219.182
41.32000 220.918
41.33000 218.172
41.34000 215.398
41.35000 215.024
41.36000 216.825
41.37000 218.608
41.38000 216.393
41.39000 211.861
41.40000 207.398
41.41000 204.479
41.42000 202.194
41.43000 200.126
41.44000 200.500
41.45000 201.557
41.46000 202.496
41.47000 204.377
41.48000 206.160
41.49000 207.416
41.50000 206.373
41.51000 205.061
41.52000 203.827
41.53000 202.825
41.54000 201.838
41.55000 201.172
41.56000 206.903
41.57000 211.303
41.58000 213.964
41.59000 214.256
41.60000 214.532
41.61000 213.020
41.62000 209.919
41.63000 206.849
41.64000 209.397
41.65000 215.144
41.66000 220.481
41.67000 217.032
41.68000 210.031
41.69000 203.448
41.70000 201.455
41.71000 200.725
41.72000 200.078
41.73000 202.422
41.74000 204.923
41.75000 206.938
41.76000 206.870
41.77000 206.565
41.78000 206.579
41.79000 207.519
41.80000 208.517
41.81000 209.187
41.82000 207.934
41.83000 206.966
41.84000 205.550
41.85000 203.536
41.86000 201.524
41.87000 204.533
41.88000 211.918
41.89000 219.223
41.90000 218.546
41.91000 213.344
41.92000 208.372
41.93000 208.141
41.94000 209.793
41.95000 211.469
41.96000 213.401
41.97000 215.401
41.98000 217.169
41.99000 214.422
42.00000 211.352
42.01000 209.164
42.02000 210.690
42.03000 212.630
42.04000 213.924
42.05000 213.378
42.06000 212.719
42.07000 212.279
42.08000 208.631
42.09000 205.869
42.10000 203.665
42.11000 202.194
42.12000 200.727
42.13000 199.643
42.14000 198.886
42.15000 198.137
42.16000 195.238
42.17000 191.209
42.18000 187.608
42.19000 192.546
42.20000 200.821
42.21000 208.584
42.22000 211.013
42.23000 212.026
42.24000 212.918
42.25000 210.942
42.26000 208.805
42.27000 207.605
42.28000 210.277
42.29000 213.370
42.30000 216.976
42.31000 222.021
42.32000 227.151
42.33000 230.548
42.34000 216.277
42.35000 205.420
42.36000 200.772
42.37000 204.126
42.38000 207.505
42.39000 207.182
42.40000 203.751
42.41000 200.364
42.42000 199.898
42.43000 201.045
42.44000 202.095
42.45000 201.294
42.46000 199.781
42.47000 198.696
42.48000 201.953
42.49000 206.344
42.50000 210.203
42.51000 209.864
42.52000 208.952
42.53000 207.717
42.54000 205.174
42.55000 202.493
42.56000 200.247
42.57000 199.199
42.58000 198.219
42.59000 197.574
42.60000 205.644
42.61000 211.736
42.62000 213.688
42.63000 210.399
42.64000 207.093
42.65000 204.257
42.66000 201.808
42.67000 199.390
42.68000 199.411
42.69000 200.742
42.70000 201.956
42.71000 200.997
42.72000 199.216
42.73000 197.914
42.74000 201.360
42.75000 206.022
42.76000 210.109
42.77000 201.192
42.78000 191.658
42.79000 185.880
42.80000 195.074
42.81000 205.821
42.82000 212.190
42.83000 206.730
42.84000 200.609
42.85000 196.608
42.86000 198.024
42.87000 199.152
42.88000 198.506
42.89000 195.655
42.90000 192.804
42.91000 192.008
42.92000 192.873
42.93000 193.725
42.94000 194.833
42.95000 196.046
42.96000 197.300
42.97000 199.316
42.98000 201.613
42.99000 203.471
43.00000 201.071
43.01000 197.598
43.02000 194.562
43.03000 198.673
43.04000 203.204
43.05000 206.346
43.06000 204.055
43.07000 201.214
43.08000 199.693
43.09000 201.680
43.10000 203.855
43.11000 205.269
43.12000 197.219
43.13000 191.177
43.14000 191.677
43.15000 200.152
43.16000 208.628
43.17000 211.875
43.18000 210.975
43.19000 210.089
43.20000 207.462
43.21000 204.012
43.22000 200.723
43.23000 200.256
43.24000 200.818
43.25000 201.324
43.26000 201.305
43.27000 201.155
43.28000 201.025
43.29000 199.979
43.30000 198.959
43.31000 198.152
43.32000 198.167
43.33000 198.262
43.34000 198.379
43.35000 198.553
43.36000 198.728
43.37000 198.842
43.38000 194.174
43.39000 190.694
43.40000 190.495
43.41000 194.219
43.42000 197.941
43.43000 199.423
43.44000 199.163
43.45000 198.906
43.46000 199.786
43.47000 201.217
43.48000 202.362
43.49000 198.662
43.50000 193.225
43.51000 188.479
43.52000 190.104
43.53000 193.274
43.54000 196.029
43.55000 197.836
43.56000 199.248
43.57000 200.379
43.58000 200.448
43.59000 200.415
43.60000 199.446
43.61000 196.075
43.62000 192.582
43.63000 190.344
43.64000 190.041
43.65000 189.846
43.66000 191.120
43.67000 194.118
43.68000 197.104
43.69000 196.931
43.70000 194.346
43.71000 191.804
43.72000 188.807
43.73000 185.681
43.74000 182.673
43.75000 181.603
43.76000 181.214
43.77000 181.066
43.78000 183.075
43.79000 185.598
43.80000 187.784
43.81000 185.370
43.82000 182.709
43.83000 180.623
43.84000 180.672
43.85000 180.922
43.86000 182.169
43.87000 185.933
43.88000 189.821
43.89000 192.296
43.90000 194.863
43.91000 196.730
43.92000 199.119
43.93000 202.108
43.94000 205.081
43.95000 204.718
43.96000 201.853
43.97000 199.039
43.98000 194.911
43.99000 190.280
44.00000 185.922
44.01000 185.882
44.02000 187.337
44.03000 189.019
44.04000 192.691
44.05000 196.830
44.06000 200.404
44.07000 202.475
44.08000 204.039
44.09000 204.392
44.10000 200.330
44.11000 195.864
44.12000 193.131
44.13000 194.698
44.14000 196.467
44.15000 197.586
44.16000 191.910
44.17000 187.715
44.18000 185.107
44.19000 184.292
44.20000 183.495
44.21000 185.763
44.22000 190.287
44.23000 194.727
44.24000 198.130
44.25000 200.914
44.26000 203.475
44.27000 202.594
44.28000 200.542
44.29000 198.519
44.30000 196.754
44.31000 195.047
44.32000 193.577
44.33000 196.586
44.34000 199.701
44.35000 202.551
44.36000 204.451
44.37000 206.266
44.38000 208.676
44.39000 212.536
44.40000 216.462
44.41000 218.928
44.42000 213.172
44.43000 208.920
44.44000 206.711
44.45000 206.766
44.46000 206.835
44.47000 208.916
44.48000 212.452
44.49000 215.919
44.50000 218.090
44.51000 219.568
44.52000 220.748
44.53000 217.460
44.54000 212.676
44.55000 208.896
44.56000 213.549
44.57000 220.105
44.58000 225.732
44.59000 223.032
44.60000 219.723
44.61000 217.973
44.62000 221.704
44.63000 225.912
44.64000 228.935
44.65000 229.114
44.66000 229.170
44.67000 229.204
44.68000 224.037
44.69000 220.258
44.70000 222.614
44.71000 231.634
44.72000 240.582
44.73000 238.798
44.74000 229.398
44.75000 220.190
44.76000 225.571
44.77000 237.488
44.78000 248.721
44.79000 250.026
44.80000 248.066
44.81000 246.494
44.82000 248.103
44.83000 250.418
44.84000 252.398
44.85000 258.371
44.86000 263.889
44.87000 269.863
44.88000 277.409
44.89000 285.088
44.90000 289.628
44.91000 286.768
44.92000 283.598
44.93000 281.634
44.94000 277.478
44.95000 274.468
44.96000 274.488
44.97000 277.734
44.98000 280.994
44.99000 286.093
45.00000 292.472
45.01000 298.714
45.02000 298.963
45.03000 296.481
45.04000 293.977
45.05000 291.147
45.06000 288.211
45.07000 285.466
45.08000 284.251
45.09000 283.367
45.10000 282.613
45.11000 279.656
45.12000 276.907
45.13000 274.146
45.14000 271.341
45.15000 268.532
45.16000 264.325
45.17000 256.878
45.18000 249.300
45.19000 244.639
45.20000 249.056
45.21000 252.305
45.22000 254.059
45.23000 254.254
45.24000 254.424
45.25000 251.666
45.26000 246.904
45.27000 242.249
45.28000 241.526
45.29000 242.583
45.30000 243.141
45.31000 236.856
45.32000 228.398
45.33000 221.021
45.34000 222.140
45.35000 225.071
45.36000 227.564
45.37000 230.181
45.38000 232.394
45.39000 234.747
45.40000 237.570
45.41000 240.430
45.42000 238.721
45.43000 226.609
45.44000 214.092
45.45000 206.449
45.46000 208.360
45.47000 209.805
45.48000 213.833
45.49000 220.506
45.50000 227.105
45.51000 225.843
45.52000 219.296
45.53000 212.904
45.54000 218.848
45.55000 229.926
45.56000 239.799
45.57000 233.653
45.58000 222.507
45.59000 212.853
45.60000 214.664
45.61000 218.876
45.62000 222.445
45.63000 215.827
45.64000 209.139
45.65000 203.001
45.66000 198.665
45.67000 194.469
45.68000 192.507
45.69000 195.545
45.70000 198.769
45.71000 200.723
45.72000 196.066
45.73000 192.695
45.74000 193.932
45.75000 199.792
45.76000 205.588
45.77000 205.192
45.78000 200.708
45.79000 196.335
45.80000 195.505
45.81000 196.231
45.82000 197.012
45.83000 198.492
45.84000 200.185
45.85000 200.962
45.86000 194.841
45.87000 187.302
45.88000 180.936
45.89000 179.847
45.90000 179.516
45.91000 179.183
45.92000 178.846
45.93000 178.508
45.94000 178.670
45.95000 179.934
45.96000 181.238
45.97000 182.022
45.98000 185.944
45.99000 188.755
46.00000 186.599
46.01000 179.560
46.02000 172.563
46.03000 169.406
46.04000 168.741
46.05000 168.093
46.06000 168.122
46.07000 168.436
46.08000 169.067
46.09000 173.689
46.10000 179.514
46.11000 184.684
46.12000 185.036
46.13000 184.417
46.14000 183.896
46.15000 181.892
46.16000 180.062
46.17000 177.747
46.18000 173.898
46.19000 169.936
46.20000 167.693
46.21000 169.171
46.22000 170.776
46.23000 171.734
46.24000 178.794
46.25000 183.838
46.26000 183.386
46.27000 177.637
46.28000 171.978
46.29000 173.760
46.30000 180.283
46.31000 186.630
46.32000 189.156
46.33000 189.981
46.34000 190.453
46.35000 186.604
46.36000 181.475
46.37000 176.863
46.38000 175.973
46.39000 175.820
46.40000 175.691
46.41000 173.252
46.42000 170.981
46.43000 169.659
46.44000 171.285
46.45000 173.122
46.46000 173.871
46.47000 172.302
46.48000 170.658
46.49000 169.683
46.50000 178.070
46.51000 184.053
46.52000 186.141
46.53000 184.548
46.54000 182.940
46.55000 180.139
46.56000 176.592
46.57000 173.146
46.58000 171.956
46.59000 171.740
46.60000 171.734
46.61000 174.227
46.62000 177.448
46.63000 180.480
46.64000 182.192
46.65000 183.648
46.66000 184.864
46.67000 182.132
46.68000 179.460
46.69000 177.408
46.70000 177.251
46.71000 177.226
46.72000 177.205
46.73000 177.192
46.74000 177.180
46.75000 177.172
46.76000 173.011
46.77000 170.056
46.78000 170.552
46.79000 174.243
46.80000 177.889
46.81000 178.293
46.82000 176.704
46.83000 175.161
46.84000 174.192
46.85000 173.500
46.86000 172.822
46.87000 172.303
46.88000 171.830
46.89000 171.317
46.90000 170.534
46.91000 169.699
46.92000 169.004
46.93000 173.182
46.94000 177.127
46.95000 178.736
46.96000 173.324
46.97000 167.437
46.98000 164.181
46.99000 166.328
47.00000 168.638
47.01000 169.985
47.02000 170.270
47.03000 170.467
47.04000 171.556
47.05000 173.458
47.06000 175.336
47.07000 175.643
47.08000 175.000
47.09000 174.378
47.10000 173.143
47.11000 171.735
47.12000 170.403
47.13000 169.939
47.14000 169.718
47.15000 169.191
47.16000 166.602
47.17000 163.627
47.18000 161.157
47.19000 161.525
47.20000 162.104
47.21000 163.408
47.22000 166.854
47.23000 170.441
47.24000 172.929
47.25000 173.197
47.26000 173.402
47.27000 173.521
47.28000 172.211
47.29000 171.286
47.30000 169.352
47.31000 166.521
47.32000 163.747
47.33000 164.535
47.34000 167.439
47.35000 170.250
47.36000 167.228
47.37000 162.137
47.38000 157.616
47.39000 159.376
47.40000 162.870
47.41000 165.533
47.42000 162.704
47.43000 158.871
47.44000 155.699
47.45000 157.499
47.46000 159.454
47.47000 160.321
47.48000 158.034
47.49000 155.546
47.50000 154.755
47.51000 157.332
47.52000 160.002
47.53000 161.535
47.54000 160.351
47.55000 159.517
47.56000 161.827
47.57000 166.885
47.58000 171.883
47.59000 173.417
47.60000 172.931
47.61000 172.461
47.62000 171.107
47.63000 169.497
47.64000 168.008
47.65000 167.829
47.66000 168.005
47.67000 168.082
47.68000 167.514
47.69000 166.830
47.70000 166.267
47.71000 163.182
47.72000 160.412
47.73000 159.045
47.74000 161.686
47.75000 164.573
47.76000 165.860
47.77000 164.023
47.78000 162.104
47.79000 161.012
47.80000 162.187
47.81000 163.017
47.82000 166.255
47.83000 171.559
47.84000 176.779
47.85000 177.375
47.86000 175.320
47.87000 173.336
47.88000 170.486
47.89000 167.482
47.90000 164.617
47.91000 163.199
47.92000 162.166
47.93000 161.258
47.94000 161.138
47.95000 161.156
47.96000 161.171
47.97000 160.714
47.98000 160.296
47.99000 160.553
48.00000 162.704
48.01000 164.968
48.02000 164.870
48.03000 160.239
48.04000 155.497
48.05000 152.819
48.06000 158.934
48.07000 163.204
48.08000 164.597
48.09000 163.569
48.10000 162.552
48.11000 162.055
48.12000 161.850
48.13000 161.653
48.14000 160.041
48.15000 158.013
48.16000 156.245
48.17000 157.127
48.18000 158.702
48.19000 160.335
48.20000 162.326
48.21000 164.377
48.22000 166.056
48.23000 166.478
48.24000 166.715
48.25000 165.399
48.26000 159.805
48.27000 153.964
48.28000 151.633
48.29000 155.919
48.30000 160.361
48.31000 162.848
48.32000 165.112
48.33000 166.673
48.34000 164.897
48.35000 160.367
48.36000 155.949
48.37000 157.028
48.38000 161.151
48.39000 165.120
48.40000 167.074
48.41000 168.191
48.42000 168.984
48.43000 166.544
48.44000 163.272
48.45000 160.791
48.46000 163.125
48.47000 166.273
48.48000 168.840
48.49000 164.682
48.50000 160.710
48.51000 157.498
48.52000 156.343
48.53000 155.303
48.54000 154.811
48.55000 155.333
48.56000 155.878
48.57000 156.180
48.58000 155.464
48.59000 154.971
48.60000 155.598
48.61000 157.134
48.62000 158.575
48.63000 155.608
48.64000 150.244
48.65000 145.086
48.66000 144.421
48.67000 145.364
48.68000 146.568
48.69000 150.315
48.70000 154.704
48.71000 158.696
48.72000 160.318
48.73000 161.547
48.74000 162.546
48.75000 158.928
48.76000 155.596
48.77000 152.302
48.78000 149.114
48.79000 145.932
48.80000 145.604
48.81000 150.476
48.82000 155.457
48.83000 158.200
48.84000 162.561
48.85000 165.567
48.86000 168.287
48.87000 170.780
48.88000 173.119
48.89000 168.751
48.90000 160.796
48.91000 153.159
48.92000 152.610
48.93000 154.520
48.94000 156.450
48.95000 158.575
48.96000 160.748
48.97000 162.230
48.98000 159.669
48.99000 156.451
49.00000 153.848
49.01000 152.899
49.02000 152.261
49.03000 152.732
49.04000 156.110
49.05000 159.640
49.06000 162.346
49.07000 163.574
49.08000 164.774
49.09000 165.429
49.10000 159.169
49.11000 154.871
49.12000 153.780
49.13000 155.191
49.14000 156.646
49.15000 159.976
49.16000 164.290
49.17000 168.425
49.18000 166.062
49.19000 161.677
49.20000 157.581
49.21000 156.164
49.22000 155.399
49.23000 154.549
49.24000 153.211
49.25000 151.797
49.26000 150.657
49.27000 151.595
49.28000 152.521
49.29000 151.915
49.30000 147.368
49.31000 142.621
49.32000 140.358
49.33000 142.464
49.34000 144.652
49.35000 145.836
49.36000 154.244
49.37000 159.990
49.38000 161.374
49.39000 159.418
49.40000 157.572
49.41000 160.060
49.42000 164.786
49.43000 169.310
49.44000 165.033
49.45000 158.151
49.46000 151.731
49.47000 149.478
49.48000 148.221
49.49000 147.548
49.50000 150.153
49.51000 153.269
49.52000 155.771
49.53000 149.394
49.54000 143.550
49.55000 140.507
49.56000 144.551
49.57000 148.941
49.58000 150.976
49.59000 148.943
49.60000 146.837
49.61000 145.709
49.62000 149.671
49.63000 152.364
49.64000 151.915
49.65000 149.104
49.66000 146.391
49.67000 147.363
49.68000 150.204
49.69000 152.920
49.70000 151.495
49.71000 148.833
49.72000 146.797
49.73000 150.295
49.74000 155.091
49.75000 159.276
49.76000 160.092
49.77000 160.393
49.78000 160.633
49.79000 163.826
49.80000 166.626
49.81000 165.612
49.82000 155.112
49.83000 144.164
49.84000 138.976
49.85000 143.567
49.86000 148.319
49.87000 150.844
49.88000 151.897
49.89000 152.600
49.90000 151.028
49.91000 147.777
49.92000 144.702
49.93000 147.916
49.94000 154.268
49.95000 160.328
49.96000 158.884
49.97000 155.167
49.98000 151.364
49.99000 146.810
50.00000 142.085
50.01000 139.389
50.02000 147.663
50.03000 157.579
50.04000 165.475
50.05000 157.974
50.06000 150.813
50.07000 146.767
50.08000 150.336
50.09000 154.251
50.10000 157.131
50.11000 158.281
50.12000 159.405
50.13000 159.997
50.14000 156.863
50.15000 154.740
50.16000 153.467
50.17000 152.810
50.18000 152.256
50.19000 155.230
50.20000 159.935
50.21000 164.415
50.22000 162.567
50.23000 158.887
50.24000 155.949
50.25000 159.273
50.26000 164.013
50.27000 168.012
50.28000 168.085
50.29000 167.584
50.30000 167.186
50.31000 168.332
50.32000 169.362
50.33000 169.873
50.34000 169.140
50.35000 168.352
50.36000 168.999
50.37000 171.999
50.38000 175.033
50.39000 176.615
50.40000 189.048
50.41000 197.403
50.42000 197.945
50.43000 192.926
50.44000 188.088
50.45000 189.125
50.46000 192.995
50.47000 196.674
50.48000 198.888
50.49000 200.488
50.50000 201.927
50.51000 202.042
50.52000 201.862
50.53000 201.125
50.54000 197.486
50.55000 193.432
50.56000 190.230
50.57000 195.218
50.58000 199.780
50.59000 202.817
50.60000 202.251
50.61000 201.533
50.62000 202.320
50.63000 205.528
50.64000 208.769
50.65000 210.443
50.66000 202.847
50.67000 197.732
50.68000 193.512
50.69000 189.916
50.70000 186.426
50.71000 186.221
50.72000 187.574
50.73000 188.858
50.74000 189.323
50.75000 189.508
50.76000 189.420
50.77000 187.130
50.78000 184.360
50.79000 182.123
50.80000 182.604
50.81000 183.466
50.82000 184.145
50.83000 182.579
50.84000 181.176
50.85000 179.656
50.86000 177.866
50.87000 176.065
50.88000 175.093
50.89000 175.432
50.90000 175.787
50.91000 175.969
50.92000 168.236
50.93000 163.070
50.94000 161.325
50.95000 161.928
50.96000 162.436
50.97000 160.121
50.98000 156.491
50.99000 153.051
51.00000 154.930
51.01000 158.221
51.02000 161.570
51.03000 165.370
51.04000 169.266
51.05000 171.816
51.06000 167.631
51.07000 162.521
51.08000 158.519
51.09000 156.460
51.10000 154.940
51.11000 153.562
51.12000 152.511
51.13000 151.472
51.14000 152.403
51.15000 156.398
51.16000 160.427
51.17000 162.468
51.18000 157.265
51.19000 153.804
51.20000 152.888
51.21000 153.687
51.22000 154.406
51.23000 152.835
51.24000 150.214
51.25000 147.735
51.26000 148.047
51.27000 149.137
51.28000 149.817
51.29000 147.335
51.30000 144.188
51.31000 141.870
51.32000 143.622
51.33000 145.921
51.34000 147.714
51.35000 148.078
51.36000 148.279
51.37000 148.904
51.38000 150.481
51.39000 152.094
51.40000 151.980
51.41000 149.231
51.42000 146.454
51.43000 145.061
51.44000 136.746
51.45000 131.274
51.46000 133.490
51.47000 140.795
51.48000 147.866
51.49000 148.549
51.50000 146.356
51.51000 144.285
51.52000 141.354
51.53000 138.422
51.54000 135.841
51.55000 135.900
51.56000 136.504
51.57000 137.893
51.58000 143.064
51.59000 148.733
51.60000 153.134
51.61000 146.184
51.62000 139.970
51.63000 135.518
51.64000 134.955
51.65000 134.532
51.66000 134.143
51.67000 133.806
51.68000 133.469
51.69000 136.072
51.70000 141.574
51.71000 147.016
51.72000 147.149
51.73000 143.829
51.74000 140.633
51.75000 140.711
51.76000 142.238
51.77000 143.677
51.78000 143.601
51.79000 143.113
51.80000 143.038
51.81000 146.012
51.82000 149.601
51.83000 151.740
51.84000 147.016
51.85000 141.410
51.86000 137.076
51.87000 138.321
51.88000 139.636
51.89000 140.146
51.90000 138.910
51.91000 137.614
51.92000 137.414
51.93000 138.829
51.94000 140.259
51.95000 139.773
51.96000 137.435
51.97000 135.133
51.98000 135.823
51.99000 138.425
52.00000 140.928
52.01000 140.946
52.02000 139.884
52.03000 138.884
52.04000 139.325
52.05000 140.119
52.06000 140.751
52.07000 140.215
52.08000 139.447
52.09000 139.398
52.10000 142.689
52.11000 146.399
52.12000 149.255
52.13000 149.686
52.14000 149.889
52.15000 149.909
52.16000 149.541
52.17000 149.159
52.18000 149.228
52.19000 149.947
52.20000 150.672
52.21000 148.498
52.22000 143.580
52.23000 138.723
52.24000 138.676
52.25000 141.647
52.26000 144.544
52.27000 145.650
52.28000 145.991
52.29000 146.310
52.30000 145.756
52.31000 145.018
52.32000 144.205
52.33000 142.869
52.34000 141.431
52.35000 140.066
52.36000 139.033
52.37000 138.042
52.38000 137.282
52.39000 142.429
52.40000 146.819
52.41000 149.008
52.42000 146.585
52.43000 144.015
52.44000 141.733
52.45000 139.859
52.46000 137.988
52.47000 138.482
52.48000 141.172
52.49000 143.804
52.50000 142.299
52.51000 138.244
52.52000 134.534
52.53000 138.881
52.54000 146.614
52.55000 153.864
52.56000 149.318
52.57000 142.101
52.58000 136.002
52.59000 137.640
52.60000 140.754
52.61000 143.807
52.62000 146.585
52.63000 149.330
52.64000 151.424
52.65000 152.856
52.66000 153.949
52.67000 153.631
52.68000 150.407
52.69000 147.096
52.70000 144.537
52.71000 143.029
52.72000 141.528
52.73000 142.172
52.74000 144.769
52.75000 147.352
52.76000 148.983
52.77000 150.039
52.78000 150.933
52.79000 148.194
52.80000 143.953
52.81000 139.986
52.82000 140.021
52.83000 141.077
52.84000 142.129
52.85000 143.154
52.86000 144.174
52.87000 144.426
52.88000 141.311
52.89000 137.801
52.90000 135.135
52.91000 134.805
52.92000 134.667
52.93000 134.303
52.94000 133.482
52.95000 132.648
52.96000 133.848
52.97000 137.835
52.98000 141.837
52.99000 144.114
53.00000 144.848
53.01000 145.564
53.02000 145.173
53.03000 144.125
53.04000 143.189
53.05000 144.716
53.06000 147.243
53.07000 149.603
53.08000 147.320
53.09000 144.084
53.10000 142.290
53.11000 150.049
53.12000 159.563
53.13000 165.825
53.14000 158.077
53.15000 148.720
53.16000 141.647
53.17000 145.571
53.18000 149.198
53.19000 152.471
53.20000 155.039
53.21000 157.587
53.22000 158.638
53.23000 157.676
53.24000 156.705
53.25000 154.640
53.26000 151.621
53.27000 148.697
53.28000 151.365
53.29000 157.305
53.30000 162.909
53.31000 161.498
53.32000 157.285
53.33000 153.359
53.34000 155.295
53.35000 158.489
53.36000 160.992
53.37000 159.007
53.38000 156.214
53.39000 153.714
53.40000 152.456
53.41000 151.336
53.42000 150.494
53.43000 147.683
53.44000 145.389
53.45000 144.443
53.46000 146.135
53.47000 147.897
53.48000 149.850
53.49000 152.059
53.50000 154.266
53.51000 155.083
53.52000 154.705
53.53000 154.326
53.54000 153.849
53.55000 153.317
53.56000 152.889
53.57000 154.569
53.58000 157.076
53.59000 159.407
53.60000 157.303
53.61000 154.332
53.62000 151.620
53.63000 150.559
53.64000 149.789
53.65000 149.164
53.66000 149.137
53.67000 149.177
53.68000 149.206
53.69000 150.628
53.70000 151.803
53.71000 151.528
53.72000 148.465
53.73000 145.333
53.74000 142.130
53.75000 138.834
53.76000 135.541
53.77000 135.808
53.78000 139.069
53.79000 142.292
53.80000 143.467
53.81000 143.487
53.82000 143.455
53.83000 142.409
53.84000 140.970
53.85000 139.635
53.86000 134.889
53.87000 129.804
53.88000 126.107
53.89000 131.059
53.90000 137.508
53.91000 143.039
53.92000 144.832
53.93000 146.225
53.94000 147.263
53.95000 146.619
53.96000 146.042
53.97000 144.140
53.98000 139.733
53.99000 135.266
54.00000 134.117
54.01000 137.189
54.02000 140.272
54.03000 140.726
54.04000 139.010
54.05000 137.382
54.06000 140.064
54.07000 145.139
54.08000 149.831
54.09000 147.308
54.10000 142.047
54.11000 137.174
54.12000 139.752
54.13000 143.798
54.14000 147.146
54.15000 146.227
54.16000 144.584
54.17000 143.126
54.18000 142.408
54.19000 141.767
54.20000 141.292
54.21000 141.097
54.22000 140.958
54.23000 140.997
54.24000 141.365
54.25000 141.741
54.26000 143.499
54.27000 146.980
54.28000 150.462
54.29000 151.816
54.30000 151.441
54.31000 151.007
54.32000 147.787
54.33000 143.048
54.34000 138.614
54.35000 139.741
54.36000 142.942
54.37000 145.900
54.38000 146.330
54.39000 146.142
54.40000 145.742
54.41000 144.075
54.42000 142.197
54.43000 140.904
54.44000 141.913
54.45000 143.157
54.46000 144.075
54.47000 145.094
54.48000 145.887
54.49000 148.727
54.50000 155.306
54.51000 161.964
54.52000 159.685
54.53000 146.455
54.54000 133.220
54.55000 129.507
54.56000 133.367
54.57000 137.195
54.58000 139.664
54.59000 141.403
54.60000 143.018
54.61000 142.434
54.62000 141.044
54.63000 139.762
54.64000 140.714
54.65000 142.064
54.66000 143.645
54.67000 146.582
54.68000 149.740
54.69000 151.383
54.70000 147.170
54.71000 142.374
54.72000 138.853
54.73000 137.643
54.74000 136.801
54.75000 138.170
54.76000 143.505
54.77000 148.918
54.78000 150.592
54.79000 147.768
54.80000 144.941
54.81000 145.194
54.82000 147.843
54.83000 150.486
54.84000 152.843
54.85000 155.049
54.86000 157.177
54.87000 157.956
54.88000 158.249
54.89000 158.519
54.90000 155.747
54.91000 152.604
54.92000 149.513
54.93000 146.725
54.94000 143.985
54.95000 142.007
54.96000 142.925
54.97000 144.123
54.98000 144.999
54.99000 144.046
55.00000 143.239
55.01000 144.231
55.02000 148.395
55.03000 152.620
55.04000 155.509
55.05000 156.823
55.06000 158.131
55.07000 156.451
55.08000 152.500
55.09000 148.612
55.10000 147.202
55.11000 147.075
55.12000 146.797
55.13000 144.015
55.14000 140.347
55.15000 136.978
55.16000 146.259
55.17000 157.245
55.18000 166.427
55.19000 165.435
55.20000 162.851
55.21000 161.087
55.22000 162.377
55.23000 163.956
55.24000 165.104
55.25000 162.864
55.26000 161.013
55.27000 162.030
55.28000 168.019
55.29000 174.096
55.30000 178.552
55.31000 181.134
55.32000 183.706
55.33000 186.031
55.34000 188.154
55.35000 190.360
55.36000 195.676
55.37000 202.574
55.38000 209.300
55.39000 213.270
55.40000 216.280
55.41000 219.039
55.42000 224.149
55.43000 229.193
55.44000 234.901
55.45000 244.284
55.46000 254.230
55.47000 262.050
55.48000 262.089
55.49000 261.409
55.50000 260.918
55.51000 282.709
55.52000 300.243
55.53000 313.845
55.54000 320.754
55.55000 327.551
55.56000 337.697
55.57000 351.646
55.58000 365.554
55.59000 382.672
55.60000 402.015
55.61000 421.104
55.62000 431.057
55.63000 436.441
55.64000 442.713
55.65000 462.791
55.66000 487.594
55.67000 510.269
55.68000 532.351
55.69000 551.851
55.70000 570.086
55.71000 581.469
55.72000 591.823
55.73000 604.211
55.74000 623.911
55.75000 644.268
55.76000 658.913
55.77000 664.371
55.78000 668.229
55.79000 675.696
55.80000 689.201
55.81000 702.801
55.82000 712.372
55.83000 717.455
55.84000 722.517
55.85000 721.906
55.86000 717.215
55.87000 712.669
55.88000 713.084
55.89000 715.940
55.90000 718.690
55.91000 719.857
55.92000 720.493
55.93000 721.072
55.94000 709.199
55.95000 696.165
55.96000 683.509
55.97000 672.863
55.98000 662.512
55.99000 650.732
56.00000 633.900
56.01000 616.626
56.02000 604.265
56.03000 589.795
56.04000 578.674
56.05000 564.707
56.06000 546.064
56.07000 527.352
56.08000 509.743
56.09000 493.339
56.10000 477.001
56.11000 457.967
56.12000 437.209
56.13000 416.746
56.14000 405.940
56.15000 399.802
56.16000 392.647
56.17000 370.603
56.18000 343.638
56.19000 319.101
56.20000 318.515
56.21000 322.716
56.22000 323.211
56.23000 304.382
56.24000 282.774
56.25000 265.318
56.26000 262.287
56.27000 260.485
56.28000 259.202
56.29000 247.784
56.30000 238.758
56.31000 227.416
56.32000 212.334
56.33000 197.201
56.34000 191.833
56.35000 196.923
56.36000 201.994
56.37000 202.568
56.38000 200.017
56.39000 197.430
56.40000 193.698
56.41000 189.422
56.42000 185.303
56.43000 183.405
56.44000 182.228
56.45000 181.160
56.46000 173.974
56.47000 166.449
56.48000 160.155
56.49000 160.165
56.50000 161.062
56.51000 161.357
56.52000 159.601
56.53000 157.675
56.54000 156.311
56.55000 150.658
56.56000 146.230
56.57000 145.828
56.58000 151.815
56.59000 157.883
56.60000 156.735
56.61000 148.008
56.62000 139.324
56.63000 136.145
56.64000 136.748
56.65000 137.303
56.66000 136.410
56.67000 134.841
56.68000 133.636
56.69000 137.454
56.70000 142.875
56.71000 147.785
56.72000 148.249
56.73000 147.818
56.74000 146.817
56.75000 142.953
56.76000 138.695
56.77000 135.566
56.78000 136.220
56.79000 137.180
56.80000 137.856
56.81000 137.653
56.82000 137.472
56.83000 137.132
56.84000 136.545
56.85000 135.954
56.86000 135.189
56.87000 134.243
56.88000 133.302
56.89000 133.220
56.90000 133.713
56.91000 134.105
56.92000 131.606
56.93000 127.780
56.94000 124.387
56.95000 126.788
56.96000 131.007
56.97000 134.819
56.98000 133.657
56.99000 131.714
57.00000 129.881
57.01000 128.588
57.02000 127.368
57.03000 125.803
57.04000 123.104
57.05000 120.315
57.06000 118.362
57.07000 127.103
57.08000 134.018
57.09000 135.950
57.10000 130.254
57.11000 124.475
57.12000 122.093
57.13000 123.137
57.14000 124.176
57.15000 125.221
57.16000 126.257
57.17000 127.225
57.18000 126.352
57.19000 124.647
57.20000 123.180
57.21000 124.818
57.22000 127.413
57.23000 129.752
57.24000 127.136
57.25000 123.943
57.26000 121.330
57.27000 121.517
57.28000 122.074
57.29000 123.959
57.30000 130.146
57.31000 136.663
57.32000 141.200
57.33000 135.521
57.34000 130.958
57.35000 128.524
57.36000 129.290
57.37000 130.088
57.38000 128.513
57.39000 124.590
57.40000 120.693
57.41000 121.797
57.42000 126.098
57.43000 130.450
57.44000 136.152
57.45000 142.452
57.46000 147.824
57.47000 141.415
57.48000 131.436
57.49000 122.466
57.50000 127.740
57.51000 134.889
57.52000 139.919
57.53000 134.911
57.54000 128.608
57.55000 124.046
57.56000 125.026
57.57000 126.416
57.58000 127.379
57.59000 129.067
57.60000 130.356
57.61000 130.874
57.62000 130.252
57.63000 129.620
57.64000 127.169
57.65000 122.955
57.66000 118.772
57.67000 118.075
57.68000 119.586
57.69000 121.075
57.70000 122.032
57.71000 122.756
57.72000 123.638
57.73000 126.461
57.74000 129.863
57.75000 132.913
57.76000 130.946
57.77000 128.354
57.78000 125.940
57.79000 124.355
57.80000 122.875
57.81000 121.578
57.82000 120.856
57.83000 120.176
57.84000 119.708
57.85000 128.794
57.86000 135.851
57.87000 137.209
57.88000 130.297
57.89000 123.318
57.90000 120.458
57.91000 121.514
57.92000 122.561
57.93000 122.694
57.94000 122.260
57.95000 121.694
57.96000 117.901
57.97000 112.724
57.98000 108.313
57.99000 113.116
58.00000 120.615
58.01000 127.321
58.02000 131.388
58.03000 134.484
58.04000 136.581
58.05000 134.112
58.06000 131.080
58.07000 128.763
58.08000 128.647
58.09000 128.685
58.10000 128.711
58.11000 125.960
58.12000 123.834
58.13000 123.243
58.14000 124.839
58.15000 126.450
58.16000 126.162
58.17000 124.104
58.18000 122.064
58.19000 118.636
58.20000 114.428
58.21000 110.440
58.22000 111.608
58.23000 114.947
58.24000 118.074
58.25000 118.715
58.26000 118.640
58.27000 118.574
58.28000 121.923
58.29000 125.407
58.30000 128.239
58.31000 128.149
58.32000 127.706
58.33000 126.521
58.34000 123.094
58.35000 119.515
58.36000 117.079
58.37000 117.065
58.38000 117.109
58.39000 117.417
58.40000 118.095
58.41000 118.775
58.42000 117.447
58.43000 114.286
58.44000 111.154
58.45000 110.911
58.46000 112.392
58.47000 113.854
58.48000 114.884
58.49000 115.734
58.50000 116.617
58.51000 117.871
58.52000 119.230
58.53000 120.439
58.54000 122.986
58.55000 125.415
58.56000 127.486
58.57000 127.980
58.58000 128.287
58.59000 127.895
58.60000 125.425
58.61000 122.818
58.62000 121.054
58.63000 119.831
58.64000 118.931
58.65000 117.895
58.66000 116.670
58.67000 115.446
58.68000 115.826
58.69000 117.645
58.70000 119.447
58.71000 121.336
58.72000 123.237
58.73000 125.079
58.74000 125.635
58.75000 125.666
58.76000 125.480
58.77000 122.883
58.78000 119.616
58.79000 116.718
58.80000 113.128
58.81000 109.908
58.82000 107.989
58.83000 111.688
58.84000 116.035
58.85000 119.624
58.86000 121.003
58.87000 122.240
58.88000 123.072
58.89000 126.520
58.90000 129.137
58.91000 127.929
58.92000 121.563
58.93000 115.174
58.94000 113.731
58.95000 116.635
58.96000 119.510
58.97000 120.725
58.98000 120.963
58.99000 121.241
59.00000 122.368
59.01000 123.834
59.02000 125.222
59.03000 125.760
59.04000 126.066
59.05000 126.338
59.06000 118.847
59.07000 111.158
59.08000 105.593
59.09000 109.035
59.10000 113.490
59.11000 116.115
59.12000 113.488
59.13000 110.534
59.14000 108.561
59.15000 109.693
59.16000 110.593
59.17000 112.721
59.18000 116.473
59.19000 120.232
59.20000 122.428
59.21000 123.277
59.22000 124.117
59.23000 121.164
59.24000 116.147
59.25000 111.349
59.26000 110.983
59.27000 112.361
59.28000 113.691
59.29000 114.506
59.30000 115.182
59.31000 115.780
59.32000 120.338
59.33000 124.875
59.34000 128.575
59.35000 128.785
59.36000 128.611
59.37000 126.465
59.38000 118.756
59.39000 110.713
59.40000 105.372
59.41000 115.582
59.42000 123.417
59.43000 125.783
59.44000 121.038
59.45000 116.269
59.46000 114.710
59.47000 115.865
59.48000 117.007
59.49000 116.513
59.50000 115.129
59.51000 113.866
59.52000 114.989
59.53000 117.035
59.54000 118.861
59.55000 118.416
59.56000 117.375
59.57000 116.459
59.58000 121.889
59.59000 127.511
59.60000 131.281
59.61000 127.478
59.62000 122.862
59.63000 118.884
59.64000 116.673
59.65000 114.565
59.66000 113.175
59.67000 110.258
59.68000 108.081
59.69000 110.294
59.70000 118.107
59.71000 125.929
59.72000 128.558
59.73000 126.879
59.74000 125.221
59.75000 122.391
59.76000 119.001
59.77000 115.952
59.78000 119.351
59.79000 125.203
59.80000 130.414
59.81000 129.198
59.82000 126.323
59.83000 123.799
59.84000 122.309
59.85000 121.181
59.86000 120.399
59.87000 121.009
59.88000 121.765
59.89000 122.167
59.90000 121.606
59.91000 120.991
59.92000 120.587
59.93000 117.614
59.94000 115.385
59.95000 115.530
59.96000 118.647
59.97000 121.761
59.98000 120.462
59.99000 115.567
60.00000 110.739
60.01000 110.335
60.02000 112.295
60.03000 114.263
60.04000 116.393
60.05000 118.583
60.06000 120.463
60.07000 119.310
60.08000 117.387
60.09000 115.704
60.10000 115.035
60.11000 114.607
60.12000 114.400
60.13000 115.066
60.14000 115.821
60.15000 116.157
60.16000 115.369
60.17000 114.520
60.18000 113.967
60.19000 111.039
60.20000 108.855
60.21000 109.211
60.22000 112.689
60.23000 116.165
60.24000 116.172
60.25000 113.408
60.26000 110.684
60.27000 112.586
60.28000 116.846
60.29000 120.749
60.30000 118.315
60.31000 113.552
60.32000 109.435
60.33000 111.479
60.34000 115.059
60.35000 118.182
60.36000 115.778
60.37000 112.950
60.38000 111.111
60.39000 113.104
60.40000 115.479
60.41000 116.420
60.42000 113.585
60.43000 110.550
60.44000 108.586
60.45000 111.949
60.46000 114.487
60.47000 116.311
60.48000 117.272
60.49000 118.228
60.50000 118.222
60.51000 117.461
60.52000 116.713
60.53000 115.892
60.54000 115.059
60.55000 114.268
60.56000 114.183
60.57000 114.354
60.58000 114.281
60.59000 111.945
60.60000 109.056
60.61000 106.542
60.62000 110.459
60.63000 114.682
60.64000 118.031
60.65000 118.058
60.66000 117.761
60.67000 117.787
60.68000 118.649
60.69000 119.553
60.70000 120.135
60.71000 119.879
60.72000 119.681
60.73000 118.956
60.74000 117.608
60.75000 116.259
60.76000 115.121
60.77000 114.146
60.78000 113.186
60.79000 111.450
60.80000 109.379
60.81000 107.703
60.82000 112.581
60.83000 119.786
60.84000 126.156
60.85000 124.922
60.86000 121.860
60.87000 119.205
60.88000 115.640
60.89000 112.482
60.90000 109.851
60.91000 109.191
60.92000 108.719
60.93000 109.576
60.94000 113.817
60.95000 118.225
60.96000 121.040
60.97000 121.860
60.98000 122.430
60.99000 122.774
61.00000 122.853
61.01000 122.936
61.02000 123.721
61.03000 125.036
61.04000 126.330
61.05000 126.336
61.06000 125.707
61.07000 125.111
61.08000 125.036
61.09000 125.143
61.10000 125.157
61.11000 124.350
61.12000 123.350
61.13000 122.484
61.14000 122.557
61.15000 122.741
61.16000 123.175
61.17000 124.525
61.18000 125.960
61.19000 127.009
61.20000 127.094
61.21000 127.134
61.22000 127.159
61.23000 126.605
61.24000 126.197
61.25000 125.053
61.26000 123.071
61.27000 121.100
61.28000 121.238
61.29000 122.942
61.30000 124.615
61.31000 124.969
61.32000 124.672
61.33000 124.290
61.34000 122.579
61.35000 120.413
61.36000 118.722
61.37000 121.153
61.38000 124.538
61.39000 127.458
61.40000 128.117
61.41000 128.388
61.42000 129.251
61.43000 132.250
61.44000 135.441
61.45000 137.023
61.46000 134.647
61.47000 132.090
61.48000 130.479
61.49000 137.327
61.50000 142.380
61.51000 148.970
61.52000 157.276
61.53000 165.587
61.54000 174.499
61.55000 183.848
61.56000 193.019
61.57000 206.454
61.58000 221.426
61.59000 236.288
61.60000 249.490
61.61000 262.132
61.62000 274.083
61.63000 280.178
61.64000 284.940
61.65000 289.033
61.66000 299.874
61.67000 309.887
61.68000 317.415
61.69000 316.132
61.70000 314.075
61.71000 311.432
61.72000 307.376
61.73000 303.258
61.74000 300.680
61.75000 296.374
61.76000 293.247
61.77000 284.636
61.78000 270.015
61.79000 255.382
61.80000 239.290
61.81000 222.154
61.82000 205.361
61.83000 193.558
61.84000 184.530
61.85000 175.616
61.86000 168.379
61.87000 161.699
61.88000 155.156
61.89000 149.755
61.90000 144.609
61.91000 140.200
61.92000 137.751
61.93000 135.922
61.94000 134.826
61.95000 136.283
61.96000 137.959
61.97000 137.878
61.98000 133.625
61.99000 129.193
62.00000 126.440
62.01000 130.262
62.02000 133.080
62.03000 133.752
62.04000 132.121
62.05000 130.485
62.06000 128.237
62.07000 125.560
62.08000 122.939
62.09000 123.702
62.10000 125.984
62.11000 128.206
62.12000 129.580
62.13000 130.678
62.14000 131.645
62.15000 131.559
62.16000 131.242
62.17000 130.971
62.18000 128.087
62.19000 125.346
62.20000 123.169
62.21000 122.919
62.22000 122.830
62.23000 123.087
62.24000 124.154
62.25000 125.254
62.26000 125.933
62.27000 128.613
62.28000 130.555
62.29000 130.273
62.30000 127.649
62.31000 125.027
62.32000 122.812
62.33000 120.877
62.34000 118.986
62.35000 120.321
62.36000 123.051
62.37000 125.491
62.38000 123.921
62.39000 121.066
62.40000 119.056
62.41000 123.742
62.42000 129.868
62.43000 135.083
62.44000 136.723
62.45000 137.686
62.46000 137.556
62.47000 133.755
62.48000 129.655
62.49000 127.897
62.50000 131.513
62.51000 135.341
62.52000 137.685
62.53000 137.487
62.54000 137.323
62.55000 136.213
62.56000 134.127
62.57000 132.039
62.58000 129.733
62.59000 127.280
62.60000 124.884
62.61000 124.445
62.62000 124.887
62.63000 125.494
62.64000 128.336
62.65000 131.880
62.66000 134.640
62.67000 131.318
62.68000 126.712
62.69000 122.804
62.70000 131.114
62.71000 139.470
62.72000 145.199
62.73000 142.251
62.74000 138.619
62.75000 137.086
62.76000 140.289
62.77000 143.670
62.78000 145.727
62.79000 137.166
62.80000 130.970
62.81000 129.152
62.82000 131.767
62.83000 134.391
62.84000 137.954
62.85000 142.142
62.86000 146.229
62.87000 142.621
62.88000 135.846
62.89000 129.639
62.90000 130.875
62.91000 134.412
62.92000 137.355
62.93000 135.785
62.94000 133.280
62.95000 131.161
62.96000 131.966
62.97000 132.963
62.98000 132.969
62.99000 129.757
63.00000 126.298
63.01000 125.409
63.02000 130.221
63.03000 135.241
63.04000 138.271
63.05000 134.549
63.06000 131.850
63.07000 132.313
63.08000 135.913
63.09000 139.463
63.10000 138.433
63.11000 134.407
63.12000 130.483
63.13000 131.559
63.14000 134.708
63.15000 137.868
63.16000 141.164
63.17000 144.502
63.18000 146.648
63.19000 139.939
63.20000 131.430
63.21000 124.257
63.22000 130.523
63.23000 137.208
63.24000 141.954
63.25000 140.516
63.26000 138.616
63.27000 137.917
63.28000 139.837
63.29000 141.847
63.30000 143.052
63.31000 137.271
63.32000 133.120
63.33000 131.840
63.34000 133.351
63.35000 134.832
63.36000 133.805
63.37000 131.167
63.38000 128.598
63.39000 126.609
63.40000 124.955
63.41000 123.526
63.42000 124.881
63.43000 127.068
63.44000 129.418
63.45000 132.963
63.46000 136.747
63.47000 139.925
63.48000 139.909
63.49000 139.558
63.50000 138.336
63.51000 134.384
63.52000 130.234
63.53000 128.624
63.54000 132.454
63.55000 136.466
63.56000 138.852
63.57000 139.210
63.58000 139.451
63.59000 138.765
63.60000 137.194
63.61000 135.620
63.62000 133.872
63.63000 132.014
63.64000 130.208
63.65000 132.302
63.66000 135.887
63.67000 139.326
63.68000 141.005
63.69000 142.168
63.70000 143.138
63.71000 142.742
63.72000 142.078
63.73000 141.521
63.74000 140.570
63.75000 139.739
63.76000 139.469
63.77000 140.926
63.78000 142.504
63.79000 143.842
63.80000 144.671
63.81000 145.483
63.82000 145.963
63.83000 148.612
63.84000 150.493
63.85000 149.034
63.86000 144.453
63.87000 139.905
63.88000 137.721
63.89000 137.004
63.90000 136.307
63.91000 138.657
63.92000 142.111
63.93000 145.156
63.94000 143.401
63.95000 140.263
63.96000 137.635
63.97000 138.554
63.98000 140.153
63.99000 141.487
64.00000 139.167
64.01000 136.875
64.02000 135.487
64.03000 136.838
64.04000 138.375
64.05000 139.420
64.06000 139.443
64.07000 139.435
64.08000 139.430
64.09000 141.148
64.10000 142.367
64.11000 144.063
64.12000 146.197
64.13000 148.316
64.14000 149.435
64.15000 149.945
64.16000 150.439
64.17000 149.522
64.18000 148.098
64.19000 146.735
64.20000 146.080
64.21000 145.624
64.22000 145.473
64.23000 147.397
64.24000 149.710
64.25000 151.634
64.26000 149.506
64.27000 147.348
64.28000 146.264
64.29000 148.378
64.30000 150.703
64.31000 151.804
64.32000 150.411
64.33000 148.945
64.34000 148.093
64.35000 144.641
64.36000 142.207
64.37000 140.603
64.38000 139.746
64.39000 138.948
64.40000 141.968
64.41000 147.272
64.42000 152.410
64.43000 155.811
64.44000 158.358
64.45000 160.621
64.46000 159.723
64.47000 157.946
64.48000 156.641
64.49000 158.482
64.50000 160.905
64.51000 162.912
64.52000 160.289
64.53000 157.682
64.54000 156.343
64.55000 158.711
64.56000 161.319
64.57000 163.108
64.58000 163.262
64.59000 163.370
64.60000 163.432
64.61000 163.712
64.62000 163.909
64.63000 164.697
64.64000 166.007
64.65000 167.311
64.66000 168.301
64.67000 169.108
64.68000 169.888
64.69000 168.523
64.70000 166.421
64.71000 164.814
64.72000 168.580
64.73000 173.815
64.74000 178.023
64.75000 175.525
64.76000 171.813
64.77000 168.749
64.78000 174.110
64.79000 179.312
64.80000 181.153
64.81000 173.336
64.82000 164.916
64.83000 160.452
64.84000 163.767
64.85000 167.289
64.86000 169.302
64.87000 174.562
64.88000 178.245
64.89000 182.455
64.90000 187.120
64.91000 191.730
64.92000 193.270
64.93000 193.035
64.94000 192.809
64.95000 193.188
64.96000 193.771
64.97000 194.557
64.98000 197.486
64.99000 200.992
65.00000 204.005
65.01000 203.870
65.02000 203.177
65.03000 202.606
65.04000 209.266
65.05000 215.397
65.06000 220.766
65.07000 223.985
65.08000 227.073
65.09000 228.437
65.10000 226.466
65.11000 224.412
65.12000 223.247
65.13000 225.838
65.14000 227.655
65.15000 230.694
65.16000 234.769
65.17000 238.797
65.18000 240.366
65.19000 240.539
65.20000 240.705
65.21000 244.321
65.22000 248.982
65.23000 252.895
65.24000 249.090
65.25000 243.251
65.26000 238.783
65.27000 242.919
65.28000 248.552
65.29000 253.169
65.30000 258.118
65.31000 262.206
65.32000 266.614
65.33000 271.913
65.34000 277.264
65.35000 282.100
65.36000 285.956
65.37000 289.788
65.38000 291.942
65.39000 284.477
65.40000 279.288
65.41000 281.970
65.42000 291.202
65.43000 300.410
65.44000 308.420
65.45000 315.761
65.46000 322.832
65.47000 321.225
65.48000 316.607
65.49000 313.036
65.50000 319.999
65.51000 329.691
65.52000 338.876
65.53000 344.942
65.54000 350.476
65.55000 354.995
65.56000 361.836
65.57000 367.634
65.58000 373.843
65.59000 381.171
65.60000 388.563
65.61000 397.985
65.62000 411.194
65.63000 424.490
65.64000 431.902
65.65000 473.722
65.66000 502.753
65.67000 539.936
65.68000 583.778
65.69000 628.377
65.70000 708.829
65.71000 808.937
65.72000 905.237
65.73000 1020.406
65.74000 1135.020
65.75000 1251.092
65.76000 1381.491
65.77000 1515.535
65.78000 1641.827
65.79000 1721.445
65.80000 1793.257
65.81000 1851.673
65.82000 1922.644
65.83000 1981.638
65.84000 2033.354
65.85000 2065.532
65.86000 2096.637
65.87000 2111.979
65.88000 2098.404
65.89000 2084.205
65.90000 2076.357
65.91000 2060.824
65.92000 2049.979
65.93000 1999.838
65.94000 1918.205
65.95000 1835.933
65.96000 1725.033
65.97000 1598.707
65.98000 1477.364
65.99000 1319.765
66.00000 1159.769
66.01000 1004.986
66.02000 900.175
66.03000 807.851
66.04000 720.324
66.05000 661.109
66.06000 606.533
66.07000 562.308
66.08000 518.550
66.09000 482.945
66.10000 451.710
66.11000 432.008
66.12000 412.918
66.13000 399.979
66.14000 398.130
66.15000 396.507
66.16000 395.617
66.17000 384.660
66.18000 377.121
66.19000 372.846
66.20000 371.140
66.21000 369.616
66.22000 375.818
66.23000 386.110
66.24000 395.982
66.25000 408.646
66.26000 421.420
66.27000 434.669
66.28000 452.365
66.29000 471.151
66.30000 490.314
66.31000 511.658
66.32000 533.352
66.33000 550.865
66.34000 578.814
66.35000 602.359
66.36000 621.633
66.37000 629.831
66.38000 637.461
66.39000 643.302
66.40000 645.975
66.41000 648.588
66.42000 650.006
66.43000 647.980
66.44000 646.579
66.45000 643.374
66.46000 638.776
66.47000 634.011
66.48000 622.529
66.49000 607.550
66.50000 593.206
66.51000 575.640
66.52000 558.191
66.53000 539.645
66.54000 511.066
66.55000 480.070
66.56000 451.482
66.57000 436.541
66.58000 423.747
66.59000 413.459
66.60000 399.042
66.61000 387.032
66.62000 376.926
66.63000 371.673
66.64000 366.662
66.65000 363.667
66.66000 364.182
66.67000 364.761
66.68000 365.072
66.69000 359.741
66.70000 356.116
66.71000 357.869
66.72000 363.698
66.73000 369.346
66.74000 368.050
66.75000 363.202
66.76000 358.565
66.77000 357.287
66.78000 357.190
66.79000 356.936
66.80000 355.278
66.81000 353.289
66.82000 351.510
66.83000 350.906
66.84000 350.483
66.85000 350.145
66.86000 356.535
66.87000 362.210
66.88000 365.259
66.89000 361.725
66.90000 357.875
66.91000 356.409
66.92000 359.024
66.93000 361.709
66.94000 363.141
66.95000 370.649
66.96000 375.763
66.97000 379.421
66.98000 381.997
66.99000 384.239
67.00000 374.323
67.01000 358.294
67.02000 342.991
67.03000 345.820
67.04000 354.239
67.05000 362.245
67.06000 366.651
67.07000 370.220
67.08000 374.055
67.09000 379.344
67.10000 384.853
67.11000 389.247
67.12000 385.362
67.13000 381.621
67.14000 379.697
67.15000 382.247
67.16000 385.004
67.17000 384.194
67.18000 377.387
67.19000 370.485
67.20000 366.837
67.21000 368.412
67.22000 369.492
67.23000 371.819
67.24000 375.058
67.25000 378.460
67.26000 387.575
67.27000 399.512
67.28000 410.891
67.29000 407.377
67.30000 399.452
67.31000 392.417
67.32000 392.961
67.33000 395.234
67.34000 398.281
67.35000 405.466
67.36000 413.263
67.37000 419.457
67.38000 416.286
67.39000 413.066
67.40000 412.482
67.41000 418.281
67.42000 424.364
67.43000 427.719
67.44000 426.568
67.45000 425.350
67.46000 424.712
67.47000 428.626
67.48000 431.261
67.49000 431.413
67.50000 429.783
67.51000 428.162
67.52000 426.844
67.53000 425.675
67.54000 424.561
67.55000 427.964
67.56000 432.502
67.57000 436.292
67.58000 433.858
67.59000 430.031
67.60000 427.259
67.61000 430.022
67.62000 433.587
67.63000 436.407
67.64000 439.903
67.65000 442.759
67.66000 444.898
67.67000 445.331
67.68000 445.691
67.69000 445.576
67.70000 444.691
67.71000 443.795
67.72000 443.331
67.73000 448.873
67.74000 452.628
67.75000 458.164
67.76000 464.954
67.77000 471.377
67.78000 466.206
67.79000 455.499
67.80000 445.326
67.81000 445.749
67.82000 449.335
67.83000 453.006
67.84000 457.371
67.85000 461.888
67.86000 466.672
67.87000 472.829
67.88000 479.180
67.89000 484.185
67.90000 489.359
67.91000 493.519
67.92000 494.438
67.93000 487.774
67.94000 480.797
67.95000 478.255
67.96000 482.786
67.97000 487.409
67.98000 489.784
67.99000 487.079
68.00000 485.307
68.01000 489.326
68.02000 497.353
68.03000 505.258
68.04000 509.462
68.05000 511.928
68.06000 514.267
68.07000 509.240
68.08000 502.425
68.09000 496.963
68.10000 502.257
68.11000 509.872
68.12000 515.946
68.13000 514.240
68.14000 511.455
68.15000 509.269
68.16000 515.323
68.17000 520.700
68.18000 525.754
68.19000 530.062
68.20000 534.341
68.21000 539.808
68.22000 547.138
68.23000 554.491
68.24000 558.232
68.25000 559.014
68.26000 559.550
68.27000 561.349
68.28000 564.004
68.29000 566.746
68.30000 571.972
68.31000 578.344
68.32000 584.378
68.33000 594.930
68.34000 605.951
68.35000 615.252
68.36000 611.172
68.37000 604.258
68.38000 599.696
68.39000 606.776
68.40000 615.436
68.41000 622.202
68.42000 629.792
68.43000 635.900
68.44000 643.893
68.45000 656.151
68.46000 668.573
68.47000 679.091
68.48000 686.681
68.49000 694.239
68.50000 698.046
68.51000 707.889
68.52000 714.499
68.53000 724.386
68.54000 736.459
68.55000 748.654
68.56000 764.264
68.57000 781.423
68.58000 797.640
68.59000 807.327
68.60000 814.365
68.61000 826.289
68.62000 875.405
68.63000 932.249
68.64000 983.851
68.65000 1009.995
68.66000 1032.759
68.67000 1050.471
68.68000 1117.772
68.69000 1174.390
68.70000 1225.594
68.71000 1264.761
68.72000 1303.487
68.73000 1344.580
68.74000 1389.250
68.75000 1433.956
68.76000 1473.782
68.77000 1508.751
68.78000 1543.950
68.79000 1600.720
68.80000 1671.629
68.81000 1741.863
68.82000 1794.094
68.83000 1838.299
68.84000 1880.004
68.85000 1956.998
68.86000 2037.421
68.87000 2127.672
68.88000 2291.118
68.89000 2469.488
68.90000 2689.646
68.91000 3108.983
68.92000 3554.190
68.93000 3899.073
68.94000 5434.539
68.95000 6724.881
68.96000 8436.001
68.97000 11066.661
68.98000 13729.639
68.99000 16824.863
69.00000 20561.873
69.01000 24304.797
69.02000 27903.672
69.03000 31361.889
69.04000 34811.785
69.05000 37539.863
69.06000 39803.195
69.07000 42031.719
69.08000 43366.988
69.09000 44310.758
69.10000 45199.539
69.11000 45986.414
69.12000 46678.355
69.13000 47383.629
69.14000 48186.051
69.15000 49007.910
69.16000 49775.883
69.17000 50291.809
69.18000 50775.719
69.19000 51148.938
69.20000 49950.875
69.21000 48910.895
69.22000 47266.797
69.23000 44324.934
69.24000 41339.367
69.25000 38478.594
69.26000 35799.801
69.27000 33122.730
69.28000 30823.104
69.29000 28884.615
69.30000 26954.314
69.31000 25681.535
69.32000 24824.641
69.33000 23982.920
69.34000 23515.480
69.35000 23209.303
69.36000 22921.496
69.37000 22331.539
69.38000 21711.787
69.39000 21002.490
69.40000 19654.557
69.41000 18181.291
69.42000 16610.668
69.43000 14593.084
69.44000 12519.979
69.45000 10928.175
69.46000 8955.826
69.47000 7375.398
69.48000 5966.671
69.49000 4920.511
69.50000 3886.038
69.51000 3077.163
69.52000 2591.377
69.53000 2108.156
69.54000 1800.644
69.55000 1657.845
69.56000 1515.379
69.57000 1397.694
69.58000 1295.408
69.59000 1194.316
69.60000 1121.563
69.61000 1060.812
69.62000 1003.813
69.63000 969.041
69.64000 943.208
69.65000 916.020
69.66000 879.376
69.67000 840.912
69.68000 809.066
69.69000 807.042
69.70000 808.641
69.71000 809.863
69.72000 781.239
69.73000 757.047
69.74000 734.366
69.75000 714.818
69.76000 695.367
69.77000 679.363
69.78000 668.207
69.79000 657.088
69.80000 647.730
69.81000 639.996
69.82000 632.193
69.83000 619.634
69.84000 604.172
69.85000 589.125
69.86000 583.580
69.87000 581.991
69.88000 580.502
69.89000 574.223
69.90000 567.276
69.91000 560.537
69.92000 555.226
69.93000 550.184
69.94000 546.125
69.95000 546.417
69.96000 547.225
69.97000 547.840
69.98000 529.083
69.99000 513.308
70.00000 503.809
