20.00000 474.245
20.01000 475.844
20.02000 477.670
20.03000 478.324
20.04000 474.351
20.05000 469.905
20.06000 466.622
20.07000 470.563
20.08000 473.925
20.09000 477.155
20.10000 480.146
20.11000 483.133
20.12000 486.232
20.13000 489.471
20.14000 492.705
20.15000 488.717
20.16000 479.004
20.17000 469.491
20.18000 468.876
20.19000 473.042
20.20000 477.166
20.21000 480.558
20.22000 483.681
20.23000 486.563
20.24000 483.958
20.25000 480.399
20.26000 476.882
20.27000 473.619
20.28000 470.397
20.29000 467.000
20.30000 462.926
20.31000 458.785
20.32000 455.743
20.33000 461.653
20.34000 466.588
20.35000 470.917
20.36000 474.156
20.37000 477.373
20.38000 478.239
20.39000 476.272
20.40000 474.303
20.41000 475.240
20.42000 478.439
20.43000 481.523
20.44000 479.804
20.45000 475.549
20.46000 471.479
20.47000 470.566
20.48000 470.793
20.49000 471.002
20.50000 468.970
20.51000 466.663
20.52000 464.652
20.53000 464.353
20.54000 464.327
20.55000 465.024
20.56000 468.468
20.57000 472.179
20.58000 474.892
20.59000 471.320
20.60000 468.318
20.61000 465.228
20.62000 461.984
20.63000 458.736
20.64000 459.266
20.65000 464.265
20.66000 469.259
20.67000 473.616
20.68000 477.459
20.69000 481.149
20.70000 478.709
20.71000 473.088
20.72000 467.894
20.73000 469.793
20.74000 474.209
20.75000 478.266
20.76000 478.581
20.77000 478.059
20.78000 477.877
20.79000 479.607
20.80000 481.637
20.81000 482.606
20.82000 479.605
20.83000 476.229
20.84000 473.773
20.85000 472.870
20.86000 472.235
20.87000 470.506
20.88000 466.881
20.89000 463.222
20.90000 461.862
20.91000 463.169
20.92000 464.477
20.93000 465.677
20.94000 466.788
20.95000 467.786
20.96000 464.480
20.97000 458.979
20.98000 453.917
20.99000 455.922
21.00000 460.390
21.01000 464.486
21.02000 465.554
21.03000 465.868
21.04000 465.341
21.05000 460.148
21.06000 454.239
21.07000 450.750
21.08000 456.146
21.09000 462.364
21.10000 466.863
21.11000 454.815
21.12000 444.962
21.13000 444.150
21.14000 458.761
21.15000 473.632
21.16000 477.829
21.17000 469.876
21.18000 461.935
21.19000 460.870
21.20000 464.874
21.21000 468.805
21.22000 470.062
21.23000 469.979
21.24000 469.395
21.25000 460.998
21.26000 449.922
21.27000 439.793
21.28000 447.752
21.29000 458.550
21.30000 466.950
21.31000 462.316
21.32000 455.721
21.33000 452.328
21.34000 460.477
21.35000 469.667
21.36000 476.282
21.37000 471.768
21.38000 467.920
21.39000 464.642
21.40000 462.321
21.41000 460.015
21.42000 458.964
21.43000 459.316
21.44000 459.668
21.45000 458.778
21.46000 457.001
21.47000 455.377
21.48000 459.031
21.49000 465.287
21.50000 470.904
21.51000 466.857
21.52000 459.553
21.53000 452.889
21.54000 458.152
21.55000 465.226
21.56000 470.165
21.57000 463.731
21.58000 455.622
21.59000 450.225
21.60000 454.441
21.61000 459.500
21.62000 463.123
21.63000 463.956
21.64000 464.497
21.65000 464.535
21.66000 463.742
21.67000 462.936
21.68000 463.490
21.69000 465.531
21.70000 467.565
21.71000 470.543
21.72000 474.160
21.73000 477.509
21.74000 472.044
21.75000 462.311
21.76000 453.476
21.77000 457.837
21.78000 466.569
21.79000 474.517
21.80000 482.913
21.81000 490.433
21.82000 495.830
21.83000 490.135
21.84000 482.840
21.85000 477.188
21.86000 477.251
21.87000 477.803
21.88000 478.197
21.89000 474.122
21.90000 470.871
21.91000 470.464
21.92000 474.658
21.93000 478.915
21.94000 484.099
21.95000 490.281
21.96000 496.435
21.97000 493.315
21.98000 483.783
21.99000 474.649
22.00000 478.028
22.01000 487.365
22.02000 495.821
22.03000 491.720
22.04000 483.531
22.05000 476.094
22.06000 484.017
22.07000 493.987
22.08000 503.730
22.09000 512.308
22.10000 520.722
22.11000 526.617
22.12000 523.903
22.13000 520.471
22.14000 518.039
22.15000 509.782
22.16000 503.323
22.17000 501.860
22.18000 508.338
22.19000 514.917
22.20000 517.136
22.21000 514.766
22.22000 512.407
22.23000 505.382
22.24000 495.256
22.25000 485.482
22.26000 486.300
22.27000 492.076
22.28000 497.173
22.29000 492.871
22.30000 485.563
22.31000 478.942
22.32000 483.078
22.33000 488.762
22.34000 492.737
22.35000 488.114
22.36000 482.303
22.37000 478.711
22.38000 482.577
22.39000 487.048
22.40000 490.198
22.41000 479.385
22.42000 470.768
22.43000 464.793
22.44000 462.945
22.45000 461.146
22.46000 458.415
22.47000 454.721
22.48000 451.048
22.49000 449.111
22.50000 448.361
22.51000 447.611
22.52000 446.873
22.53000 446.139
22.54000 445.666
22.55000 448.695
22.56000 452.824
22.57000 456.557
22.58000 456.444
22.59000 455.630
22.60000 453.446
22.61000 444.493
22.62000 434.626
22.63000 429.044
22.64000 437.611
22.65000 447.294
22.66000 454.079
22.67000 445.950
22.68000 439.374
22.69000 437.115
22.70000 441.478
22.71000 445.914
22.72000 448.200
22.73000 448.314
22.74000 448.426
22.75000 450.145
22.76000 452.895
22.77000 455.512
22.78000 454.455
22.79000 451.738
22.80000 449.096
22.81000 447.453
22.82000 446.118
22.83000 444.915
22.84000 446.413
22.85000 448.219
22.86000 449.873
22.87000 450.788
22.88000 451.606
22.89000 452.329
22.90000 452.749
22.91000 453.145
22.92000 453.422
22.93000 451.406
22.94000 449.822
22.95000 446.028
22.96000 438.903
22.97000 431.744
22.98000 428.110
22.99000 427.970
23.00000 427.831
23.01000 430.635
23.02000 435.291
23.03000 439.666
23.04000 436.576
23.05000 430.166
23.06000 424.545
23.07000 428.959
23.08000 436.420
23.09000 443.129
23.10000 442.508
23.11000 440.659
23.12000 439.562
23.13000 442.043
23.14000 444.987
23.15000 446.427
23.16000 443.069
23.17000 439.354
23.18000 436.780
23.19000 439.405
23.20000 441.518
23.21000 440.232
23.22000 433.917
23.23000 427.555
23.24000 423.997
23.25000 423.162
23.26000 422.333
23.27000 430.123
23.28000 443.236
23.29000 456.008
23.30000 460.123
23.31000 460.454
23.32000 459.949
23.33000 449.086
23.34000 435.133
23.35000 422.618
23.36000 431.621
23.37000 443.242
23.38000 451.313
23.39000 442.835
23.40000 432.262
23.41000 425.338
23.42000 429.851
23.43000 435.194
23.44000 438.873
23.45000 439.924
23.46000 440.646
23.47000 440.847
23.48000 440.290
23.49000 439.726
23.50000 439.937
23.51000 440.886
23.52000 441.828
23.53000 441.401
23.54000 440.133
23.55000 438.997
23.56000 441.108
23.57000 444.615
23.58000 448.302
23.59000 454.170
23.60000 460.678
23.61000 466.500
23.62000 461.885
23.63000 456.077
23.64000 452.995
23.65000 462.383
23.66000 473.315
23.67000 481.181
23.68000 479.606
23.69000 477.367
23.70000 475.834
23.71000 461.778
23.72000 450.952
23.73000 448.563
23.74000 458.220
23.75000 467.967
23.76000 472.345
23.77000 471.708
23.78000 471.077
23.79000 472.423
23.80000 474.948
23.81000 477.564
23.82000 482.314
23.83000 487.965
23.84000 493.368
23.85000 495.858
23.86000 497.509
23.87000 498.982
23.88000 505.751
23.89000 512.527
23.90000 518.387
23.91000 520.126
23.92000 521.367
23.93000 522.828
23.94000 524.953
23.95000 527.124
23.96000 528.602
23.97000 525.023
23.98000 522.233
23.99000 523.935
24.00000 531.933
24.01000 539.971
24.02000 539.242
24.03000 530.486
24.04000 521.808
24.05000 519.037
24.06000 519.844
24.07000 520.618
24.08000 520.616
24.09000 520.291
24.10000 519.430
24.11000 512.442
24.12000 503.720
24.13000 495.957
24.14000 493.671
24.15000 492.579
24.16000 491.924
24.17000 493.190
24.18000 494.684
24.19000 494.562
24.20000 489.633
24.21000 484.385
24.22000 480.834
24.23000 475.943
24.24000 472.270
24.25000 466.238
24.26000 456.959
24.27000 447.662
24.28000 441.260
24.29000 437.459
24.30000 433.694
24.31000 433.603
24.32000 435.665
24.33000 437.590
24.34000 436.502
24.35000 434.185
24.36000 432.071
24.37000 432.227
24.38000 433.013
24.39000 433.711
24.40000 427.803
24.41000 421.627
24.42000 417.572
24.43000 422.700
24.44000 428.890
24.45000 434.313
24.46000 437.494
24.47000 440.531
24.48000 442.573
24.49000 429.128
24.50000 418.815
24.51000 413.255
24.52000 414.122
24.53000 415.024
24.54000 416.098
24.55000 417.324
24.56000 418.536
24.57000 413.845
24.58000 405.864
24.59000 398.355
24.60000 400.816
24.61000 407.275
24.62000 413.118
24.63000 412.261
24.64000 409.573
24.65000 407.195
24.66000 408.865
24.67000 410.944
24.68000 410.700
24.69000 400.583
24.70000 389.352
24.71000 385.179
24.72000 401.293
24.73000 418.674
24.74000 430.295
24.75000 421.236
24.76000 414.114
24.77000 410.014
24.78000 409.925
24.79000 409.852
24.80000 407.917
24.81000 404.371
24.82000 400.865
24.83000 401.735
24.84000 405.053
24.85000 408.282
24.86000 409.682
24.87000 410.361
24.88000 410.566
24.89000 405.756
24.90000 399.600
24.91000 394.165
24.92000 400.951
24.93000 408.678
24.94000 414.099
24.95000 409.890
24.96000 404.620
24.97000 400.527
24.98000 399.763
24.99000 399.200
25.00000 398.826
25.01000 393.586
25.02000 389.620
25.03000 390.207
25.04000 396.727
25.05000 403.265
25.06000 405.513
25.07000 404.123
25.08000 402.750
25.09000 399.104
25.10000 394.290
25.11000 389.930
25.12000 394.494
25.13000 402.516
25.14000 409.556
25.15000 406.455
25.16000 400.682
25.17000 395.599
25.18000 393.950
25.19000 393.045
25.20000 393.308
25.21000 398.362
25.22000 403.933
25.23000 406.933
25.24000 402.796
25.25000 398.241
25.26000 395.233
25.27000 409.347
25.28000 420.060
25.29000 420.048
25.30000 406.321
25.31000 392.559
25.32000 386.414
25.33000 386.605
25.34000 386.793
25.35000 388.231
25.36000 390.310
25.37000 392.646
25.38000 399.869
25.39000 408.954
25.40000 416.699
25.41000 410.968
25.42000 401.747
25.43000 393.653
25.44000 385.482
25.45000 378.450
25.46000 374.398
25.47000 382.339
25.48000 391.541
25.49000 399.223
25.50000 402.760
25.51000 406.062
25.52000 408.229
25.53000 402.451
25.54000 398.068
25.55000 396.738
25.56000 399.238
25.57000 401.752
25.58000 404.805
25.59000 408.297
25.60000 411.743
25.61000 407.558
25.62000 399.422
25.63000 391.713
25.64000 391.844
25.65000 394.912
25.66000 398.046
25.67000 401.830
25.68000 405.780
25.69000 409.237
25.70000 411.730
25.71000 413.731
25.72000 413.918
25.73000 406.937
25.74000 399.220
25.75000 394.572
25.76000 398.155
25.77000 402.191
25.78000 404.822
25.79000 398.541
25.80000 393.793
25.81000 390.431
25.82000 388.779
25.83000 387.136
25.84000 387.066
25.85000 388.258
25.86000 389.432
25.87000 392.456
25.88000 396.361
25.89000 399.901
25.90000 396.956
25.91000 391.621
25.92000 387.192
25.93000 391.438
25.94000 397.851
25.95000 403.449
25.96000 399.374
25.97000 394.533
25.98000 391.140
25.99000 393.370
26.00000 396.163
26.01000 394.809
26.02000 382.521
26.03000 369.652
26.04000 361.316
26.05000 376.544
26.06000 388.039
26.07000 392.305
26.08000 387.833
26.09000 383.357
26.10000 382.822
26.11000 385.386
26.12000 387.911
26.13000 387.691
26.14000 386.068
26.15000 384.514
26.16000 384.146
26.17000 384.207
26.18000 384.712
26.19000 389.371
26.20000 395.049
26.21000 399.990
26.22000 394.057
26.23000 387.501
26.24000 381.859
26.25000 379.701
26.26000 377.884
26.27000 377.231
26.28000 379.596
26.29000 382.116
26.30000 383.738
26.31000 381.035
26.32000 379.003
26.33000 379.505
26.34000 383.014
26.35000 386.514
26.36000 386.495
26.37000 383.761
26.38000 381.071
26.39000 377.877
26.40000 374.531
26.41000 371.069
26.42000 365.679
26.43000 359.603
26.44000 354.806
26.45000 361.684
26.46000 371.375
26.47000 379.784
26.48000 383.565
26.49000 386.166
26.50000 388.659
26.51000 390.743
26.52000 392.789
26.53000 392.884
26.54000 388.008
26.55000 382.885
26.56000 379.610
26.57000 378.512
26.58000 377.741
26.59000 377.256
26.60000 377.104
26.61000 376.960
26.62000 378.596
26.63000 381.581
26.64000 384.516
26.65000 381.012
26.66000 374.442
26.67000 368.213
26.68000 367.480
26.69000 368.671
26.70000 370.066
26.71000 373.292
26.72000 376.952
26.73000 380.117
26.74000 377.200
26.75000 373.924
26.76000 372.762
26.77000 379.382
26.78000 386.724
26.79000 392.533
26.80000 394.501
26.81000 396.286
26.82000 397.420
26.83000 387.344
26.84000 379.891
26.85000 373.628
26.86000 368.724
26.87000 363.866
26.88000 367.664
26.89000 377.900
26.90000 387.952
26.91000 387.323
26.92000 381.534
26.93000 376.079
26.94000 375.856
26.95000 377.432
26.96000 378.947
26.97000 379.930
26.98000 380.789
26.99000 381.530
27.00000 380.109
27.01000 378.628
27.02000 376.504
27.03000 372.055
27.04000 367.396
27.05000 366.277
27.06000 373.873
27.07000 381.871
27.08000 386.915
27.09000 387.191
27.10000 387.335
27.11000 387.235
27.12000 386.861
27.13000 386.491
27.14000 386.861
27.15000 387.773
27.16000 388.667
27.17000 384.682
27.18000 378.519
27.19000 372.775
27.20000 373.402
27.21000 376.181
27.22000 379.120
27.23000 383.412
27.24000 388.013
27.25000 391.969
27.26000 385.876
27.27000 379.463
27.28000 374.876
27.29000 376.774
27.30000 379.243
27.31000 381.852
27.32000 384.801
27.33000 387.765
27.34000 389.622
27.35000 379.864
27.36000 372.693
27.37000 368.288
27.38000 366.920
27.39000 365.577
27.40000 367.800
27.41000 372.579
27.42000 377.263
27.43000 384.219
27.44000 391.973
27.45000 399.226
27.46000 399.091
27.47000 396.503
27.48000 393.709
27.49000 389.201
27.50000 384.310
27.51000 380.117
27.52000 379.781
27.53000 379.969
27.54000 379.745
27.55000 378.087
27.56000 376.306
27.57000 374.813
27.58000 374.009
27.59000 373.234
27.60000 372.753
27.61000 377.046
27.62000 380.186
27.63000 381.739
27.64000 381.584
27.65000 381.444
27.66000 383.259
27.67000 386.452
27.68000 389.578
27.69000 386.605
27.70000 380.952
27.71000 375.793
27.72000 377.716
27.73000 381.951
27.74000 385.623
27.75000 384.714
27.76000 382.799
27.77000 381.163
27.78000 372.373
27.79000 364.113
27.80000 357.790
27.81000 358.111
27.82000 358.987
27.83000 359.669
27.84000 359.897
27.85000 360.106
27.86000 360.235
27.87000 364.802
27.88000 368.123
27.89000 369.073
27.90000 367.518
27.91000 365.962
27.92000 364.300
27.93000 362.563
27.94000 360.865
27.95000 361.400
27.96000 362.918
27.97000 364.268
27.98000 363.258
27.99000 361.492
28.00000 359.204
28.01000 352.761
28.02000 345.422
28.03000 339.171
28.04000 354.940
28.05000 370.764
28.06000 382.108
28.07000 378.362
28.08000 373.387
28.09000 367.993
28.10000 361.635
28.11000 355.239
28.12000 351.318
28.13000 365.235
28.14000 375.357
28.15000 379.471
28.16000 377.367
28.17000 375.249
28.18000 371.524
28.19000 366.709
28.20000 362.005
28.21000 364.107
28.22000 369.125
28.23000 373.468
28.24000 368.674
28.25000 360.999
28.26000 355.069
28.27000 362.713
28.28000 373.230
28.29000 382.158
28.30000 379.011
28.31000 374.997
28.32000 370.786
28.33000 365.923
28.34000 361.008
28.35000 358.688
28.36000 362.234
28.37000 366.004
28.38000 368.298
28.39000 367.638
28.40000 367.142
28.41000 365.106
28.42000 361.506
28.43000 357.952
28.44000 359.151
28.45000 363.519
28.46000 367.783
28.47000 375.993
28.48000 385.553
28.49000 393.806
28.50000 384.879
28.51000 370.631
28.52000 358.213
28.53000 359.727
28.54000 364.133
28.55000 367.862
28.56000 363.944
28.57000 359.814
28.58000 355.874
28.59000 352.553
28.60000 349.278
28.61000 348.784
28.62000 354.465
28.63000 360.373
28.64000 363.943
28.65000 364.296
28.66000 364.524
28.67000 360.992
28.68000 353.720
28.69000 346.540
28.70000 347.938
28.71000 354.956
28.72000 361.798
28.73000 362.591
28.74000 360.776
28.75000 359.567
28.76000 366.104
28.77000 375.000
28.78000 381.651
28.79000 371.592
28.80000 358.129
28.81000 346.775
28.82000 350.271
28.83000 354.802
28.84000 358.122
28.85000 357.571
28.86000 356.731
28.87000 354.372
28.88000 348.695
28.89000 342.902
28.90000 339.428
28.91000 350.288
28.92000 358.096
28.93000 358.342
28.94000 351.218
28.95000 344.202
28.96000 346.586
28.97000 355.019
28.98000 363.230
28.99000 365.004
29.00000 364.006
29.01000 362.514
29.02000 354.879
29.03000 345.405
29.04000 337.996
29.05000 345.622
29.06000 356.255
29.07000 365.192
29.08000 372.788
29.09000 378.977
29.10000 381.055
29.11000 370.221
29.12000 358.447
29.13000 349.321
29.14000 345.882
29.15000 342.634
29.16000 340.701
29.17000 345.891
29.18000 349.610
29.19000 352.520
29.20000 354.656
29.21000 356.782
29.22000 358.115
29.23000 358.945
29.24000 359.752
29.25000 360.637
29.26000 361.510
29.27000 362.260
29.28000 361.523
29.29000 360.349
29.30000 359.491
29.31000 360.884
29.32000 362.719
29.33000 364.257
29.34000 362.370
29.35000 360.448
29.36000 358.390
29.37000 355.915
29.38000 353.411
29.39000 351.150
29.40000 349.401
29.41000 347.669
29.42000 346.646
29.43000 355.382
29.44000 361.605
29.45000 365.178
29.46000 366.269
29.47000 367.318
29.48000 365.284
29.49000 361.335
29.50000 357.500
29.51000 357.382
29.52000 358.764
29.53000 359.994
29.54000 359.428
29.55000 358.343
29.56000 356.769
29.57000 351.779
29.58000 346.132
29.59000 341.419
29.60000 345.844
29.61000 350.436
29.62000 353.703
29.63000 352.954
29.64000 351.928
29.65000 350.349
29.66000 347.624
29.67000 344.863
29.68000 343.245
29.69000 347.064
29.70000 349.779
29.71000 351.728
29.72000 352.973
29.73000 354.233
29.74000 356.495
29.75000 359.370
29.76000 362.159
29.77000 362.080
29.78000 360.873
29.79000 360.320
29.80000 367.268
29.81000 376.344
29.82000 383.285
29.83000 375.640
29.84000 365.242
29.85000 356.593
29.86000 359.520
29.87000 363.080
29.88000 365.984
29.89000 366.933
29.90000 367.752
29.91000 369.534
29.92000 373.282
29.93000 377.087
29.94000 379.299
29.95000 382.464
29.96000 384.688
29.97000 383.350
29.98000 378.804
29.99000 374.306
30.00000 372.911
30.01000 373.378
30.02000 373.831
30.03000 382.616
30.04000 394.154
30.05000 404.521
30.06000 401.806
30.07000 395.443
30.08000 390.032
30.09000 390.988
30.10000 393.124
30.11000 394.894
30.12000 393.046
30.13000 391.173
30.14000 387.458
30.15000 378.345
30.16000 368.883
30.17000 365.988
30.18000 376.260
30.19000 386.901
30.20000 393.039
30.21000 397.559
30.22000 400.709
30.23000 394.977
30.24000 381.398
30.25000 368.044
30.26000 368.398
30.27000 376.828
30.28000 384.984
30.29000 387.579
30.30000 387.918
30.31000 387.535
30.32000 379.300
30.33000 368.914
30.34000 360.239
30.35000 362.771
30.36000 367.337
30.37000 371.108
30.38000 376.164
30.39000 380.450
30.40000 382.832
30.41000 379.727
30.42000 376.277
30.43000 372.594
30.44000 368.448
30.45000 364.290
30.46000 361.911
30.47000 359.343
30.48000 357.553
30.49000 358.669
30.50000 362.303
30.51000 365.895
30.52000 367.078
30.53000 366.865
30.54000 366.660
30.55000 364.990
30.56000 362.870
30.57000 360.887
30.58000 360.361
30.59000 360.226
30.60000 360.250
30.61000 361.298
30.62000 362.527
30.63000 363.539
30.64000 362.412
30.65000 361.291
30.66000 360.509
30.67000 360.688
30.68000 360.925
30.69000 364.782
30.70000 375.651
30.71000 386.698
30.72000 392.967
30.73000 383.609
30.74000 377.052
30.75000 373.039
30.76000 371.192
30.77000 369.523
30.78000 377.434
30.79000 390.796
30.80000 403.688
30.81000 395.787
30.82000 380.745
30.83000 367.495
30.84000 372.804
30.85000 383.019
30.86000 391.447
30.87000 388.642
30.88000 383.876
30.89000 379.969
30.90000 384.391
30.91000 388.758
30.92000 396.355
30.93000 412.944
30.94000 430.063
30.95000 439.057
30.96000 432.588
30.97000 425.745
30.98000 421.894
30.99000 440.155
31.00000 452.877
31.01000 459.376
31.02000 460.683
31.03000 462.148
31.04000 471.556
31.05000 485.405
31.06000 498.749
31.07000 513.366
31.08000 527.556
31.09000 541.608
31.10000 554.258
31.11000 566.544
31.12000 579.542
31.13000 596.926
31.14000 615.061
31.15000 629.874
31.16000 655.897
31.17000 678.165
31.18000 698.704
31.19000 714.514
31.20000 730.053
31.21000 754.529
31.22000 795.722
31.23000 837.298
31.24000 860.499
31.25000 904.428
31.26000 934.877
31.27000 964.159
31.28000 992.487
31.29000 1020.946
31.30000 1055.649
31.31000 1093.782
31.32000 1130.471
31.33000 1149.792
31.34000 1161.795
31.35000 1174.083
31.36000 1189.183
31.37000 1205.000
31.38000 1219.286
31.39000 1224.333
31.40000 1227.831
31.41000 1230.677
31.42000 1222.671
31.43000 1215.219
31.44000 1207.015
31.45000 1196.783
31.46000 1186.440
31.47000 1172.982
31.48000 1153.795
31.49000 1134.483
31.50000 1123.799
31.51000 1085.434
31.52000 1058.886
31.53000 1024.572
31.54000 984.019
31.55000 943.579
31.56000 908.173
31.57000 875.486
31.58000 844.083
31.59000 814.960
31.60000 788.485
31.61000 761.754
31.62000 732.565
31.63000 702.761
31.64000 674.253
31.65000 653.408
31.66000 633.823
31.67000 617.945
31.68000 591.485
31.69000 569.059
31.70000 547.037
31.71000 526.085
31.72000 505.190
31.73000 489.138
31.74000 481.836
31.75000 474.714
31.76000 470.807
31.77000 453.909
31.78000 442.277
31.79000 434.640
31.80000 430.152
31.81000 425.757
31.82000 425.352
31.83000 427.065
31.84000 428.708
31.85000 415.069
31.86000 397.142
31.87000 381.036
31.88000 382.026
31.89000 387.220
31.90000 391.137
31.91000 387.651
31.92000 382.973
31.93000 379.195
31.94000 376.360
31.95000 374.129
31.96000 374.082
31.97000 379.708
31.98000 385.627
31.99000 386.084
32.00000 376.840
32.01000 367.408
32.02000 362.280
32.03000 363.954
32.04000 365.120
32.05000 368.217
32.06000 372.809
32.07000 377.160
32.08000 371.719
32.09000 361.170
32.10000 351.066
32.11000 352.300
32.12000 357.224
32.13000 361.431
32.14000 359.078
32.15000 355.140
32.16000 352.025
32.17000 353.589
32.18000 355.892
32.19000 357.745
32.20000 356.223
32.21000 354.727
32.22000 355.599
32.23000 362.524
32.24000 369.750
32.25000 369.281
32.26000 355.385
32.27000 341.244
32.28000 333.624
32.29000 331.672
32.30000 330.356
32.31000 331.774
32.32000 335.271
32.33000 338.586
32.34000 334.917
32.35000 327.668
32.36000 320.735
32.37000 328.423
32.38000 340.352
32.39000 350.377
32.40000 343.362
32.41000 332.307
32.42000 323.135
32.43000 324.461
32.44000 327.410
32.45000 329.772
32.46000 322.221
32.47000 315.362
32.48000 311.218
32.49000 313.892
32.50000 316.893
32.51000 320.067
32.52000 323.536
32.53000 327.010
32.54000 328.865
32.55000 323.793
32.56000 320.348
32.57000 320.386
32.58000 323.021
32.59000 325.504
32.60000 322.430
32.61000 316.556
32.62000 310.947
32.63000 312.872
32.64000 317.073
32.65000 320.990
32.66000 322.420
32.67000 323.270
32.68000 324.209
32.69000 325.630
32.70000 327.125
32.71000 328.317
32.72000 322.363
32.73000 317.032
32.74000 315.770
32.75000 324.556
32.76000 333.809
32.77000 338.768
32.78000 336.495
32.79000 334.105
32.80000 332.841
32.81000 326.947
32.82000 322.958
32.83000 322.058
32.84000 323.422
32.85000 324.669
32.86000 321.854
32.87000 317.028
32.88000 312.427
32.89000 309.591
32.90000 307.514
32.91000 305.875
32.92000 307.966
32.93000 310.911
32.94000 314.066
32.95000 318.353
32.96000 322.808
32.97000 326.349
32.98000 327.325
32.99000 327.929
33.00000 326.723
33.01000 321.126
33.02000 315.333
33.03000 312.678
33.04000 315.218
33.05000 317.836
33.06000 319.208
33.07000 318.615
33.08000 318.205
33.09000 316.500
33.10000 313.864
33.11000 311.304
33.12000 311.255
33.13000 312.429
33.14000 313.547
33.15000 309.184
33.16000 303.456
33.17000 298.356
33.18000 298.497
33.19000 299.815
33.20000 300.878
33.21000 300.606
33.22000 300.142
33.23000 299.773
33.24000 302.463
33.25000 304.836
33.26000 306.275
33.27000 305.486
33.28000 304.600
33.29000 302.707
33.30000 299.174
33.31000 295.619
33.32000 293.772
33.33000 296.393
33.34000 298.137
33.35000 296.270
33.36000 291.853
33.37000 287.698
33.38000 291.907
33.39000 300.118
33.40000 307.920
33.41000 301.537
33.42000 291.353
33.43000 282.479
33.44000 284.302
33.45000 288.482
33.46000 292.147
33.47000 293.155
33.48000 293.787
33.49000 294.285
33.50000 291.935
33.51000 289.860
33.52000 289.851
33.53000 294.690
33.54000 299.731
33.55000 303.770
33.56000 306.210
33.57000 308.628
33.58000 309.872
33.59000 299.755
33.60000 293.004
33.61000 293.693
33.62000 299.541
33.63000 305.263
33.64000 307.129
33.65000 307.183
33.66000 307.234
33.67000 303.854
33.68000 299.718
33.69000 296.026
33.70000 295.861
33.71000 296.460
33.72000 297.891
33.73000 303.525
33.74000 309.745
33.75000 314.628
33.76000 312.058
33.77000 309.514
33.78000 306.123
33.79000 300.777
33.80000 295.353
33.81000 293.904
33.82000 298.696
33.83000 303.564
33.84000 306.043
33.85000 295.875
33.86000 289.114
33.87000 289.232
33.88000 294.033
33.89000 298.755
33.90000 301.167
33.91000 302.510
33.92000 303.783
33.93000 306.295
33.94000 308.969
33.95000 310.861
33.96000 306.662
33.97000 301.170
33.98000 298.661
33.99000 310.953
34.00000 325.259
34.01000 336.443
34.02000 324.507
34.03000 313.513
34.04000 307.592
34.05000 313.166
34.06000 319.181
34.07000 321.378
34.08000 317.690
34.09000 313.935
34.10000 312.041
34.11000 317.820
34.12000 321.670
34.13000 324.079
34.14000 325.524
34.15000 326.758
34.16000 322.074
34.17000 314.700
34.18000 307.730
34.19000 315.614
34.20000 327.095
34.21000 337.288
34.22000 337.660
34.23000 335.987
34.24000 334.999
34.25000 337.348
34.26000 340.141
34.27000 342.315
34.28000 350.723
34.29000 357.803
34.30000 361.144
34.31000 356.156
34.32000 350.861
34.33000 345.293
34.34000 339.312
34.35000 333.327
34.36000 331.897
34.37000 335.010
34.38000 338.103
34.39000 339.326
34.40000 339.321
34.41000 339.386
34.42000 341.312
34.43000 344.070
34.44000 346.672
34.45000 344.802
34.46000 341.836
34.47000 338.675
34.48000 334.057
34.49000 329.141
34.50000 325.157
34.51000 325.621
34.52000 326.665
34.53000 327.475
34.54000 323.443
34.55000 319.951
34.56000 318.531
34.57000 321.648
34.58000 324.926
34.59000 325.431
34.60000 321.811
34.61000 318.152
34.62000 316.595
34.63000 317.092
34.64000 317.582
34.65000 317.353
34.66000 316.661
34.67000 315.966
34.68000 315.188
34.69000 314.372
34.70000 313.604
34.71000 310.150
34.72000 306.253
34.73000 302.412
34.74000 298.985
34.75000 295.642
34.76000 292.676
34.77000 291.486
34.78000 290.521
34.79000 289.777
34.80000 290.463
34.81000 291.090
34.82000 292.145
34.83000 294.122
34.84000 296.131
34.85000 297.255
34.86000 297.087
34.87000 296.908
34.88000 296.349
34.89000 295.424
34.90000 294.499
34.91000 293.516
34.92000 292.496
34.93000 291.440
34.94000 289.483
34.95000 287.137
34.96000 284.931
34.97000 284.066
34.98000 283.638
34.99000 282.910
35.00000 280.041
35.01000 276.751
35.02000 273.217
35.03000 268.566
35.04000 263.775
35.05000 260.095
35.06000 269.039
35.07000 276.819
35.08000 281.863
35.09000 281.113
35.10000 280.176
35.11000 277.942
35.12000 273.847
35.13000 269.738
35.14000 269.608
35.15000 273.214
35.16000 276.723
35.17000 272.932
35.18000 264.594
35.19000 256.714
35.20000 259.755
35.21000 267.431
35.22000 274.635
35.23000 271.647
35.24000 266.234
35.25000 261.411
35.26000 260.719
35.27000 260.824
35.28000 261.391
35.29000 264.044
35.30000 266.951
35.31000 269.174
35.32000 271.868
35.33000 274.019
35.34000 276.496
35.35000 279.655
35.36000 282.835
35.37000 282.921
35.38000 278.648
35.39000 274.345
35.40000 272.329
35.41000 272.420
35.42000 272.524
35.43000 273.562
35.44000 275.172
35.45000 276.623
35.46000 274.425
35.47000 270.703
35.48000 267.218
35.49000 263.008
35.50000 258.992
35.51000 255.808
35.52000 258.334
35.53000 261.940
35.54000 264.377
35.55000 261.633
35.56000 258.273
35.57000 255.714
35.58000 261.601
35.59000 266.679
35.60000 269.130
35.61000 266.210
35.62000 263.130
35.63000 264.360
35.64000 271.555
35.65000 278.785
35.66000 277.575
35.67000 268.749
35.68000 259.987
35.69000 255.334
35.70000 253.151
35.71000 251.121
35.72000 252.458
35.73000 255.177
35.74000 257.719
35.75000 256.105
35.76000 253.585
35.77000 252.533
35.78000 261.325
35.79000 271.946
35.80000 279.770
35.81000 275.426
35.82000 269.666
35.83000 265.301
35.84000 272.173
35.85000 278.142
35.86000 279.739
35.87000 272.547
35.88000 265.107
35.89000 263.424
35.90000 269.564
35.91000 275.746
35.92000 276.598
35.93000 272.734
35.94000 268.896
35.95000 266.685
35.96000 265.435
35.97000 264.455
35.98000 269.245
35.99000 276.361
36.00000 283.002
36.01000 279.476
36.02000 273.752
36.03000 269.039
36.04000 270.963
36.05000 274.096
36.06000 276.462
36.07000 275.556
36.08000 274.277
36.09000 273.312
36.10000 261.824
36.11000 252.305
36.12000 246.943
36.13000 249.789
36.14000 252.857
36.15000 253.297
36.16000 250.231
36.17000 247.150
36.18000 249.323
36.19000 256.052
36.20000 262.666
36.21000 262.698
36.22000 258.910
36.23000 255.456
36.24000 258.876
36.25000 265.020
36.26000 270.742
36.27000 269.938
36.28000 267.619
36.29000 266.007
36.30000 268.945
36.31000 272.696
36.32000 274.248
36.33000 266.576
36.34000 257.880
36.35000 251.351
36.36000 249.505
36.37000 248.286
36.38000 248.802
36.39000 252.687
36.40000 256.658
36.41000 260.319
36.42000 263.573
36.43000 266.823
36.44000 265.200
36.45000 259.435
36.46000 253.839
36.47000 257.354
36.48000 266.066
36.49000 274.315
36.50000 273.370
36.51000 268.843
36.52000 264.637
36.53000 255.431
36.54000 245.929
36.55000 237.886
36.56000 239.047
36.57000 241.818
36.58000 245.045
36.59000 250.150
36.60000 255.457
36.61000 259.423
36.62000 266.654
36.63000 272.441
36.64000 273.690
36.65000 266.280
36.66000 258.660
36.67000 257.836
36.68000 265.751
36.69000 273.692
36.70000 272.601
36.71000 263.980
36.72000 255.481
36.73000 253.186
36.74000 254.369
36.75000 255.513
36.76000 255.942
36.77000 256.097
36.78000 256.240
36.79000 257.673
36.80000 259.267
36.81000 260.956
36.82000 263.238
36.83000 265.621
36.84000 266.880
36.85000 263.589
36.86000 259.816
36.87000 257.011
36.88000 254.925
36.89000 253.335
36.90000 254.321
36.91000 260.140
36.92000 266.071
36.93000 270.321
36.94000 272.450
36.95000 274.570
36.96000 274.869
36.97000 273.677
36.98000 272.478
36.99000 270.931
37.00000 269.191
37.01000 267.869
37.02000 274.291
37.03000 283.628
37.04000 292.269
37.05000 286.464
37.06000 277.927
37.07000 270.334
37.08000 268.452
37.09000 267.531
37.10000 265.760
37.11000 260.616
37.12000 255.124
37.13000 251.059
37.14000 255.898
37.15000 260.036
37.16000 263.274
37.17000 264.854
37.18000 266.397
37.19000 265.352
37.20000 261.099
37.21000 256.845
37.22000 257.553
37.23000 262.239
37.24000 266.839
37.25000 267.527
37.26000 266.096
37.27000 264.444
37.28000 258.807
37.29000 251.696
37.30000 245.128
37.31000 249.106
37.32000 255.049
37.33000 260.114
37.34000 259.970
37.35000 258.967
37.36000 257.466
37.37000 254.018
37.38000 250.375
37.39000 247.692
37.40000 254.982
37.41000 261.038
37.42000 262.850
37.43000 256.973
37.44000 250.937
37.45000 250.170
37.46000 255.806
37.47000 261.447
37.48000 265.468
37.49000 268.195
37.50000 270.849
37.51000 270.394
37.52000 268.284
37.53000 266.149
37.54000 263.555
37.55000 260.794
37.56000 258.250
37.57000 251.752
37.58000 245.063
37.59000 239.931
37.60000 243.855
37.61000 249.240
37.62000 253.424
37.63000 252.999
37.64000 252.121
37.65000 251.478
37.66000 254.118
37.67000 256.288
37.68000 257.959
37.69000 258.743
37.70000 259.508
37.71000 262.395
37.72000 267.810
37.73000 273.217
37.74000 273.635
37.75000 270.198
37.76000 266.758
37.77000 263.146
37.78000 259.444
37.79000 255.857
37.80000 254.200
37.81000 253.233
37.82000 252.343
37.83000 255.341
37.84000 258.859
37.85000 261.619
37.86000 260.056
37.87000 257.810
37.88000 255.805
37.89000 254.707
37.90000 253.696
37.91000 252.959
37.92000 248.889
37.93000 245.626
37.94000 243.923
37.95000 244.950
37.96000 246.028
37.97000 248.335
37.98000 252.080
37.99000 255.818
38.00000 259.211
38.01000 262.320
38.02000 265.355
38.03000 265.510
38.04000 264.184
38.05000 262.671
38.06000 258.109
38.07000 252.475
38.08000 247.307
38.09000 244.943
38.10000 243.430
38.11000 243.154
38.12000 249.795
38.13000 257.507
38.14000 263.057
38.15000 260.608
38.16000 257.410
38.17000 255.091
38.18000 257.418
38.19000 259.378
38.20000 259.676
38.21000 257.116
38.22000 254.507
38.23000 254.469
38.24000 257.383
38.25000 260.291
38.26000 264.486
38.27000 269.604
38.28000 274.771
38.29000 281.735
38.30000 289.606
38.31000 296.603
38.32000 289.775
38.33000 278.171
38.34000 267.548
38.35000 273.247
38.36000 281.708
38.37000 289.799
38.38000 295.864
38.39000 301.622
38.40000 308.467
38.41000 319.262
38.42000 330.418
38.43000 338.466
38.44000 350.612
38.45000 360.069
38.46000 368.468
38.47000 375.082
38.48000 381.668
38.49000 396.789
38.50000 421.523
38.51000 446.183
38.52000 468.308
38.53000 488.408
38.54000 508.367
38.55000 523.349
38.56000 535.861
38.57000 549.285
38.58000 576.692
38.59000 608.846
38.60000 638.213
38.61000 656.107
38.62000 669.659
38.63000 685.856
38.64000 716.269
38.65000 748.794
38.66000 777.040
38.67000 790.007
38.68000 801.616
38.69000 809.948
38.70000 830.165
38.71000 846.033
38.72000 856.084
38.73000 856.481
38.74000 856.730
38.75000 854.741
38.76000 850.279
38.77000 845.833
38.78000 832.661
38.79000 813.375
38.80000 794.273
38.81000 781.349
38.82000 771.440
38.83000 760.768
38.84000 738.738
38.85000 712.918
38.86000 689.390
38.87000 654.456
38.88000 621.233
38.89000 590.707
38.90000 574.391
38.91000 560.144
38.92000 542.563
38.93000 513.288
38.94000 483.002
38.95000 461.380
38.96000 449.526
38.97000 440.806
38.98000 427.908
38.99000 408.196
39.00000 388.387
39.01000 369.724
39.02000 352.299
39.03000 334.948
39.04000 322.557
39.05000 313.766
39.06000 305.013
39.07000 297.475
39.08000 290.520
39.09000 283.664
39.10000 278.254
39.11000 273.318
39.12000 268.830
39.13000 264.281
39.14000 260.248
39.15000 257.162
39.16000 258.977
39.17000 261.490
39.18000 261.654
39.19000 253.721
39.20000 245.107
39.21000 238.990
39.22000 239.485
39.23000 240.072
39.24000 241.007
39.25000 242.500
39.26000 244.001
39.27000 246.875
39.28000 251.207
39.29000 255.519
39.30000 250.460
39.31000 239.015
39.32000 227.984
39.33000 229.680
39.34000 237.379
39.35000 244.467
39.36000 242.971
39.37000 238.709
39.38000 234.843
39.39000 234.034
39.40000 233.906
39.41000 233.392
39.42000 230.923
39.43000 228.181
39.44000 227.289
39.45000 232.661
39.46000 238.546
39.47000 242.703
39.48000 238.571
39.49000 235.182
39.50000 235.516
39.51000 241.710
39.52000 247.976
39.53000 250.593
39.54000 249.410
39.55000 248.232
39.56000 249.686
39.57000 252.895
39.58000 255.831
39.59000 250.699
39.60000 241.827
39.61000 233.458
39.62000 231.937
39.63000 232.586
39.64000 233.173
39.65000 233.335
39.66000 233.397
39.67000 233.923
39.68000 236.753
39.69000 239.898
39.70000 241.371
39.71000 237.286
39.72000 232.756
39.73000 229.575
39.74000 231.501
39.75000 233.109
39.76000 230.969
39.77000 223.034
39.78000 215.033
39.79000 214.546
39.80000 221.728
39.81000 228.870
39.82000 232.952
39.83000 234.957
39.84000 236.894
39.85000 236.930
39.86000 236.100
39.87000 235.386
39.88000 236.214
39.89000 237.521
39.90000 238.701
39.91000 238.732
39.92000 238.548
39.93000 237.850
39.94000 234.649
39.95000 231.114
39.96000 227.538
39.97000 223.828
39.98000 220.108
39.99000 217.510
40.00000 215.896
40.01000 214.705
40.02000 215.841
40.03000 220.512
40.04000 225.219
40.05000 228.696
40.06000 230.941
40.07000 233.173
40.08000 233.313
40.09000 232.094
40.10000 230.848
40.11000 228.909
40.12000 226.658
40.13000 224.683
40.14000 226.265
40.15000 228.936
40.16000 231.340
40.17000 234.642
40.18000 237.698
40.19000 239.807
40.20000 237.382
40.21000 234.363
40.22000 231.941
40.23000 231.431
40.24000 231.065
40.25000 230.812
40.26000 227.857
40.27000 225.559
40.28000 225.179
40.29000 227.663
40.30000 230.174
40.31000 230.309
40.32000 228.114
40.33000 225.933
40.34000 220.803
40.35000 213.873
40.36000 207.303
40.37000 210.067
40.38000 216.941
40.39000 223.463
40.40000 225.576
40.41000 226.364
40.42000 227.071
40.43000 229.657
40.44000 232.250
40.45000 234.073
40.46000 232.277
40.47000 230.019
40.48000 227.836
40.49000 225.886
40.50000 223.954
40.51000 222.620
40.52000 216.815
40.53000 212.338
40.54000 211.048
40.55000 214.428
40.56000 217.849
40.57000 219.290
40.58000 218.830
40.59000 218.373
40.60000 217.624
40.61000 216.705
40.62000 215.996
40.63000 220.509
40.64000 227.282
40.65000 233.366
40.66000 231.048
40.67000 226.247
40.68000 221.947
40.69000 218.896
40.70000 216.447
40.71000 215.098
40.72000 218.822
40.73000 223.179
40.74000 225.134
40.75000 219.632
40.76000 213.599
40.77000 209.456
40.78000 214.422
40.79000 218.367
40.80000 219.883
40.81000 217.903
40.82000 215.896
40.83000 213.620
40.84000 211.093
40.85000 208.585
40.86000 208.190
40.87000 209.097
40.88000 210.017
40.89000 211.253
40.90000 212.623
40.91000 213.982
40.92000 215.216
40.93000 216.414
40.94000 217.484
40.95000 217.331
40.96000 216.990
40.97000 215.808
40.98000 210.813
40.99000 205.352
41.00000 202.458
41.01000 207.395
41.02000 212.875
41.03000 216.615
41.04000 216.422
41.05000 216.187
41.06000 216.764
41.07000 218.491
41.08000 220.226
41.09000 220.258
41.10000 218.717
41.11000 217.189
41.12000 215.443
41.13000 213.599
41.14000 211.762
41.15000 210.083
41.16000 208.470
41.17000 207.270
41.18000 210.839
41.19000 215.769
41.20000 220.162
41.21000 215.780
41.22000 210.523
41.23000 206.716
41.24000 209.350
41.25000 212.754
41.26000 214.582
41.27000 211.687
41.28000 208.474
41.29000 206.294
41.30000 210.318
41.31000 213.458
41.32000 215.416
41.33000 215.735
41.34000 216.042
41.35000 215.067
41.36000 212.930
41.37000 210.813
41.38000 208.706
41.39000 206.648
41.40000 204.654
41.41000 204.071
41.42000 204.068
41.43000 204.035
41.44000 203.660
41.45000 203.189
41.46000 202.771
41.47000 203.432
41.48000 204.181
41.49000 204.567
41.50000 203.377
41.51000 202.002
41.52000 201.578
41.53000 203.956
41.54000 206.517
41.55000 208.244
41.56000 204.359
41.57000 201.349
41.58000 202.351
41.59000 208.821
41.60000 215.317
41.61000 214.963
41.62000 208.523
41.63000 202.148
41.64000 203.133
41.65000 208.362
41.66000 213.413
41.67000 214.638
41.68000 214.315
41.69000 214.015
41.70000 213.959
41.71000 213.970
41.72000 213.980
41.73000 213.958
41.74000 213.935
41.75000 212.844
41.76000 207.180
41.77000 200.994
41.78000 197.034
41.79000 199.517
41.80000 202.408
41.81000 204.346
41.82000 205.436
41.83000 206.228
41.84000 206.694
41.85000 206.723
41.86000 206.751
41.87000 207.961
41.88000 210.199
41.89000 212.414
41.90000 211.444
41.91000 208.685
41.92000 206.205
41.93000 209.511
41.94000 215.115
41.95000 220.195
41.96000 219.660
41.97000 217.606
41.98000 215.791
41.99000 216.090
42.00000 216.675
42.01000 216.993
42.02000 216.189
42.03000 215.261
42.04000 215.767
42.05000 220.357
42.06000 225.197
42.07000 228.422
42.08000 222.060
42.09000 217.167
42.10000 213.317
42.11000 210.835
42.12000 208.360
42.13000 206.321
42.14000 204.656
42.15000 203.010
42.16000 206.527
42.17000 212.840
42.18000 218.929
42.19000 220.531
42.20000 220.379
42.21000 219.832
42.22000 215.168
42.23000 209.409
42.24000 204.333
42.25000 207.395
42.26000 211.265
42.27000 214.780
42.28000 216.824
42.29000 218.707
42.30000 220.032
42.31000 219.790
42.32000 219.456
42.33000 219.235
42.34000 217.464
42.35000 216.128
42.36000 214.733
42.37000 213.261
42.38000 211.790
42.39000 211.055
42.40000 210.937
42.41000 210.821
42.42000 211.227
42.43000 211.910
42.44000 212.721
42.45000 216.013
42.46000 220.258
42.47000 223.580
42.48000 217.517
42.49000 209.005
42.50000 201.524
42.51000 203.142
42.52000 205.881
42.53000 208.039
42.54000 207.844
42.55000 207.398
42.56000 208.771
42.57000 215.146
42.58000 221.810
42.59000 226.194
42.60000 219.441
42.61000 214.277
42.62000 212.031
42.63000 213.480
42.64000 214.935
42.65000 213.713
42.66000 210.288
42.67000 206.908
42.68000 205.786
42.69000 205.908
42.70000 205.861
42.71000 202.675
42.72000 198.303
42.73000 194.706
42.74000 198.802
42.75000 204.870
42.76000 210.189
42.77000 212.219
42.78000 213.486
42.79000 214.538
42.80000 214.736
42.81000 214.845
42.82000 214.041
42.83000 210.766
42.84000 207.353
42.85000 205.122
42.86000 208.119
42.87000 210.404
42.88000 210.496
42.89000 207.863
42.90000 205.225
42.91000 203.665
42.92000 202.976
42.93000 202.296
42.94000 198.683
42.95000 193.627
42.96000 189.250
42.97000 197.146
42.98000 209.594
42.99000 220.556
43.00000 217.119
43.01000 210.057
43.02000 203.885
43.03000 199.691
43.04000 196.380
43.05000 194.547
43.06000 198.500
43.07000 203.039
43.08000 205.669
43.09000 203.226
43.10000 200.510
43.11000 198.746
43.12000 198.476
43.13000 198.301
43.14000 196.465
43.15000 192.602
43.16000 188.750
43.17000 189.767
43.18000 194.643
43.19000 199.447
43.20000 201.058
43.21000 200.969
43.22000 201.077
43.23000 204.653
43.24000 209.493
43.25000 213.880
43.26000 213.990
43.27000 213.042
43.28000 212.216
43.29000 207.456
43.30000 202.844
43.31000 199.352
43.32000 200.163
43.33000 201.400
43.34000 201.500
43.35000 198.635
43.36000 195.615
43.37000 193.666
43.38000 194.246
43.39000 194.707
43.40000 192.618
43.41000 187.480
43.42000 182.354
43.43000 181.930
43.44000 185.164
43.45000 188.348
43.46000 191.062
43.47000 193.454
43.48000 195.786
43.49000 197.133
43.50000 198.125
43.51000 199.120
43.52000 200.140
43.53000 201.165
43.54000 202.056
43.55000 196.836
43.56000 191.557
43.57000 188.196
43.58000 192.076
43.59000 196.653
43.60000 198.679
43.61000 194.159
43.62000 189.309
43.63000 186.200
43.64000 185.730
43.65000 185.423
43.66000 186.097
43.67000 187.922
43.68000 189.750
43.69000 191.664
43.70000 193.645
43.71000 195.593
43.72000 197.225
43.73000 198.648
43.74000 200.026
43.75000 200.679
43.76000 201.077
43.77000 200.958
43.78000 196.182
43.79000 190.296
43.80000 185.197
43.81000 187.166
43.82000 189.776
43.83000 191.758
43.84000 191.410
43.85000 190.843
43.86000 190.970
43.87000 192.849
43.88000 194.814
43.89000 196.065
43.90000 190.510
43.91000 186.386
43.92000 185.293
43.93000 187.689
43.94000 190.074
43.95000 189.414
43.96000 186.471
43.97000 183.580
43.98000 184.623
43.99000 187.555
44.00000 190.468
44.01000 193.093
44.02000 195.617
44.03000 197.551
44.04000 194.284
44.05000 189.800
44.06000 185.927
44.07000 189.892
44.08000 194.272
44.09000 197.118
44.10000 194.379
44.11000 191.128
44.12000 189.337
44.13000 191.167
44.14000 193.167
44.15000 194.432
44.16000 190.118
44.17000 186.924
44.18000 186.181
44.19000 188.204
44.20000 190.229
44.21000 192.146
44.22000 193.984
44.23000 195.788
44.24000 194.948
44.25000 192.868
44.26000 190.997
44.27000 192.325
44.28000 194.743
44.29000 197.162
44.30000 199.590
44.31000 202.019
44.32000 204.110
44.33000 195.753
44.34000 187.354
44.35000 182.358
44.36000 189.543
44.37000 197.814
44.38000 202.942
44.39000 200.401
44.40000 197.513
44.41000 195.699
44.42000 196.826
44.43000 197.673
44.44000 199.898
44.45000 203.649
44.46000 207.393
44.47000 209.815
44.48000 211.281
44.49000 212.719
44.50000 215.158
44.51000 217.979
44.52000 220.301
44.53000 215.157
44.54000 207.515
44.55000 201.061
44.56000 204.597
44.57000 210.388
44.58000 215.358
44.59000 220.899
44.60000 225.654
44.61000 227.984
44.62000 221.787
44.63000 214.849
44.64000 211.576
44.65000 217.089
44.66000 222.985
44.67000 226.663
44.68000 219.331
44.69000 213.931
44.70000 211.577
44.71000 212.531
44.72000 213.515
44.73000 218.623
44.74000 226.659
44.75000 234.530
44.76000 230.757
44.77000 221.747
44.78000 213.363
44.79000 214.055
44.80000 217.731
44.81000 221.145
44.82000 222.391
44.83000 223.158
44.84000 223.814
44.85000 224.859
44.86000 225.787
44.87000 225.853
44.88000 222.936
44.89000 219.768
44.90000 218.944
44.91000 223.646
44.92000 228.580
44.93000 231.636
44.94000 225.091
44.95000 220.292
44.96000 221.670
44.97000 229.625
44.98000 237.514
44.99000 236.736
45.00000 229.918
45.01000 223.246
45.02000 224.427
45.03000 229.125
45.04000 233.323
45.05000 230.482
45.06000 225.367
45.07000 221.299
45.08000 225.642
45.09000 231.814
45.10000 237.078
45.11000 237.516
45.12000 237.317
45.13000 237.280
45.14000 237.797
45.15000 238.359
45.16000 236.189
45.17000 227.691
45.18000 218.937
45.19000 213.553
45.20000 219.899
45.21000 224.553
45.22000 229.343
45.23000 234.274
45.24000 239.140
45.25000 236.573
45.26000 228.917
45.27000 221.435
45.28000 219.419
45.29000 219.923
45.30000 220.071
45.31000 215.361
45.32000 209.108
45.33000 203.933
45.34000 207.223
45.35000 212.319
45.36000 216.651
45.37000 212.878
45.38000 208.778
45.39000 207.078
45.40000 213.389
45.41000 220.342
45.42000 224.482
45.43000 222.215
45.44000 219.700
45.45000 218.164
45.46000 214.482
45.47000 211.832
45.48000 209.743
45.49000 208.229
45.50000 206.734
45.51000 207.161
45.52000 208.882
45.53000 210.562
45.54000 211.137
45.55000 211.205
45.56000 211.344
45.57000 212.426
45.58000 213.802
45.59000 215.069
45.60000 215.505
45.61000 215.766
45.62000 215.987
45.63000 211.772
45.64000 207.742
45.65000 205.030
45.66000 206.640
45.67000 208.587
45.68000 207.208
45.69000 198.382
45.70000 189.279
45.71000 183.761
45.72000 189.822
45.73000 194.232
45.74000 195.459
45.75000 193.493
45.76000 191.567
45.77000 193.491
45.78000 197.958
45.79000 202.314
45.80000 201.383
45.81000 198.225
45.82000 195.202
45.83000 193.909
45.84000 193.148
45.85000 192.185
45.86000 189.709
45.87000 186.922
45.88000 184.568
45.89000 181.003
45.90000 177.890
45.91000 176.106
45.92000 178.603
45.93000 181.425
45.94000 182.856
45.95000 181.227
45.96000 179.489
45.97000 178.443
45.98000 178.524
45.99000 178.590
46.00000 180.479
46.01000 184.163
46.02000 187.799
46.03000 187.111
46.04000 183.619
46.05000 180.217
46.06000 177.018
46.07000 174.052
46.08000 171.555
46.09000 174.945
46.10000 180.111
46.11000 184.497
46.12000 183.152
46.13000 180.652
46.14000 178.547
46.15000 178.213
46.16000 178.124
46.17000 176.351
46.18000 169.246
46.19000 161.749
46.20000 158.366
46.21000 163.883
46.22000 169.705
46.23000 173.182
46.24000 176.341
46.25000 178.579
46.26000 179.068
46.27000 177.869
46.28000 176.686
46.29000 176.725
46.30000 177.544
46.31000 178.340
46.32000 180.176
46.33000 182.354
46.34000 184.252
46.35000 182.724
46.36000 180.180
46.37000 178.301
46.38000 181.202
46.39000 185.049
46.40000 188.276
46.41000 184.638
46.42000 180.894
46.43000 177.068
46.44000 172.983
46.45000 168.881
46.46000 167.263
46.47000 170.929
46.48000 174.769
46.49000 177.044
46.50000 179.548
46.51000 181.319
46.52000 180.379
46.53000 176.876
46.54000 173.380
46.55000 170.401
46.56000 167.747
46.57000 165.168
46.58000 169.544
46.59000 176.522
46.60000 182.815
46.61000 180.943
46.62000 176.694
46.63000 172.791
46.64000 171.321
46.65000 170.323
46.66000 169.489
46.67000 169.225
46.68000 169.063
46.69000 168.775
46.70000 168.104
46.71000 167.406
46.72000 168.861
46.73000 174.818
46.74000 180.916
46.75000 184.502
46.76000 178.080
46.77000 173.500
46.78000 171.597
46.79000 172.172
46.80000 172.784
46.81000 175.978
46.82000 180.759
46.83000 185.400
46.84000 183.674
46.85000 179.504
46.86000 175.618
46.87000 175.022
46.88000 175.368
46.89000 175.562
46.90000 174.714
46.91000 173.666
46.92000 172.794
46.93000 176.747
46.94000 180.502
46.95000 183.361
46.96000 183.532
46.97000 183.520
46.98000 181.869
46.99000 176.849
47.00000 171.727
47.01000 168.739
47.02000 172.236
47.03000 174.724
47.04000 174.298
47.05000 171.226
47.06000 168.178
47.07000 166.683
47.08000 166.127
47.09000 165.587
47.10000 164.463
47.11000 163.169
47.12000 162.110
47.13000 163.706
47.14000 166.048
47.15000 168.214
47.16000 169.196
47.17000 169.957
47.18000 170.588
47.19000 166.982
47.20000 163.591
47.21000 162.160
47.22000 166.516
47.23000 171.252
47.24000 172.367
47.25000 166.167
47.26000 159.757
47.27000 156.047
47.28000 154.921
47.29000 154.144
47.30000 156.066
47.31000 160.392
47.32000 164.627
47.33000 163.175
47.34000 158.346
47.35000 153.671
47.36000 156.390
47.37000 161.791
47.38000 166.846
47.39000 168.084
47.40000 168.267
47.41000 168.336
47.42000 167.643
47.43000 166.810
47.44000 166.122
47.45000 165.486
47.46000 164.967
47.47000 164.534
47.48000 164.354
47.49000 164.190
47.50000 165.596
47.51000 170.117
47.52000 174.724
47.53000 177.369
47.54000 166.388
47.55000 158.664
47.56000 153.105
47.57000 149.439
47.58000 145.932
47.59000 151.655
47.60000 162.764
47.61000 173.504
47.62000 174.765
47.63000 172.392
47.64000 170.085
47.65000 168.487
47.66000 167.080
47.67000 166.203
47.68000 168.754
47.69000 171.920
47.70000 174.530
47.71000 167.077
47.72000 160.017
47.73000 154.831
47.74000 154.990
47.75000 155.479
47.76000 156.925
47.77000 160.240
47.78000 163.603
47.79000 165.518
47.80000 154.262
47.81000 146.382
47.82000 145.287
47.83000 150.009
47.84000 154.682
47.85000 156.733
47.86000 157.280
47.87000 157.809
47.88000 157.895
47.89000 157.813
47.90000 157.778
47.91000 158.233
47.92000 158.820
47.93000 159.079
47.94000 157.263
47.95000 155.083
47.96000 153.292
47.97000 153.596
47.98000 154.034
47.99000 154.794
48.00000 156.456
48.01000 158.171
48.02000 159.757
48.03000 161.091
48.04000 162.419
48.05000 163.169
48.06000 167.906
48.07000 171.202
48.08000 169.998
48.09000 165.008
48.10000 160.102
48.11000 159.487
48.12000 161.289
48.13000 163.027
48.14000 162.173
48.15000 160.433
48.16000 159.100
48.17000 161.917
48.18000 165.821
48.19000 169.771
48.20000 174.006
48.21000 178.290
48.22000 181.796
48.23000 174.773
48.24000 168.099
48.25000 163.412
48.26000 164.199
48.27000 165.304
48.28000 165.513
48.29000 164.034
48.30000 162.516
48.31000 161.665
48.32000 161.283
48.33000 161.019
48.34000 160.768
48.35000 160.528
48.36000 160.307
48.37000 160.960
48.38000 162.098
48.39000 163.194
48.40000 159.538
48.41000 154.420
48.42000 149.883
48.43000 151.131
48.44000 153.867
48.45000 156.198
48.46000 156.065
48.47000 155.516
48.48000 155.069
48.49000 153.696
48.50000 152.495
48.51000 150.576
48.52000 146.710
48.53000 142.736
48.54000 143.022
48.55000 151.200
48.56000 159.554
48.57000 164.193
48.58000 165.324
48.59000 166.090
48.60000 163.913
48.61000 159.353
48.62000 154.872
48.63000 154.003
48.64000 155.100
48.65000 156.155
48.66000 154.720
48.67000 152.509
48.68000 150.792
48.69000 153.882
48.70000 158.184
48.71000 161.224
48.72000 156.730
48.73000 150.987
48.74000 146.323
48.75000 151.710
48.76000 156.935
48.77000 160.434
48.78000 159.335
48.79000 157.987
48.80000 159.537
48.81000 166.363
48.82000 173.299
48.83000 177.119
48.84000 161.455
48.85000 150.667
48.86000 151.030
48.87000 160.257
48.88000 169.283
48.89000 169.545
48.90000 165.122
48.91000 160.876
48.92000 159.355
48.93000 158.866
48.94000 158.108
48.95000 154.811
48.96000 150.885
48.97000 147.865
48.98000 150.144
48.99000 153.284
49.00000 155.824
49.01000 155.638
49.02000 155.267
49.03000 154.363
49.04000 152.063
49.05000 149.690
49.06000 149.013
49.07000 151.369
49.08000 153.785
49.09000 155.104
49.10000 151.804
49.11000 149.542
49.12000 150.225
49.13000 153.204
49.14000 156.196
49.15000 159.721
49.16000 163.526
49.17000 167.173
49.18000 169.809
49.19000 171.930
49.20000 173.523
49.21000 170.224
49.22000 165.734
49.23000 161.781
49.24000 160.904
49.25000 160.518
49.26000 160.207
49.27000 154.763
49.28000 149.940
49.29000 147.335
49.30000 150.439
49.31000 153.831
49.32000 156.472
49.33000 157.792
49.34000 159.086
49.35000 159.786
49.36000 162.036
49.37000 163.571
49.38000 163.493
49.39000 162.181
49.40000 160.874
49.41000 159.809
49.42000 158.867
49.43000 157.967
49.44000 158.133
49.45000 158.640
49.46000 159.045
49.47000 158.529
49.48000 157.794
49.49000 156.923
49.50000 155.288
49.51000 153.533
49.52000 152.125
49.53000 153.581
49.54000 154.979
49.55000 157.419
49.56000 162.495
49.57000 167.701
49.58000 168.384
49.59000 161.253
49.60000 153.984
49.61000 150.087
49.62000 157.582
49.63000 162.677
49.64000 161.503
49.65000 155.616
49.66000 149.874
49.67000 149.549
49.68000 151.973
49.69000 154.290
49.70000 157.248
49.71000 160.206
49.72000 162.476
49.73000 158.668
49.74000 153.434
49.75000 149.268
49.76000 150.983
49.77000 153.596
49.78000 155.686
49.79000 161.239
49.80000 165.984
49.81000 169.106
49.82000 168.194
49.83000 167.090
49.84000 166.228
49.85000 165.774
49.86000 165.327
49.87000 165.090
49.88000 154.231
49.89000 146.882
49.90000 147.878
49.91000 155.034
49.92000 161.884
49.93000 157.796
49.94000 148.249
49.95000 139.141
49.96000 141.231
49.97000 146.719
49.98000 152.074
49.99000 156.280
50.00000 160.221
50.01000 163.180
50.02000 160.832
50.03000 157.690
50.04000 155.187
50.05000 153.954
50.06000 153.052
50.07000 152.951
50.08000 154.813
50.09000 156.763
50.10000 156.364
50.11000 152.045
50.12000 147.665
50.13000 145.360
50.14000 149.186
50.15000 151.791
50.16000 155.508
50.17000 160.031
50.18000 164.310
50.19000 160.281
50.20000 152.177
50.21000 144.458
50.22000 150.784
50.23000 161.008
50.24000 169.987
50.25000 168.459
50.26000 164.553
50.27000 160.552
50.28000 156.046
50.29000 151.466
50.30000 147.833
50.31000 148.798
50.32000 149.897
50.33000 151.808
50.34000 155.672
50.35000 159.621
50.36000 160.977
50.37000 158.079
50.38000 155.119
50.39000 153.576
50.40000 147.234
50.41000 143.005
50.42000 147.557
50.43000 158.356
50.44000 168.798
50.45000 167.610
50.46000 160.814
50.47000 154.351
50.48000 151.469
50.49000 149.895
50.50000 149.002
50.51000 153.726
50.52000 159.698
50.53000 164.030
50.54000 159.840
50.55000 154.428
50.56000 150.154
50.57000 151.980
50.58000 153.862
50.59000 155.620
50.60000 157.085
50.61000 158.537
50.62000 159.207
50.63000 158.617
50.64000 158.010
50.65000 157.696
50.66000 158.554
50.67000 159.149
50.68000 161.913
50.69000 166.192
50.70000 170.383
50.71000 171.813
50.72000 171.935
50.73000 172.050
50.74000 166.296
50.75000 159.230
50.76000 152.872
50.77000 152.215
50.78000 152.800
50.79000 154.197
50.80000 159.729
50.81000 165.842
50.82000 170.650
50.83000 170.489
50.84000 170.032
50.85000 169.720
50.86000 169.746
50.87000 169.786
50.88000 167.969
50.89000 163.212
50.90000 158.418
50.91000 155.966
50.92000 160.434
50.93000 163.409
50.94000 163.196
50.95000 160.794
50.96000 158.528
50.97000 160.276
50.98000 163.895
50.99000 167.324
51.00000 163.951
51.01000 158.849
51.02000 154.334
51.03000 154.448
51.04000 155.552
51.05000 156.817
51.06000 158.890
51.07000 161.074
51.08000 162.784
51.09000 159.733
51.10000 156.988
51.11000 154.270
51.12000 151.612
51.13000 148.957
51.14000 147.204
51.15000 146.854
51.16000 146.521
51.17000 146.352
51.18000 146.529
51.19000 146.644
51.20000 146.386
51.21000 145.875
51.22000 145.373
51.23000 145.124
51.24000 144.989
51.25000 144.862
51.26000 144.643
51.27000 144.415
51.28000 144.360
51.29000 145.643
51.30000 147.206
51.31000 147.991
51.32000 144.951
51.33000 141.398
51.34000 138.626
51.35000 142.393
51.36000 145.803
51.37000 148.473
51.38000 149.482
51.39000 150.428
51.40000 149.900
51.41000 147.122
51.42000 144.319
51.43000 142.914
51.44000 143.149
51.45000 143.335
51.46000 146.423
51.47000 151.431
51.48000 156.264
51.49000 156.316
51.50000 154.215
51.51000 152.231
51.52000 150.302
51.53000 148.548
51.54000 147.095
51.55000 147.912
51.56000 149.197
51.57000 149.764
51.58000 146.870
51.59000 143.521
51.60000 140.920
51.61000 142.860
51.62000 144.677
51.63000 144.197
51.64000 138.650
51.65000 132.920
51.66000 130.401
51.67000 132.698
51.68000 135.042
51.69000 137.551
51.70000 140.223
51.71000 142.855
51.72000 141.874
51.73000 138.543
51.74000 135.330
51.75000 135.221
51.76000 136.484
51.77000 137.675
51.78000 140.830
51.79000 144.263
51.80000 147.197
51.81000 146.446
51.82000 144.950
51.83000 143.654
51.84000 143.309
51.85000 143.087
51.86000 142.914
51.87000 146.603
51.88000 149.757
51.89000 150.550
51.90000 146.224
51.91000 141.721
51.92000 139.809
51.93000 141.714
51.94000 143.653
51.95000 142.474
51.96000 138.281
51.97000 134.138
51.98000 134.258
51.99000 137.100
52.00000 139.814
52.01000 139.298
52.02000 137.377
52.03000 135.569
52.04000 136.187
52.05000 137.409
52.06000 138.730
52.07000 140.760
52.08000 142.930
52.09000 144.599
52.10000 143.938
52.11000 142.984
52.12000 142.249
52.13000 139.099
52.14000 136.469
52.15000 135.260
52.16000 137.083
52.17000 139.007
52.18000 138.918
52.19000 135.918
52.20000 132.894
52.21000 132.429
52.22000 134.390
52.23000 136.358
52.24000 138.914
52.25000 141.839
52.26000 144.664
52.27000 145.042
52.28000 144.374
52.29000 143.747
52.30000 143.140
52.31000 142.592
52.32000 142.004
52.33000 141.131
52.34000 140.203
52.35000 139.162
52.36000 137.609
52.37000 135.993
52.38000 134.755
52.39000 139.524
52.40000 143.621
52.41000 144.657
52.42000 139.279
52.43000 133.698
52.44000 133.357
52.45000 140.462
52.46000 147.620
52.47000 150.083
52.48000 148.185
52.49000 146.309
52.50000 146.075
52.51000 146.853
52.52000 147.417
52.53000 142.993
52.54000 136.471
52.55000 130.358
52.56000 130.141
52.57000 131.483
52.58000 132.929
52.59000 135.094
52.60000 137.397
52.61000 139.840
52.62000 142.909
52.63000 146.053
52.64000 148.452
52.65000 145.651
52.66000 143.166
52.67000 140.192
52.68000 136.212
52.69000 132.201
52.70000 131.476
52.71000 135.333
52.72000 139.221
52.73000 142.016
52.74000 143.816
52.75000 145.563
52.76000 143.762
52.77000 139.810
52.78000 136.005
52.79000 135.483
52.80000 136.317
52.81000 137.097
52.82000 138.076
52.83000 139.016
52.84000 140.115
52.85000 142.288
52.86000 144.661
52.87000 146.542
52.88000 146.255
52.89000 145.714
52.90000 145.304
52.91000 151.133
52.92000 156.037
52.93000 156.049
52.94000 146.155
52.95000 135.974
52.96000 130.882
52.97000 132.761
52.98000 134.680
52.99000 139.225
53.00000 146.106
53.01000 152.864
53.02000 151.813
53.03000 146.113
53.04000 140.580
53.05000 138.661
53.06000 138.209
53.07000 137.788
53.08000 139.206
53.09000 140.954
53.10000 142.255
53.11000 140.596
53.12000 138.394
53.13000 136.756
53.14000 137.552
53.15000 138.628
53.16000 139.441
53.17000 140.797
53.18000 141.888
53.19000 143.296
53.20000 145.338
53.21000 147.397
53.22000 146.770
53.23000 142.532
53.24000 138.276
53.25000 140.065
53.26000 147.140
53.27000 154.106
53.28000 154.621
53.29000 151.363
53.30000 148.293
53.31000 149.182
53.32000 151.652
53.33000 153.954
53.34000 156.327
53.35000 158.492
53.36000 159.977
53.37000 157.046
53.38000 153.320
53.39000 150.312
53.40000 150.338
53.41000 150.704
53.42000 150.979
53.43000 152.337
53.44000 153.452
53.45000 154.287
53.46000 154.575
53.47000 154.848
53.48000 154.954
53.49000 154.838
53.50000 154.721
53.51000 155.571
53.52000 157.249
53.53000 158.845
53.54000 155.933
53.55000 150.430
53.56000 145.163
53.57000 144.665
53.58000 146.040
53.59000 147.318
53.60000 150.779
53.61000 154.432
53.62000 157.270
53.63000 154.920
53.64000 151.655
53.65000 148.373
53.66000 145.021
53.67000 141.661
53.68000 139.145
53.69000 144.456
53.70000 148.966
53.71000 149.837
53.72000 143.707
53.73000 137.403
53.74000 136.137
53.75000 141.403
53.76000 146.691
53.77000 149.866
53.78000 151.256
53.79000 152.564
53.80000 149.594
53.81000 144.208
53.82000 139.180
53.83000 141.135
53.84000 145.786
53.85000 150.103
53.86000 147.629
53.87000 143.794
53.88000 140.841
53.89000 143.389
53.90000 146.889
53.91000 149.709
53.92000 149.758
53.93000 149.511
53.94000 149.327
53.95000 147.803
53.96000 146.555
53.97000 144.811
53.98000 142.127
53.99000 139.422
54.00000 138.249
54.01000 139.026
54.02000 139.809
54.03000 138.787
54.04000 136.278
54.05000 133.842
54.06000 134.944
54.07000 138.010
54.08000 140.870
54.09000 139.846
54.10000 137.349
54.11000 135.036
54.12000 140.301
54.13000 146.793
54.14000 152.712
54.15000 155.127
54.16000 156.949
54.17000 156.793
54.18000 148.717
54.19000 139.815
54.20000 133.213
54.21000 133.736
54.22000 134.454
54.23000 136.982
54.24000 142.869
54.25000 148.832
54.26000 149.650
54.27000 144.044
54.28000 138.426
54.29000 136.663
54.30000 138.026
54.31000 139.330
54.32000 137.941
54.33000 135.083
54.34000 132.345
54.35000 131.800
54.36000 132.073
54.37000 132.326
54.38000 135.633
54.39000 139.297
54.40000 142.061
54.41000 139.439
54.42000 135.922
54.43000 132.825
54.44000 131.376
54.45000 130.096
54.46000 129.151
54.47000 134.640
54.48000 139.164
54.49000 142.923
54.50000 145.285
54.51000 147.616
54.52000 148.922
54.53000 148.969
54.54000 149.014
54.55000 148.789
54.56000 148.351
54.57000 147.857
54.58000 144.898
54.59000 140.618
54.60000 136.712
54.61000 139.408
54.62000 144.524
54.63000 149.243
54.64000 145.875
54.65000 141.057
54.66000 136.628
54.67000 134.478
54.68000 132.699
54.69000 131.910
54.70000 134.947
54.71000 138.365
54.72000 140.874
54.73000 143.285
54.74000 145.145
54.75000 144.556
54.76000 139.576
54.77000 134.508
54.78000 131.306
54.79000 130.348
54.80000 129.397
54.81000 131.407
54.82000 135.711
54.83000 139.999
54.84000 143.664
54.85000 147.000
54.86000 150.172
54.87000 150.549
54.88000 149.919
54.89000 149.339
54.90000 146.680
54.91000 143.849
54.92000 141.049
54.93000 138.427
54.94000 135.834
54.95000 133.498
54.96000 132.139
54.97000 130.875
54.98000 129.952
54.99000 135.486
55.00000 140.007
55.01000 142.514
55.02000 141.472
55.03000 140.363
55.04000 139.292
55.05000 138.265
55.06000 137.241
55.07000 139.017
55.08000 142.919
55.09000 146.678
55.10000 144.747
55.11000 139.868
55.12000 135.451
55.13000 138.656
55.14000 144.560
55.15000 149.982
55.16000 147.617
55.17000 143.841
55.18000 140.774
55.19000 141.703
55.20000 143.256
55.21000 145.208
55.22000 148.647
55.23000 152.227
55.24000 154.829
55.25000 152.271
55.26000 150.109
55.27000 149.645
55.28000 152.123
55.29000 154.654
55.30000 156.008
55.31000 156.002
55.32000 155.993
55.33000 158.699
55.34000 163.419
55.35000 168.034
55.36000 168.697
55.37000 167.348
55.38000 166.091
55.39000 166.290
55.40000 166.996
55.41000 167.643
55.42000 167.845
55.43000 167.932
55.44000 169.006
55.45000 175.543
55.46000 182.915
55.47000 188.594
55.48000 188.068
55.49000 186.970
55.50000 186.175
55.51000 194.236
55.52000 200.743
55.53000 203.331
55.54000 199.244
55.55000 195.046
55.56000 193.820
55.57000 195.968
55.58000 198.113
55.59000 205.950
55.60000 217.906
55.61000 229.724
55.62000 236.604
55.63000 241.014
55.64000 245.284
55.65000 247.376
55.66000 248.723
55.67000 249.955
55.68000 254.607
55.69000 259.443
55.70000 264.506
55.71000 270.797
55.72000 277.273
55.73000 286.356
55.74000 304.821
55.75000 324.129
55.76000 338.019
55.77000 344.275
55.78000 348.797
55.79000 355.570
55.80000 366.108
55.81000 376.706
55.82000 386.500
55.83000 395.399
55.84000 404.266
55.85000 409.946
55.86000 413.282
55.87000 416.759
55.88000 425.067
55.89000 435.750
55.90000 446.055
55.91000 450.664
55.92000 453.358
55.93000 455.815
55.94000 456.659
55.95000 457.083
55.96000 457.848
55.97000 460.427
55.98000 463.272
55.99000 464.512
56.00000 460.075
56.01000 455.142
56.02000 451.612
56.03000 440.854
56.04000 432.395
56.05000 427.832
56.06000 429.669
56.07000 431.600
56.08000 425.044
56.09000 409.216
56.10000 393.447
56.11000 386.533
56.12000 385.944
56.13000 385.264
56.14000 381.601
56.15000 376.496
56.16000 370.920
56.17000 358.457
56.18000 343.717
56.19000 330.305
56.20000 319.284
56.21000 310.003
56.22000 300.291
56.23000 288.330
56.24000 276.046
56.25000 263.908
56.26000 252.275
56.27000 240.685
56.28000 232.435
56.29000 235.058
56.30000 237.407
56.31000 236.474
56.32000 230.243
56.33000 223.940
56.34000 218.800
56.35000 214.904
56.36000 211.027
56.37000 208.646
56.38000 207.328
56.39000 205.833
56.40000 198.783
56.41000 189.093
56.42000 179.836
56.43000 176.712
56.44000 175.580
56.45000 174.553
56.46000 171.742
56.47000 168.916
56.48000 165.977
56.49000 162.464
56.50000 158.869
56.51000 156.960
56.52000 160.800
56.53000 165.118
56.54000 168.174
56.55000 159.876
56.56000 153.218
56.57000 149.631
56.58000 150.915
56.59000 152.261
56.60000 149.275
56.61000 141.739
56.62000 134.239
56.63000 132.373
56.64000 134.361
56.65000 136.329
56.66000 137.731
56.67000 138.868
56.68000 139.796
56.69000 137.847
56.70000 134.979
56.71000 132.382
56.72000 133.333
56.73000 134.843
56.74000 136.293
56.75000 137.444
56.76000 138.555
56.77000 139.848
56.78000 141.756
56.79000 143.713
56.80000 145.091
56.81000 139.819
56.82000 135.625
56.83000 133.904
56.84000 136.038
56.85000 138.217
56.86000 138.106
56.87000 135.639
56.88000 133.184
56.89000 132.364
56.90000 132.646
56.91000 132.954
56.92000 134.035
56.93000 135.472
56.94000 136.721
56.95000 135.456
56.96000 133.401
56.97000 131.545
56.98000 130.351
56.99000 129.424
57.00000 128.862
57.01000 130.096
57.02000 131.572
57.03000 132.212
57.04000 130.102
57.05000 127.776
57.06000 126.147
57.07000 127.341
57.08000 128.323
57.09000 131.313
57.10000 137.374
57.11000 143.468
57.12000 143.500
57.13000 137.415
57.14000 131.366
57.15000 127.800
57.16000 125.909
57.17000 124.167
57.18000 126.550
57.19000 130.795
57.20000 134.641
57.21000 133.276
57.22000 130.305
57.23000 127.627
57.24000 130.656
57.25000 134.349
57.26000 137.223
57.27000 136.144
57.28000 134.544
57.29000 133.603
57.30000 134.794
57.31000 136.148
57.32000 137.091
57.33000 136.560
57.34000 136.119
57.35000 135.510
57.36000 134.647
57.37000 133.782
57.38000 134.157
57.39000 135.758
57.40000 137.348
57.41000 135.562
57.42000 131.634
57.43000 127.828
57.44000 127.223
57.45000 128.039
57.46000 128.493
57.47000 124.347
57.48000 118.808
57.49000 113.828
57.50000 115.881
57.51000 118.926
57.52000 121.515
57.53000 121.937
57.54000 122.078
57.55000 122.126
57.56000 121.876
57.57000 121.603
57.58000 121.414
57.59000 122.710
57.60000 123.723
57.61000 125.271
57.62000 127.610
57.63000 129.956
57.64000 130.515
57.65000 129.341
57.66000 128.176
57.67000 126.635
57.68000 124.883
57.69000 123.311
57.70000 126.317
57.71000 131.320
57.72000 135.851
57.73000 134.568
57.74000 131.554
57.75000 128.851
57.76000 131.778
57.77000 135.314
57.78000 136.931
57.79000 129.621
57.80000 121.183
57.81000 115.693
57.82000 119.418
57.83000 123.809
57.84000 126.832
57.85000 132.197
57.86000 136.282
57.87000 137.072
57.88000 133.083
57.89000 129.055
57.90000 126.422
57.91000 125.116
57.92000 123.820
57.93000 123.116
57.94000 122.789
57.95000 122.481
57.96000 122.617
57.97000 122.944
57.98000 123.353
57.99000 124.755
58.00000 126.447
58.01000 127.960
58.02000 126.077
58.03000 123.856
58.04000 122.121
58.05000 122.599
58.06000 123.349
58.07000 122.337
58.08000 115.906
58.09000 109.095
58.10000 104.434
58.11000 112.939
58.12000 119.620
58.13000 121.776
58.14000 117.486
58.15000 113.150
58.16000 115.011
58.17000 122.648
58.18000 130.220
58.19000 132.234
58.20000 130.837
58.21000 129.503
58.22000 129.625
58.23000 130.362
58.24000 130.922
58.25000 129.412
58.26000 127.306
58.27000 125.428
58.28000 122.266
58.29000 119.301
58.30000 117.811
58.31000 122.927
58.32000 128.840
58.33000 132.111
58.34000 127.402
58.35000 122.149
58.36000 118.576
58.37000 118.439
58.38000 118.415
58.39000 117.160
58.40000 114.182
58.41000 111.195
58.42000 111.859
58.43000 115.858
58.44000 119.821
58.45000 121.238
58.46000 121.110
58.47000 120.974
58.48000 120.627
58.49000 120.193
58.50000 119.813
58.51000 120.051
58.52000 120.462
58.53000 120.828
58.54000 120.399
58.55000 119.896
58.56000 118.984
58.57000 116.271
58.58000 113.346
58.59000 112.697
58.60000 118.805
58.61000 125.359
58.62000 129.792
58.63000 129.807
58.64000 129.722
58.65000 128.350
58.66000 125.208
58.67000 122.057
58.68000 120.234
58.69000 119.601
58.70000 118.975
58.71000 118.134
58.72000 117.186
58.73000 116.380
58.74000 118.688
58.75000 122.264
58.76000 125.365
58.77000 123.201
58.78000 119.575
58.79000 116.358
58.80000 119.977
58.81000 124.203
58.82000 127.418
58.83000 126.261
58.84000 124.601
58.85000 124.022
58.86000 126.595
58.87000 129.371
58.88000 131.236
58.89000 125.435
58.90000 120.967
58.91000 118.573
58.92000 118.978
58.93000 119.396
58.94000 119.468
58.95000 119.234
58.96000 119.003
58.97000 117.979
58.98000 116.522
58.99000 115.062
59.00000 113.529
59.01000 111.967
59.02000 110.771
59.03000 113.542
59.04000 117.394
59.05000 120.802
59.06000 124.530
59.07000 127.803
59.08000 129.761
59.09000 126.145
59.10000 121.902
59.11000 118.571
59.12000 117.855
59.13000 117.301
59.14000 116.931
59.15000 118.962
59.16000 120.513
59.17000 121.986
59.18000 123.357
59.19000 124.726
59.20000 125.252
59.21000 125.052
59.22000 124.854
59.23000 125.771
59.24000 127.293
59.25000 128.596
59.26000 125.466
59.27000 120.591
59.28000 116.108
59.29000 115.769
59.30000 116.539
59.31000 117.219
59.32000 119.476
59.33000 121.663
59.34000 123.091
59.35000 121.360
59.36000 119.280
59.37000 117.915
59.38000 118.562
59.39000 119.330
59.40000 119.840
59.41000 123.321
59.42000 125.949
59.43000 125.032
59.44000 119.507
59.45000 113.971
59.46000 113.438
59.47000 117.137
59.48000 120.791
59.49000 121.109
59.50000 119.578
59.51000 118.070
59.52000 117.027
59.53000 116.164
59.54000 115.472
59.55000 116.532
59.56000 118.053
59.57000 119.391
59.58000 119.410
59.59000 119.228
59.60000 119.047
59.61000 118.864
59.62000 118.681
59.63000 119.114
59.64000 121.258
59.65000 123.502
59.66000 124.982
59.67000 122.399
59.68000 120.422
59.69000 122.073
59.70000 128.350
59.71000 134.632
59.72000 135.103
59.73000 130.752
59.74000 126.455
59.75000 120.972
59.76000 114.990
59.77000 109.265
59.78000 108.410
59.79000 109.406
59.80000 109.924
59.81000 105.642
59.82000 100.121
59.83000 95.275
59.84000 100.674
59.85000 106.809
59.86000 111.940
59.87000 113.038
59.88000 113.714
59.89000 114.163
59.90000 113.997
59.91000 113.795
59.92000 113.663
59.93000 111.894
59.94000 110.566
59.95000 111.697
59.96000 115.906
59.97000 120.118
59.98000 121.748
59.99000 121.275
60.00000 120.809
60.01000 120.998
60.02000 121.532
60.03000 121.999
60.04000 121.253
60.05000 120.054
60.06000 118.936
60.07000 118.617
60.08000 118.501
60.09000 118.399
60.10000 115.829
60.11000 113.273
60.12000 111.505
60.13000 112.845
60.14000 114.504
60.15000 115.146
60.16000 113.071
60.17000 110.847
60.18000 109.398
60.19000 112.021
60.20000 114.009
60.21000 115.670
60.22000 116.927
60.23000 118.180
60.24000 118.448
60.25000 117.927
60.26000 117.414
60.27000 114.047
60.28000 109.287
60.29000 104.913
60.30000 107.371
60.31000 112.339
60.32000 117.040
60.33000 119.182
60.34000 120.687
60.35000 122.001
60.36000 120.859
60.37000 119.539
60.38000 118.638
60.39000 119.359
60.40000 120.243
60.41000 120.375
60.42000 118.529
60.43000 116.578
60.44000 115.316
60.45000 118.792
60.46000 121.405
60.47000 121.281
60.48000 117.857
60.49000 114.440
60.50000 115.016
60.51000 118.724
60.52000 122.376
60.53000 123.000
60.54000 122.056
60.55000 121.292
60.56000 123.625
60.57000 127.077
60.58000 129.558
60.59000 122.980
60.60000 114.184
60.61000 106.532
60.62000 113.508
60.63000 121.461
60.64000 127.186
60.65000 124.432
60.66000 120.853
60.67000 118.319
60.68000 118.486
60.69000 118.792
60.70000 118.989
60.71000 118.197
60.72000 117.606
60.73000 117.981
60.74000 119.502
60.75000 121.013
60.76000 119.933
60.77000 116.856
60.78000 113.829
60.79000 113.840
60.80000 115.379
60.81000 116.954
60.82000 119.150
60.83000 121.567
60.84000 123.411
60.85000 120.039
60.86000 115.414
60.87000 111.402
60.88000 116.006
60.89000 121.078
60.90000 125.023
60.91000 124.757
60.92000 124.092
60.93000 124.100
60.94000 125.821
60.95000 127.626
60.96000 128.779
60.97000 128.812
60.98000 128.822
60.99000 125.507
61.00000 118.334
61.01000 111.194
61.02000 112.113
61.03000 119.123
61.04000 126.013
61.05000 129.377
61.06000 130.889
61.07000 132.207
61.08000 130.407
61.09000 127.518
61.10000 125.239
61.11000 128.384
61.12000 132.808
61.13000 136.634
61.14000 132.100
61.15000 127.155
61.16000 123.932
61.17000 127.030
61.18000 130.714
61.19000 132.403
61.20000 129.109
61.21000 125.578
61.22000 123.337
61.23000 122.551
61.24000 121.999
61.25000 123.037
61.26000 125.885
61.27000 128.735
61.28000 131.559
61.29000 134.363
61.30000 137.117
61.31000 132.507
61.32000 124.494
61.33000 117.022
61.34000 117.986
61.35000 121.843
61.36000 125.456
61.37000 126.953
61.38000 127.959
61.39000 128.827
61.40000 132.568
61.41000 136.106
61.42000 137.774
61.43000 132.697
61.44000 127.011
61.45000 124.235
61.46000 128.612
61.47000 133.317
61.48000 136.281
61.49000 135.195
61.50000 134.362
61.51000 138.318
61.52000 147.623
61.53000 156.936
61.54000 166.880
61.55000 177.284
61.56000 187.489
61.57000 199.424
61.58000 211.745
61.59000 223.796
61.60000 231.758
61.61000 238.341
61.62000 245.048
61.63000 252.800
61.64000 260.790
61.65000 267.657
61.66000 275.492
61.67000 282.242
61.68000 287.105
61.69000 285.284
61.70000 282.875
61.71000 282.757
61.72000 288.171
61.73000 293.830
61.74000 297.371
61.75000 288.107
61.76000 281.283
61.77000 271.711
61.78000 259.131
61.79000 246.538
61.80000 232.421
61.81000 217.215
61.82000 202.313
61.83000 191.829
61.84000 183.804
61.85000 175.575
61.86000 164.364
61.87000 152.164
61.88000 141.036
61.89000 138.796
61.90000 138.539
61.91000 138.320
61.92000 138.589
61.93000 138.876
61.94000 138.243
61.95000 134.404
61.96000 130.291
61.97000 128.322
61.98000 131.446
61.99000 134.788
62.00000 136.864
62.01000 132.804
62.02000 129.820
62.03000 129.683
62.04000 132.604
62.05000 135.507
62.06000 135.890
62.07000 134.504
62.08000 133.146
62.09000 131.567
62.10000 129.948
62.11000 128.408
62.12000 127.999
62.13000 127.958
62.14000 128.225
62.15000 130.984
62.16000 134.290
62.17000 137.114
62.18000 135.454
62.19000 133.523
62.20000 132.549
62.21000 134.851
62.22000 137.426
62.23000 139.001
62.24000 138.240
62.25000 137.384
62.26000 136.855
62.27000 130.549
62.28000 125.968
62.29000 124.834
62.30000 127.331
62.31000 129.836
62.32000 133.273
62.33000 137.352
62.34000 141.340
62.35000 138.332
62.36000 132.305
62.37000 126.752
62.38000 127.764
62.39000 130.877
62.40000 133.814
62.41000 135.356
62.42000 136.598
62.43000 137.656
62.44000 130.867
62.45000 124.249
62.46000 119.630
62.47000 121.727
62.48000 124.369
62.49000 127.145
62.50000 130.230
62.51000 133.327
62.52000 135.224
62.53000 135.468
62.54000 135.629
62.55000 135.103
62.56000 133.868
62.57000 132.642
62.58000 132.381
62.59000 132.772
62.60000 133.155
62.61000 134.068
62.62000 135.177
62.63000 136.086
62.64000 134.308
62.65000 131.685
62.66000 129.355
62.67000 129.300
62.68000 129.725
62.69000 130.085
62.70000 131.275
62.71000 132.366
62.72000 132.809
62.73000 131.111
62.74000 129.244
62.75000 128.384
62.76000 129.793
62.77000 131.288
62.78000 132.197
62.79000 136.893
62.80000 140.275
62.81000 140.477
62.82000 137.458
62.83000 134.463
62.84000 133.804
62.85000 134.699
62.86000 135.572
62.87000 133.512
62.88000 130.274
62.89000 127.372
62.90000 128.878
62.91000 131.747
62.92000 134.219
62.93000 133.681
62.94000 132.518
62.95000 131.535
62.96000 131.179
62.97000 130.952
62.98000 130.940
62.99000 131.632
63.00000 132.378
63.01000 134.345
63.02000 139.023
63.03000 143.800
63.04000 146.683
63.05000 140.243
63.06000 135.590
63.07000 134.722
63.08000 137.607
63.09000 140.453
63.10000 139.633
63.11000 136.416
63.12000 133.282
63.13000 135.887
63.14000 140.808
63.15000 145.241
63.16000 143.452
63.17000 139.772
63.18000 136.310
63.19000 134.467
63.20000 132.953
63.21000 131.676
63.22000 130.737
63.23000 129.988
63.24000 130.597
63.25000 135.535
63.26000 140.796
63.27000 143.517
63.28000 140.702
63.29000 137.693
63.30000 135.891
63.31000 136.589
63.32000 137.101
63.33000 139.466
63.34000 143.633
63.35000 147.741
63.36000 146.821
63.37000 142.671
63.38000 138.631
63.39000 139.288
63.40000 141.871
63.41000 144.134
63.42000 142.433
63.43000 139.550
63.44000 136.839
63.45000 135.385
63.46000 134.182
63.47000 133.171
63.48000 137.988
63.49000 142.616
63.50000 145.569
63.51000 143.276
63.52000 140.603
63.53000 138.576
63.54000 137.936
63.55000 137.342
63.56000 136.989
63.57000 133.490
63.58000 130.994
63.59000 129.644
63.60000 129.387
63.61000 129.143
63.62000 129.946
63.63000 131.408
63.64000 132.830
63.65000 136.476
63.66000 140.852
63.67000 144.850
63.68000 144.292
63.69000 142.397
63.70000 140.915
63.71000 142.369
63.72000 144.397
63.73000 146.095
63.74000 144.147
63.75000 142.153
63.76000 140.662
63.77000 140.722
63.78000 140.891
63.79000 142.574
63.80000 147.444
63.81000 152.417
63.82000 155.351
63.83000 147.588
63.84000 142.050
63.85000 138.497
63.86000 136.798
63.87000 135.141
63.88000 136.559
63.89000 139.884
63.90000 143.113
63.91000 144.987
63.92000 146.222
63.93000 147.327
63.94000 146.899
63.95000 146.031
63.96000 145.241
63.97000 145.007
63.98000 144.878
63.99000 144.771
64.00000 145.585
64.01000 146.352
64.02000 145.755
64.03000 141.026
64.04000 136.015
64.05000 132.561
64.06000 132.332
64.07000 132.202
64.08000 132.125
64.09000 140.764
64.10000 146.887
64.11000 151.191
64.12000 153.827
64.13000 156.433
64.14000 156.893
64.15000 156.046
64.16000 155.226
64.17000 152.477
64.18000 149.113
64.19000 146.093
64.20000 147.008
64.21000 149.037
64.22000 150.644
64.23000 149.372
64.24000 147.558
64.25000 146.050
64.26000 151.000
64.27000 155.730
64.28000 158.661
64.29000 156.243
64.30000 153.470
64.31000 152.259
64.32000 154.230
64.33000 156.293
64.34000 157.492
64.35000 151.084
64.36000 146.554
64.37000 145.589
64.38000 147.826
64.39000 150.024
64.40000 149.761
64.41000 148.023
64.42000 146.340
64.43000 148.128
64.44000 151.161
64.45000 154.335
64.46000 159.089
64.47000 164.283
64.48000 168.067
64.49000 162.441
64.50000 155.077
64.51000 148.976
64.52000 157.313
64.53000 165.576
64.54000 170.707
64.55000 166.682
64.56000 162.067
64.57000 160.207
64.58000 163.856
64.59000 167.659
64.60000 169.850
64.61000 170.192
64.62000 170.424
64.63000 171.076
64.64000 172.098
64.65000 173.110
64.66000 173.489
64.67000 173.497
64.68000 173.504
64.69000 173.132
64.70000 172.637
64.71000 172.377
64.72000 174.683
64.73000 177.691
64.74000 180.036
64.75000 178.052
64.76000 175.285
64.77000 173.001
64.78000 172.409
64.79000 172.079
64.80000 171.718
64.81000 171.270
64.82000 170.816
64.83000 171.239
64.84000 173.389
64.85000 175.585
64.86000 176.840
64.87000 182.376
64.88000 186.248
64.89000 185.098
64.90000 179.605
64.91000 174.270
64.92000 177.883
64.93000 186.665
64.94000 195.148
64.95000 197.619
64.96000 197.711
64.97000 197.725
64.98000 196.922
64.99000 195.900
65.00000 194.700
65.01000 192.370
65.02000 189.839
65.03000 187.758
65.04000 189.193
65.05000 190.692
65.06000 191.856
65.07000 192.071
65.08000 192.229
65.09000 194.205
65.10000 199.694
65.11000 205.272
65.12000 208.435
65.13000 205.543
65.14000 203.516
65.15000 203.605
65.16000 205.487
65.17000 207.310
65.18000 205.971
65.19000 202.838
65.20000 199.815
65.21000 203.967
65.22000 210.492
65.23000 216.724
65.24000 219.932
65.25000 222.343
65.26000 224.847
65.27000 227.938
65.28000 231.131
65.29000 233.748
65.30000 236.348
65.31000 238.478
65.32000 239.499
65.33000 237.442
65.34000 235.204
65.35000 236.255
65.36000 243.552
65.37000 250.998
65.38000 255.185
65.39000 248.234
65.40000 243.395
65.41000 245.155
65.42000 252.407
65.43000 259.551
65.44000 261.310
65.45000 260.064
65.46000 258.864
65.47000 262.120
65.48000 266.775
65.49000 271.861
65.50000 281.290
65.51000 291.844
65.52000 301.634
65.53000 306.726
65.54000 311.018
65.55000 314.522
65.56000 326.866
65.57000 337.729
65.58000 347.223
65.59000 352.980
65.60000 358.526
65.61000 367.536
65.62000 383.013
65.63000 398.638
65.64000 407.348
65.65000 433.793
65.66000 452.151
65.67000 479.353
65.68000 513.778
65.69000 548.784
65.70000 611.293
65.71000 688.879
65.72000 763.515
65.73000 865.496
65.74000 970.723
65.75000 1078.002
65.76000 1205.427
65.77000 1337.979
65.78000 1464.444
65.79000 1554.265
65.80000 1637.958
65.81000 1706.038
65.82000 1767.688
65.83000 1817.482
65.84000 1862.447
65.85000 1894.453
65.86000 1925.746
65.87000 1938.882
65.88000 1918.705
65.89000 1897.810
65.90000 1886.262
65.91000 1862.920
65.92000 1846.736
65.93000 1810.354
65.94000 1757.784
65.95000 1704.402
65.96000 1614.691
65.97000 1505.407
65.98000 1400.432
65.99000 1276.317
66.00000 1153.558
66.01000 1032.088
66.02000 922.965
66.03000 816.927
66.04000 716.270
66.05000 647.356
66.06000 583.645
66.07000 532.016
66.08000 491.132
66.09000 458.706
66.10000 431.917
66.11000 420.002
66.12000 408.877
66.13000 398.429
66.14000 389.199
66.15000 379.994
66.16000 374.950
66.17000 365.408
66.18000 358.853
66.19000 356.624
66.20000 357.795
66.21000 359.042
66.22000 363.479
66.23000 369.605
66.24000 375.481
66.25000 383.567
66.26000 391.868
66.27000 400.912
66.28000 416.903
66.29000 434.598
66.30000 452.668
66.31000 472.907
66.32000 493.495
66.33000 510.114
66.34000 525.528
66.35000 537.960
66.36000 551.712
66.37000 568.891
66.38000 586.246
66.39000 598.586
66.40000 602.039
66.41000 605.320
66.42000 607.103
66.43000 615.236
66.44000 620.794
66.45000 619.965
66.46000 614.204
66.47000 608.356
66.48000 599.017
66.49000 587.860
66.50000 577.175
66.51000 558.679
66.52000 538.840
66.53000 519.198
66.54000 501.357
66.55000 483.950
66.56000 466.636
66.57000 449.845
66.58000 433.137
66.59000 419.702
66.60000 399.602
66.61000 382.788
66.62000 368.344
66.63000 359.940
66.64000 351.836
66.65000 347.538
66.66000 349.869
66.67000 352.319
66.68000 353.638
66.69000 347.734
66.70000 343.709
66.71000 343.463
66.72000 346.081
66.73000 348.673
66.74000 350.313
66.75000 351.466
66.76000 352.568
66.77000 356.245
66.78000 360.506
66.79000 364.312
66.80000 364.065
66.81000 362.858
66.82000 360.996
66.83000 355.488
66.84000 349.419
66.85000 344.558
66.86000 349.452
66.87000 354.144
66.88000 357.946
66.89000 359.518
66.90000 360.984
66.91000 363.580
66.92000 368.112
66.93000 372.677
66.94000 375.112
66.95000 366.067
66.96000 359.934
66.97000 361.132
66.98000 367.785
66.99000 374.173
67.00000 370.930
67.01000 362.844
67.02000 355.124
67.03000 350.599
67.04000 347.416
67.05000 345.090
67.06000 350.233
67.07000 357.110
67.08000 363.302
67.09000 365.751
67.10000 367.636
67.11000 369.139
67.12000 368.291
67.13000 367.434
67.14000 366.660
67.15000 366.090
67.16000 365.529
67.17000 367.481
67.18000 373.661
67.19000 379.908
67.20000 383.209
67.21000 394.151
67.22000 401.543
67.23000 401.644
67.24000 396.417
67.25000 391.357
67.26000 392.064
67.27000 395.621
67.28000 399.012
67.29000 406.746
67.30000 415.278
67.31000 422.574
67.32000 419.341
67.33000 413.706
67.34000 409.313
67.35000 411.557
67.36000 414.781
67.37000 417.343
67.38000 416.022
67.39000 414.682
67.40000 413.062
67.41000 410.766
67.42000 408.440
67.43000 409.616
67.44000 416.578
67.45000 423.626
67.46000 427.317
67.47000 423.341
67.48000 420.655
67.49000 419.296
67.50000 418.888
67.51000 418.471
67.52000 417.751
67.53000 416.885
67.54000 416.061
67.55000 419.548
67.56000 424.100
67.57000 428.563
67.58000 432.288
67.59000 435.847
67.60000 439.129
67.61000 440.958
67.62000 442.576
67.63000 443.857
67.64000 453.528
67.65000 461.878
67.66000 464.909
67.67000 455.275
67.68000 445.097
67.69000 443.653
67.70000 456.381
67.71000 469.307
67.72000 476.011
67.73000 454.337
67.74000 439.827
67.75000 442.319
67.76000 456.788
67.77000 470.984
67.78000 476.549
67.79000 477.992
67.80000 479.363
67.81000 482.512
67.82000 485.956
67.83000 488.474
67.84000 483.460
67.85000 476.790
67.86000 471.716
67.87000 474.846
67.88000 479.139
67.89000 482.521
67.90000 481.198
67.91000 479.822
67.92000 479.633
67.93000 482.220
67.94000 484.922
67.95000 488.427
67.96000 493.214
67.97000 498.017
67.98000 500.485
67.99000 507.210
68.00000 511.668
68.01000 507.836
68.02000 498.270
68.03000 489.121
68.04000 492.649
68.05000 502.127
68.06000 511.116
68.07000 512.214
68.08000 510.892
68.09000 510.446
68.10000 516.966
68.11000 524.989
68.12000 532.125
68.13000 534.788
68.14000 536.830
68.15000 538.433
68.16000 525.438
68.17000 514.095
68.18000 508.728
68.19000 517.109
68.20000 526.036
68.21000 534.207
68.22000 541.194
68.23000 548.166
68.24000 551.713
68.25000 558.687
68.26000 563.336
68.27000 564.893
68.28000 564.351
68.29000 564.032
68.30000 570.201
68.31000 579.364
68.32000 588.039
68.33000 599.734
68.34000 611.371
68.35000 620.053
68.36000 605.743
68.37000 586.565
68.38000 572.041
68.39000 580.557
68.40000 592.199
68.41000 601.296
68.42000 619.514
68.43000 634.627
68.44000 646.475
68.45000 650.938
68.46000 655.120
68.47000 665.699
68.48000 686.124
68.49000 706.657
68.50000 717.000
68.51000 707.789
68.52000 701.776
68.53000 710.448
68.54000 728.919
68.55000 747.134
68.56000 758.237
68.57000 766.116
68.58000 773.561
68.59000 788.903
68.60000 805.240
68.61000 823.613
68.62000 857.486
68.63000 894.580
68.64000 931.899
68.65000 970.312
68.66000 1008.871
68.67000 1038.871
68.68000 1082.269
68.69000 1117.639
68.70000 1155.971
68.71000 1200.889
68.72000 1246.048
68.73000 1288.651
68.74000 1327.391
68.75000 1366.093
68.76000 1413.339
68.77000 1469.088
68.78000 1524.620
68.79000 1559.778
68.80000 1581.583
68.81000 1604.220
68.82000 1649.099
68.83000 1703.894
68.84000 1755.590
68.85000 1837.868
68.86000 1921.819
68.87000 2011.280
68.88000 2141.775
68.89000 2280.635
68.90000 2442.117
68.91000 2711.415
68.92000 2994.715
68.93000 3214.176
68.94000 4330.172
68.95000 5269.868
68.96000 6572.771
68.97000 8669.405
68.98000 10793.936
68.99000 13402.527
69.00000 16729.834
69.01000 20063.781
69.02000 23426.053
69.03000 26815.740
69.04000 30197.449
69.05000 32887.188
69.06000 35131.395
69.07000 37347.133
69.08000 38832.297
69.09000 39997.258
69.10000 41094.348
69.11000 41752.027
69.12000 42233.387
69.13000 42745.656
69.14000 43483.148
69.15000 44265.695
69.16000 45025.422
69.17000 45678.383
69.18000 46317.785
69.19000 46810.926
69.20000 46311.441
69.21000 45858.383
69.22000 44772.113
69.23000 42325.594
69.24000 39833.266
69.25000 37192.867
69.26000 34336.539
69.27000 31478.561
69.28000 29114.502
69.29000 27222.908
69.30000 25338.445
69.31000 24026.482
69.32000 23076.631
69.33000 22145.848
69.34000 21685.465
69.35000 21427.754
69.36000 21185.504
69.37000 20728.152
69.38000 20252.838
69.39000 19713.143
69.40000 18714.277
69.41000 17625.301
69.42000 16401.564
69.43000 14559.145
69.44000 12639.874
69.45000 11166.189
69.46000 9158.737
69.47000 7541.988
69.48000 6114.777
69.49000 5087.802
69.50000 4073.728
69.51000 3257.959
69.52000 2726.194
69.53000 2196.698
69.54000 1850.326
69.55000 1675.633
69.56000 1501.500
69.57000 1369.107
69.58000 1262.652
69.59000 1158.174
69.60000 1100.607
69.61000 1062.908
69.62000 1027.537
69.63000 989.764
69.64000 954.713
69.65000 921.000
69.66000 896.626
69.67000 874.050
69.68000 852.226
69.69000 833.794
69.70000 815.774
69.71000 801.999
69.72000 768.020
69.73000 740.127
69.74000 717.462
69.75000 705.648
69.76000 694.169
69.77000 679.027
69.78000 658.735
69.79000 638.412
69.80000 626.647
69.81000 622.749
69.82000 618.697
69.83000 603.967
69.84000 582.718
69.85000 562.098
69.86000 555.852
69.87000 555.591
69.88000 555.346
69.89000 557.434
69.90000 559.935
69.91000 561.480
69.92000 556.493
69.93000 550.273
69.94000 544.217
69.95000 538.885
69.96000 533.639
69.97000 529.648
69.98000 518.833
69.99000 509.967
70.00000 500.654
