20.00000 476.013
20.01000 473.743
20.02000 471.150
20.03000 470.287
20.04000 476.243
20.05000 482.896
20.06000 487.809
20.07000 482.033
20.08000 477.103
20.09000 474.750
20.10000 477.111
20.11000 479.573
20.12000 480.450
20.13000 479.380
20.14000 478.307
20.15000 480.745
20.16000 485.965
20.17000 490.896
20.18000 483.058
20.19000 468.359
20.20000 454.528
20.21000 456.060
20.22000 463.235
20.23000 469.854
20.24000 470.372
20.25000 469.474
20.26000 468.736
20.27000 468.939
20.28000 469.297
20.29000 469.737
20.30000 470.498
20.31000 471.291
20.32000 471.873
20.33000 472.818
20.34000 473.564
20.35000 473.671
20.36000 472.628
20.37000 471.562
20.38000 473.602
20.39000 479.389
20.40000 485.171
20.41000 484.891
20.42000 479.883
20.43000 474.991
20.44000 474.952
20.45000 477.477
20.46000 479.667
20.47000 476.125
20.48000 470.515
20.49000 465.350
20.50000 461.184
20.51000 457.678
20.52000 454.907
20.53000 456.379
20.54000 458.530
20.55000 460.480
20.56000 461.668
20.57000 462.781
20.58000 463.594
20.59000 460.331
20.60000 457.654
20.61000 457.800
20.62000 462.935
20.63000 468.165
20.64000 469.146
20.65000 465.101
20.66000 461.057
20.67000 461.985
20.68000 466.710
20.69000 471.326
20.70000 471.542
20.71000 469.476
20.72000 467.483
20.73000 466.713
20.74000 466.376
20.75000 466.067
20.76000 459.368
20.77000 452.020
20.78000 447.468
20.79000 458.717
20.80000 472.444
20.81000 481.139
20.82000 471.039
20.83000 459.155
20.84000 450.511
20.85000 445.283
20.86000 441.389
20.87000 442.169
20.88000 451.065
20.89000 460.105
20.90000 466.691
20.91000 470.429
20.92000 474.152
20.93000 473.427
20.94000 469.370
20.95000 465.357
20.96000 463.070
20.97000 461.662
20.98000 460.120
20.99000 456.415
21.00000 451.956
21.01000 447.869
21.02000 450.760
21.03000 454.800
21.04000 458.297
21.05000 458.786
21.06000 458.813
21.07000 460.092
21.08000 465.967
21.09000 472.267
21.10000 476.826
21.11000 478.048
21.12000 478.865
21.13000 479.165
21.14000 478.586
21.15000 477.993
21.16000 473.721
21.17000 465.262
21.18000 456.825
21.19000 452.840
21.20000 452.161
21.21000 451.648
21.22000 457.096
21.23000 465.533
21.24000 473.190
21.25000 468.684
21.26000 460.007
21.27000 452.073
21.28000 455.810
21.29000 461.535
21.30000 466.816
21.31000 469.690
21.32000 472.201
21.33000 475.010
21.34000 478.896
21.35000 482.879
21.36000 485.746
21.37000 480.197
21.38000 475.652
21.39000 470.453
21.40000 464.156
21.41000 457.842
21.42000 456.815
21.43000 461.690
21.44000 466.552
21.45000 465.598
21.46000 460.451
21.47000 455.435
21.48000 454.935
21.49000 456.660
21.50000 458.595
21.51000 463.701
21.52000 469.875
21.53000 475.509
21.54000 473.632
21.55000 470.452
21.56000 467.267
21.57000 464.056
21.58000 460.841
21.59000 458.142
21.60000 457.270
21.61000 456.559
21.62000 456.050
21.63000 467.919
21.64000 477.403
21.65000 480.465
21.66000 472.946
21.67000 465.272
21.68000 462.255
21.69000 464.336
21.70000 466.411
21.71000 469.208
21.72000 472.489
21.73000 475.625
21.74000 473.943
21.75000 469.929
21.76000 466.144
21.77000 465.718
21.78000 466.404
21.79000 467.029
21.80000 471.122
21.81000 475.430
21.82000 479.781
21.83000 484.361
21.84000 488.974
21.85000 492.597
21.86000 492.778
21.87000 492.664
21.88000 492.583
21.89000 504.142
21.90000 513.329
21.91000 516.479
21.92000 509.860
21.93000 503.107
21.94000 503.182
21.95000 510.588
21.96000 517.965
21.97000 520.420
21.98000 519.430
21.99000 518.572
22.00000 521.894
22.01000 527.204
22.02000 532.235
22.03000 533.281
22.04000 533.031
22.05000 532.803
22.06000 537.922
22.07000 543.478
22.08000 547.210
22.09000 541.592
22.10000 534.654
22.11000 529.014
22.12000 527.810
22.13000 526.975
22.14000 526.383
22.15000 523.801
22.16000 521.776
22.17000 520.538
22.18000 520.553
22.19000 520.583
22.20000 519.331
22.21000 516.728
22.22000 514.138
22.23000 509.521
22.24000 503.576
22.25000 497.731
22.26000 494.889
22.27000 493.453
22.28000 492.058
22.29000 491.221
22.30000 490.564
22.31000 489.969
22.32000 486.748
22.33000 483.413
22.34000 479.825
22.35000 474.974
22.36000 469.948
22.37000 467.108
22.38000 471.613
22.39000 476.714
22.40000 480.308
22.41000 477.475
22.42000 475.135
22.43000 473.566
22.44000 473.203
22.45000 472.853
22.46000 473.153
22.47000 474.124
22.48000 475.089
22.49000 473.590
22.50000 470.462
22.51000 467.231
22.52000 461.027
22.53000 453.455
22.54000 446.492
22.55000 447.733
22.56000 451.554
22.57000 455.007
22.58000 458.212
22.59000 460.984
22.60000 462.335
22.61000 456.671
22.62000 450.059
22.63000 446.243
22.64000 451.661
22.65000 457.807
22.66000 462.114
22.67000 452.964
22.68000 445.657
22.69000 442.295
22.70000 444.986
22.71000 447.742
22.72000 445.596
22.73000 438.490
22.74000 431.426
22.75000 430.337
22.76000 433.183
22.77000 435.819
22.78000 432.666
22.79000 426.894
22.80000 421.810
22.81000 425.726
22.82000 432.424
22.83000 438.462
22.84000 434.568
22.85000 429.345
22.86000 425.416
22.87000 427.757
22.88000 430.927
22.89000 433.873
22.90000 436.090
22.91000 438.251
22.92000 439.757
22.93000 437.217
22.94000 435.190
22.95000 434.841
22.96000 437.024
22.97000 439.232
22.98000 439.001
22.99000 436.352
23.00000 433.720
23.01000 435.670
23.02000 440.541
23.03000 445.261
23.04000 445.956
23.05000 444.862
23.06000 443.246
23.07000 434.975
23.08000 424.685
23.09000 415.430
23.10000 416.500
23.11000 419.275
23.12000 422.483
23.13000 427.747
23.14000 433.278
23.15000 438.388
23.16000 442.159
23.17000 445.831
23.18000 448.374
23.19000 445.071
23.20000 442.432
23.21000 439.427
23.22000 435.880
23.23000 432.329
23.24000 431.976
23.25000 434.732
23.26000 437.468
23.27000 434.122
23.28000 426.987
23.29000 420.176
23.30000 421.637
23.31000 426.713
23.32000 431.250
23.33000 429.100
23.34000 424.957
23.35000 421.240
23.36000 420.938
23.37000 421.269
23.38000 422.382
23.39000 427.145
23.40000 432.369
23.41000 435.905
23.42000 434.149
23.43000 432.009
23.44000 430.535
23.45000 423.400
23.46000 417.901
23.47000 413.852
23.48000 411.911
23.49000 409.989
23.50000 414.357
23.51000 424.717
23.52000 434.999
23.53000 432.767
23.54000 422.818
23.55000 413.259
23.56000 413.258
23.57000 417.362
23.58000 421.407
23.59000 424.726
23.60000 427.831
23.61000 430.610
23.62000 436.032
23.63000 441.213
23.64000 444.834
23.65000 441.318
23.66000 436.919
23.67000 434.315
23.68000 437.238
23.69000 440.550
23.70000 442.819
23.71000 453.089
23.72000 460.972
23.73000 463.336
23.74000 457.822
23.75000 452.249
23.76000 452.827
23.77000 459.149
23.78000 465.419
23.79000 470.763
23.80000 475.447
23.81000 479.850
23.82000 477.647
23.83000 472.653
23.84000 468.063
23.85000 468.214
23.86000 469.731
23.87000 471.085
23.88000 469.042
23.89000 466.696
23.90000 466.121
23.91000 473.500
23.92000 481.840
23.93000 486.161
23.94000 478.315
23.95000 469.637
23.96000 463.728
23.97000 456.743
23.98000 451.500
23.99000 451.426
24.00000 458.599
24.01000 465.820
24.02000 471.562
24.03000 475.948
24.04000 480.295
24.05000 476.929
24.06000 469.026
24.07000 461.429
24.08000 460.791
24.09000 463.041
24.10000 465.142
24.11000 465.541
24.12000 465.459
24.13000 465.386
24.14000 455.887
24.15000 446.096
24.16000 439.666
24.17000 448.057
24.18000 458.201
24.19000 465.352
24.20000 463.601
24.21000 461.259
24.22000 459.674
24.23000 455.834
24.24000 452.924
24.25000 453.129
24.26000 457.624
24.27000 462.139
24.28000 457.125
24.29000 443.551
24.30000 430.109
24.31000 430.539
24.32000 439.085
24.33000 447.061
24.34000 442.573
24.35000 432.997
24.36000 424.026
24.37000 421.785
24.38000 421.415
24.39000 421.087
24.40000 422.328
24.41000 423.654
24.42000 423.114
24.43000 414.491
24.44000 404.934
24.45000 399.949
24.46000 408.332
24.47000 417.576
24.48000 423.795
24.49000 431.377
24.50000 437.041
24.51000 438.389
24.52000 433.902
24.53000 429.387
24.54000 428.496
24.55000 430.798
24.56000 433.075
24.57000 432.391
24.58000 430.019
24.59000 427.429
24.60000 420.236
24.61000 411.195
24.62000 403.112
24.63000 405.418
24.64000 410.563
24.65000 415.117
24.66000 412.500
24.67000 409.113
24.68000 407.709
24.69000 414.736
24.70000 422.714
24.71000 427.078
24.72000 421.054
24.73000 414.382
24.74000 409.920
24.75000 400.869
24.76000 394.070
24.77000 389.311
24.78000 387.260
24.79000 385.232
24.80000 390.853
24.81000 403.084
24.82000 415.180
24.83000 416.199
24.84000 410.947
24.85000 405.966
24.86000 406.490
24.87000 409.185
24.88000 411.296
24.89000 407.237
24.90000 401.522
24.91000 396.477
24.92000 399.304
24.93000 402.949
24.94000 405.923
24.95000 406.095
24.96000 405.958
24.97000 407.629
24.98000 414.407
24.99000 421.494
25.00000 426.204
25.01000 417.395
25.02000 410.629
25.03000 405.594
25.04000 402.811
25.05000 400.042
25.06000 399.595
25.07000 401.117
25.08000 402.621
25.09000 403.919
25.10000 405.072
25.11000 406.100
25.12000 404.677
25.13000 402.303
25.14000 399.933
25.15000 397.603
25.16000 395.283
25.17000 393.240
25.18000 396.828
25.19000 400.761
25.20000 402.995
25.21000 398.266
25.22000 392.788
25.23000 389.957
25.24000 394.477
25.25000 399.428
25.26000 402.698
25.27000 401.798
25.28000 401.061
25.29000 399.061
25.30000 395.444
25.31000 391.837
25.32000 395.448
25.33000 405.064
25.34000 414.559
25.35000 410.077
25.36000 398.123
25.37000 386.758
25.38000 386.590
25.39000 390.689
25.40000 394.466
25.41000 395.003
25.42000 394.700
25.43000 394.435
25.44000 396.680
25.45000 398.977
25.46000 400.893
25.47000 401.276
25.48000 401.498
25.49000 400.064
25.50000 394.111
25.51000 387.902
25.52000 383.827
25.53000 396.568
25.54000 406.221
25.55000 408.994
25.56000 403.131
25.57000 397.252
25.58000 395.678
25.59000 397.618
25.60000 399.532
25.61000 398.590
25.62000 396.150
25.63000 394.027
25.64000 397.709
25.65000 403.566
25.66000 408.411
25.67000 403.331
25.68000 395.726
25.69000 389.070
25.70000 390.217
25.71000 392.320
25.72000 394.387
25.73000 396.315
25.74000 398.229
25.75000 399.808
25.76000 400.490
25.77000 401.122
25.78000 401.534
25.79000 389.689
25.80000 380.804
25.81000 379.629
25.82000 387.948
25.83000 396.274
25.84000 398.298
25.85000 395.273
25.86000 392.291
25.87000 394.784
25.88000 400.069
25.89000 404.951
25.90000 402.653
25.91000 397.712
25.92000 393.211
25.93000 392.921
25.94000 393.683
25.95000 394.348
25.96000 391.092
25.97000 387.756
25.98000 384.967
25.99000 384.304
26.00000 383.854
26.01000 384.698
26.02000 388.953
26.03000 393.390
26.04000 396.264
26.05000 390.758
26.06000 386.604
26.07000 386.095
26.08000 389.991
26.09000 393.884
26.10000 394.246
26.11000 391.830
26.12000 389.450
26.13000 385.217
26.14000 380.161
26.15000 375.695
26.16000 381.384
26.17000 390.749
26.18000 399.318
26.19000 400.446
26.20000 399.749
26.21000 399.143
26.22000 396.001
26.23000 392.972
26.24000 390.236
26.25000 388.615
26.26000 387.102
26.27000 385.995
26.28000 385.939
26.29000 385.937
26.30000 385.936
26.31000 379.511
26.32000 374.732
26.33000 373.372
26.34000 376.067
26.35000 378.769
26.36000 381.336
26.37000 383.798
26.38000 386.220
26.39000 387.651
26.40000 388.539
26.41000 389.292
26.42000 387.821
26.43000 385.559
26.44000 382.927
26.45000 376.920
26.46000 370.099
26.47000 364.180
26.48000 375.765
26.49000 387.978
26.50000 396.834
26.51000 393.117
26.52000 388.203
26.53000 384.396
26.54000 383.410
26.55000 382.564
26.56000 382.023
26.57000 376.837
26.58000 373.001
26.59000 374.330
26.60000 381.670
26.61000 388.987
26.62000 389.485
26.63000 384.818
26.64000 380.231
26.65000 378.449
26.66000 378.113
26.67000 377.814
26.68000 378.105
26.69000 378.602
26.70000 379.922
26.71000 388.583
26.72000 398.980
26.73000 407.974
26.74000 402.357
26.75000 395.669
26.76000 390.790
26.77000 392.570
26.78000 394.968
26.79000 395.234
26.80000 390.161
26.81000 384.833
26.82000 381.449
26.83000 372.933
26.84000 366.687
26.85000 362.147
26.86000 359.553
26.87000 356.989
26.88000 359.417
26.89000 365.558
26.90000 371.590
26.91000 369.221
26.92000 362.860
26.93000 356.883
26.94000 356.934
26.95000 359.056
26.96000 361.514
26.97000 366.899
26.98000 372.963
26.99000 378.193
27.00000 373.063
27.01000 367.387
27.02000 364.283
27.03000 370.480
27.04000 377.518
27.05000 383.297
27.06000 385.976
27.07000 388.512
27.08000 390.111
27.09000 372.081
27.10000 358.800
27.11000 356.243
27.12000 365.695
27.13000 375.109
27.14000 376.764
27.15000 372.753
27.16000 368.818
27.17000 367.335
27.18000 367.074
27.19000 367.237
27.20000 373.855
27.21000 382.655
27.22000 390.236
27.23000 387.444
27.24000 382.288
27.25000 377.854
27.26000 379.846
27.27000 382.335
27.28000 382.116
27.29000 372.277
27.30000 361.590
27.31000 356.342
27.32000 364.258
27.33000 372.761
27.34000 378.086
27.35000 378.407
27.36000 378.585
27.37000 375.505
27.38000 368.845
27.39000 362.211
27.40000 359.580
27.41000 359.820
27.42000 360.054
27.43000 365.109
27.44000 372.224
27.45000 378.956
27.46000 380.023
27.47000 379.210
27.48000 378.546
27.49000 379.122
27.50000 379.975
27.51000 380.707
27.52000 376.760
27.53000 372.856
27.54000 367.715
27.55000 358.261
27.56000 348.437
27.57000 343.746
27.58000 351.273
27.59000 359.324
27.60000 364.331
27.61000 369.458
27.62000 373.152
27.63000 375.701
27.64000 377.018
27.65000 378.344
27.66000 380.945
27.67000 384.442
27.68000 387.866
27.69000 382.712
27.70000 373.826
27.71000 365.560
27.72000 366.153
27.73000 369.637
27.74000 372.884
27.75000 374.197
27.76000 375.084
27.77000 375.843
27.78000 373.114
27.79000 370.399
27.80000 368.504
27.81000 369.419
27.82000 370.569
27.83000 370.454
27.84000 367.375
27.85000 364.175
27.86000 362.198
27.87000 362.473
27.88000 362.690
27.89000 361.313
27.90000 358.252
27.91000 355.178
27.92000 350.455
27.93000 344.592
27.94000 338.859
27.95000 346.578
27.96000 360.037
27.97000 372.653
27.98000 373.546
27.99000 370.679
28.00000 368.551
28.01000 372.311
28.02000 377.340
28.03000 381.623
28.04000 373.718
28.05000 365.652
28.06000 358.594
28.07000 354.934
28.08000 351.551
28.09000 352.269
28.10000 362.421
28.11000 372.947
28.12000 379.401
28.13000 371.164
28.14000 365.139
28.15000 365.547
28.16000 372.613
28.17000 379.656
28.18000 384.081
28.19000 386.727
28.20000 389.312
28.21000 385.636
28.22000 379.350
28.23000 373.357
28.24000 371.329
28.25000 370.552
28.26000 369.514
28.27000 366.455
28.28000 362.968
28.29000 360.008
28.30000 360.850
28.31000 361.989
28.32000 362.460
28.33000 360.719
28.34000 358.803
28.35000 358.775
28.36000 363.014
28.37000 367.416
28.38000 370.095
28.39000 374.353
28.40000 377.407
28.41000 374.438
28.42000 365.360
28.43000 356.351
28.44000 354.529
28.45000 357.501
28.46000 360.400
28.47000 358.678
28.48000 355.028
28.49000 351.850
28.50000 354.871
28.51000 359.813
28.52000 363.625
28.53000 358.841
28.54000 352.273
28.55000 346.714
28.56000 345.646
28.57000 345.250
28.58000 347.359
28.59000 357.619
28.60000 368.507
28.61000 373.255
28.62000 364.356
28.63000 354.958
28.64000 349.280
28.65000 350.329
28.66000 351.126
28.67000 350.272
28.68000 347.777
28.69000 345.361
28.70000 350.329
28.71000 360.134
28.72000 369.692
28.73000 369.342
28.74000 364.793
28.75000 360.621
28.76000 361.263
28.77000 363.372
28.78000 365.141
28.79000 364.385
28.80000 363.116
28.81000 362.045
28.82000 359.890
28.83000 357.972
28.84000 355.978
28.85000 353.739
28.86000 351.483
28.87000 352.832
28.88000 362.058
28.89000 371.560
28.90000 377.258
28.91000 364.237
28.92000 354.864
28.93000 350.754
28.94000 351.772
28.95000 352.772
28.96000 352.146
28.97000 350.472
28.98000 348.843
28.99000 352.440
29.00000 358.049
29.01000 362.841
29.02000 357.473
29.03000 349.066
29.04000 341.694
29.05000 341.868
29.06000 343.551
29.07000 344.965
29.08000 352.764
29.09000 359.939
29.10000 364.769
29.11000 362.233
29.12000 359.162
29.13000 356.555
29.14000 354.948
29.15000 353.374
29.16000 352.437
29.17000 359.055
29.18000 363.789
29.19000 363.930
29.20000 359.684
29.21000 355.466
29.22000 353.509
29.23000 352.981
29.24000 352.467
29.25000 354.752
29.26000 358.071
29.27000 361.063
29.28000 360.082
29.29000 357.935
29.30000 356.525
29.31000 360.370
29.32000 365.246
29.33000 369.331
29.34000 370.205
29.35000 370.600
29.36000 370.226
29.37000 367.475
29.38000 364.557
29.39000 360.881
29.40000 355.605
29.41000 350.278
29.42000 347.131
29.43000 341.057
29.44000 336.751
29.45000 336.632
29.46000 340.433
29.47000 344.224
29.48000 347.219
29.49000 349.719
29.50000 352.148
29.51000 345.467
29.52000 335.461
29.53000 326.979
29.54000 336.445
29.55000 351.095
29.56000 364.017
29.57000 364.891
29.58000 363.445
29.59000 362.239
29.60000 357.144
29.61000 352.525
29.62000 349.951
29.63000 353.585
29.64000 357.645
29.65000 358.762
29.66000 353.773
29.67000 348.597
29.68000 345.563
29.69000 351.717
29.70000 356.097
29.71000 359.363
29.72000 361.607
29.73000 363.749
29.74000 358.773
29.75000 349.452
29.76000 340.412
29.77000 343.596
29.78000 351.437
29.79000 358.869
29.80000 361.619
29.81000 363.040
29.82000 364.619
29.83000 367.276
29.84000 370.135
29.85000 372.514
29.86000 367.616
29.87000 362.847
29.88000 359.293
29.89000 359.364
29.90000 359.676
29.91000 359.015
29.92000 356.366
29.93000 353.659
29.94000 352.085
29.95000 369.670
29.96000 382.097
29.97000 384.319
29.98000 377.349
29.99000 370.473
30.00000 369.689
30.01000 372.557
30.02000 375.335
30.03000 375.893
30.04000 375.561
30.05000 375.496
30.06000 378.415
30.07000 382.167
30.08000 385.514
30.09000 386.161
30.10000 386.308
30.11000 386.430
30.12000 381.825
30.13000 377.570
30.14000 374.107
30.15000 372.967
30.16000 371.978
30.17000 370.570
30.18000 368.323
30.19000 366.053
30.20000 364.743
30.21000 356.490
30.22000 350.692
30.23000 354.579
30.24000 367.023
30.25000 379.270
30.26000 379.575
30.27000 372.843
30.28000 366.331
30.29000 364.552
30.30000 364.670
30.31000 364.916
30.32000 366.547
30.33000 368.558
30.34000 369.353
30.35000 362.187
30.36000 353.575
30.37000 346.463
30.38000 344.142
30.39000 342.676
30.40000 342.719
30.41000 347.109
30.42000 351.770
30.43000 355.686
30.44000 358.130
30.45000 360.535
30.46000 361.911
30.47000 358.412
30.48000 355.955
30.49000 355.909
30.50000 357.953
30.51000 359.997
30.52000 362.115
30.53000 364.276
30.54000 366.364
30.55000 360.650
30.56000 352.354
30.57000 344.990
30.58000 347.507
30.59000 352.682
30.60000 357.439
30.61000 359.513
30.62000 361.110
30.63000 362.423
30.64000 369.094
30.65000 375.066
30.66000 378.658
30.67000 375.510
30.68000 371.952
30.69000 366.117
30.70000 355.874
30.71000 345.518
30.72000 339.642
30.73000 358.569
30.74000 371.806
30.75000 375.527
30.76000 371.155
30.77000 366.858
30.78000 366.497
30.79000 368.377
30.80000 370.191
30.81000 374.994
30.82000 380.608
30.83000 385.597
30.84000 384.124
30.85000 380.943
30.86000 378.068
30.87000 377.118
30.88000 376.505
30.89000 376.001
30.90000 379.533
30.91000 382.788
30.92000 386.123
30.93000 389.679
30.94000 393.248
30.95000 397.830
30.96000 404.341
30.97000 410.898
30.98000 414.588
30.99000 415.254
31.00000 415.725
31.01000 424.220
31.02000 439.407
31.03000 454.491
31.04000 464.335
31.05000 471.249
31.06000 477.912
31.07000 494.015
31.08000 512.534
31.09000 530.973
31.10000 548.594
31.11000 566.003
31.12000 584.224
31.13000 607.439
31.14000 631.508
31.15000 651.170
31.16000 684.519
31.17000 712.996
31.18000 742.422
31.19000 774.441
31.20000 806.608
31.21000 838.109
31.22000 868.365
31.23000 898.592
31.24000 915.459
31.25000 962.647
31.26000 995.357
31.27000 1021.275
31.28000 1041.633
31.29000 1061.948
31.30000 1080.232
31.31000 1097.401
31.32000 1113.921
31.33000 1127.620
31.34000 1139.473
31.35000 1151.354
31.36000 1163.495
31.37000 1175.703
31.38000 1184.502
31.39000 1172.734
31.40000 1157.518
31.41000 1145.134
31.42000 1136.283
31.43000 1129.351
31.44000 1119.056
31.45000 1099.711
31.46000 1079.866
31.47000 1058.270
31.48000 1033.452
31.49000 1008.564
31.50000 994.794
31.51000 924.626
31.52000 876.128
31.53000 836.956
31.54000 805.275
31.55000 773.795
31.56000 751.329
31.57000 733.731
31.58000 716.824
31.59000 684.446
31.60000 648.791
31.61000 614.468
31.62000 592.944
31.63000 574.625
31.64000 556.841
31.65000 542.225
31.66000 528.130
31.67000 516.702
31.68000 494.862
31.69000 476.215
31.70000 459.784
31.71000 449.215
31.72000 438.959
31.73000 431.617
31.74000 429.539
31.75000 427.569
31.76000 426.489
31.77000 417.338
31.78000 411.026
31.79000 403.581
31.80000 395.243
31.81000 387.091
31.82000 386.858
31.83000 390.829
31.84000 394.639
31.85000 388.173
31.86000 378.647
31.87000 369.070
31.88000 359.010
31.89000 348.832
31.90000 341.255
31.91000 348.759
31.92000 358.691
31.93000 366.713
31.94000 365.787
31.95000 364.321
31.96000 360.084
31.97000 348.648
31.98000 336.840
31.99000 330.918
32.00000 335.450
32.01000 340.184
32.02000 342.758
32.03000 334.514
32.04000 328.867
32.05000 328.500
32.06000 332.219
32.07000 335.832
32.08000 335.160
32.09000 332.252
32.10000 329.468
32.11000 334.832
32.12000 342.545
32.13000 349.355
32.14000 347.878
32.15000 344.401
32.16000 340.251
32.17000 332.280
32.18000 323.707
32.19000 316.809
32.20000 317.686
32.21000 319.001
32.22000 320.323
32.23000 321.664
32.24000 323.007
32.25000 322.663
32.26000 319.376
32.27000 316.036
32.28000 314.236
32.29000 320.566
32.30000 324.884
32.31000 325.269
32.32000 322.665
32.33000 320.079
32.34000 318.197
32.35000 316.675
32.36000 315.219
32.37000 317.618
32.38000 321.108
32.39000 324.324
32.40000 325.069
32.41000 325.229
32.42000 325.191
32.43000 324.046
32.44000 322.731
32.45000 321.676
32.46000 322.301
32.47000 322.933
32.48000 322.774
32.49000 320.627
32.50000 318.385
32.51000 315.919
32.52000 313.071
32.53000 310.215
32.54000 308.691
32.55000 312.732
32.56000 315.469
32.57000 314.053
32.58000 309.541
32.59000 305.258
32.60000 309.388
32.61000 317.756
32.62000 325.747
32.63000 322.294
32.64000 315.422
32.65000 309.308
32.66000 309.822
32.67000 311.880
32.68000 313.527
32.69000 312.923
32.70000 311.979
32.71000 311.226
32.72000 314.830
32.73000 318.059
32.74000 319.476
32.75000 316.419
32.76000 313.154
32.77000 312.149
32.78000 314.953
32.79000 317.819
32.80000 319.335
32.81000 323.103
32.82000 325.632
32.83000 322.498
32.84000 315.219
32.85000 308.238
32.86000 311.726
32.87000 320.397
32.88000 328.664
32.89000 331.831
32.90000 333.166
32.91000 333.743
32.92000 327.846
32.93000 320.470
32.94000 315.067
32.95000 320.236
32.96000 326.970
32.97000 332.324
32.98000 321.972
32.99000 312.512
33.00000 307.396
33.01000 312.821
33.02000 318.718
33.03000 321.269
33.04000 318.283
33.05000 315.214
33.06000 313.605
33.07000 318.986
33.08000 322.596
33.09000 320.696
33.10000 314.834
33.11000 309.056
33.12000 306.093
33.13000 304.499
33.14000 302.982
33.15000 305.302
33.16000 308.632
33.17000 311.359
33.18000 309.044
33.19000 305.598
33.20000 302.981
33.21000 304.714
33.22000 307.078
33.23000 308.950
33.24000 303.380
33.25000 298.387
33.26000 294.678
33.27000 294.032
33.28000 293.517
33.29000 293.000
33.30000 292.478
33.31000 291.956
33.32000 291.684
33.33000 297.751
33.34000 301.846
33.35000 305.465
33.36000 308.749
33.37000 311.752
33.38000 305.762
33.39000 295.470
33.40000 285.689
33.41000 287.820
33.42000 293.390
33.43000 297.986
33.44000 294.644
33.45000 289.554
33.46000 285.633
33.47000 287.746
33.48000 290.715
33.49000 293.055
33.50000 294.755
33.51000 296.075
33.52000 297.153
33.53000 297.664
33.54000 298.152
33.55000 297.138
33.56000 293.725
33.57000 290.281
33.58000 288.509
33.59000 290.934
33.60000 292.568
33.61000 294.550
33.62000 296.771
33.63000 298.873
33.64000 297.327
33.65000 294.066
33.66000 290.973
33.67000 294.144
33.68000 298.925
33.69000 302.839
33.70000 299.826
33.71000 295.316
33.72000 291.534
33.73000 291.434
33.74000 291.845
33.75000 292.168
33.76000 294.071
33.77000 295.696
33.78000 295.895
33.79000 292.807
33.80000 289.587
33.81000 290.211
33.82000 296.870
33.83000 303.602
33.84000 307.031
33.85000 304.536
33.86000 302.894
33.87000 304.827
33.88000 309.195
33.89000 313.325
33.90000 310.528
33.91000 304.528
33.92000 298.846
33.93000 304.731
33.94000 313.513
33.95000 320.353
33.96000 312.044
33.97000 300.520
33.98000 291.572
33.99000 295.399
34.00000 300.965
34.01000 305.316
34.02000 308.397
34.03000 310.776
34.04000 312.790
34.05000 313.979
34.06000 315.136
34.07000 315.982
34.08000 316.349
34.09000 316.711
34.10000 316.894
34.11000 330.599
34.12000 339.656
34.13000 337.774
34.14000 328.574
34.15000 319.643
34.16000 318.199
34.17000 320.160
34.18000 322.013
34.19000 322.099
34.20000 321.673
34.21000 321.874
34.22000 326.855
34.23000 332.831
34.24000 339.342
34.25000 348.459
34.26000 357.923
34.27000 365.290
34.28000 352.822
34.29000 341.673
34.30000 336.565
34.31000 344.917
34.32000 353.765
34.33000 358.924
34.34000 358.495
34.35000 358.009
34.36000 356.580
34.37000 354.211
34.38000 351.873
34.39000 352.538
34.40000 355.174
34.41000 357.778
34.42000 359.542
34.43000 360.930
34.44000 362.239
34.45000 358.807
34.46000 354.333
34.47000 349.904
34.48000 345.803
34.49000 341.769
34.50000 337.558
34.51000 332.500
34.52000 327.331
34.53000 323.325
34.54000 337.179
34.55000 349.253
34.56000 355.646
34.57000 349.600
34.58000 343.114
34.59000 336.520
34.60000 329.766
34.61000 323.010
34.62000 322.056
34.63000 326.773
34.64000 331.363
34.65000 324.800
34.66000 311.041
34.67000 297.699
34.68000 295.131
34.69000 297.295
34.70000 299.334
34.71000 300.625
34.72000 301.602
34.73000 301.924
34.74000 297.461
34.75000 292.039
34.76000 287.712
34.77000 288.523
34.78000 289.987
34.79000 291.117
34.80000 285.310
34.81000 280.306
34.82000 276.959
34.83000 277.181
34.84000 277.524
34.85000 280.619
34.86000 287.735
34.87000 294.886
34.88000 293.970
34.89000 285.327
34.90000 276.747
34.91000 273.273
34.92000 273.036
34.93000 272.835
34.94000 273.542
34.95000 274.642
34.96000 275.676
34.97000 277.868
34.98000 280.181
34.99000 282.197
35.00000 282.084
35.01000 281.551
35.02000 280.760
35.03000 278.777
35.04000 276.645
35.05000 275.007
35.06000 274.855
35.07000 274.819
35.08000 274.628
35.09000 274.112
35.10000 273.585
35.11000 271.407
35.12000 266.860
35.13000 262.295
35.14000 262.968
35.15000 268.559
35.16000 274.072
35.17000 273.719
35.18000 269.714
35.19000 265.929
35.20000 267.403
35.21000 271.108
35.22000 274.585
35.23000 275.280
35.24000 275.179
35.25000 274.890
35.26000 273.282
35.27000 271.418
35.28000 270.900
35.29000 276.453
35.30000 282.746
35.31000 287.559
35.32000 284.084
35.33000 280.892
35.34000 276.275
35.35000 268.695
35.36000 261.024
35.37000 257.495
35.38000 259.805
35.39000 262.155
35.40000 262.956
35.41000 262.331
35.42000 261.750
35.43000 264.345
35.44000 268.881
35.45000 273.228
35.46000 273.219
35.47000 271.392
35.48000 269.682
35.49000 262.768
35.50000 255.133
35.51000 250.017
35.52000 262.166
35.53000 277.583
35.54000 289.218
35.55000 284.082
35.56000 276.950
35.57000 271.521
35.58000 268.533
35.59000 266.311
35.60000 264.617
35.61000 264.004
35.62000 263.422
35.63000 265.369
35.64000 270.816
35.65000 276.283
35.66000 277.606
35.67000 275.190
35.68000 272.746
35.69000 268.532
35.70000 263.254
35.71000 258.325
35.72000 261.106
35.73000 267.048
35.74000 272.603
35.75000 273.928
35.76000 274.056
35.77000 274.161
35.78000 274.106
35.79000 274.022
35.80000 273.272
35.81000 269.625
35.82000 265.642
35.83000 262.623
35.84000 267.818
35.85000 272.315
35.86000 274.761
35.87000 273.085
35.88000 271.292
35.89000 267.917
35.90000 262.391
35.91000 256.856
35.92000 252.398
35.93000 248.898
35.94000 245.523
35.95000 249.830
35.96000 258.674
35.97000 267.200
35.98000 268.967
35.99000 268.007
36.00000 267.112
36.01000 267.003
36.02000 267.100
36.03000 267.346
36.04000 268.571
36.05000 269.974
36.06000 270.522
36.07000 267.422
36.08000 263.907
36.09000 261.256
36.10000 254.191
36.11000 248.439
36.12000 245.375
36.13000 247.619
36.14000 250.005
36.15000 250.976
36.16000 250.059
36.17000 249.133
36.18000 250.448
36.19000 253.705
36.20000 256.970
36.21000 260.651
36.22000 264.573
36.23000 268.082
36.24000 263.106
36.25000 254.766
36.26000 247.000
36.27000 249.929
36.28000 255.185
36.29000 259.869
36.30000 260.867
36.31000 261.208
36.32000 260.853
36.33000 257.575
36.34000 253.973
36.35000 251.269
36.36000 258.434
36.37000 264.504
36.38000 265.908
36.39000 258.250
36.40000 250.360
36.41000 249.510
36.42000 257.881
36.43000 266.285
36.44000 265.557
36.45000 257.061
36.46000 248.686
36.47000 246.753
36.48000 248.494
36.49000 250.484
36.50000 257.401
36.51000 266.238
36.52000 274.450
36.53000 271.637
36.54000 266.462
36.55000 261.599
36.56000 258.699
36.57000 256.142
36.58000 254.931
36.59000 259.265
36.60000 264.200
36.61000 267.888
36.62000 267.140
36.63000 266.352
36.64000 265.122
36.65000 263.049
36.66000 260.955
36.67000 259.162
36.68000 257.754
36.69000 256.349
36.70000 256.136
36.71000 256.917
36.72000 257.680
36.73000 257.480
36.74000 256.741
36.75000 256.255
36.76000 260.618
36.77000 266.840
36.78000 272.609
36.79000 270.098
36.80000 265.896
36.81000 261.941
36.82000 259.514
36.83000 257.349
36.84000 256.438
36.85000 260.603
36.86000 265.304
36.87000 268.800
36.88000 273.364
36.89000 276.962
36.90000 279.609
36.91000 280.474
36.92000 281.297
36.93000 281.689
36.94000 281.536
36.95000 281.382
36.96000 280.455
36.97000 278.898
36.98000 277.420
36.99000 279.756
37.00000 284.193
37.01000 288.542
37.02000 291.266
37.03000 293.378
37.04000 295.332
37.05000 296.583
37.06000 297.545
37.07000 297.807
37.08000 293.832
37.09000 289.144
37.10000 285.148
37.11000 283.898
37.12000 282.933
37.13000 282.218
37.14000 275.331
37.15000 269.721
37.16000 268.121
37.17000 273.910
37.18000 279.861
37.19000 279.592
37.20000 271.619
37.21000 263.638
37.22000 261.777
37.23000 264.833
37.24000 267.859
37.25000 269.545
37.26000 270.505
37.27000 271.326
37.28000 269.645
37.29000 267.038
37.30000 264.631
37.31000 270.597
37.32000 277.834
37.33000 283.517
37.34000 279.985
37.35000 274.933
37.36000 270.436
37.37000 268.098
37.38000 265.979
37.39000 264.419
37.40000 261.517
37.41000 259.216
37.42000 259.269
37.43000 263.584
37.44000 267.988
37.45000 268.785
37.46000 265.196
37.47000 261.604
37.48000 260.517
37.49000 261.408
37.50000 262.305
37.51000 263.485
37.52000 264.816
37.53000 265.942
37.54000 263.501
37.55000 259.761
37.56000 256.315
37.57000 257.654
37.58000 259.910
37.59000 261.414
37.60000 258.553
37.61000 254.988
37.62000 252.181
37.63000 252.279
37.64000 252.663
37.65000 252.945
37.66000 251.617
37.67000 250.527
37.68000 249.553
37.69000 248.788
37.70000 248.027
37.71000 251.866
37.72000 261.192
37.73000 270.508
37.74000 271.049
37.75000 264.816
37.76000 258.640
37.77000 254.828
37.78000 252.251
37.79000 250.086
37.80000 254.848
37.81000 262.087
37.82000 268.743
37.83000 271.445
37.84000 273.002
37.85000 273.745
37.86000 269.849
37.87000 265.219
37.88000 261.034
37.89000 258.527
37.90000 256.182
37.91000 254.472
37.92000 256.592
37.93000 258.372
37.94000 257.681
37.95000 252.663
37.96000 247.566
37.97000 244.079
37.98000 242.477
37.99000 240.882
38.00000 243.059
38.01000 248.078
38.02000 253.114
38.03000 258.821
38.04000 264.873
38.05000 270.538
38.06000 269.898
38.07000 267.044
38.08000 264.424
38.09000 260.922
38.10000 257.613
38.11000 255.597
38.12000 260.812
38.13000 267.146
38.14000 272.093
38.15000 271.902
38.16000 271.231
38.17000 270.745
38.18000 268.556
38.19000 266.811
38.20000 268.570
38.21000 276.353
38.22000 284.241
38.23000 288.933
38.24000 289.959
38.25000 290.978
38.26000 290.837
38.27000 289.836
38.28000 288.945
38.29000 292.107
38.30000 297.315
38.31000 303.091
38.32000 317.824
38.33000 335.653
38.34000 351.973
38.35000 356.077
38.36000 357.190
38.37000 359.671
38.38000 369.644
38.39000 380.754
38.40000 394.079
38.41000 415.455
38.42000 437.565
38.43000 453.517
38.44000 480.280
38.45000 501.183
38.46000 526.200
38.47000 558.169
38.48000 590.251
38.49000 616.995
38.50000 637.728
38.51000 658.387
38.52000 686.172
38.53000 718.922
38.54000 751.858
38.55000 791.304
38.56000 833.983
38.57000 875.585
38.58000 900.661
38.59000 920.127
38.60000 937.905
38.61000 969.155
38.62000 999.639
38.63000 1031.948
38.64000 1074.065
38.65000 1117.640
38.66000 1155.141
38.67000 1170.962
38.68000 1184.856
38.69000 1194.828
38.70000 1203.340
38.71000 1209.799
38.72000 1214.815
38.73000 1217.437
38.74000 1220.022
38.75000 1207.560
38.76000 1178.481
38.77000 1149.500
38.78000 1128.438
38.79000 1113.223
38.80000 1097.470
38.81000 1063.637
38.82000 1020.981
38.83000 978.767
38.84000 943.131
38.85000 909.689
38.86000 879.217
38.87000 834.203
38.88000 791.424
38.89000 751.377
38.90000 725.730
38.91000 702.178
38.92000 676.935
38.93000 645.755
38.94000 614.062
38.95000 591.436
38.96000 541.724
38.97000 502.906
38.98000 468.879
38.99000 442.664
39.00000 416.560
39.01000 396.813
39.02000 383.948
39.03000 371.140
39.04000 356.281
39.05000 340.134
39.06000 324.070
39.07000 310.681
39.08000 298.575
39.09000 287.149
39.10000 285.532
39.11000 287.134
39.12000 288.590
39.13000 282.537
39.14000 275.719
39.15000 269.808
39.16000 268.581
39.17000 268.022
39.18000 267.025
39.19000 264.523
39.20000 261.894
39.21000 260.027
39.22000 249.491
39.23000 241.198
39.24000 236.564
39.25000 237.793
39.26000 239.099
39.27000 237.641
39.28000 233.249
39.29000 228.876
39.30000 232.420
39.31000 241.367
39.32000 250.049
39.33000 250.577
39.34000 247.261
39.35000 244.055
39.36000 242.406
39.37000 241.257
39.38000 240.216
39.39000 235.527
39.40000 230.692
39.41000 227.078
39.42000 229.652
39.43000 233.089
39.44000 235.474
39.45000 234.297
39.46000 232.828
39.47000 231.791
39.48000 226.235
39.49000 221.880
39.50000 219.485
39.51000 220.177
39.52000 220.906
39.53000 225.439
39.54000 233.932
39.55000 242.381
39.56000 245.772
39.57000 245.712
39.58000 245.585
39.59000 243.503
39.60000 240.514
39.61000 237.763
39.62000 238.251
39.63000 239.765
39.64000 241.135
39.65000 233.911
39.66000 225.941
39.67000 219.264
39.68000 219.024
39.69000 219.661
39.70000 220.531
39.71000 222.171
39.72000 223.873
39.73000 225.068
39.74000 233.745
39.75000 240.533
39.76000 240.519
39.77000 229.986
39.78000 219.335
39.79000 213.108
39.80000 211.397
39.81000 209.697
39.82000 212.795
39.83000 219.028
39.84000 225.015
39.85000 224.093
39.86000 220.022
39.87000 216.632
39.88000 222.268
39.89000 230.715
39.90000 238.338
39.91000 240.537
39.92000 241.475
39.93000 240.463
39.94000 229.936
39.95000 218.138
39.96000 211.313
39.97000 220.748
39.98000 231.445
39.99000 238.916
40.00000 229.580
40.01000 222.057
40.02000 217.104
40.03000 216.052
40.04000 215.042
40.05000 215.870
40.06000 218.537
40.07000 221.187
40.08000 222.883
40.09000 223.934
40.10000 225.131
40.11000 230.247
40.12000 237.118
40.13000 243.074
40.14000 237.239
40.15000 227.795
40.16000 219.294
40.17000 220.382
40.18000 223.059
40.19000 225.151
40.20000 224.441
40.21000 223.365
40.22000 221.803
40.23000 218.675
40.24000 215.429
40.25000 213.174
40.26000 217.746
40.27000 221.373
40.28000 222.880
40.29000 221.221
40.30000 219.532
40.31000 221.558
40.32000 227.227
40.33000 232.856
40.34000 234.054
40.35000 232.411
40.36000 230.555
40.37000 223.153
40.38000 213.310
40.39000 204.624
40.40000 210.455
40.41000 220.649
40.42000 229.804
40.43000 225.898
40.44000 220.184
40.45000 214.986
40.46000 212.212
40.47000 209.747
40.48000 209.594
40.49000 216.739
40.50000 224.420
40.51000 229.724
40.52000 231.476
40.53000 232.701
40.54000 233.501
40.55000 233.678
40.56000 233.850
40.57000 233.422
40.58000 232.419
40.59000 231.423
40.60000 228.707
40.61000 224.962
40.62000 221.230
40.63000 217.819
40.64000 214.546
40.65000 211.683
40.66000 213.809
40.67000 217.409
40.68000 220.634
40.69000 218.373
40.70000 215.454
40.71000 212.015
40.72000 206.177
40.73000 200.039
40.74000 197.461
40.75000 205.928
40.76000 215.183
40.77000 221.538
40.78000 215.029
40.79000 209.834
40.80000 208.278
40.81000 211.957
40.82000 215.677
40.83000 217.931
40.84000 218.803
40.85000 219.669
40.86000 218.238
40.87000 215.424
40.88000 212.722
40.89000 212.690
40.90000 213.793
40.91000 214.946
40.92000 216.684
40.93000 218.592
40.94000 220.297
40.95000 215.852
40.96000 210.943
40.97000 207.768
40.98000 212.441
40.99000 218.074
41.00000 222.840
41.01000 224.961
41.02000 226.899
41.03000 228.222
41.04000 214.795
41.05000 204.410
41.06000 198.871
41.07000 200.181
41.08000 201.540
41.09000 203.644
41.10000 206.437
41.11000 209.206
41.12000 209.928
41.13000 209.405
41.14000 208.826
41.15000 206.973
41.16000 204.586
41.17000 202.557
41.18000 204.662
41.19000 207.946
41.20000 210.872
41.21000 207.039
41.22000 202.592
41.23000 200.236
41.24000 207.176
41.25000 215.227
41.26000 220.781
41.27000 218.850
41.28000 216.417
41.29000 214.766
41.30000 209.746
41.31000 205.926
41.32000 204.955
41.33000 207.935
41.34000 210.941
41.35000 212.697
41.36000 213.322
41.37000 213.942
41.38000 216.316
41.39000 219.679
41.40000 222.852
41.41000 221.794
41.42000 218.998
41.43000 216.213
41.44000 213.546
41.45000 210.913
41.46000 208.574
41.47000 206.764
41.48000 205.279
41.49000 204.642
41.50000 207.702
41.51000 211.195
41.52000 213.954
41.53000 214.556
41.54000 215.018
41.55000 215.329
41.56000 212.312
41.57000 209.997
41.58000 207.863
41.59000 205.974
41.60000 204.090
41.61000 205.283
41.62000 209.211
41.63000 213.099
41.64000 208.713
41.65000 199.628
41.66000 190.862
41.67000 188.937
41.68000 189.777
41.69000 191.175
41.70000 198.710
41.71000 207.933
41.72000 216.108
41.73000 214.138
41.74000 210.829
41.75000 208.612
41.76000 211.069
41.77000 214.060
41.78000 215.008
41.79000 210.042
41.80000 204.702
41.81000 201.121
41.82000 201.393
41.83000 201.672
41.84000 202.366
41.85000 203.613
41.86000 204.862
41.87000 205.184
41.88000 204.696
41.89000 204.214
41.90000 205.889
41.91000 208.753
41.92000 211.567
41.93000 213.341
41.94000 214.702
41.95000 216.131
41.96000 218.284
41.97000 220.631
41.98000 222.706
41.99000 221.136
42.00000 219.216
42.01000 217.004
42.02000 213.558
42.03000 209.976
42.04000 206.514
42.05000 203.396
42.06000 200.298
42.07000 198.234
42.08000 203.315
42.09000 207.212
42.10000 209.382
42.11000 209.283
42.12000 209.177
42.13000 211.220
42.14000 215.099
42.15000 218.934
42.16000 217.934
42.17000 214.260
42.18000 210.821
42.19000 212.067
42.20000 215.141
42.21000 217.753
42.22000 215.533
42.23000 212.030
42.24000 208.942
42.25000 210.719
42.26000 212.985
42.27000 215.275
42.28000 217.659
42.29000 220.053
42.30000 219.844
42.31000 212.353
42.32000 204.429
42.33000 199.182
42.34000 199.509
42.35000 199.851
42.36000 202.932
42.37000 209.547
42.38000 216.162
42.39000 216.284
42.40000 210.960
42.41000 205.701
42.42000 205.629
42.43000 208.399
42.44000 210.955
42.45000 209.393
42.46000 206.249
42.47000 203.344
42.48000 202.872
42.49000 203.035
42.50000 203.178
42.51000 203.303
42.52000 203.407
42.53000 204.393
42.54000 208.953
42.55000 213.893
42.56000 216.592
42.57000 213.131
42.58000 209.315
42.59000 206.804
42.60000 202.481
42.61000 199.266
42.62000 199.333
42.63000 203.553
42.64000 207.775
42.65000 206.844
42.66000 201.671
42.67000 196.567
42.68000 197.268
42.69000 201.070
42.70000 204.865
42.71000 208.531
42.72000 212.149
42.73000 215.157
42.74000 212.120
42.75000 207.533
42.76000 203.513
42.77000 207.624
42.78000 212.330
42.79000 216.301
42.80000 217.342
42.81000 218.080
42.82000 217.464
42.83000 213.192
42.84000 208.716
42.85000 205.790
42.86000 203.404
42.87000 201.660
42.88000 200.255
42.89000 199.271
42.90000 198.291
42.91000 198.846
42.92000 200.640
42.93000 202.409
42.94000 200.038
42.95000 195.551
42.96000 191.292
42.97000 191.142
42.98000 192.515
42.99000 194.395
43.00000 201.171
43.01000 209.181
43.02000 216.181
43.03000 208.296
43.04000 199.436
43.05000 193.208
43.06000 197.275
43.07000 202.384
43.08000 205.885
43.09000 205.113
43.10000 204.110
43.11000 203.459
43.12000 198.686
43.13000 195.126
43.14000 194.692
43.15000 198.069
43.16000 201.454
43.17000 204.603
43.18000 207.565
43.19000 210.482
43.20000 207.362
43.21000 201.208
43.22000 195.477
43.23000 197.116
43.24000 201.443
43.25000 205.252
43.26000 204.159
43.27000 201.854
43.28000 199.846
43.29000 199.810
43.30000 200.052
43.31000 200.819
43.32000 203.603
43.33000 206.587
43.34000 207.821
43.35000 204.488
43.36000 200.916
43.37000 198.611
43.38000 195.325
43.39000 192.910
43.40000 193.188
43.41000 196.686
43.42000 200.180
43.43000 201.145
43.44000 200.141
43.45000 199.153
43.46000 193.259
43.47000 185.056
43.48000 177.266
43.49000 176.464
43.50000 178.167
43.51000 180.132
43.52000 184.513
43.53000 189.481
43.54000 193.798
43.55000 194.424
43.56000 194.459
43.57000 194.935
43.58000 197.074
43.59000 199.374
43.60000 200.513
43.61000 198.673
43.62000 196.682
43.63000 195.406
43.64000 193.153
43.65000 191.497
43.66000 192.341
43.67000 196.117
43.68000 199.883
43.69000 200.202
43.70000 197.890
43.71000 195.616
43.72000 195.202
43.73000 195.729
43.74000 196.402
43.75000 199.465
43.76000 203.371
43.77000 206.184
43.78000 199.156
43.79000 189.782
43.80000 181.662
43.81000 184.919
43.82000 189.195
43.83000 192.037
43.84000 189.556
43.85000 186.576
43.86000 186.632
43.87000 194.349
43.88000 202.438
43.89000 207.590
43.90000 201.964
43.91000 197.737
43.92000 194.860
43.93000 193.534
43.94000 192.203
43.95000 189.322
43.96000 185.279
43.97000 181.306
43.98000 177.537
43.99000 173.994
44.00000 170.854
44.01000 174.114
44.02000 179.590
44.03000 184.871
44.04000 188.440
44.05000 191.608
44.06000 194.345
44.07000 194.659
44.08000 194.612
44.09000 194.866
44.10000 196.210
44.11000 197.654
44.12000 198.788
44.13000 199.152
44.14000 199.481
44.15000 199.688
44.16000 203.613
44.17000 206.503
44.18000 205.524
44.19000 200.179
44.20000 194.838
44.21000 190.953
44.22000 188.140
44.23000 185.378
44.24000 188.254
44.25000 193.733
44.26000 198.824
44.27000 197.931
44.28000 195.000
44.29000 192.591
44.30000 194.668
44.31000 197.775
44.32000 200.450
44.33000 201.879
44.34000 202.933
44.35000 202.687
44.36000 197.791
44.37000 192.480
44.38000 190.708
44.39000 197.571
44.40000 204.825
44.41000 209.382
44.42000 210.618
44.43000 211.476
44.44000 207.362
44.45000 197.744
44.46000 188.175
44.47000 186.820
44.48000 191.404
44.49000 195.898
44.50000 200.082
44.51000 203.966
44.52000 207.912
44.53000 212.798
44.54000 217.998
44.55000 222.383
44.56000 219.922
44.57000 215.917
44.58000 212.479
44.59000 214.191
44.60000 216.274
44.61000 217.722
44.62000 216.938
44.63000 215.959
44.64000 214.664
44.65000 212.611
44.66000 210.524
44.67000 209.222
44.68000 217.123
44.69000 222.915
44.70000 224.381
44.71000 221.148
44.72000 217.980
44.73000 224.221
44.74000 237.140
44.75000 249.795
44.76000 247.242
44.77000 237.756
44.78000 229.171
44.79000 233.665
44.80000 242.460
44.81000 250.094
44.82000 248.192
44.83000 244.179
44.84000 240.745
44.85000 239.627
44.86000 238.963
44.87000 238.728
44.88000 239.975
44.89000 241.346
44.90000 243.952
44.91000 249.468
44.92000 255.106
44.93000 258.598
44.94000 251.725
44.95000 246.683
44.96000 245.283
44.97000 247.762
44.98000 250.227
44.99000 250.854
45.00000 250.199
45.01000 249.558
45.02000 251.240
45.03000 253.908
45.04000 256.455
45.05000 257.293
45.06000 257.579
45.07000 257.828
45.08000 257.776
45.09000 257.658
45.10000 257.558
45.11000 259.435
45.12000 261.247
45.13000 260.987
45.14000 253.694
45.15000 245.822
45.16000 240.968
45.17000 243.109
45.18000 245.531
45.19000 247.021
45.20000 245.503
45.21000 244.387
45.22000 241.652
45.23000 237.226
45.24000 232.851
45.25000 234.537
45.26000 240.370
45.27000 246.071
45.28000 245.887
45.29000 243.090
45.30000 240.751
45.31000 244.690
45.32000 250.621
45.33000 254.673
45.34000 243.961
45.35000 230.098
45.36000 218.312
45.37000 223.190
45.38000 229.202
45.39000 233.329
45.40000 231.168
45.41000 228.503
45.42000 226.475
45.43000 225.898
45.44000 225.377
45.45000 225.059
45.46000 219.028
45.47000 214.668
45.48000 215.177
45.49000 220.670
45.50000 226.096
45.51000 224.459
45.52000 218.075
45.53000 211.843
45.54000 210.485
45.55000 211.316
45.56000 212.252
45.57000 214.579
45.58000 217.341
45.59000 219.197
45.60000 214.091
45.61000 207.527
45.62000 201.966
45.63000 207.756
45.64000 213.881
45.65000 217.235
45.66000 211.504
45.67000 205.064
45.68000 200.800
45.69000 201.408
45.70000 202.196
45.71000 202.674
45.72000 201.998
45.73000 201.508
45.74000 201.909
45.75000 203.206
45.76000 204.499
45.77000 205.411
45.78000 206.070
45.79000 206.714
45.80000 205.177
45.81000 202.773
45.82000 200.351
45.83000 197.700
45.84000 194.978
45.85000 193.009
45.86000 196.694
45.87000 201.542
45.88000 205.636
45.89000 197.465
45.90000 189.290
45.91000 184.400
45.92000 190.093
45.93000 196.587
45.94000 198.983
45.95000 192.355
45.96000 185.405
45.97000 181.224
45.98000 188.685
45.99000 194.071
46.00000 195.024
46.01000 191.618
46.02000 188.234
46.03000 186.856
46.04000 186.778
46.05000 186.703
46.06000 187.264
46.07000 188.067
46.08000 188.632
46.09000 186.221
46.10000 182.913
46.11000 179.672
46.12000 176.925
46.13000 174.279
46.14000 172.051
46.15000 172.622
46.16000 173.399
46.17000 174.771
46.18000 178.032
46.19000 181.433
46.20000 182.711
46.21000 179.399
46.22000 175.929
46.23000 173.857
46.24000 174.294
46.25000 174.620
46.26000 174.911
46.27000 175.167
46.28000 175.413
46.29000 174.772
46.30000 173.565
46.31000 172.391
46.32000 173.504
46.33000 175.508
46.34000 177.483
46.35000 179.104
46.36000 180.621
46.37000 181.552
46.38000 178.272
46.39000 174.159
46.40000 170.708
46.41000 175.437
46.42000 180.227
46.43000 183.560
46.44000 182.363
46.45000 180.841
46.46000 180.213
46.47000 181.484
46.48000 182.817
46.49000 183.607
46.50000 175.681
46.51000 170.026
46.52000 165.112
46.53000 160.896
46.54000 156.806
46.55000 162.341
46.56000 173.901
46.57000 185.135
46.58000 186.414
46.59000 183.596
46.60000 180.655
46.61000 176.268
46.62000 171.460
46.63000 167.758
46.64000 171.845
46.65000 177.443
46.66000 182.123
46.67000 178.593
46.68000 174.825
46.69000 171.137
46.70000 167.691
46.71000 164.262
46.72000 163.460
46.73000 168.151
46.74000 173.015
46.75000 175.874
46.76000 178.131
46.77000 179.719
46.78000 179.345
46.79000 177.152
46.80000 174.968
46.81000 173.399
46.82000 172.210
46.83000 171.056
46.84000 169.988
46.85000 169.010
46.86000 168.460
46.87000 172.880
46.88000 178.721
46.89000 183.812
46.90000 183.730
46.91000 182.663
46.92000 181.774
46.93000 179.847
46.94000 178.148
46.95000 176.739
46.96000 176.201
46.97000 175.722
46.98000 174.870
46.99000 173.253
47.00000 171.614
47.01000 170.657
47.02000 165.588
47.03000 162.009
47.04000 165.040
47.05000 174.077
47.06000 182.948
47.07000 180.748
47.08000 171.859
47.09000 163.243
47.10000 163.644
47.11000 167.544
47.12000 171.432
47.13000 175.174
47.14000 178.875
47.15000 181.689
47.16000 178.511
47.17000 174.214
47.18000 170.647
47.19000 170.272
47.20000 170.271
47.21000 169.830
47.22000 168.090
47.23000 166.265
47.24000 165.400
47.25000 166.473
47.26000 167.601
47.27000 168.254
47.28000 166.649
47.29000 165.516
47.30000 165.784
47.31000 167.302
47.32000 168.821
47.33000 170.361
47.34000 171.914
47.35000 173.418
47.36000 175.156
47.37000 176.888
47.38000 178.134
47.39000 174.021
47.40000 168.429
47.41000 163.534
47.42000 163.252
47.43000 163.813
47.44000 164.278
47.45000 159.817
47.46000 155.672
47.47000 152.737
47.48000 153.316
47.49000 154.119
47.50000 155.674
47.51000 158.724
47.52000 161.814
47.53000 163.588
47.54000 165.280
47.55000 166.460
47.56000 165.742
47.57000 163.365
47.58000 161.025
47.59000 160.824
47.60000 161.872
47.61000 162.885
47.62000 162.094
47.63000 160.671
47.64000 159.410
47.65000 159.908
47.66000 160.881
47.67000 161.647
47.68000 161.067
47.69000 160.246
47.70000 159.569
47.71000 159.784
47.72000 160.043
47.73000 159.686
47.74000 157.568
47.75000 155.341
47.76000 154.026
47.77000 154.488
47.78000 154.998
47.79000 155.287
47.80000 155.991
47.81000 156.483
47.82000 156.737
47.83000 156.788
47.84000 156.890
47.85000 159.875
47.86000 164.511
47.87000 168.987
47.88000 167.935
47.89000 164.904
47.90000 161.917
47.91000 159.385
47.92000 156.973
47.93000 154.809
47.94000 154.214
47.95000 153.895
47.96000 153.633
47.97000 154.962
47.98000 156.196
47.99000 156.858
48.00000 155.919
48.01000 154.883
48.02000 154.462
48.03000 155.218
48.04000 156.004
48.05000 156.447
48.06000 154.877
48.07000 153.787
48.08000 156.385
48.09000 162.087
48.10000 167.677
48.11000 167.439
48.12000 163.918
48.13000 160.523
48.14000 161.425
48.15000 163.828
48.16000 165.819
48.17000 163.589
48.18000 160.254
48.19000 157.519
48.20000 158.506
48.21000 160.136
48.22000 161.469
48.23000 159.417
48.24000 157.441
48.25000 156.770
48.26000 159.700
48.27000 162.837
48.28000 163.125
48.29000 158.040
48.30000 152.829
48.31000 149.910
48.32000 154.104
48.33000 157.020
48.34000 156.533
48.35000 153.237
48.36000 150.023
48.37000 150.806
48.38000 153.802
48.39000 156.686
48.40000 155.288
48.41000 152.456
48.42000 150.289
48.43000 154.747
48.44000 160.907
48.45000 166.470
48.46000 168.401
48.47000 169.717
48.48000 170.790
48.49000 168.355
48.50000 166.067
48.51000 164.334
48.52000 164.108
48.53000 163.967
48.54000 161.863
48.55000 156.122
48.56000 150.301
48.57000 147.068
48.58000 145.974
48.59000 145.230
48.60000 147.286
48.61000 151.610
48.62000 155.939
48.63000 160.508
48.64000 165.207
48.65000 169.725
48.66000 166.635
48.67000 161.088
48.68000 155.768
48.69000 152.648
48.70000 150.084
48.71000 148.837
48.72000 155.447
48.73000 163.359
48.74000 169.784
48.75000 162.725
48.76000 155.852
48.77000 150.581
48.78000 149.581
48.79000 148.813
48.80000 149.437
48.81000 152.594
48.82000 155.805
48.83000 157.573
48.84000 159.506
48.85000 160.831
48.86000 159.948
48.87000 157.308
48.88000 154.722
48.89000 154.461
48.90000 155.444
48.91000 156.387
48.92000 155.192
48.93000 153.344
48.94000 151.869
48.95000 153.940
48.96000 156.891
48.97000 159.281
48.98000 158.391
48.99000 156.968
49.00000 155.817
49.01000 152.094
49.02000 148.856
49.03000 145.815
49.04000 143.288
49.05000 140.787
49.06000 139.811
49.07000 141.563
49.08000 143.369
49.09000 144.355
49.10000 145.345
49.11000 146.022
49.12000 145.955
49.13000 145.308
49.14000 144.747
49.15000 147.753
49.16000 152.633
49.17000 157.311
49.18000 156.499
49.19000 153.900
49.20000 151.733
49.21000 153.564
49.22000 156.367
49.23000 158.400
49.24000 156.010
49.25000 152.915
49.26000 150.422
49.27000 151.567
49.28000 152.782
49.29000 153.208
49.30000 151.604
49.31000 149.897
49.32000 148.714
49.33000 148.452
49.34000 148.207
49.35000 148.074
49.36000 147.111
49.37000 146.469
49.38000 149.964
49.39000 156.628
49.40000 163.137
49.41000 163.579
49.42000 160.888
49.43000 158.312
49.44000 156.268
49.45000 154.539
49.46000 152.916
49.47000 152.255
49.48000 151.825
49.49000 151.525
49.50000 151.965
49.51000 152.519
49.52000 152.964
49.53000 157.444
49.54000 161.380
49.55000 163.272
49.56000 159.990
49.57000 156.454
49.58000 154.444
49.59000 155.069
49.60000 155.740
49.61000 156.099
49.62000 152.685
49.63000 150.353
49.64000 148.296
49.65000 146.446
49.66000 144.675
49.67000 145.872
49.68000 148.575
49.69000 151.158
49.70000 154.607
49.71000 158.095
49.72000 160.953
49.73000 158.253
49.74000 154.248
49.75000 150.639
49.76000 149.210
49.77000 148.114
49.78000 147.238
49.79000 152.443
49.80000 157.100
49.81000 159.504
49.82000 156.300
49.83000 152.832
49.84000 150.310
49.85000 149.393
49.86000 148.502
49.87000 148.029
49.88000 150.700
49.89000 152.518
49.90000 153.888
49.91000 154.928
49.92000 155.954
49.93000 156.474
49.94000 156.741
49.95000 156.996
49.96000 152.679
49.97000 147.223
49.98000 142.746
49.99000 146.719
50.00000 152.640
50.01000 157.337
50.02000 155.427
50.03000 152.529
50.04000 150.221
50.05000 151.667
50.06000 153.104
50.07000 154.463
50.08000 155.631
50.09000 156.791
50.10000 157.219
50.11000 156.424
50.12000 155.611
50.13000 155.183
50.14000 149.316
50.15000 145.357
50.16000 145.106
50.17000 147.543
50.18000 150.034
50.19000 154.385
50.20000 159.646
50.21000 164.658
50.22000 161.741
50.23000 156.575
50.24000 152.092
50.25000 153.363
50.26000 155.937
50.27000 157.999
50.28000 157.353
50.29000 156.311
50.30000 155.485
50.31000 150.857
50.32000 146.867
50.33000 145.561
50.34000 150.705
50.35000 156.132
50.36000 158.393
50.37000 155.464
50.38000 152.460
50.39000 150.894
50.40000 161.434
50.41000 168.519
50.42000 169.054
50.43000 164.929
50.44000 160.892
50.45000 159.692
50.46000 159.860
50.47000 160.020
50.48000 158.415
50.49000 156.393
50.50000 155.108
50.51000 159.904
50.52000 166.050
50.53000 171.755
50.54000 175.166
50.55000 178.248
50.56000 180.682
50.57000 176.306
50.58000 172.328
50.59000 171.059
50.60000 176.187
50.61000 181.585
50.62000 182.985
50.63000 177.945
50.64000 172.818
50.65000 170.170
50.66000 176.931
50.67000 181.443
50.68000 179.881
50.69000 174.074
50.70000 168.444
50.71000 168.291
50.72000 170.735
50.73000 173.056
50.74000 172.029
50.75000 170.081
50.76000 168.155
50.77000 166.405
50.78000 164.695
50.79000 164.071
50.80000 168.994
50.81000 174.694
50.82000 179.178
50.83000 174.100
50.84000 169.401
50.85000 167.401
50.86000 171.671
50.87000 176.196
50.88000 175.406
50.89000 166.207
50.90000 156.902
50.91000 152.143
50.92000 156.935
50.93000 160.167
50.94000 164.703
50.95000 170.136
50.96000 175.325
50.97000 173.272
50.98000 167.846
50.99000 162.703
51.00000 160.948
51.01000 160.324
51.02000 159.380
51.03000 155.915
51.04000 151.911
51.05000 148.950
51.06000 151.208
51.07000 154.182
51.08000 156.512
51.09000 150.608
51.10000 145.362
51.11000 142.858
51.12000 146.616
51.13000 150.618
51.14000 153.045
51.15000 153.026
51.16000 152.979
51.17000 152.955
51.18000 149.800
51.19000 147.722
51.20000 149.309
51.21000 153.366
51.22000 157.336
51.23000 158.800
51.24000 159.117
51.25000 159.416
51.26000 155.977
51.27000 151.740
51.28000 147.603
51.29000 144.231
51.30000 141.021
51.31000 139.085
51.32000 143.403
51.33000 148.562
51.34000 152.586
51.35000 152.841
51.36000 152.808
51.37000 152.751
51.38000 152.639
51.39000 152.524
51.40000 151.496
51.41000 149.076
51.42000 146.641
51.43000 145.420
51.44000 140.941
51.45000 137.988
51.46000 138.623
51.47000 141.633
51.48000 144.497
51.49000 143.359
51.50000 140.419
51.51000 137.644
51.52000 137.910
51.53000 139.014
51.54000 140.010
51.55000 140.200
51.56000 140.224
51.57000 140.603
51.58000 142.692
51.59000 145.006
51.60000 146.802
51.61000 146.807
51.62000 146.702
51.63000 145.662
51.64000 142.560
51.65000 139.383
51.66000 136.981
51.67000 135.743
51.68000 134.516
51.69000 135.064
51.70000 137.364
51.71000 139.672
51.72000 142.792
51.73000 146.440
51.74000 149.839
51.75000 146.707
51.76000 140.686
51.77000 135.009
51.78000 140.577
51.79000 148.789
51.80000 155.493
51.81000 151.081
51.82000 144.420
51.83000 138.589
51.84000 136.680
51.85000 135.275
51.86000 134.189
51.87000 142.667
51.88000 149.956
51.89000 153.261
51.90000 147.926
51.91000 142.293
51.92000 139.878
51.93000 142.205
51.94000 144.574
51.95000 146.369
51.96000 147.610
51.97000 148.831
51.98000 148.356
51.99000 146.797
52.00000 145.205
52.01000 142.798
52.02000 140.035
52.03000 137.436
52.04000 140.289
52.05000 144.377
52.06000 147.698
52.07000 145.483
52.08000 142.169
52.09000 139.807
52.10000 141.857
52.11000 144.462
52.12000 146.468
52.13000 139.341
52.14000 133.180
52.15000 130.198
52.16000 133.994
52.17000 138.014
52.18000 142.443
52.19000 147.467
52.20000 152.494
52.21000 154.543
52.22000 153.771
52.23000 152.984
52.24000 151.069
52.25000 148.446
52.26000 145.873
52.27000 144.499
52.28000 143.637
52.29000 142.828
52.30000 140.546
52.31000 138.073
52.32000 136.057
52.33000 137.266
52.34000 139.104
52.35000 140.056
52.36000 136.977
52.37000 133.401
52.38000 130.662
52.39000 137.352
52.40000 143.156
52.41000 145.123
52.42000 139.051
52.43000 132.725
52.44000 131.231
52.45000 136.605
52.46000 142.027
52.47000 142.493
52.48000 138.354
52.49000 134.269
52.50000 134.081
52.51000 136.296
52.52000 138.401
52.53000 137.967
52.54000 136.465
52.55000 135.057
52.56000 133.238
52.57000 131.473
52.58000 130.206
52.59000 132.383
52.60000 135.217
52.61000 137.627
52.62000 138.145
52.63000 138.435
52.64000 138.657
52.65000 137.470
52.66000 136.460
52.67000 137.051
52.68000 140.940
52.69000 144.929
52.70000 145.891
52.71000 142.630
52.72000 139.342
52.73000 137.323
52.74000 136.463
52.75000 135.604
52.76000 134.903
52.77000 134.296
52.78000 133.706
52.79000 133.483
52.80000 133.413
52.81000 133.348
52.82000 133.345
52.83000 133.360
52.84000 133.512
52.85000 134.597
52.86000 135.856
52.87000 137.037
52.88000 137.872
52.89000 138.666
52.90000 139.270
52.91000 141.889
52.92000 144.053
52.93000 146.519
52.94000 149.600
52.95000 152.698
52.96000 154.163
52.97000 153.390
52.98000 152.603
52.99000 151.128
53.00000 149.039
53.01000 146.994
53.02000 147.658
53.03000 149.936
53.04000 151.984
53.05000 149.063
53.06000 144.124
53.07000 139.512
53.08000 142.138
53.09000 146.335
53.10000 150.937
53.11000 158.216
53.12000 165.987
53.13000 171.384
53.14000 166.557
53.15000 160.555
53.16000 156.019
53.17000 152.824
53.18000 150.385
53.19000 147.907
53.20000 145.347
53.21000 142.785
53.22000 144.202
53.23000 150.970
53.24000 157.762
53.25000 159.235
53.26000 156.052
53.27000 152.913
53.28000 152.426
53.29000 153.489
53.30000 154.560
53.31000 155.781
53.32000 157.063
53.33000 158.257
53.34000 167.727
53.35000 178.334
53.36000 186.392
53.37000 177.891
53.38000 166.409
53.39000 157.505
53.40000 159.502
53.41000 162.723
53.42000 165.146
53.43000 156.423
53.44000 149.059
53.45000 145.425
53.46000 149.089
53.47000 152.943
53.48000 154.391
53.49000 152.664
53.50000 150.923
53.51000 152.324
53.52000 156.419
53.53000 160.447
53.54000 160.791
53.55000 159.018
53.56000 157.183
53.57000 154.096
53.58000 150.518
53.59000 147.189
53.60000 146.719
53.61000 146.984
53.62000 147.293
53.63000 147.888
53.64000 148.532
53.65000 149.398
53.66000 151.184
53.67000 153.070
53.68000 154.483
53.69000 153.045
53.70000 151.790
53.71000 150.601
53.72000 149.536
53.73000 148.475
53.74000 146.983
53.75000 144.932
53.76000 142.880
53.77000 142.409
53.78000 143.268
53.79000 144.118
53.80000 144.460
53.81000 144.515
53.82000 144.553
53.83000 144.268
53.84000 143.856
53.85000 143.475
53.86000 142.915
53.87000 142.369
53.88000 141.551
53.89000 139.049
53.90000 136.254
53.91000 134.968
53.92000 139.835
53.93000 145.360
53.94000 149.477
53.95000 143.884
53.96000 139.090
53.97000 136.857
53.98000 139.464
53.99000 142.185
54.00000 142.497
54.01000 139.743
54.02000 136.982
54.03000 135.949
54.04000 136.343
54.05000 136.741
54.06000 137.253
54.07000 137.830
54.08000 138.546
54.09000 141.863
54.10000 146.168
54.11000 150.155
54.12000 150.103
54.13000 149.120
54.14000 147.854
54.15000 144.863
54.16000 141.579
54.17000 139.534
54.18000 142.450
54.19000 145.885
54.20000 148.432
54.21000 149.587
54.22000 150.424
54.23000 149.679
54.24000 145.994
54.25000 142.244
54.26000 139.301
54.27000 137.363
54.28000 135.432
54.29000 134.366
54.30000 134.004
54.31000 133.689
54.32000 135.560
54.33000 138.622
54.34000 141.527
54.35000 141.568
54.36000 140.540
54.37000 139.590
54.38000 137.044
54.39000 134.394
54.40000 132.401
54.41000 134.335
54.42000 136.922
54.43000 139.737
54.44000 143.453
54.45000 147.260
54.46000 150.069
54.47000 146.456
54.48000 143.385
54.49000 140.931
54.50000 139.604
54.51000 138.301
54.52000 139.850
54.53000 144.892
54.54000 149.935
54.55000 146.950
54.56000 137.610
54.57000 128.566
54.58000 132.573
54.59000 143.577
54.60000 154.048
54.61000 155.146
54.62000 152.807
54.63000 150.650
54.64000 149.373
54.65000 148.425
54.66000 147.298
54.67000 145.125
54.68000 142.781
54.69000 140.928
54.70000 140.971
54.71000 141.203
54.72000 141.373
54.73000 142.958
54.74000 144.241
54.75000 145.460
54.76000 146.566
54.77000 147.669
54.78000 145.999
54.79000 140.996
54.80000 135.996
54.81000 134.442
54.82000 135.578
54.83000 136.729
54.84000 138.487
54.85000 140.565
54.86000 142.647
54.87000 144.783
54.88000 146.940
54.89000 148.925
54.90000 144.356
54.91000 138.842
54.92000 134.262
54.93000 135.060
54.94000 136.716
54.95000 139.338
54.96000 145.622
54.97000 152.262
54.98000 157.113
54.99000 147.922
55.00000 140.284
55.01000 134.797
55.02000 133.102
55.03000 131.479
55.04000 134.491
55.05000 142.973
55.06000 151.445
55.07000 150.611
55.08000 142.681
55.09000 134.951
55.10000 135.161
55.11000 139.482
55.12000 143.854
55.13000 149.054
55.14000 154.548
55.15000 159.593
55.16000 158.690
55.17000 156.611
55.18000 154.936
55.19000 155.536
55.20000 156.492
55.21000 156.856
55.22000 155.009
55.23000 152.954
55.24000 151.460
55.25000 158.263
55.26000 163.810
55.27000 167.271
55.28000 167.118
55.29000 166.900
55.30000 168.727
55.31000 172.922
55.32000 177.108
55.33000 178.258
55.34000 177.129
55.35000 176.087
55.36000 178.322
55.37000 182.225
55.38000 185.837
55.39000 184.782
55.40000 182.103
55.41000 179.648
55.42000 183.339
55.43000 187.914
55.44000 192.439
55.45000 196.688
55.46000 200.895
55.47000 206.513
55.48000 217.300
55.49000 228.564
55.50000 236.709
55.51000 232.801
55.52000 229.364
55.53000 232.638
55.54000 247.335
55.55000 262.223
55.56000 269.008
55.57000 266.593
55.58000 264.175
55.59000 269.383
55.60000 280.152
55.61000 290.967
55.62000 303.478
55.63000 316.837
55.64000 330.406
55.65000 347.236
55.66000 365.182
55.67000 381.588
55.68000 402.970
55.69000 422.992
55.70000 441.796
55.71000 454.001
55.72000 465.216
55.73000 477.803
55.74000 495.326
55.75000 513.292
55.76000 526.216
55.77000 552.858
55.78000 573.732
55.79000 593.234
55.80000 610.440
55.81000 627.609
55.82000 642.599
55.83000 655.163
55.84000 667.679
55.85000 675.932
55.86000 681.041
55.87000 686.252
55.88000 694.940
55.89000 705.339
55.90000 715.095
55.91000 715.165
55.92000 711.979
55.93000 709.072
55.94000 710.179
55.95000 711.968
55.96000 712.799
55.97000 708.537
55.98000 703.527
55.99000 695.255
56.00000 675.450
56.01000 654.636
56.02000 639.742
56.03000 636.248
56.04000 633.963
56.05000 626.413
56.06000 610.208
56.07000 593.877
56.08000 578.651
56.09000 564.632
56.10000 550.670
56.11000 536.890
56.12000 523.370
56.13000 509.673
56.14000 490.146
56.15000 467.802
56.16000 445.779
56.17000 428.463
56.18000 412.702
56.19000 398.360
56.20000 385.542
56.21000 374.500
56.22000 363.369
56.23000 351.778
56.24000 340.120
56.25000 327.895
56.26000 313.704
56.27000 299.345
56.28000 289.124
56.29000 274.008
56.30000 262.335
56.31000 253.325
56.32000 248.613
56.33000 243.960
56.34000 236.534
56.35000 226.136
56.36000 215.783
56.37000 208.249
56.38000 202.749
56.39000 197.221
56.40000 190.853
56.41000 184.084
56.42000 177.699
56.43000 176.762
56.44000 177.595
56.45000 178.351
56.46000 175.324
56.47000 171.920
56.48000 168.436
56.49000 164.535
56.50000 160.577
56.51000 157.427
56.52000 157.037
56.53000 156.877
56.54000 156.763
56.55000 150.992
56.56000 146.432
56.57000 143.412
56.58000 142.837
56.59000 142.294
56.60000 142.657
56.61000 143.973
56.62000 145.282
56.63000 146.318
56.64000 147.157
56.65000 148.025
56.66000 149.738
56.67000 151.846
56.68000 153.712
56.69000 152.225
56.70000 149.669
56.71000 147.353
56.72000 144.811
56.73000 142.528
56.74000 140.414
56.75000 139.148
56.76000 138.000
56.77000 136.617
56.78000 134.447
56.79000 132.213
56.80000 130.640
56.81000 134.773
56.82000 138.076
56.83000 139.049
56.84000 136.390
56.85000 133.689
56.86000 135.216
56.87000 141.095
56.88000 146.943
56.89000 145.839
56.90000 140.111
56.91000 134.494
56.92000 132.067
56.93000 131.105
56.94000 130.159
56.95000 129.429
56.96000 128.767
56.97000 128.169
56.98000 127.052
56.99000 125.974
57.00000 125.019
57.01000 124.667
57.02000 124.398
57.03000 124.664
57.04000 126.694
57.05000 128.863
57.06000 130.382
57.07000 121.928
57.08000 115.250
57.09000 113.058
57.10000 117.733
57.11000 122.481
57.12000 124.436
57.13000 123.572
57.14000 122.713
57.15000 125.158
57.16000 129.733
57.17000 134.094
57.18000 132.585
57.19000 128.426
57.20000 124.589
57.21000 124.966
57.22000 126.641
57.23000 128.151
57.24000 128.707
57.25000 129.021
57.26000 128.878
57.27000 126.523
57.28000 123.877
57.29000 122.366
57.30000 124.532
57.31000 126.980
57.32000 128.684
57.33000 125.557
57.34000 123.067
57.35000 120.861
57.36000 119.083
57.37000 117.310
57.38000 119.337
57.39000 125.122
57.40000 130.870
57.41000 133.328
57.42000 133.637
57.43000 133.906
57.44000 133.143
57.45000 131.921
57.46000 130.674
57.47000 129.094
57.48000 127.414
57.49000 125.903
57.50000 127.698
57.51000 129.856
57.52000 131.525
57.53000 130.879
57.54000 129.934
57.55000 128.532
57.56000 125.676
57.57000 122.712
57.58000 120.660
57.59000 118.696
57.60000 117.221
57.61000 118.339
57.62000 123.284
57.63000 128.264
57.64000 130.663
57.65000 130.558
57.66000 130.455
57.67000 128.004
57.68000 124.112
57.69000 120.381
57.70000 120.709
57.71000 122.807
57.72000 124.828
57.73000 125.882
57.74000 126.648
57.75000 127.335
57.76000 129.490
57.77000 131.629
57.78000 133.220
57.79000 132.259
57.80000 130.976
57.81000 129.962
57.82000 129.792
57.83000 129.683
57.84000 129.607
57.85000 129.032
57.86000 128.587
57.87000 130.010
57.88000 134.139
57.89000 138.291
57.90000 137.362
57.91000 131.606
57.92000 125.895
57.93000 122.954
57.94000 121.777
57.95000 120.657
57.96000 120.936
57.97000 121.815
57.98000 122.469
57.99000 120.427
58.00000 117.596
58.01000 115.063
58.02000 114.554
58.03000 114.455
58.04000 114.846
58.05000 117.476
58.06000 120.383
58.07000 121.889
58.08000 119.091
58.09000 115.990
58.10000 113.869
58.11000 116.245
58.12000 118.130
58.13000 118.385
58.14000 116.315
58.15000 114.229
58.16000 115.741
58.17000 120.603
58.18000 125.425
58.19000 123.682
58.20000 117.987
58.21000 112.592
58.22000 114.213
58.23000 118.792
58.24000 122.942
58.25000 122.078
58.26000 119.773
58.27000 117.717
58.28000 117.939
58.29000 118.512
58.30000 119.326
58.31000 121.217
58.32000 123.239
58.33000 124.520
58.34000 123.565
58.35000 122.457
58.36000 121.704
58.37000 119.888
58.38000 118.508
58.39000 118.788
58.40000 121.391
58.41000 124.010
58.42000 126.289
58.43000 128.260
58.44000 130.212
58.45000 130.446
58.46000 129.650
58.47000 128.776
58.48000 126.115
58.49000 122.713
58.50000 119.405
58.51000 117.167
58.52000 115.232
58.53000 113.510
58.54000 117.612
58.55000 122.124
58.56000 125.554
58.57000 124.224
58.58000 122.334
58.59000 120.732
58.60000 119.986
58.61000 119.296
58.62000 118.830
58.63000 117.569
58.64000 116.613
58.65000 116.895
58.66000 118.879
58.67000 120.871
58.68000 120.666
58.69000 118.494
58.70000 116.343
58.71000 115.176
58.72000 114.608
58.73000 114.133
58.74000 115.671
58.75000 118.029
58.76000 120.485
58.77000 124.033
58.78000 127.885
58.79000 131.302
58.80000 124.439
58.81000 116.851
58.82000 110.754
58.83000 111.092
58.84000 112.172
58.85000 113.609
58.86000 116.089
58.87000 118.636
58.88000 120.348
58.89000 119.461
58.90000 118.749
58.91000 118.267
58.92000 118.097
58.93000 117.931
58.94000 120.186
58.95000 124.568
58.96000 128.905
58.97000 128.513
58.98000 125.418
58.99000 122.356
59.00000 119.970
59.01000 117.854
59.02000 116.042
59.03000 117.522
59.04000 119.898
59.05000 122.001
59.06000 120.978
59.07000 119.606
59.08000 118.452
59.09000 118.219
59.10000 118.090
59.11000 118.388
59.12000 119.912
59.13000 121.513
59.14000 122.582
59.15000 122.113
59.16000 121.735
59.17000 120.372
59.18000 117.706
59.19000 115.039
59.20000 115.674
59.21000 119.158
59.22000 122.602
59.23000 124.156
59.24000 124.609
59.25000 124.947
59.26000 122.967
59.27000 120.073
59.28000 117.413
59.29000 117.213
59.30000 117.672
59.31000 118.077
59.32000 115.806
59.33000 113.438
59.34000 111.650
59.35000 112.279
59.36000 113.173
59.37000 115.169
59.38000 120.272
59.39000 125.563
59.40000 129.075
59.41000 123.381
59.42000 119.001
59.43000 117.217
59.44000 118.807
59.45000 120.407
59.46000 119.778
59.47000 117.263
59.48000 114.777
59.49000 115.460
59.50000 117.874
59.51000 120.058
59.52000 117.707
59.53000 113.602
59.54000 109.894
59.55000 110.271
59.56000 111.721
59.57000 112.997
59.58000 115.009
59.59000 116.850
59.60000 117.667
59.61000 114.296
59.62000 110.475
59.63000 108.472
59.64000 111.507
59.65000 114.836
59.66000 117.032
59.67000 122.042
59.68000 125.785
59.69000 126.665
59.70000 123.891
59.71000 121.108
59.72000 120.217
59.73000 120.896
59.74000 121.567
59.75000 122.089
59.76000 122.517
59.77000 122.981
59.78000 124.134
59.79000 125.549
59.80000 126.438
59.81000 122.056
59.82000 116.312
59.83000 111.271
59.84000 114.443
59.85000 118.368
59.86000 120.948
59.87000 118.123
59.88000 114.732
59.89000 112.969
59.90000 115.639
59.91000 118.560
59.92000 120.476
59.93000 115.766
59.94000 112.192
59.95000 108.519
59.96000 104.720
59.97000 100.934
59.98000 101.926
59.99000 106.810
60.00000 111.627
60.01000 113.690
60.02000 114.230
60.03000 114.753
60.04000 114.945
60.05000 115.014
60.06000 115.396
60.07000 118.837
60.08000 123.054
60.09000 126.745
60.10000 123.333
60.11000 119.393
60.12000 116.051
60.13000 115.065
60.14000 114.320
60.15000 113.029
60.16000 110.276
60.17000 107.443
60.18000 105.598
60.19000 111.810
60.20000 116.492
60.21000 119.206
60.22000 119.502
60.23000 119.788
60.24000 119.274
60.25000 118.119
60.26000 116.981
60.27000 117.615
60.28000 119.155
60.29000 120.488
60.30000 118.139
60.31000 114.437
60.32000 111.297
60.33000 113.527
60.34000 117.095
60.35000 120.209
60.36000 120.388
60.37000 120.131
60.38000 119.732
60.39000 118.782
60.40000 117.777
60.41000 118.194
60.42000 122.351
60.43000 126.705
60.44000 129.524
60.45000 121.356
60.46000 115.219
60.47000 113.619
60.48000 117.490
60.49000 121.365
60.50000 123.147
60.51000 123.288
60.52000 123.426
60.53000 120.512
60.54000 116.123
60.55000 112.126
60.56000 114.848
60.57000 119.996
60.58000 124.969
60.59000 128.300
60.60000 131.229
60.61000 133.778
60.62000 130.804
60.63000 127.511
60.64000 124.209
60.65000 120.869
60.66000 117.526
60.67000 115.731
60.68000 117.938
60.69000 120.349
60.70000 121.900
60.71000 122.338
60.72000 122.643
60.73000 122.337
60.74000 121.309
60.75000 120.282
60.76000 119.767
60.77000 119.648
60.78000 119.530
60.79000 120.771
60.80000 122.655
60.81000 124.394
60.82000 123.730
60.83000 122.211
60.84000 121.254
60.85000 125.405
60.86000 130.784
60.87000 135.449
60.88000 125.931
60.89000 115.931
60.90000 108.767
60.91000 112.199
60.92000 116.638
60.93000 119.559
60.94000 118.620
60.95000 117.491
60.96000 116.770
60.97000 117.262
60.98000 117.636
60.99000 117.746
61.00000 117.549
61.01000 117.364
61.02000 119.693
61.03000 123.920
61.04000 128.076
61.05000 125.804
61.06000 120.438
61.07000 115.493
61.08000 117.332
61.09000 121.539
61.10000 125.185
61.11000 123.849
61.12000 121.337
61.13000 119.165
61.14000 120.643
61.15000 122.375
61.16000 123.121
61.17000 120.247
61.18000 117.039
61.19000 116.445
61.20000 122.386
61.21000 128.638
61.22000 132.605
61.23000 127.925
61.24000 124.423
61.25000 123.392
61.26000 125.176
61.27000 126.950
61.28000 126.412
61.29000 124.160
61.30000 121.948
61.31000 121.712
61.32000 122.442
61.33000 123.329
61.34000 126.690
61.35000 130.898
61.36000 134.441
61.37000 132.203
61.38000 128.626
61.39000 125.541
61.40000 123.011
61.41000 120.936
61.42000 119.832
61.43000 122.233
61.44000 124.949
61.45000 127.901
61.46000 131.431
61.47000 134.987
61.48000 137.228
61.49000 139.914
61.50000 141.863
61.51000 145.187
61.52000 150.049
61.53000 154.953
61.54000 166.790
61.55000 183.678
61.56000 200.244
61.57000 215.757
61.58000 230.204
61.59000 244.343
61.60000 253.831
61.61000 261.750
61.62000 269.317
61.63000 273.895
61.64000 277.792
61.65000 281.142
61.66000 283.841
61.67000 286.042
61.68000 288.479
61.69000 291.751
61.70000 295.096
61.71000 298.759
61.72000 303.190
61.73000 307.655
61.74000 310.449
61.75000 297.113
61.76000 287.314
61.77000 275.268
61.78000 260.761
61.79000 246.257
61.80000 232.392
61.81000 218.984
61.82000 205.845
61.83000 195.576
61.84000 187.034
61.85000 178.440
61.86000 169.076
61.87000 159.456
61.88000 150.538
61.89000 147.443
61.90000 145.647
61.91000 144.109
61.92000 138.518
61.93000 133.304
61.94000 129.070
61.95000 128.246
61.96000 127.715
61.97000 127.406
61.98000 127.624
61.99000 127.864
62.00000 128.014
62.01000 136.076
62.02000 141.958
62.03000 141.653
62.04000 134.702
62.05000 127.783
62.06000 125.535
62.07000 126.567
62.08000 127.577
62.09000 126.280
62.10000 123.980
62.11000 121.773
62.12000 120.904
62.13000 120.470
62.14000 120.359
62.15000 122.858
62.16000 125.930
62.17000 128.554
62.18000 128.691
62.19000 128.511
62.20000 128.580
62.21000 129.504
62.22000 130.499
62.23000 130.797
62.24000 129.467
62.25000 128.070
62.26000 127.209
62.27000 122.285
62.28000 118.713
62.29000 118.651
62.30000 122.286
62.31000 125.899
62.32000 126.768
62.33000 125.743
62.34000 124.740
62.35000 122.264
62.36000 119.227
62.37000 116.436
62.38000 117.042
62.39000 118.736
62.40000 120.759
62.41000 125.404
62.42000 130.613
62.43000 135.048
62.44000 132.374
62.45000 129.301
62.46000 126.536
62.47000 124.805
62.48000 123.159
62.49000 122.835
62.50000 125.548
62.51000 128.380
62.52000 130.115
62.53000 134.212
62.54000 137.165
62.55000 135.005
62.56000 127.566
62.57000 120.169
62.58000 117.447
62.59000 117.892
62.60000 118.327
62.61000 121.321
62.62000 125.315
62.63000 128.812
62.64000 125.599
62.65000 120.276
62.66000 115.532
62.67000 115.287
62.68000 115.991
62.69000 116.588
62.70000 121.001
62.71000 125.135
62.72000 127.798
62.73000 125.606
62.74000 123.030
62.75000 122.655
62.76000 127.245
62.77000 132.024
62.78000 134.930
62.79000 129.797
62.80000 126.069
62.81000 126.223
62.82000 130.305
62.83000 134.339
62.84000 133.436
62.85000 129.248
62.86000 125.162
62.87000 125.601
62.88000 127.976
62.89000 130.364
62.90000 132.932
62.91000 135.556
62.92000 138.071
62.93000 139.762
62.94000 141.283
62.95000 142.569
62.96000 141.920
62.97000 141.162
62.98000 139.231
62.99000 133.488
63.00000 127.452
63.01000 124.131
63.02000 126.830
63.03000 129.747
63.04000 131.509
63.05000 132.608
63.06000 133.387
63.07000 133.235
63.08000 132.162
63.09000 131.098
63.10000 130.952
63.11000 131.407
63.12000 131.850
63.13000 132.040
63.14000 132.116
63.15000 132.109
63.16000 131.066
63.17000 129.707
63.18000 128.751
63.19000 130.789
63.20000 133.437
63.21000 135.668
63.22000 134.201
63.23000 132.576
63.24000 130.373
63.25000 126.327
63.26000 122.142
63.27000 120.995
63.28000 126.468
63.29000 132.173
63.30000 135.590
63.31000 137.467
63.32000 138.790
63.33000 137.972
63.34000 135.074
63.35000 132.198
63.36000 131.281
63.37000 131.623
63.38000 131.956
63.39000 132.473
63.40000 133.043
63.41000 133.349
63.42000 130.395
63.43000 126.467
63.44000 123.816
63.45000 130.435
63.46000 138.903
63.47000 146.017
63.48000 143.571
63.49000 140.526
63.50000 137.747
63.51000 135.805
63.52000 133.924
63.53000 131.853
63.54000 129.374
63.55000 126.881
63.56000 125.399
63.57000 125.516
63.58000 125.609
63.59000 126.580
63.60000 128.389
63.61000 130.223
63.62000 134.130
63.63000 139.343
63.64000 144.412
63.65000 141.598
63.66000 135.701
63.67000 130.505
63.68000 133.755
63.69000 139.483
63.70000 144.068
63.71000 140.538
63.72000 135.418
63.73000 131.132
63.74000 135.191
63.75000 139.424
63.76000 142.216
63.77000 140.567
63.78000 138.606
63.79000 138.004
63.80000 140.269
63.81000 142.625
63.82000 144.016
63.83000 143.358
63.84000 142.883
63.85000 142.261
63.86000 141.503
63.87000 140.763
63.88000 141.421
63.89000 142.947
63.90000 144.428
63.91000 143.817
63.92000 142.399
63.93000 141.195
63.94000 142.508
63.95000 144.546
63.96000 146.580
63.97000 148.581
63.98000 150.576
63.99000 152.240
64.00000 151.958
64.01000 151.528
64.02000 150.821
64.03000 149.270
64.04000 147.662
64.05000 145.723
64.06000 143.098
64.07000 140.452
64.08000 138.903
64.09000 142.631
64.10000 145.282
64.11000 148.545
64.12000 152.368
64.13000 156.113
64.14000 154.478
64.15000 149.568
64.16000 144.805
64.17000 147.954
64.18000 154.051
64.19000 159.539
64.20000 158.049
64.21000 154.584
64.22000 152.115
64.23000 156.432
64.24000 162.027
64.25000 166.680
64.26000 158.537
64.27000 150.546
64.28000 145.892
64.29000 151.172
64.30000 157.112
64.31000 159.451
64.32000 154.460
64.33000 149.256
64.34000 146.233
64.35000 147.742
64.36000 148.822
64.37000 150.514
64.38000 152.756
64.39000 154.956
64.40000 154.439
64.41000 152.297
64.42000 150.222
64.43000 151.047
64.44000 152.947
64.45000 154.688
64.46000 154.650
64.47000 154.117
64.48000 153.903
64.49000 155.819
64.50000 158.127
64.51000 160.039
64.52000 163.023
64.53000 165.590
64.54000 166.803
64.55000 164.060
64.56000 161.063
64.57000 157.740
64.58000 153.768
64.59000 149.777
64.60000 147.477
64.61000 150.428
64.62000 152.515
64.63000 155.094
64.64000 158.107
64.65000 161.091
64.66000 162.323
64.67000 162.524
64.68000 162.718
64.69000 160.763
64.70000 158.101
64.71000 155.702
64.72000 156.148
64.73000 157.372
64.74000 159.024
64.75000 163.471
64.76000 168.424
64.77000 172.514
64.78000 169.098
64.79000 165.585
64.80000 164.696
64.81000 171.350
64.82000 178.475
64.83000 180.660
64.84000 173.132
64.85000 165.346
64.86000 160.896
64.87000 177.821
64.88000 189.694
64.89000 191.249
64.90000 183.883
64.91000 176.665
64.92000 177.833
64.93000 183.846
64.94000 189.655
64.95000 190.486
64.96000 189.418
64.97000 187.962
64.98000 182.405
64.99000 175.747
65.00000 170.441
65.01000 173.794
65.02000 178.683
65.03000 182.705
65.04000 191.540
65.05000 199.240
65.06000 205.430
65.07000 207.357
65.08000 209.026
65.09000 208.849
65.10000 205.105
65.11000 201.271
65.12000 199.098
65.13000 205.117
65.14000 209.331
65.15000 213.423
65.16000 217.411
65.17000 221.294
65.18000 219.558
65.19000 214.633
65.20000 209.882
65.21000 213.443
65.22000 219.827
65.23000 225.943
65.24000 229.297
65.25000 231.921
65.26000 234.613
65.27000 237.724
65.28000 240.907
65.29000 243.517
65.30000 242.765
65.31000 241.852
65.32000 241.866
65.33000 244.460
65.34000 247.205
65.35000 250.412
65.36000 254.495
65.37000 258.600
65.38000 260.907
65.39000 257.917
65.40000 255.831
65.41000 255.238
65.42000 255.887
65.43000 256.607
65.44000 260.877
65.45000 267.129
65.46000 273.151
65.47000 276.845
65.48000 279.482
65.49000 282.122
65.50000 284.799
65.51000 287.485
65.52000 291.313
65.53000 302.150
65.54000 314.184
65.55000 324.010
65.56000 332.473
65.57000 339.280
65.58000 344.241
65.59000 344.158
65.60000 343.788
65.61000 349.730
65.62000 367.455
65.63000 385.447
65.64000 395.477
65.65000 429.273
65.66000 452.739
65.67000 488.424
65.68000 534.088
65.69000 580.267
65.70000 650.819
65.71000 734.734
65.72000 815.458
65.73000 915.672
65.74000 1016.482
65.75000 1119.612
65.76000 1245.523
65.77000 1377.229
65.78000 1506.150
65.79000 1618.303
65.80000 1727.651
65.81000 1816.601
65.82000 1883.912
65.83000 1937.053
65.84000 1981.151
65.85000 2000.978
65.86000 2019.472
65.87000 2027.621
65.88000 2016.789
65.89000 2005.548
65.90000 1999.336
65.91000 1972.200
65.92000 1953.356
65.93000 1905.315
65.94000 1833.873
65.95000 1761.811
65.96000 1661.948
65.97000 1547.106
65.98000 1436.794
65.99000 1292.890
66.00000 1146.631
66.01000 1004.589
66.02000 902.978
66.03000 811.470
66.04000 722.631
66.05000 649.544
66.06000 579.037
66.07000 521.902
66.08000 484.468
66.09000 455.583
66.10000 430.820
66.11000 416.935
66.12000 403.627
66.13000 389.931
66.14000 375.532
66.15000 361.119
66.16000 353.222
66.17000 355.344
66.18000 356.822
66.19000 359.057
66.20000 361.889
66.21000 364.750
66.22000 368.868
66.23000 373.650
66.24000 378.237
66.25000 393.730
66.26000 411.892
66.27000 429.784
66.28000 445.155
66.29000 459.907
66.30000 475.301
66.31000 494.408
66.32000 514.111
66.33000 530.016
66.34000 563.091
66.35000 591.336
66.36000 614.787
66.37000 625.807
66.38000 636.188
66.39000 640.633
66.40000 634.563
66.41000 628.290
66.42000 624.883
66.43000 630.173
66.44000 633.787
66.45000 631.398
66.46000 624.375
66.47000 617.259
66.48000 606.433
66.49000 593.675
66.50000 581.457
66.51000 568.735
66.52000 556.705
66.53000 543.316
66.54000 517.514
66.55000 488.722
66.56000 460.977
66.57000 439.179
66.58000 418.315
66.59000 401.539
66.60000 401.654
66.61000 403.052
66.62000 400.233
66.63000 386.661
66.64000 372.555
66.65000 363.964
66.66000 364.975
66.67000 366.161
66.68000 366.799
66.69000 355.124
66.70000 347.145
66.71000 341.812
66.72000 338.485
66.73000 335.307
66.74000 337.796
66.75000 343.184
66.76000 348.335
66.77000 350.264
66.78000 351.010
66.79000 351.331
66.80000 347.868
66.81000 343.509
66.82000 340.434
66.83000 344.495
66.84000 349.655
66.85000 353.787
66.86000 359.405
66.87000 364.061
66.88000 366.366
66.89000 362.779
66.90000 358.909
66.91000 357.167
66.92000 359.064
66.93000 361.023
66.94000 362.068
66.95000 361.887
66.96000 361.780
66.97000 364.868
66.98000 370.332
66.99000 375.637
67.00000 375.131
67.01000 371.703
67.02000 368.431
67.03000 367.140
67.04000 366.573
67.05000 365.701
67.06000 362.161
67.07000 358.002
67.08000 356.169
67.09000 367.018
67.10000 379.782
67.11000 389.964
67.12000 387.549
67.13000 384.680
67.14000 382.181
67.15000 380.596
67.16000 379.053
67.17000 378.960
67.18000 381.307
67.19000 383.692
67.20000 384.952
67.21000 383.885
67.22000 383.163
67.23000 383.122
67.24000 383.579
67.25000 384.221
67.26000 391.290
67.27000 401.535
67.28000 411.301
67.29000 407.477
67.30000 399.672
67.31000 393.084
67.32000 396.855
67.33000 402.989
67.34000 407.598
67.35000 404.061
67.36000 399.320
67.37000 395.552
67.38000 398.409
67.39000 401.180
67.40000 403.654
67.41000 405.405
67.42000 407.125
67.43000 409.584
67.44000 413.264
67.45000 416.963
67.46000 418.899
67.47000 422.620
67.48000 425.096
67.49000 421.034
67.50000 412.281
67.51000 403.801
67.52000 404.366
67.53000 409.326
67.54000 414.046
67.55000 416.724
67.56000 418.574
67.57000 420.826
67.58000 426.419
67.59000 432.760
67.60000 438.703
67.61000 442.559
67.62000 446.113
67.63000 448.925
67.64000 450.849
67.65000 452.333
67.66000 453.278
67.67000 452.942
67.68000 452.550
67.69000 449.833
67.70000 443.341
67.71000 436.796
67.72000 433.402
67.73000 446.139
67.74000 454.682
67.75000 455.542
67.76000 450.990
67.77000 446.758
67.78000 452.658
67.79000 463.397
67.80000 473.599
67.81000 463.604
67.82000 448.281
67.83000 435.155
67.84000 439.908
67.85000 448.590
67.86000 457.615
67.87000 468.404
67.88000 479.443
67.89000 488.141
67.90000 485.458
67.91000 482.544
67.92000 479.458
67.93000 475.968
67.94000 472.462
67.95000 473.788
67.96000 482.821
67.97000 491.953
67.98000 496.645
67.99000 487.319
68.00000 481.084
68.01000 479.869
68.02000 482.125
68.03000 484.535
68.04000 491.610
68.05000 500.874
68.06000 509.661
68.07000 509.700
68.08000 507.149
68.09000 505.282
68.10000 508.865
68.11000 513.625
68.12000 517.847
68.13000 519.357
68.14000 520.490
68.15000 521.380
68.16000 521.784
68.17000 522.076
68.18000 526.257
68.19000 539.388
68.20000 552.875
68.21000 557.389
68.22000 547.848
68.23000 538.138
68.24000 533.199
68.25000 535.965
68.26000 537.872
68.27000 545.645
68.28000 557.402
68.29000 568.975
68.30000 575.186
68.31000 578.923
68.32000 582.461
68.33000 592.605
68.34000 603.856
68.35000 613.146
68.36000 607.180
68.37000 597.983
68.38000 591.494
68.39000 598.406
68.40000 607.137
68.41000 613.959
68.42000 622.023
68.43000 628.536
68.44000 633.020
68.45000 632.916
68.46000 632.636
68.47000 637.912
68.48000 651.737
68.49000 665.656
68.50000 672.668
68.51000 695.218
68.52000 710.218
68.53000 717.911
68.54000 720.731
68.55000 723.730
68.56000 731.755
68.57000 742.060
68.58000 751.799
68.59000 780.044
68.60000 811.250
68.61000 842.495
68.62000 874.045
68.63000 905.658
68.64000 937.714
68.65000 971.926
68.66000 1006.424
68.67000 1033.265
68.68000 1104.282
68.69000 1163.528
68.70000 1213.474
68.71000 1242.748
68.72000 1271.264
68.73000 1304.963
68.74000 1346.496
68.75000 1388.109
68.76000 1428.037
68.77000 1466.290
68.78000 1504.649
68.79000 1553.066
68.80000 1608.075
68.81000 1662.986
68.82000 1715.272
68.83000 1766.389
68.84000 1814.614
68.85000 1892.657
68.86000 1972.514
68.87000 2061.639
68.88000 2219.789
68.89000 2392.012
68.90000 2594.933
68.91000 2944.170
68.92000 3312.410
68.93000 3597.671
68.94000 4907.782
68.95000 6009.283
68.96000 7520.217
68.97000 9925.903
68.98000 12363.036
68.99000 15254.351
69.00000 18820.016
69.01000 22391.902
69.02000 25897.771
69.03000 29339.064
69.04000 32771.473
69.05000 35433.125
69.06000 37598.520
69.07000 39735.129
69.08000 41133.129
69.09000 42207.398
69.10000 43219.078
69.11000 43830.434
69.12000 44280.113
69.13000 44780.996
69.14000 45654.980
69.15000 46603.598
69.16000 47482.301
69.17000 48033.965
69.18000 48544.082
69.19000 48937.512
69.20000 48048.027
69.21000 47269.195
69.22000 45854.430
69.23000 43073.563
69.24000 40246.695
69.25000 37489.223
69.26000 34832.957
69.27000 32177.721
69.28000 29864.852
69.29000 27879.596
69.30000 25902.201
69.31000 24555.824
69.32000 23608.572
69.33000 22684.279
69.34000 22326.408
69.35000 22212.578
69.36000 22105.578
69.37000 21562.660
69.38000 20949.945
69.39000 20262.473
69.40000 19041.844
69.41000 17716.584
69.42000 16281.904
69.43000 14344.886
69.44000 12345.466
69.45000 10810.241
69.46000 8852.777
69.47000 7281.783
69.48000 5895.476
69.49000 4899.159
69.50000 3915.413
69.51000 3140.363
69.52000 2664.196
69.53000 2190.406
69.54000 1860.738
69.55000 1666.206
69.56000 1472.608
69.57000 1348.597
69.58000 1267.828
69.59000 1188.009
69.60000 1130.730
69.61000 1082.997
69.62000 1038.212
69.63000 990.174
69.64000 945.545
69.65000 903.697
69.66000 881.265
69.67000 862.572
69.68000 841.939
69.69000 812.568
69.70000 782.136
69.71000 758.874
69.72000 740.557
69.73000 726.378
69.74000 713.877
69.75000 704.856
69.76000 695.942
69.77000 681.134
69.78000 658.035
69.79000 634.884
69.80000 629.120
69.81000 639.327
69.82000 649.225
69.83000 637.724
69.84000 613.159
69.85000 589.036
69.86000 575.041
69.87000 565.263
69.88000 556.107
69.89000 549.761
69.90000 544.716
69.91000 540.593
69.92000 542.771
69.93000 546.139
69.94000 547.859
69.95000 542.289
69.96000 535.854
69.97000 530.957
69.98000 527.104
69.99000 524.127
70.00000 521.167
