20.00000 555.645
20.01000 567.730
20.02000 581.542
20.03000 593.263
20.04000 596.833
20.05000 599.582
20.06000 601.600
20.07000 581.243
20.08000 564.607
20.09000 553.296
20.10000 551.416
20.11000 549.716
20.12000 551.446
20.13000 557.194
20.14000 562.933
20.15000 562.875
20.16000 558.477
20.17000 554.305
20.18000 558.448
20.19000 566.777
20.20000 574.560
20.21000 573.924
20.22000 570.418
20.23000 567.220
20.24000 565.551
20.25000 564.378
20.26000 564.098
20.27000 568.518
20.28000 573.621
20.29000 575.787
20.30000 567.770
20.31000 558.888
20.32000 552.591
20.33000 561.597
20.34000 568.926
20.35000 572.794
20.36000 571.207
20.37000 569.553
20.38000 570.405
20.39000 573.839
20.40000 577.254
20.41000 577.296
20.42000 575.112
20.43000 572.752
20.44000 565.597
20.45000 556.287
20.46000 548.005
20.47000 552.813
20.48000 561.598
20.49000 569.486
20.50000 558.786
20.51000 546.157
20.52000 537.781
20.53000 549.156
20.54000 563.019
20.55000 572.113
20.56000 566.484
20.57000 559.812
20.58000 555.255
20.59000 559.999
20.60000 563.765
20.61000 567.704
20.62000 571.883
20.63000 576.060
20.64000 573.143
20.65000 563.817
20.66000 554.583
20.67000 550.441
20.68000 549.350
20.69000 548.331
20.70000 548.837
20.71000 549.955
20.72000 551.193
20.73000 553.708
20.74000 556.569
20.75000 559.094
20.76000 561.464
20.77000 563.485
20.78000 565.646
20.79000 568.382
20.80000 571.181
20.81000 573.466
20.82000 574.337
20.83000 575.127
20.84000 575.645
20.85000 565.488
20.86000 557.841
20.87000 554.221
20.88000 555.592
20.89000 556.962
20.90000 553.569
20.91000 546.383
20.92000 539.307
20.93000 542.562
20.94000 551.028
20.95000 559.004
20.96000 558.683
20.97000 555.388
20.98000 552.952
20.99000 558.326
21.00000 565.576
21.01000 571.852
21.02000 569.937
21.03000 567.232
21.04000 564.921
21.05000 564.053
21.06000 563.316
21.07000 563.915
21.08000 567.797
21.09000 571.831
21.10000 574.363
21.11000 576.267
21.12000 577.636
21.13000 576.876
21.14000 573.791
21.15000 570.674
21.16000 563.135
21.17000 552.479
21.18000 542.052
21.19000 545.285
21.20000 554.590
21.21000 563.456
21.22000 566.257
21.23000 567.119
21.24000 567.799
21.25000 567.058
21.26000 566.015
21.27000 565.131
21.28000 561.061
21.29000 557.291
21.30000 552.994
21.31000 546.987
21.32000 540.849
21.33000 539.702
21.34000 549.524
21.35000 559.736
21.36000 565.847
21.37000 565.280
21.38000 564.834
21.39000 559.498
21.40000 549.481
21.41000 539.616
21.42000 541.475
21.43000 550.678
21.44000 559.615
21.45000 561.784
21.46000 561.130
21.47000 560.015
21.48000 553.583
21.49000 545.635
21.50000 540.193
21.51000 551.723
21.52000 566.431
21.53000 578.622
21.54000 570.591
21.55000 562.023
21.56000 560.094
21.57000 577.408
21.58000 595.942
21.59000 601.790
21.60000 582.755
21.61000 563.064
21.62000 551.880
21.63000 560.649
21.64000 566.814
21.65000 571.204
21.66000 574.100
21.67000 576.991
21.68000 579.629
21.69000 582.127
21.70000 584.531
21.71000 582.363
21.72000 578.711
21.73000 577.190
21.74000 596.461
21.75000 620.998
21.76000 641.068
21.77000 634.719
21.78000 624.029
21.79000 615.383
21.80000 632.708
21.81000 648.895
21.82000 663.479
21.83000 673.915
21.84000 684.139
21.85000 694.300
21.86000 704.352
21.87000 714.401
21.88000 719.792
21.89000 740.867
21.90000 755.264
21.91000 768.789
21.92000 781.665
21.93000 794.658
21.94000 811.797
21.95000 830.997
21.96000 849.292
21.97000 863.999
21.98000 876.510
21.99000 888.881
22.00000 900.087
22.01000 911.031
22.02000 919.375
22.03000 914.213
22.04000 907.117
22.05000 901.528
22.06000 888.030
22.07000 876.684
22.08000 863.860
22.09000 847.621
22.10000 831.245
22.11000 818.728
22.12000 812.215
22.13000 805.773
22.14000 802.527
22.15000 780.497
22.16000 765.825
22.17000 756.249
22.18000 750.037
22.19000 743.455
22.20000 727.094
22.21000 706.390
22.22000 686.886
22.23000 674.756
22.24000 665.681
22.25000 655.712
22.26000 639.298
22.27000 621.605
22.28000 606.660
22.29000 604.304
22.30000 603.509
22.31000 602.901
22.32000 594.949
22.33000 588.271
22.34000 582.776
22.35000 579.720
22.36000 576.737
22.37000 572.922
22.38000 567.956
22.39000 562.985
22.40000 558.648
22.41000 554.879
22.42000 551.225
22.43000 554.473
22.44000 561.774
22.45000 568.491
22.46000 563.170
22.47000 553.073
22.48000 543.683
22.49000 538.947
22.50000 535.793
22.51000 533.143
22.52000 533.668
22.53000 534.745
22.54000 536.682
22.55000 542.104
22.56000 547.898
22.57000 552.196
22.58000 551.332
22.59000 550.434
22.60000 548.264
22.61000 543.754
22.62000 539.193
22.63000 533.762
22.64000 527.270
22.65000 520.789
22.66000 517.323
22.67000 516.234
22.68000 515.227
22.69000 517.589
22.70000 521.714
22.71000 525.876
22.72000 530.652
22.73000 535.646
22.74000 540.225
22.75000 534.626
22.76000 527.487
22.77000 520.778
22.78000 516.427
22.79000 512.437
22.80000 511.641
22.81000 522.366
22.82000 534.129
22.83000 542.570
22.84000 522.771
22.85000 506.663
22.86000 501.514
22.87000 514.335
22.88000 527.417
22.89000 534.348
22.90000 534.657
22.91000 534.963
22.92000 528.361
22.93000 517.076
22.94000 506.404
22.95000 514.116
22.96000 530.417
22.97000 545.533
22.98000 544.585
22.99000 538.563
23.00000 533.126
23.01000 531.504
23.02000 530.782
23.03000 529.482
23.04000 525.382
23.05000 520.911
23.06000 518.176
23.07000 521.013
23.08000 524.270
23.09000 526.524
23.10000 527.628
23.11000 528.428
23.12000 527.096
23.13000 522.658
23.14000 518.193
23.15000 516.709
23.16000 518.039
23.17000 519.357
23.18000 517.680
23.19000 514.215
23.20000 510.875
23.21000 510.395
23.22000 511.108
23.23000 511.474
23.24000 507.906
23.25000 503.231
23.26000 499.081
23.27000 500.557
23.28000 502.738
23.29000 505.283
23.30000 509.387
23.31000 513.668
23.32000 515.993
23.33000 512.714
23.34000 509.088
23.35000 506.677
23.36000 510.097
23.37000 512.736
23.38000 515.368
23.39000 517.990
23.40000 520.598
23.41000 516.466
23.42000 506.736
23.43000 497.134
23.44000 499.187
23.45000 507.429
23.46000 515.002
23.47000 510.395
23.48000 501.251
23.49000 492.989
23.50000 493.195
23.51000 495.519
23.52000 497.544
23.53000 496.599
23.54000 495.380
23.55000 494.630
23.56000 495.660
23.57000 496.863
23.58000 501.281
23.59000 513.917
23.60000 526.963
23.61000 535.278
23.62000 530.573
23.63000 526.986
23.64000 523.491
23.65000 520.101
23.66000 516.690
23.67000 509.747
23.68000 500.208
23.69000 490.853
23.70000 491.445
23.71000 496.725
23.72000 501.945
23.73000 506.288
23.74000 510.340
23.75000 513.927
23.76000 513.687
23.77000 512.600
23.78000 511.672
23.79000 511.371
23.80000 511.192
23.81000 510.053
23.82000 505.666
23.83000 501.014
23.84000 499.961
23.85000 507.127
23.86000 514.613
23.87000 519.168
23.88000 512.330
23.89000 507.356
23.90000 507.863
23.91000 513.855
23.92000 519.708
23.93000 512.855
23.94000 497.720
23.95000 482.983
23.96000 484.516
23.97000 492.779
23.98000 499.905
23.99000 493.103
24.00000 482.175
24.01000 473.151
24.02000 477.655
24.03000 484.805
24.04000 490.778
24.05000 504.290
24.06000 516.268
24.07000 523.601
24.08000 516.932
24.09000 509.314
24.10000 504.363
24.11000 504.846
24.12000 505.489
24.13000 505.861
24.14000 501.569
24.15000 498.539
24.16000 494.049
24.17000 488.275
24.18000 482.594
24.19000 482.306
24.20000 485.144
24.21000 487.885
24.22000 491.157
24.23000 494.435
24.24000 497.231
24.25000 495.045
24.26000 491.547
24.27000 487.865
24.28000 483.046
24.29000 478.033
24.30000 473.944
24.31000 481.119
24.32000 487.949
24.33000 492.092
24.34000 489.010
24.35000 485.529
24.36000 482.010
24.37000 478.423
24.38000 474.835
24.39000 472.871
24.40000 490.965
24.41000 503.400
24.42000 507.689
24.43000 505.661
24.44000 503.699
24.45000 504.352
24.46000 506.357
24.47000 508.274
24.48000 503.926
24.49000 497.840
24.50000 492.752
24.51000 496.451
24.52000 502.205
24.53000 506.699
24.54000 504.356
24.55000 500.987
24.56000 498.309
24.57000 495.337
24.58000 492.922
24.59000 493.946
24.60000 503.227
24.61000 512.870
24.62000 513.208
24.63000 498.478
24.64000 483.540
24.65000 475.847
24.66000 482.897
24.67000 487.620
24.68000 489.312
24.69000 488.920
24.70000 488.397
24.71000 484.068
24.72000 477.984
24.73000 472.229
24.74000 473.909
24.75000 477.585
24.76000 480.834
24.77000 480.845
24.78000 480.187
24.79000 480.121
24.80000 482.889
24.81000 486.025
24.82000 488.450
24.83000 485.166
24.84000 482.226
24.85000 482.968
24.86000 491.603
24.87000 500.504
24.88000 501.947
24.89000 492.658
24.90000 483.286
24.91000 480.050
24.92000 482.525
24.93000 484.988
24.94000 486.673
24.95000 487.883
24.96000 488.992
24.97000 487.832
24.98000 485.737
24.99000 483.780
25.00000 489.412
25.01000 496.433
25.02000 502.199
25.03000 499.718
25.04000 495.734
25.05000 491.291
25.06000 484.906
25.07000 478.304
25.08000 473.352
25.09000 478.749
25.10000 483.454
25.11000 485.602
25.12000 482.856
25.13000 479.990
25.14000 479.413
25.15000 481.755
25.16000 484.105
25.17000 488.130
25.18000 493.510
25.19000 498.680
25.20000 494.098
25.21000 484.212
25.22000 474.931
25.23000 476.409
25.24000 481.845
25.25000 486.854
25.26000 486.834
25.27000 485.704
25.28000 484.731
25.29000 484.661
25.30000 484.734
25.31000 484.984
25.32000 485.894
25.33000 486.868
25.34000 487.574
25.35000 483.236
25.36000 479.712
25.37000 479.460
25.38000 484.787
25.39000 490.208
25.40000 490.006
25.41000 483.482
25.42000 476.975
25.43000 472.640
25.44000 469.903
25.45000 467.499
25.46000 476.119
25.47000 490.091
25.48000 502.998
25.49000 500.510
25.50000 492.967
25.51000 486.119
25.52000 485.155
25.53000 485.441
25.54000 485.254
25.55000 482.681
25.56000 479.777
25.57000 477.815
25.58000 479.000
25.59000 480.437
25.60000 481.444
25.61000 483.341
25.62000 484.801
25.63000 486.212
25.64000 487.547
25.65000 488.882
25.66000 485.559
25.67000 477.642
25.68000 469.780
25.69000 470.002
25.70000 475.342
25.71000 480.375
25.72000 477.762
25.73000 471.835
25.74000 466.772
25.75000 472.090
25.76000 480.446
25.77000 487.907
25.78000 482.827
25.79000 476.297
25.80000 471.280
25.81000 473.019
25.82000 475.568
25.83000 477.358
25.84000 476.888
25.85000 476.268
25.86000 475.849
25.87000 475.110
25.88000 474.553
25.89000 475.739
25.90000 479.272
25.91000 482.816
25.92000 484.817
25.93000 485.480
25.94000 486.135
25.95000 484.751
25.96000 482.260
25.97000 479.768
25.98000 477.240
25.99000 474.700
26.00000 472.016
26.01000 467.878
26.02000 463.361
26.03000 459.400
26.04000 461.399
26.05000 463.982
26.06000 466.067
26.07000 466.183
26.08000 466.096
26.09000 464.937
26.10000 460.930
26.11000 456.769
26.12000 454.078
26.13000 458.354
26.14000 461.584
26.15000 464.059
26.16000 465.636
26.17000 467.206
26.18000 467.264
26.19000 466.167
26.20000 465.088
26.21000 467.442
26.22000 471.411
26.23000 475.189
26.24000 475.955
26.25000 475.680
26.26000 475.497
26.27000 476.113
26.28000 476.913
26.29000 477.602
26.30000 462.106
26.31000 446.964
26.32000 437.913
26.33000 450.277
26.34000 464.502
26.35000 473.364
26.36000 469.508
26.37000 465.110
26.38000 462.390
26.39000 463.568
26.40000 464.451
26.41000 465.453
26.42000 466.579
26.43000 467.713
26.44000 469.718
26.45000 472.315
26.46000 474.849
26.47000 471.055
26.48000 464.666
26.49000 458.634
26.50000 457.251
26.51000 457.301
26.52000 457.732
26.53000 461.008
26.54000 464.864
26.55000 468.110
26.56000 471.735
26.57000 474.800
26.58000 475.296
26.59000 467.746
26.60000 459.614
26.61000 452.769
26.62000 448.653
26.63000 444.626
26.64000 442.255
26.65000 446.239
26.66000 449.082
26.67000 450.615
26.68000 450.947
26.69000 451.269
26.70000 451.011
26.71000 450.402
26.72000 449.813
26.73000 451.719
26.74000 454.483
26.75000 456.831
26.76000 454.640
26.77000 451.204
26.78000 448.572
26.79000 451.149
26.80000 454.662
26.81000 457.552
26.82000 450.192
26.83000 443.214
26.84000 440.446
26.85000 449.442
26.86000 459.136
26.87000 464.042
26.88000 459.900
26.89000 455.544
26.90000 453.114
26.91000 453.183
26.92000 453.240
26.93000 454.326
26.94000 456.244
26.95000 458.216
26.96000 462.536
26.97000 468.118
26.98000 473.474
26.99000 474.378
27.00000 473.711
27.01000 471.899
27.02000 459.481
27.03000 444.479
27.04000 432.278
27.05000 435.951
27.06000 442.120
27.07000 447.068
27.08000 456.053
27.09000 463.635
27.10000 465.343
27.11000 452.398
27.12000 438.758
27.13000 435.388
27.14000 449.318
27.15000 463.525
27.16000 470.998
27.17000 467.127
27.18000 464.469
27.19000 457.684
27.20000 447.945
27.21000 438.376
27.22000 434.257
27.23000 432.752
27.24000 431.322
27.25000 437.902
27.26000 446.373
27.27000 453.446
27.28000 449.389
27.29000 442.932
27.30000 437.758
27.31000 438.976
27.32000 441.070
27.33000 442.704
27.34000 447.235
27.35000 451.030
27.36000 450.568
27.37000 440.622
27.38000 430.327
27.39000 429.894
27.40000 444.238
27.41000 458.726
27.42000 463.666
27.43000 459.320
27.44000 454.968
27.45000 450.181
27.46000 445.117
27.47000 440.241
27.48000 439.966
27.49000 441.660
27.50000 443.249
27.51000 451.215
27.52000 460.152
27.53000 467.260
27.54000 461.756
27.55000 453.852
27.56000 446.632
27.57000 442.423
27.58000 438.569
27.59000 435.648
27.60000 435.807
27.61000 436.088
27.62000 438.743
27.63000 446.118
27.64000 453.623
27.65000 456.988
27.66000 454.853
27.67000 452.693
27.68000 454.119
27.69000 458.599
27.70000 463.005
27.71000 463.454
27.72000 461.667
27.73000 459.761
27.74000 455.593
27.75000 450.561
27.76000 445.901
27.77000 443.407
27.78000 441.665
27.79000 439.660
27.80000 436.081
27.81000 432.238
27.82000 429.546
27.83000 431.348
27.84000 433.604
27.85000 435.260
27.86000 440.576
27.87000 444.833
27.88000 444.740
27.89000 436.931
27.90000 428.972
27.91000 427.748
27.92000 434.428
27.93000 441.103
27.94000 444.148
27.95000 444.449
27.96000 444.663
27.97000 441.720
27.98000 437.184
27.99000 433.076
28.00000 435.582
28.01000 440.347
28.02000 444.695
28.03000 446.946
28.04000 448.519
28.05000 448.123
28.06000 437.343
28.07000 425.051
28.08000 415.760
28.09000 416.894
28.10000 418.917
28.11000 420.352
28.12000 431.744
28.13000 440.723
28.14000 444.874
28.15000 441.402
28.16000 437.836
28.17000 436.240
28.18000 436.677
28.19000 437.111
28.20000 435.280
28.21000 431.976
28.22000 428.903
28.23000 432.155
28.24000 438.256
28.25000 444.548
28.26000 453.286
28.27000 462.769
28.28000 471.287
28.29000 466.005
28.30000 458.953
28.31000 452.963
28.32000 451.909
28.33000 451.478
28.34000 450.515
28.35000 447.903
28.36000 445.174
28.37000 443.309
28.38000 448.802
28.39000 453.086
28.40000 454.721
28.41000 452.643
28.42000 450.539
28.43000 447.452
28.44000 443.475
28.45000 439.538
28.46000 435.407
28.47000 431.250
28.48000 427.252
28.49000 426.622
28.50000 427.347
28.51000 428.538
28.52000 434.728
28.53000 442.271
28.54000 448.928
28.55000 444.249
28.56000 438.481
28.57000 431.736
28.58000 420.972
28.59000 409.773
28.60000 403.633
28.61000 411.460
28.62000 420.097
28.63000 425.766
28.64000 431.856
28.65000 436.344
28.66000 437.219
28.67000 433.611
28.68000 430.000
28.69000 429.665
28.70000 431.944
28.71000 434.190
28.72000 436.269
28.73000 438.201
28.74000 440.048
28.75000 440.474
28.76000 440.388
28.77000 440.473
28.78000 442.102
28.79000 444.103
28.80000 445.835
28.81000 440.549
28.82000 435.127
28.83000 430.778
28.84000 430.355
28.85000 430.293
28.86000 428.923
28.87000 424.329
28.88000 419.585
28.89000 416.605
28.90000 429.555
28.91000 439.094
28.92000 441.427
28.93000 435.879
28.94000 430.336
28.95000 426.086
28.96000 422.749
28.97000 419.484
28.98000 417.371
28.99000 415.866
29.00000 414.340
29.01000 412.511
29.02000 410.585
29.03000 410.278
29.04000 422.645
29.05000 437.711
29.06000 450.486
29.07000 442.463
29.08000 433.387
29.09000 425.917
29.10000 423.670
29.11000 421.827
29.12000 419.431
29.13000 415.819
29.14000 412.164
29.15000 409.975
29.16000 421.720
29.17000 430.149
29.18000 432.188
29.19000 428.098
29.20000 424.053
29.21000 423.575
29.22000 425.334
29.23000 427.042
29.24000 427.289
29.25000 426.938
29.26000 426.336
29.27000 422.822
29.28000 418.478
29.29000 415.428
29.30000 421.156
29.31000 428.533
29.32000 434.648
29.33000 427.797
29.34000 420.892
29.35000 417.576
29.36000 424.675
29.37000 432.438
29.38000 434.627
29.39000 425.869
29.40000 416.821
29.41000 411.678
29.42000 414.250
29.43000 416.066
29.44000 417.856
29.45000 419.623
29.46000 421.438
29.47000 425.692
29.48000 431.308
29.49000 436.714
29.50000 435.110
29.51000 431.120
29.52000 426.865
29.53000 420.029
29.54000 412.536
29.55000 407.329
29.56000 415.665
29.57000 426.230
29.58000 434.777
29.59000 435.591
29.60000 435.628
29.61000 431.543
29.62000 416.770
29.63000 401.448
29.64000 395.328
29.65000 405.330
29.66000 415.630
29.67000 421.161
29.68000 419.944
29.69000 419.100
29.70000 416.854
29.71000 413.562
29.72000 410.474
29.73000 414.627
29.74000 422.389
29.75000 429.785
29.76000 427.758
29.77000 422.935
29.78000 419.197
29.79000 424.543
29.80000 431.933
29.81000 438.102
29.82000 437.913
29.83000 436.813
29.84000 435.946
29.85000 442.711
29.86000 448.645
29.87000 451.266
29.88000 446.219
29.89000 440.864
29.90000 439.587
29.91000 444.670
29.92000 449.827
29.93000 452.428
29.94000 453.362
29.95000 453.993
29.96000 455.232
29.97000 456.873
29.98000 458.659
29.99000 464.292
30.00000 471.635
30.01000 478.554
30.02000 477.511
30.03000 474.365
30.04000 471.920
30.05000 474.543
30.06000 478.173
30.07000 479.406
30.08000 469.635
30.09000 458.498
30.10000 449.970
30.11000 456.913
30.12000 463.242
30.13000 464.020
30.14000 453.322
30.15000 442.275
30.16000 438.704
30.17000 445.484
30.18000 452.327
30.19000 453.573
30.20000 449.828
30.21000 446.163
30.22000 447.373
30.23000 451.450
30.24000 455.243
30.25000 453.163
30.26000 448.749
30.27000 444.643
30.28000 440.239
30.29000 436.189
30.30000 433.024
30.31000 435.432
30.32000 438.814
30.33000 441.992
30.34000 444.341
30.35000 446.601
30.36000 448.279
30.37000 451.462
30.38000 454.002
30.39000 454.419
30.40000 450.919
30.41000 447.334
30.42000 446.103
30.43000 447.757
30.44000 449.414
30.45000 448.691
30.46000 446.107
30.47000 443.561
30.48000 442.586
30.49000 442.434
30.50000 442.756
30.51000 450.952
30.52000 461.941
30.53000 472.021
30.54000 462.777
30.55000 450.449
30.56000 440.211
30.57000 441.488
30.58000 444.523
30.59000 447.579
30.60000 450.712
30.61000 453.852
30.62000 456.106
30.63000 456.957
30.64000 457.559
30.65000 459.574
30.66000 463.911
30.67000 468.282
30.68000 468.890
30.69000 465.440
30.70000 462.004
30.71000 460.896
30.72000 461.406
30.73000 462.097
30.74000 468.216
30.75000 476.876
30.76000 485.032
30.77000 486.328
30.78000 485.454
30.79000 484.665
30.80000 484.447
30.81000 484.361
30.82000 484.869
30.83000 488.258
30.84000 492.030
30.85000 495.625
30.86000 498.650
30.87000 501.632
30.88000 503.697
30.89000 511.861
30.90000 518.163
30.91000 523.830
30.92000 528.571
30.93000 533.304
30.94000 542.238
30.95000 555.145
30.96000 567.945
30.97000 585.875
30.98000 606.597
30.99000 627.032
31.00000 640.841
31.01000 651.882
31.02000 663.972
31.03000 687.992
31.04000 715.373
31.05000 739.686
31.06000 785.160
31.07000 827.976
31.08000 874.711
31.09000 938.259
31.10000 1003.728
31.11000 1070.148
31.12000 1139.297
31.13000 1208.616
31.14000 1254.754
31.15000 1409.115
31.16000 1525.376
31.17000 1642.419
31.18000 1760.475
31.19000 1878.594
31.20000 2025.129
31.21000 2195.310
31.22000 2363.251
31.23000 2525.125
31.24000 2679.378
31.25000 2834.168
31.26000 2998.740
31.27000 3166.962
31.28000 3327.846
31.29000 3418.172
31.30000 3490.827
31.31000 3554.156
31.32000 3677.067
31.33000 3790.379
31.34000 3884.358
31.35000 3904.741
31.36000 3917.953
31.37000 3916.665
31.38000 3878.246
31.39000 3837.967
31.40000 3812.278
31.41000 3685.001
31.42000 3591.132
31.43000 3485.690
31.44000 3367.031
31.45000 3248.213
31.46000 3104.107
31.47000 2941.394
31.48000 2781.794
31.49000 2612.614
31.50000 2445.076
31.51000 2278.322
31.52000 2123.186
31.53000 1971.918
31.54000 1822.735
31.55000 1690.727
31.56000 1562.530
31.57000 1453.025
31.58000 1303.674
31.59000 1173.110
31.60000 1057.987
31.61000 995.155
31.62000 936.613
31.63000 879.838
31.64000 827.102
31.65000 774.525
31.66000 742.511
31.67000 707.186
31.68000 681.924
31.69000 655.744
31.70000 628.644
31.71000 601.590
31.72000 578.805
31.73000 558.807
31.74000 539.332
31.75000 525.619
31.76000 514.961
31.77000 504.727
31.78000 499.691
31.79000 496.199
31.80000 492.401
31.81000 486.433
31.82000 480.039
31.83000 474.697
31.84000 469.363
31.85000 464.936
31.86000 460.835
31.87000 457.718
31.88000 454.667
31.89000 453.422
31.90000 455.862
31.91000 458.411
31.92000 459.887
31.93000 448.066
31.94000 439.728
31.95000 438.022
31.96000 442.153
31.97000 446.194
31.98000 444.982
31.99000 440.717
32.00000 436.600
32.01000 432.273
32.02000 428.119
32.03000 424.766
32.04000 429.688
32.05000 436.796
32.06000 441.636
32.07000 432.422
32.08000 420.788
32.09000 411.295
32.10000 416.418
32.11000 421.861
32.12000 422.985
32.13000 412.477
32.14000 401.325
32.15000 396.547
32.16000 403.382
32.17000 410.460
32.18000 414.337
32.19000 411.493
32.20000 409.534
32.21000 409.294
32.22000 410.388
32.23000 411.351
32.24000 407.109
32.25000 400.172
32.26000 393.537
32.27000 403.683
32.28000 418.601
32.29000 431.260
32.30000 424.008
32.31000 412.091
32.32000 402.293
32.33000 404.011
32.34000 407.461
32.35000 410.204
32.36000 408.215
32.37000 406.275
32.38000 403.677
32.39000 399.501
32.40000 395.256
32.41000 395.732
32.42000 403.866
32.43000 412.107
32.44000 416.355
32.45000 403.147
32.46000 394.279
32.47000 389.130
32.48000 386.542
32.49000 384.131
32.50000 386.868
32.51000 391.985
32.52000 396.826
32.53000 398.625
32.54000 399.406
32.55000 400.243
32.56000 401.509
32.57000 402.864
32.58000 402.571
32.59000 394.389
32.60000 385.178
32.61000 378.054
32.62000 383.824
32.63000 389.160
32.64000 391.364
32.65000 386.839
32.66000 382.087
32.67000 381.847
32.68000 388.114
32.69000 394.432
32.70000 393.630
32.71000 386.193
32.72000 378.850
32.73000 378.063
32.74000 381.288
32.75000 384.420
32.76000 385.476
32.77000 385.676
32.78000 385.862
32.79000 382.203
32.80000 377.911
32.81000 374.720
32.82000 378.779
32.83000 384.160
32.84000 389.478
32.85000 394.525
32.86000 399.541
32.87000 403.305
32.88000 414.637
32.89000 423.850
32.90000 434.020
32.91000 446.026
32.92000 458.078
32.93000 465.044
32.94000 465.517
32.95000 465.965
32.96000 472.055
32.97000 482.741
32.98000 493.277
32.99000 496.869
33.00000 496.676
33.01000 496.122
33.02000 489.126
33.03000 479.757
33.04000 471.120
33.05000 466.297
33.06000 462.823
33.07000 458.805
33.08000 451.657
33.09000 444.008
33.10000 436.962
33.11000 432.185
33.12000 427.625
33.13000 424.314
33.14000 419.604
33.15000 415.930
33.16000 411.545
33.17000 405.946
33.18000 400.326
33.19000 395.623
33.20000 391.953
33.21000 388.298
33.22000 383.315
33.23000 377.420
33.24000 371.603
33.25000 368.389
33.26000 366.440
33.27000 365.024
33.28000 371.354
33.29000 380.230
33.30000 388.291
33.31000 373.886
33.32000 356.817
33.33000 343.710
33.34000 350.665
33.35000 360.413
33.36000 366.885
33.37000 362.404
33.38000 357.041
33.39000 353.281
33.40000 348.449
33.41000 344.763
33.42000 346.078
33.43000 354.996
33.44000 363.993
33.45000 365.218
33.46000 358.761
33.47000 352.348
33.48000 353.987
33.49000 360.711
33.50000 366.951
33.51000 361.037
33.52000 349.846
33.53000 339.704
33.54000 342.207
33.55000 348.416
33.56000 353.963
33.57000 346.456
33.58000 337.719
33.59000 331.224
33.60000 334.745
33.61000 339.471
33.62000 341.469
33.63000 335.334
33.64000 328.658
33.65000 324.153
33.66000 333.820
33.67000 341.314
33.68000 347.600
33.69000 352.257
33.70000 356.899
33.71000 356.266
33.72000 351.052
33.73000 345.898
33.74000 344.042
33.75000 344.078
33.76000 343.952
33.77000 340.635
33.78000 336.081
33.79000 332.206
33.80000 335.234
33.81000 340.061
33.82000 344.297
33.83000 347.972
33.84000 351.047
33.85000 352.444
33.86000 347.198
33.87000 341.267
33.88000 335.913
33.89000 332.095
33.90000 328.361
33.91000 325.944
33.92000 335.920
33.93000 343.401
33.94000 346.294
33.95000 343.717
33.96000 341.135
33.97000 339.741
33.98000 339.259
33.99000 338.785
34.00000 338.716
34.01000 338.850
34.02000 339.120
34.03000 341.553
34.04000 344.734
34.05000 347.931
34.06000 351.263
34.07000 354.627
34.08000 357.520
34.09000 343.578
34.10000 329.662
34.11000 322.316
34.12000 338.114
34.13000 355.927
34.14000 367.182
34.15000 362.852
34.16000 357.857
34.17000 354.767
34.18000 341.666
34.19000 332.154
34.20000 330.731
34.21000 337.789
34.22000 344.784
34.23000 344.491
34.24000 339.247
34.25000 334.126
34.26000 335.046
34.27000 338.564
34.28000 341.557
34.29000 337.694
34.30000 331.714
34.31000 326.724
34.32000 329.132
34.33000 333.052
34.34000 336.352
34.35000 334.479
34.36000 332.362
34.37000 330.607
34.38000 329.991
34.39000 329.457
34.40000 328.345
34.41000 326.007
34.42000 323.628
34.43000 322.226
34.44000 324.008
34.45000 325.282
34.46000 325.006
34.47000 323.306
34.48000 321.705
34.49000 326.720
34.50000 335.733
34.51000 344.462
34.52000 339.313
34.53000 329.089
34.54000 320.084
34.55000 324.430
34.56000 332.443
34.57000 339.041
34.58000 336.445
34.59000 332.195
34.60000 328.699
34.61000 326.094
34.62000 324.034
34.63000 323.308
34.64000 326.320
34.65000 329.553
34.66000 330.490
34.67000 327.076
34.68000 323.560
34.69000 321.596
34.70000 320.181
34.71000 319.217
34.72000 323.814
34.73000 332.915
34.74000 341.795
34.75000 340.784
34.76000 334.447
34.77000 328.367
34.78000 325.608
34.79000 324.159
34.80000 322.223
34.81000 315.767
34.82000 308.209
34.83000 303.131
34.84000 312.139
34.85000 323.367
34.86000 332.375
34.87000 324.243
34.88000 316.353
34.89000 311.186
34.90000 312.825
34.91000 314.788
34.92000 314.080
34.93000 308.864
34.94000 303.574
34.95000 300.789
34.96000 305.898
34.97000 309.366
34.98000 312.542
34.99000 315.509
35.00000 318.492
35.01000 321.990
35.02000 325.734
35.03000 329.290
35.04000 331.055
35.05000 332.147
35.06000 333.024
35.07000 332.188
35.08000 330.982
35.09000 329.918
35.10000 329.564
35.11000 329.307
35.12000 329.107
35.13000 325.028
35.14000 321.531
35.15000 320.097
35.16000 323.266
35.17000 326.605
35.18000 326.931
35.19000 322.734
35.20000 318.493
35.21000 318.163
35.22000 321.643
35.23000 325.080
35.24000 324.914
35.25000 322.455
35.26000 320.020
35.27000 318.158
35.28000 316.541
35.29000 315.024
35.30000 318.699
35.31000 323.418
35.32000 327.521
35.33000 327.371
35.34000 326.411
35.35000 323.771
35.36000 313.721
35.37000 302.794
35.38000 294.508
35.39000 302.409
35.40000 309.442
35.41000 316.508
35.42000 323.638
35.43000 330.770
35.44000 330.797
35.45000 321.366
35.46000 311.896
35.47000 307.091
35.48000 306.285
35.49000 305.524
35.50000 307.156
35.51000 310.142
35.52000 313.035
35.53000 314.128
35.54000 314.532
35.55000 314.907
35.56000 314.144
35.57000 313.194
35.58000 312.608
35.59000 314.213
35.60000 316.184
35.61000 316.166
35.62000 308.366
35.63000 299.778
35.64000 293.470
35.65000 305.144
35.66000 314.902
35.67000 319.699
35.68000 315.681
35.69000 311.492
35.70000 311.085
35.71000 315.127
35.72000 319.164
35.73000 324.477
35.74000 330.712
35.75000 336.682
35.76000 332.857
35.77000 324.082
35.78000 315.674
35.79000 312.959
35.80000 312.190
35.81000 311.489
35.82000 311.784
35.83000 312.248
35.84000 312.408
35.85000 310.959
35.86000 309.276
35.87000 308.231
35.88000 309.407
35.89000 310.773
35.90000 311.743
35.91000 315.463
35.92000 318.380
35.93000 317.421
35.94000 310.328
35.95000 303.158
35.96000 301.154
35.97000 304.490
35.98000 307.808
35.99000 310.346
36.00000 312.336
36.01000 314.417
36.02000 319.005
36.03000 324.725
36.04000 329.552
36.05000 322.960
36.06000 312.886
36.07000 303.836
36.08000 303.315
36.09000 304.365
36.10000 304.973
36.11000 303.522
36.12000 301.810
36.13000 301.187
36.14000 303.935
36.15000 306.924
36.16000 308.967
36.17000 307.710
36.18000 306.690
36.19000 306.924
36.20000 308.917
36.21000 310.921
36.22000 310.476
36.23000 307.809
36.24000 305.168
36.25000 304.940
36.26000 306.127
36.27000 307.187
36.28000 305.565
36.29000 302.861
36.30000 300.265
36.31000 298.810
36.32000 297.665
36.33000 296.655
36.34000 300.866
36.35000 305.299
36.36000 309.285
36.37000 311.424
36.38000 313.363
36.39000 313.567
36.40000 308.979
36.41000 304.111
36.42000 300.914
36.43000 300.881
36.44000 300.909
36.45000 300.580
36.46000 299.806
36.47000 299.038
36.48000 300.784
36.49000 304.540
36.50000 308.240
36.51000 306.046
36.52000 300.877
36.53000 295.978
36.54000 295.678
36.55000 297.033
36.56000 298.739
36.57000 303.660
36.58000 309.355
36.59000 314.288
36.60000 312.444
36.61000 309.979
36.62000 307.713
36.63000 306.170
36.64000 304.695
36.65000 303.891
36.66000 304.743
36.67000 305.673
36.68000 306.257
36.69000 301.581
36.70000 298.141
36.71000 298.485
36.72000 302.975
36.73000 307.443
36.74000 308.607
36.75000 307.433
36.76000 306.284
36.77000 305.007
36.78000 303.722
36.79000 302.314
36.80000 299.203
36.81000 295.546
36.82000 292.865
36.83000 297.847
36.84000 304.463
36.85000 310.075
36.86000 305.326
36.87000 300.171
36.88000 297.216
36.89000 301.435
36.90000 306.208
36.91000 311.419
36.92000 317.594
36.93000 323.803
36.94000 327.524
36.95000 323.250
36.96000 320.163
36.97000 319.598
36.98000 321.456
36.99000 323.313
37.00000 325.040
37.01000 326.684
37.02000 328.281
37.03000 319.759
37.04000 307.594
37.05000 296.221
37.06000 294.037
37.07000 294.480
37.08000 295.433
37.09000 299.861
37.10000 304.943
37.11000 309.157
37.12000 303.995
37.13000 298.827
37.14000 295.300
37.15000 296.545
37.16000 298.094
37.17000 299.807
37.18000 301.842
37.19000 303.885
37.20000 305.047
37.21000 305.899
37.22000 306.492
37.23000 307.916
37.24000 310.042
37.25000 312.109
37.26000 311.208
37.27000 308.646
37.28000 306.179
37.29000 306.470
37.30000 307.722
37.31000 308.876
37.32000 309.071
37.33000 309.021
37.34000 308.026
37.35000 301.418
37.36000 293.885
37.37000 287.788
37.38000 290.528
37.39000 293.473
37.40000 294.420
37.41000 290.181
37.42000 285.675
37.43000 285.499
37.44000 292.922
37.45000 300.487
37.46000 304.552
37.47000 317.731
37.48000 326.680
37.49000 323.387
37.50000 310.951
37.51000 298.710
37.52000 293.400
37.53000 291.549
37.54000 289.786
37.55000 289.969
37.56000 290.747
37.57000 291.279
37.58000 289.732
37.59000 287.718
37.60000 287.242
37.61000 294.788
37.62000 303.488
37.63000 310.345
37.64000 305.883
37.65000 301.544
37.66000 299.299
37.67000 301.908
37.68000 304.714
37.69000 305.243
37.70000 302.214
37.71000 299.142
37.72000 297.592
37.73000 294.021
37.74000 291.683
37.75000 294.296
37.76000 300.190
37.77000 305.870
37.78000 305.864
37.79000 303.324
37.80000 300.930
37.81000 299.037
37.82000 297.442
37.83000 296.452
37.84000 299.843
37.85000 304.106
37.86000 307.567
37.87000 307.336
37.88000 306.646
37.89000 306.118
37.90000 297.927
37.91000 291.039
37.92000 287.847
37.93000 292.307
37.94000 297.001
37.95000 301.556
37.96000 305.915
37.97000 310.271
37.98000 309.776
37.99000 304.948
38.00000 300.161
38.01000 297.899
38.02000 297.125
38.03000 296.224
38.04000 292.670
38.05000 288.061
38.06000 283.772
38.07000 284.841
38.08000 287.104
38.09000 289.093
38.10000 289.361
38.11000 289.327
38.12000 289.758
38.13000 292.082
38.14000 294.609
38.15000 296.485
38.16000 309.198
38.17000 319.557
38.18000 325.325
38.19000 322.608
38.20000 319.706
38.21000 317.389
38.22000 315.792
38.23000 314.200
38.24000 313.111
38.25000 312.422
38.26000 311.754
38.27000 311.993
38.28000 312.708
38.29000 313.655
38.30000 318.464
38.31000 324.646
38.32000 330.318
38.33000 332.216
38.34000 333.108
38.35000 334.631
38.36000 339.636
38.37000 345.174
38.38000 351.081
38.39000 358.323
38.40000 365.685
38.41000 370.972
38.42000 370.736
38.43000 370.365
38.44000 377.663
38.45000 397.583
38.46000 417.688
38.47000 432.819
38.48000 442.574
38.49000 452.282
38.50000 465.081
38.51000 479.878
38.52000 494.687
38.53000 509.831
38.54000 525.132
38.55000 540.740
38.56000 560.543
38.57000 581.675
38.58000 600.766
38.59000 613.140
38.60000 622.778
38.61000 633.761
38.62000 651.283
38.63000 669.674
38.64000 685.183
38.65000 691.407
38.66000 696.926
38.67000 700.748
38.68000 706.137
38.69000 710.233
38.70000 705.760
38.71000 688.752
38.72000 671.637
38.73000 665.489
38.74000 669.732
38.75000 673.940
38.76000 672.790
38.77000 668.397
38.78000 663.705
38.79000 652.107
38.80000 637.619
38.81000 622.954
38.82000 606.275
38.83000 589.027
38.84000 573.708
38.85000 546.615
38.86000 521.231
38.87000 497.471
38.88000 480.691
38.89000 464.712
38.90000 448.816
38.91000 433.162
38.92000 417.524
38.93000 407.109
38.94000 396.987
38.95000 389.501
38.96000 380.041
38.97000 368.019
38.98000 355.994
38.99000 347.342
39.00000 341.503
39.01000 335.740
39.02000 331.893
39.03000 329.179
39.04000 326.247
39.05000 319.330
39.06000 310.923
39.07000 302.805
39.08000 297.459
39.09000 292.810
39.10000 288.756
39.11000 291.714
39.12000 295.217
39.13000 298.570
39.14000 301.350
39.15000 304.074
39.16000 306.117
39.17000 306.411
39.18000 306.617
39.19000 306.749
39.20000 297.107
39.21000 289.967
39.22000 286.075
39.23000 285.903
39.24000 285.738
39.25000 286.134
39.26000 286.944
39.27000 287.739
39.28000 286.361
39.29000 284.000
39.30000 281.754
39.31000 281.208
39.32000 281.230
39.33000 281.501
39.34000 283.830
39.35000 286.618
39.36000 289.000
39.37000 282.074
39.38000 275.127
39.39000 269.699
39.40000 269.420
39.41000 269.566
39.42000 271.225
39.43000 276.354
39.44000 281.620
39.45000 284.828
39.46000 275.968
39.47000 269.540
39.48000 268.099
39.49000 271.670
39.50000 275.224
39.51000 277.204
39.52000 278.155
39.53000 279.081
39.54000 275.261
39.55000 269.629
39.56000 264.744
39.57000 269.062
39.58000 276.117
39.59000 281.567
39.60000 275.578
39.61000 267.344
39.62000 260.460
39.63000 260.716
39.64000 261.655
39.65000 262.929
39.66000 265.213
39.67000 267.567
39.68000 270.812
39.69000 275.882
39.70000 281.005
39.71000 283.974
39.72000 278.670
39.73000 274.914
39.74000 270.321
39.75000 264.989
39.76000 259.769
39.77000 260.997
39.78000 265.979
39.79000 270.789
39.80000 274.815
39.81000 278.317
39.82000 281.191
39.83000 277.541
39.84000 272.167
39.85000 267.710
39.86000 268.957
39.87000 271.187
39.88000 273.008
39.89000 268.142
39.90000 263.586
39.91000 260.992
39.92000 263.691
39.93000 266.684
39.94000 268.510
39.95000 268.209
39.96000 267.863
39.97000 267.673
39.98000 268.406
39.99000 268.901
40.00000 266.353
40.01000 261.437
40.02000 256.666
40.03000 257.647
40.04000 261.613
40.05000 265.406
40.06000 271.778
40.07000 278.554
40.08000 284.345
40.09000 281.440
40.10000 276.494
40.11000 272.279
40.12000 272.044
40.13000 272.409
40.14000 272.699
40.15000 265.863
40.16000 259.843
40.17000 255.931
40.18000 257.100
40.19000 258.492
40.20000 257.772
40.21000 253.621
40.22000 249.421
40.23000 247.255
40.24000 263.303
40.25000 274.051
40.26000 276.666
40.27000 273.672
40.28000 270.653
40.29000 266.850
40.30000 262.684
40.31000 258.743
40.32000 261.819
40.33000 266.667
40.34000 270.769
40.35000 269.201
40.36000 266.456
40.37000 263.499
40.38000 259.523
40.39000 255.413
40.40000 252.234
40.41000 251.326
40.42000 250.739
40.43000 251.314
40.44000 254.385
40.45000 257.540
40.46000 260.412
40.47000 262.872
40.48000 265.329
40.49000 265.834
40.50000 264.517
40.51000 263.256
40.52000 266.009
40.53000 271.222
40.54000 276.077
40.55000 272.902
40.56000 266.405
40.57000 260.334
40.58000 255.971
40.59000 252.444
40.60000 249.905
40.61000 253.898
40.62000 259.086
40.63000 263.470
40.64000 264.451
40.65000 265.048
40.66000 265.496
40.67000 257.555
40.68000 250.949
40.69000 245.836
40.70000 243.589
40.71000 241.413
40.72000 244.133
40.73000 253.118
40.74000 262.114
40.75000 264.188
40.76000 260.581
40.77000 257.047
40.78000 256.954
40.79000 258.739
40.80000 260.443
40.81000 260.705
40.82000 260.435
40.83000 260.186
40.84000 259.940
40.85000 259.719
40.86000 259.159
40.87000 256.637
40.88000 253.801
40.89000 251.197
40.90000 249.472
40.91000 247.830
40.92000 246.638
40.93000 257.079
40.94000 265.548
40.95000 270.043
40.96000 267.734
40.97000 265.310
40.98000 262.471
40.99000 259.163
41.00000 255.866
41.01000 255.059
41.02000 256.055
41.03000 257.020
41.04000 256.974
41.05000 256.435
41.06000 255.889
41.07000 255.230
41.08000 254.535
41.09000 253.904
41.10000 252.792
41.11000 251.716
41.12000 250.998
41.13000 252.093
41.14000 253.441
41.15000 253.005
41.16000 246.596
41.17000 239.705
41.18000 234.872
41.19000 234.566
41.20000 234.465
41.21000 235.946
41.22000 239.836
41.23000 243.751
41.24000 246.551
41.25000 248.246
41.26000 249.930
41.27000 250.837
41.28000 251.235
41.29000 251.502
41.30000 248.448
41.31000 243.950
41.32000 239.647
41.33000 237.701
41.34000 236.447
41.35000 235.326
41.36000 239.487
41.37000 244.002
41.38000 247.537
41.39000 246.683
41.40000 245.299
41.41000 244.961
41.42000 247.748
41.43000 250.743
41.44000 252.766
41.45000 250.500
41.46000 248.722
41.47000 247.596
41.48000 247.352
41.49000 247.109
41.50000 244.131
41.51000 238.772
41.52000 233.474
41.53000 235.206
41.54000 240.843
41.55000 246.283
41.56000 247.845
41.57000 247.901
41.58000 247.792
41.59000 245.997
41.60000 243.762
41.61000 241.801
41.62000 245.643
41.63000 249.790
41.64000 252.388
41.65000 248.832
41.66000 244.641
41.67000 240.696
41.68000 237.405
41.69000 234.150
41.70000 232.042
41.71000 236.753
41.72000 240.302
41.73000 244.329
41.74000 248.925
41.75000 253.497
41.76000 251.715
41.77000 245.052
41.78000 238.503
41.79000 238.580
41.80000 241.938
41.81000 245.002
41.82000 243.388
41.83000 240.152
41.84000 237.222
41.85000 236.942
41.86000 237.276
41.87000 237.563
41.88000 236.062
41.89000 234.565
41.90000 233.629
41.91000 234.671
41.92000 235.885
41.93000 236.781
41.94000 236.917
41.95000 237.022
41.96000 237.086
41.97000 238.328
41.98000 239.232
41.99000 240.078
42.00000 240.864
42.01000 241.626
42.02000 239.649
42.03000 235.808
42.04000 232.057
42.05000 232.555
42.06000 234.890
42.07000 237.232
42.08000 239.664
42.09000 242.124
42.10000 244.195
42.11000 243.355
42.12000 241.919
42.13000 240.708
42.14000 233.364
42.15000 226.575
42.16000 222.794
42.17000 228.465
42.18000 234.824
42.19000 239.125
42.20000 239.055
42.21000 238.842
42.22000 238.716
42.23000 245.992
42.24000 251.164
42.25000 249.853
42.26000 242.569
42.27000 235.336
42.28000 231.524
42.29000 229.783
42.30000 228.097
42.31000 228.460
42.32000 229.595
42.33000 231.159
42.34000 237.422
42.35000 244.978
42.36000 250.549
42.37000 243.204
42.38000 233.529
42.39000 225.566
42.40000 227.434
42.41000 229.864
42.42000 232.474
42.43000 235.585
42.44000 238.727
42.45000 241.411
42.46000 243.227
42.47000 245.022
42.48000 246.025
42.49000 239.539
42.50000 235.035
42.51000 232.227
42.52000 230.797
42.53000 229.410
42.54000 229.997
42.55000 231.646
42.56000 233.229
42.57000 235.179
42.58000 237.127
42.59000 239.069
42.60000 240.962
42.61000 242.844
42.62000 244.909
42.63000 248.023
42.64000 251.303
42.65000 253.936
42.66000 248.381
42.67000 243.256
42.68000 240.088
42.69000 241.816
42.70000 243.778
42.71000 241.567
42.72000 232.302
42.73000 222.923
42.74000 217.980
42.75000 226.609
42.76000 232.460
42.77000 236.592
42.78000 239.491
42.79000 242.233
42.80000 239.896
42.81000 235.116
42.82000 230.576
42.83000 233.371
42.84000 238.156
42.85000 242.144
42.86000 239.766
42.87000 236.011
42.88000 233.366
42.89000 236.284
42.90000 239.965
42.91000 242.841
42.92000 236.883
42.93000 231.572
42.94000 230.226
42.95000 237.742
42.96000 245.588
42.97000 250.699
42.98000 251.700
42.99000 252.660
43.00000 252.174
43.01000 250.277
43.02000 248.369
43.03000 245.531
43.04000 242.102
43.05000 238.738
43.06000 236.979
43.07000 235.911
43.08000 234.908
43.09000 231.060
43.10000 226.800
43.11000 223.335
43.12000 225.372
43.13000 228.460
43.14000 230.692
43.15000 229.139
43.16000 227.139
43.17000 225.621
43.18000 226.083
43.19000 226.547
43.20000 229.592
43.21000 237.786
43.22000 246.123
43.23000 246.370
43.24000 235.827
43.25000 225.238
43.26000 221.225
43.27000 222.852
43.28000 224.408
43.29000 222.144
43.30000 217.713
43.31000 213.830
43.32000 220.511
43.33000 231.245
43.34000 241.188
43.35000 242.668
43.36000 242.035
43.37000 240.610
43.38000 234.405
43.39000 227.400
43.40000 223.059
43.41000 229.166
43.42000 236.332
43.43000 241.598
43.44000 246.848
43.45000 250.907
43.46000 250.382
43.47000 241.698
43.48000 232.855
43.49000 228.073
43.50000 228.075
43.51000 228.085
43.52000 226.971
43.53000 225.018
43.54000 223.044
43.55000 220.294
43.56000 217.151
43.57000 214.355
43.58000 216.941
43.59000 221.372
43.60000 225.417
43.61000 227.931
43.62000 229.851
43.63000 231.183
43.64000 229.395
43.65000 227.151
43.66000 225.037
43.67000 223.375
43.68000 221.753
43.69000 220.601
43.70000 220.923
43.71000 221.216
43.72000 221.400
43.73000 221.413
43.74000 221.423
43.75000 222.508
43.76000 224.705
43.77000 226.890
43.78000 229.247
43.79000 231.688
43.80000 233.976
43.81000 232.051
43.82000 228.221
43.83000 224.877
43.84000 227.759
43.85000 232.543
43.86000 236.842
43.87000 235.742
43.88000 233.824
43.89000 233.107
43.90000 238.000
43.91000 243.604
43.92000 246.231
43.93000 239.621
43.94000 232.351
43.95000 227.378
43.96000 230.876
43.97000 233.695
43.98000 237.746
43.99000 243.528
44.00000 249.319
44.01000 247.928
44.02000 240.012
44.03000 232.174
44.04000 232.807
44.05000 238.386
44.06000 243.771
44.07000 245.029
44.08000 244.622
44.09000 244.243
44.10000 244.160
44.11000 244.158
44.12000 244.157
44.13000 237.962
44.14000 231.665
44.15000 226.070
44.16000 223.372
44.17000 220.990
44.18000 219.753
44.19000 221.690
44.20000 223.812
44.21000 225.207
44.22000 227.338
44.23000 228.919
44.24000 233.392
44.25000 241.467
44.26000 249.524
44.27000 248.217
44.28000 239.410
44.29000 230.735
44.30000 226.540
44.31000 224.785
44.32000 223.118
44.33000 222.963
44.34000 223.352
44.35000 223.928
44.36000 226.216
44.37000 228.917
44.38000 231.257
44.39000 225.357
44.40000 219.246
44.41000 214.775
44.42000 216.323
44.43000 218.428
44.44000 222.736
44.45000 232.493
44.46000 242.503
44.47000 248.799
44.48000 241.423
44.49000 235.934
44.50000 234.473
44.51000 237.434
44.52000 240.378
44.53000 240.720
44.54000 239.215
44.55000 237.743
44.56000 234.602
44.57000 230.825
44.58000 227.582
44.59000 231.816
44.60000 238.452
44.61000 244.791
44.62000 248.791
44.63000 252.293
44.64000 255.264
44.65000 261.599
44.66000 267.293
44.67000 272.331
44.68000 275.223
44.69000 277.949
44.70000 279.665
44.71000 279.152
44.72000 278.559
44.73000 278.204
44.74000 296.178
44.75000 309.067
44.76000 314.184
44.77000 311.817
44.78000 309.558
44.79000 315.820
44.80000 327.447
44.81000 338.742
44.82000 351.155
44.83000 363.397
44.84000 375.133
44.85000 380.998
44.86000 385.181
44.87000 391.221
44.88000 409.911
44.89000 430.984
44.90000 448.468
44.91000 460.053
44.92000 469.059
44.93000 477.701
44.94000 485.279
44.95000 492.790
44.96000 502.050
44.97000 514.758
44.98000 527.558
44.99000 534.846
45.00000 538.946
45.01000 541.799
45.02000 547.243
45.03000 554.883
45.04000 562.286
45.05000 557.670
45.06000 546.318
45.07000 535.387
45.08000 528.378
45.09000 523.195
45.10000 517.933
45.11000 511.895
45.12000 505.660
45.13000 498.542
45.14000 486.169
45.15000 472.928
45.16000 462.207
45.17000 452.888
45.18000 445.415
45.19000 434.552
45.20000 414.873
45.21000 394.739
45.22000 380.552
45.23000 376.820
45.24000 373.284
45.25000 371.382
45.26000 365.649
45.27000 361.684
45.28000 349.055
45.29000 329.946
45.30000 310.918
45.31000 294.826
45.32000 280.202
45.33000 266.261
45.34000 266.984
45.35000 272.255
45.36000 276.902
45.37000 276.311
45.38000 274.537
45.39000 271.752
45.40000 263.683
45.41000 254.852
45.42000 247.887
45.43000 249.282
45.44000 250.964
45.45000 252.145
45.46000 252.165
45.47000 252.137
45.48000 250.952
45.49000 247.957
45.50000 244.941
45.51000 243.417
45.52000 234.112
45.53000 227.967
45.54000 229.767
45.55000 236.840
45.56000 243.567
45.57000 241.050
45.58000 234.407
45.59000 228.145
45.60000 222.831
45.61000 218.227
45.62000 214.774
45.63000 219.669
45.64000 226.228
45.65000 230.851
45.66000 226.550
45.67000 221.136
45.68000 216.986
45.69000 224.510
45.70000 231.095
45.71000 235.552
45.72000 235.594
45.73000 235.500
45.74000 231.185
45.75000 221.008
45.76000 210.797
45.77000 210.955
45.78000 220.393
45.79000 229.676
45.80000 229.521
45.81000 223.794
45.82000 218.300
45.83000 217.648
45.84000 218.925
45.85000 220.113
45.86000 219.938
45.87000 219.449
45.88000 218.692
45.89000 216.249
45.90000 213.511
45.91000 211.301
45.92000 211.246
45.93000 211.423
45.94000 211.554
45.95000 214.337
45.96000 216.618
45.97000 218.569
45.98000 219.910
45.99000 221.238
46.00000 221.924
46.01000 221.821
46.02000 221.715
46.03000 218.129
46.04000 211.824
46.05000 205.574
46.06000 201.672
46.07000 199.005
46.08000 196.490
46.09000 196.498
46.10000 197.405
46.11000 198.237
46.12000 202.475
46.13000 206.977
46.14000 211.083
46.15000 213.002
46.16000 214.585
46.17000 214.489
46.18000 208.305
46.19000 201.568
46.20000 196.726
46.21000 207.522
46.22000 216.326
46.23000 221.679
46.24000 221.345
46.25000 220.927
46.26000 217.576
46.27000 211.051
46.28000 204.553
46.29000 203.094
46.30000 205.139
46.31000 207.179
46.32000 209.050
46.33000 210.842
46.34000 212.437
46.35000 211.330
46.36000 209.365
46.37000 207.589
46.38000 207.639
46.39000 208.021
46.40000 207.711
46.41000 204.034
46.42000 199.909
46.43000 197.840
46.44000 202.409
46.45000 207.484
46.46000 211.001
46.47000 208.140
46.48000 205.818
46.49000 203.929
46.50000 202.673
46.51000 201.424
46.52000 200.388
46.53000 199.557
46.54000 198.732
46.55000 201.117
46.56000 205.419
46.57000 209.439
46.58000 206.916
46.59000 201.649
46.60000 197.168
46.61000 201.654
46.62000 208.676
46.63000 214.915
46.64000 214.868
46.65000 213.814
46.66000 212.490
46.67000 209.999
46.68000 207.374
46.69000 204.347
46.70000 200.161
46.71000 195.903
46.72000 193.065
46.73000 199.382
46.74000 204.233
46.75000 205.931
46.76000 203.533
46.77000 201.123
46.78000 200.983
46.79000 202.739
46.80000 204.472
46.81000 207.656
46.82000 211.537
46.83000 215.276
46.84000 216.411
46.85000 216.571
46.86000 216.442
46.87000 213.518
46.88000 209.891
46.89000 206.728
46.90000 201.262
46.91000 196.268
46.92000 193.272
46.93000 197.913
46.94000 203.301
46.95000 204.606
46.96000 195.421
46.97000 185.708
46.98000 179.505
46.99000 184.846
47.00000 188.882
47.01000 191.617
47.02000 192.858
47.03000 194.099
47.04000 195.745
47.05000 197.690
47.06000 199.597
47.07000 197.360
47.08000 193.230
47.09000 189.372
47.10000 189.560
47.11000 191.099
47.12000 192.692
47.13000 194.727
47.14000 196.860
47.15000 198.683
47.16000 199.021
47.17000 199.128
47.18000 199.078
47.19000 198.493
47.20000 197.864
47.21000 198.483
47.22000 201.963
47.23000 205.557
47.24000 207.748
47.25000 204.995
47.26000 202.987
47.27000 201.327
47.28000 200.017
47.29000 198.722
47.30000 198.882
47.31000 199.995
47.32000 201.080
47.33000 200.417
47.34000 199.050
47.35000 197.786
47.36000 197.783
47.37000 198.155
47.38000 197.732
47.39000 191.618
47.40000 184.386
47.41000 178.338
47.42000 187.416
47.43000 196.498
47.44000 201.902
47.45000 196.168
47.46000 189.671
47.47000 186.709
47.48000 190.989
47.49000 195.484
47.50000 198.089
47.51000 201.662
47.52000 204.169
47.53000 203.407
47.54000 199.755
47.55000 196.133
47.56000 194.252
47.57000 193.384
47.58000 192.546
47.59000 189.633
47.60000 186.116
47.61000 183.301
47.62000 187.772
47.63000 194.174
47.64000 198.933
47.65000 193.464
47.66000 186.229
47.67000 180.320
47.68000 182.373
47.69000 184.739
47.70000 187.798
47.71000 192.730
47.72000 197.765
47.73000 200.820
47.74000 200.254
47.75000 199.610
47.76000 199.257
47.77000 189.251
47.78000 182.365
47.79000 179.143
47.80000 178.776
47.81000 178.384
47.82000 176.990
47.83000 175.074
47.84000 173.242
47.85000 177.048
47.86000 182.438
47.87000 187.126
47.88000 185.601
47.89000 182.615
47.90000 180.266
47.91000 181.392
47.92000 183.044
47.93000 184.359
47.94000 186.592
47.95000 188.458
47.96000 191.631
47.97000 197.957
47.98000 204.423
47.99000 206.742
48.00000 202.311
48.01000 197.785
48.02000 195.448
48.03000 193.539
48.04000 192.286
48.05000 195.056
48.06000 200.605
48.07000 205.844
48.08000 201.966
48.09000 193.859
48.10000 186.188
48.11000 181.413
48.12000 177.857
48.13000 175.369
48.14000 181.026
48.15000 188.377
48.16000 194.818
48.17000 196.885
48.18000 198.378
48.19000 199.534
48.20000 195.570
48.21000 192.121
48.22000 189.431
48.23000 188.378
48.24000 187.381
48.25000 186.940
48.26000 187.305
48.27000 187.677
48.28000 185.578
48.29000 181.170
48.30000 176.824
48.31000 176.845
48.32000 179.548
48.33000 182.223
48.34000 184.263
48.35000 186.041
48.36000 187.703
48.37000 187.556
48.38000 186.965
48.39000 186.807
48.40000 189.510
48.41000 192.738
48.42000 194.214
48.43000 188.246
48.44000 181.439
48.45000 176.326
48.46000 179.376
48.47000 182.152
48.48000 184.439
48.49000 185.789
48.50000 187.115
48.51000 188.338
48.52000 189.427
48.53000 190.514
48.54000 188.524
48.55000 184.011
48.56000 179.578
48.57000 178.854
48.58000 180.158
48.59000 181.437
48.60000 182.287
48.61000 182.977
48.62000 183.613
48.63000 188.206
48.64000 193.200
48.65000 196.985
48.66000 193.776
48.67000 189.444
48.68000 185.369
48.69000 182.259
48.70000 179.242
48.71000 177.048
48.72000 179.095
48.73000 180.829
48.74000 181.886
48.75000 181.781
48.76000 181.657
48.77000 181.071
48.78000 179.964
48.79000 178.860
48.80000 176.920
48.81000 174.392
48.82000 172.053
48.83000 176.050
48.84000 183.137
48.85000 189.741
48.86000 189.286
48.87000 186.501
48.88000 183.971
48.89000 179.157
48.90000 174.459
48.91000 171.099
48.92000 174.537
48.93000 178.925
48.94000 182.564
48.95000 183.692
48.96000 184.615
48.97000 185.264
48.98000 187.046
48.99000 188.428
49.00000 187.541
49.01000 183.193
49.02000 178.807
49.03000 179.469
49.04000 185.140
49.05000 190.773
49.06000 190.288
49.07000 185.913
49.08000 181.736
49.09000 182.533
49.10000 185.498
49.11000 188.330
49.12000 189.549
49.13000 190.293
49.14000 190.957
49.15000 186.534
49.16000 181.819
49.17000 177.966
49.18000 177.981
49.19000 178.464
49.20000 179.207
49.21000 180.727
49.22000 182.299
49.23000 183.361
49.24000 180.222
49.25000 177.795
49.26000 177.982
49.27000 181.706
49.28000 185.446
49.29000 185.221
49.30000 181.542
49.31000 177.903
49.32000 177.371
49.33000 178.597
49.34000 179.843
49.35000 181.489
49.36000 183.290
49.37000 184.560
49.38000 180.413
49.39000 174.849
49.40000 169.965
49.41000 173.275
49.42000 177.317
49.43000 180.320
49.44000 179.187
49.45000 177.626
49.46000 177.580
49.47000 181.577
49.48000 185.794
49.49000 188.527
49.50000 186.569
49.51000 185.065
49.52000 185.353
49.53000 187.785
49.54000 190.211
49.55000 190.478
49.56000 189.082
49.57000 187.710
49.58000 185.636
49.59000 183.283
49.60000 180.997
49.61000 179.786
49.62000 178.950
49.63000 178.177
49.64000 177.952
49.65000 177.855
49.66000 177.771
49.67000 175.453
49.68000 173.207
49.69000 172.764
49.70000 178.693
49.71000 185.179
49.72000 189.953
49.73000 190.645
49.74000 191.162
49.75000 191.483
49.76000 189.210
49.77000 187.550
49.78000 185.635
49.79000 183.452
49.80000 181.276
49.81000 179.941
49.82000 179.178
49.83000 178.434
49.84000 178.239
49.85000 178.293
49.86000 178.431
49.87000 179.686
49.88000 181.285
49.89000 182.334
49.90000 179.252
49.91000 175.321
49.92000 172.009
49.93000 176.499
49.94000 181.088
49.95000 185.833
49.96000 191.071
49.97000 196.344
49.98000 197.277
49.99000 188.971
50.00000 180.360
50.01000 175.279
50.02000 180.391
50.03000 184.054
50.04000 182.449
50.05000 175.983
50.06000 169.632
50.07000 171.103
50.08000 177.315
50.09000 183.333
50.10000 183.453
50.11000 181.283
50.12000 179.421
50.13000 180.949
50.14000 183.412
50.15000 186.149
50.16000 190.673
50.17000 195.520
50.18000 199.510
50.19000 190.842
50.20000 182.557
50.21000 176.680
50.22000 177.568
50.23000 178.861
50.24000 179.396
50.25000 178.493
50.26000 177.555
50.27000 177.030
50.28000 180.134
50.29000 182.296
50.30000 185.600
50.31000 189.833
50.32000 194.013
50.33000 195.789
50.34000 196.268
50.35000 196.727
50.36000 199.768
50.37000 203.494
50.38000 207.471
50.39000 213.785
50.40000 220.671
50.41000 227.155
50.42000 231.342
50.43000 235.166
50.44000 238.236
50.45000 230.760
50.46000 223.896
50.47000 223.247
50.48000 238.184
50.49000 253.867
50.50000 261.823
50.51000 256.692
50.52000 251.347
50.53000 248.527
50.54000 255.777
50.55000 260.709
50.56000 266.621
50.57000 273.237
50.58000 279.659
50.59000 279.815
50.60000 276.951
50.61000 274.231
50.62000 280.219
50.63000 288.372
50.64000 296.062
50.65000 300.053
50.66000 303.241
50.67000 304.589
50.68000 296.712
50.69000 287.565
50.70000 280.416
50.71000 286.418
50.72000 292.039
50.73000 293.851
50.74000 287.132
50.75000 280.095
50.76000 276.357
50.77000 277.589
50.78000 278.870
50.79000 274.190
50.80000 263.677
50.81000 253.215
50.82000 247.030
50.83000 243.577
50.84000 240.234
50.85000 239.601
50.86000 240.135
50.87000 240.636
50.88000 238.585
50.89000 236.039
50.90000 232.826
50.91000 224.990
50.92000 216.268
50.93000 208.928
50.94000 207.707
50.95000 207.212
50.96000 206.837
50.97000 202.861
50.98000 199.551
50.99000 198.165
51.00000 200.624
51.01000 203.190
51.02000 205.702
51.03000 208.143
51.04000 210.582
51.05000 203.196
51.06000 187.396
51.07000 171.887
51.08000 171.904
51.09000 180.748
51.10000 189.166
51.11000 189.325
51.12000 186.311
51.13000 183.519
51.14000 183.625
51.15000 184.395
51.16000 184.709
51.17000 182.265
51.18000 179.359
51.19000 177.422
51.20000 179.292
51.21000 181.550
51.22000 183.210
51.23000 183.343
51.24000 183.383
51.25000 181.350
51.26000 175.620
51.27000 169.818
51.28000 167.012
51.29000 167.745
51.30000 168.481
51.31000 168.899
51.32000 169.075
51.33000 169.206
51.34000 167.657
51.35000 165.256
51.36000 163.113
51.37000 165.000
51.38000 168.269
51.39000 171.255
51.40000 170.705
51.41000 169.497
51.42000 168.715
51.43000 170.191
51.44000 171.998
51.45000 173.281
51.46000 172.731
51.47000 172.024
51.48000 171.521
51.49000 174.465
51.50000 176.816
51.51000 175.583
51.52000 168.661
51.53000 161.667
51.54000 160.372
51.55000 164.992
51.56000 169.588
51.57000 169.464
51.58000 166.207
51.59000 163.106
51.60000 164.338
51.61000 167.532
51.62000 170.342
51.63000 168.221
51.64000 164.592
51.65000 161.330
51.66000 161.603
51.67000 162.469
51.68000 163.149
51.69000 162.959
51.70000 162.659
51.71000 162.369
51.72000 162.110
51.73000 161.853
51.74000 161.678
51.75000 166.936
51.76000 171.004
51.77000 172.400
51.78000 170.031
51.79000 167.634
51.80000 165.064
51.81000 162.334
51.82000 159.631
51.83000 159.928
51.84000 161.979
51.85000 164.056
51.86000 166.674
51.87000 169.510
51.88000 171.915
51.89000 169.652
51.90000 166.119
51.91000 162.998
51.92000 164.009
51.93000 165.517
51.94000 166.538
51.95000 165.541
51.96000 164.324
51.97000 163.602
51.98000 164.255
51.99000 164.988
52.00000 165.470
52.01000 169.940
52.02000 173.300
52.03000 173.861
52.04000 170.929
52.05000 167.994
52.06000 167.763
52.07000 169.700
52.08000 171.608
52.09000 169.509
52.10000 165.398
52.11000 161.474
52.12000 160.764
52.13000 161.214
52.14000 161.545
52.15000 160.782
52.16000 159.755
52.17000 158.865
52.18000 162.147
52.19000 165.495
52.20000 168.135
52.21000 168.174
52.22000 167.972
52.23000 168.786
52.24000 172.117
52.25000 175.565
52.26000 177.735
52.27000 172.982
52.28000 169.464
52.29000 166.596
52.30000 164.441
52.31000 162.296
52.32000 161.410
52.33000 161.419
52.34000 161.427
52.35000 162.635
52.36000 164.344
52.37000 165.886
52.38000 165.094
52.39000 163.550
52.40000 161.937
52.41000 159.775
52.42000 157.497
52.43000 155.562
52.44000 161.691
52.45000 167.750
52.46000 172.088
52.47000 170.796
52.48000 169.065
52.49000 168.352
52.50000 169.889
52.51000 171.507
52.52000 172.479
52.53000 170.450
52.54000 168.989
52.55000 167.485
52.56000 165.939
52.57000 164.383
52.58000 161.971
52.59000 159.018
52.60000 156.150
52.61000 156.189
52.62000 157.401
52.63000 158.519
52.64000 158.537
52.65000 158.240
52.66000 158.347
52.67000 161.216
52.68000 164.605
52.69000 167.419
52.70000 162.751
52.71000 158.170
52.72000 155.928
52.73000 160.514
52.74000 165.539
52.75000 169.489
52.76000 171.317
52.77000 173.088
52.78000 174.098
52.79000 165.066
52.80000 158.739
52.81000 153.696
52.82000 149.743
52.83000 145.909
52.84000 148.150
52.85000 153.802
52.86000 159.246
52.87000 161.721
52.88000 162.987
52.89000 163.555
52.90000 157.237
52.91000 149.163
52.92000 142.953
52.93000 147.862
52.94000 154.611
52.95000 160.077
52.96000 162.287
52.97000 163.821
52.98000 163.480
52.99000 158.254
53.00000 152.775
53.01000 150.545
53.02000 154.037
53.03000 157.637
53.04000 159.575
53.05000 161.778
53.06000 163.280
53.07000 163.947
53.08000 163.989
53.09000 163.976
53.10000 161.963
53.11000 158.948
53.12000 156.074
53.13000 158.463
53.14000 162.334
53.15000 165.751
53.16000 165.342
53.17000 164.069
53.18000 163.194
53.19000 164.403
53.20000 165.912
53.21000 167.102
53.22000 161.986
53.23000 157.456
53.24000 155.414
53.25000 159.160
53.26000 163.142
53.27000 166.492
53.28000 168.849
53.29000 171.194
53.30000 172.380
53.31000 164.061
53.32000 158.533
53.33000 157.037
53.34000 158.222
53.35000 159.319
53.36000 158.065
53.37000 155.759
53.38000 153.586
53.39000 153.453
53.40000 153.896
53.41000 154.573
53.42000 156.944
53.43000 159.654
53.44000 162.168
53.45000 163.776
53.46000 165.270
53.47000 166.415
53.48000 165.451
53.49000 164.572
53.50000 163.927
53.51000 163.768
53.52000 163.623
53.53000 164.709
53.54000 167.506
53.55000 170.314
53.56000 168.560
53.57000 162.717
53.58000 156.953
53.59000 156.022
53.60000 157.948
53.61000 159.746
53.62000 158.872
53.63000 156.930
53.64000 155.122
53.65000 154.818
53.66000 154.908
53.67000 155.010
53.68000 155.193
53.69000 155.390
53.70000 156.068
53.71000 158.717
53.72000 161.576
53.73000 163.702
53.74000 162.712
53.75000 161.804
53.76000 159.284
53.77000 153.778
53.78000 148.206
53.79000 147.137
53.80000 151.613
53.81000 156.096
53.82000 159.441
53.83000 161.873
53.84000 164.261
53.85000 164.815
53.86000 164.404
53.87000 163.863
53.88000 161.175
53.89000 157.720
53.90000 154.548
53.91000 156.921
53.92000 160.216
53.93000 162.481
53.94000 159.031
53.95000 154.703
53.96000 152.296
53.97000 156.860
53.98000 162.060
53.99000 165.798
54.00000 160.956
54.01000 156.950
54.02000 154.435
54.03000 154.382
54.04000 154.365
54.05000 154.903
54.06000 156.043
54.07000 157.177
54.08000 156.442
54.09000 154.418
54.10000 152.480
54.11000 153.201
54.12000 155.173
54.13000 156.835
54.14000 154.257
54.15000 150.330
54.16000 146.781
54.17000 151.864
54.18000 157.939
54.19000 162.345
54.20000 158.604
54.21000 153.776
54.22000 151.478
54.23000 157.361
54.24000 163.868
54.25000 168.380
54.26000 164.402
54.27000 161.183
54.28000 158.311
54.29000 155.952
54.30000 153.597
54.31000 152.659
54.32000 153.070
54.33000 153.477
54.34000 154.628
54.35000 156.214
54.36000 157.678
54.37000 156.318
54.38000 153.772
54.39000 151.486
54.40000 152.185
54.41000 153.729
54.42000 155.102
54.43000 156.688
54.44000 158.098
54.45000 159.470
54.46000 160.676
54.47000 161.864
54.48000 163.138
54.49000 164.663
54.50000 166.204
54.51000 167.231
54.52000 164.263
54.53000 161.988
54.54000 160.231
54.55000 159.149
54.56000 158.069
54.57000 157.203
54.58000 156.516
54.59000 155.838
54.60000 155.919
54.61000 156.408
54.62000 157.048
54.63000 160.474
54.64000 164.945
54.65000 169.280
54.66000 172.301
54.67000 174.991
54.68000 177.338
54.69000 176.142
54.70000 174.624
54.71000 172.707
54.72000 169.262
54.73000 165.667
54.74000 162.137
54.75000 158.777
54.76000 155.425
54.77000 153.283
54.78000 157.740
54.79000 161.071
54.80000 161.841
54.81000 159.670
54.82000 157.498
54.83000 155.947
54.84000 154.856
54.85000 153.786
54.86000 154.749
54.87000 156.647
54.88000 158.461
54.89000 159.009
54.90000 159.133
54.91000 159.404
54.92000 160.895
54.93000 162.658
54.94000 164.165
54.95000 163.939
54.96000 163.539
54.97000 162.791
54.98000 160.856
54.99000 158.823
55.00000 157.443
55.01000 157.563
55.02000 157.742
55.03000 157.851
55.04000 161.871
55.05000 164.777
55.06000 166.004
55.07000 165.537
55.08000 165.079
55.09000 165.541
55.10000 166.607
55.11000 167.645
55.12000 168.856
55.13000 170.085
55.14000 171.187
55.15000 170.729
55.16000 169.806
55.17000 168.894
55.18000 168.061
55.19000 167.244
55.20000 166.560
55.21000 166.137
55.22000 165.812
55.23000 165.277
55.24000 164.104
55.25000 162.887
55.26000 164.425
55.27000 171.614
55.28000 178.971
55.29000 183.240
55.30000 181.863
55.31000 180.873
55.32000 179.924
55.33000 179.013
55.34000 178.114
55.35000 177.909
55.36000 178.109
55.37000 178.303
55.38000 179.690
55.39000 181.441
55.40000 183.474
55.41000 188.436
55.42000 194.176
55.43000 198.703
55.44000 195.663
55.45000 191.313
55.46000 187.759
55.47000 194.189
55.48000 200.314
55.49000 205.089
55.50000 206.209
55.51000 207.125
55.52000 211.205
55.53000 221.077
55.54000 231.073
55.55000 236.563
55.56000 233.665
55.57000 231.691
55.58000 238.755
55.59000 252.880
55.60000 266.950
55.61000 278.784
55.62000 289.454
55.63000 299.663
55.64000 315.532
55.65000 332.168
55.66000 347.820
55.67000 354.743
55.68000 359.610
55.69000 366.904
55.70000 387.463
55.71000 410.029
55.72000 427.996
55.73000 446.690
55.74000 461.816
55.75000 476.889
55.76000 491.836
55.77000 506.777
55.78000 522.046
55.79000 537.849
55.80000 553.658
55.81000 561.831
55.82000 588.439
55.83000 606.354
55.84000 621.024
55.85000 633.447
55.86000 645.528
55.87000 647.497
55.88000 644.767
55.89000 642.183
55.90000 647.711
55.91000 655.138
55.92000 661.870
55.93000 663.296
55.94000 663.616
55.95000 662.093
55.96000 651.693
55.97000 640.126
55.98000 631.170
55.99000 616.556
56.00000 604.617
56.01000 589.854
56.02000 568.995
56.03000 547.929
56.04000 525.983
56.05000 502.763
56.06000 479.537
56.07000 460.238
56.08000 444.630
56.09000 429.081
56.10000 417.717
56.11000 408.928
56.12000 399.868
56.13000 384.685
56.14000 366.960
56.15000 350.389
56.16000 338.373
56.17000 328.620
56.18000 318.022
56.19000 301.824
56.20000 284.598
56.21000 268.468
56.22000 257.009
56.23000 246.077
56.24000 237.863
56.25000 223.920
56.26000 212.744
56.27000 207.305
56.28000 212.919
56.29000 218.809
56.30000 216.825
56.31000 204.729
56.32000 192.610
56.33000 187.027
56.34000 186.841
56.35000 186.635
56.36000 185.531
56.37000 183.934
56.38000 182.459
56.39000 183.186
56.40000 184.729
56.41000 186.152
56.42000 181.168
56.43000 175.276
56.44000 169.455
56.45000 164.045
56.46000 158.701
56.47000 156.526
56.48000 166.320
56.49000 177.268
56.50000 185.230
56.51000 181.899
56.52000 178.907
56.53000 177.438
56.54000 178.587
56.55000 179.780
56.56000 178.121
56.57000 173.232
56.58000 168.355
56.59000 163.063
56.60000 157.514
56.61000 152.131
56.62000 152.346
56.63000 155.297
56.64000 157.987
56.65000 156.857
56.66000 154.465
56.67000 152.290
56.68000 152.597
56.69000 153.352
56.70000 153.342
56.71000 149.445
56.72000 145.002
56.73000 142.192
56.74000 144.867
56.75000 147.987
56.76000 150.177
56.77000 152.977
56.78000 155.114
56.79000 156.588
56.80000 157.049
56.81000 157.499
56.82000 159.149
56.83000 161.993
56.84000 164.817
56.85000 162.858
56.86000 157.878
56.87000 152.996
56.88000 150.643
56.89000 149.393
56.90000 148.454
56.91000 151.284
56.92000 155.225
56.93000 158.748
56.94000 155.906
56.95000 152.352
56.96000 148.822
56.97000 145.404
56.98000 142.000
56.99000 139.981
57.00000 142.112
57.01000 144.521
57.02000 146.149
57.03000 150.702
57.04000 154.156
57.05000 155.236
57.06000 153.099
57.07000 150.950
57.08000 154.080
57.09000 161.820
57.10000 169.473
57.11000 169.529
57.12000 165.306
57.13000 161.115
57.14000 157.580
57.15000 154.300
57.16000 151.397
57.17000 152.346
57.18000 154.305
57.19000 156.025
57.20000 150.140
57.21000 143.966
57.22000 140.018
57.23000 144.936
57.24000 150.773
57.25000 154.583
57.26000 152.971
57.27000 151.063
57.28000 149.826
57.29000 147.622
57.30000 145.994
57.31000 148.316
57.32000 155.372
57.33000 162.416
57.34000 164.000
57.35000 161.375
57.36000 158.794
57.37000 153.881
57.38000 147.968
57.39000 142.285
57.40000 140.263
57.41000 139.516
57.42000 138.757
57.43000 137.904
57.44000 137.029
57.45000 136.275
57.46000 138.920
57.47000 141.590
57.48000 143.883
57.49000 144.840
57.50000 145.679
57.51000 145.804
57.52000 144.221
57.53000 142.564
57.54000 141.537
57.55000 143.055
57.56000 144.171
57.57000 145.640
57.58000 147.481
57.59000 149.332
57.60000 152.424
57.61000 156.364
57.62000 160.211
57.63000 156.296
57.64000 149.139
57.65000 142.557
57.66000 143.540
57.67000 146.870
57.68000 149.857
57.69000 150.261
57.70000 150.134
57.71000 150.028
57.72000 150.437
57.73000 150.834
57.74000 150.158
57.75000 146.096
57.76000 141.786
57.77000 139.421
57.78000 141.201
57.79000 143.118
57.80000 144.250
57.81000 146.457
57.82000 148.021
57.83000 147.253
57.84000 144.329
57.85000 141.472
57.86000 143.196
57.87000 147.700
57.88000 152.065
57.89000 150.081
57.90000 145.741
57.91000 141.446
57.92000 137.657
57.93000 134.008
57.94000 131.610
57.95000 137.390
57.96000 144.649
57.97000 150.628
57.98000 146.968
57.99000 143.075
58.00000 140.927
58.01000 143.689
58.02000 146.747
58.03000 149.027
58.04000 149.829
58.05000 150.595
58.06000 151.024
58.07000 149.819
58.08000 148.984
58.09000 149.273
58.10000 150.478
58.11000 151.602
58.12000 149.034
58.13000 144.467
58.14000 140.083
58.15000 136.718
58.16000 133.921
58.17000 131.760
58.18000 135.554
58.19000 140.809
58.20000 144.988
58.21000 143.018
58.22000 140.074
58.23000 137.709
58.24000 138.492
58.25000 139.368
58.26000 139.668
58.27000 138.523
58.28000 137.308
58.29000 136.232
58.30000 135.391
58.31000 134.554
58.32000 134.112
58.33000 140.386
58.34000 144.627
58.35000 145.433
58.36000 143.763
58.37000 142.138
58.38000 141.962
58.39000 142.485
58.40000 142.983
58.41000 141.920
58.42000 140.468
58.43000 139.350
58.44000 140.904
58.45000 143.040
58.46000 144.639
58.47000 143.543
58.48000 142.076
58.49000 140.929
58.50000 140.549
58.51000 140.294
58.52000 141.687
58.53000 146.777
58.54000 152.004
58.55000 153.357
58.56000 148.862
58.57000 144.308
58.58000 142.139
58.59000 142.310
58.60000 142.498
58.61000 144.159
58.62000 146.763
58.63000 149.235
58.64000 148.430
58.65000 146.212
58.66000 144.129
58.67000 142.958
58.68000 142.132
58.69000 141.862
58.70000 145.462
58.71000 149.804
58.72000 152.586
58.73000 148.453
58.74000 143.497
58.75000 139.733
58.76000 134.945
58.77000 131.130
58.78000 130.409
58.79000 135.887
58.80000 141.537
58.81000 142.939
58.82000 138.653
58.83000 134.341
58.84000 133.769
58.85000 136.414
58.86000 139.011
58.87000 139.013
58.88000 137.536
58.89000 136.090
58.90000 135.218
58.91000 134.568
58.92000 133.966
58.93000 135.209
58.94000 136.757
58.95000 138.283
58.96000 139.676
58.97000 141.046
58.98000 141.398
58.99000 137.750
59.00000 133.693
59.01000 130.710
59.02000 128.435
59.03000 126.704
59.04000 127.235
59.05000 131.806
59.06000 136.456
59.07000 137.465
59.08000 134.167
59.09000 130.871
59.10000 130.595
59.11000 132.603
59.12000 134.566
59.13000 134.779
59.14000 134.103
59.15000 133.541
59.16000 134.752
59.17000 136.573
59.18000 138.236
59.19000 140.970
59.20000 143.615
59.21000 145.910
59.22000 146.346
59.23000 146.508
59.24000 145.957
59.25000 142.914
59.26000 139.656
59.27000 137.340
59.28000 137.263
59.29000 137.275
59.30000 137.502
59.31000 138.071
59.32000 138.644
59.33000 136.837
59.34000 132.554
59.35000 128.294
59.36000 129.815
59.37000 135.166
59.38000 140.369
59.39000 141.474
59.40000 140.721
59.41000 139.896
59.42000 138.154
59.43000 136.131
59.44000 134.312
59.45000 133.920
59.46000 133.830
59.47000 134.189
59.48000 136.652
59.49000 139.383
59.50000 140.119
59.51000 134.645
59.52000 128.726
59.53000 124.671
59.54000 123.712
59.55000 123.069
59.56000 123.321
59.57000 124.839
59.58000 126.366
59.59000 129.415
59.60000 133.852
59.61000 138.246
59.62000 140.597
59.63000 141.700
59.64000 142.669
59.65000 140.762
59.66000 137.690
59.67000 134.995
59.68000 136.371
59.69000 138.858
59.70000 141.055
59.71000 141.818
59.72000 142.256
59.73000 142.470
59.74000 141.756
59.75000 140.941
59.76000 140.779
59.77000 142.435
59.78000 144.197
59.79000 145.356
59.80000 144.669
59.81000 144.132
59.82000 142.762
59.83000 140.349
59.84000 137.941
59.85000 137.947
59.86000 139.894
59.87000 141.813
59.88000 140.592
59.89000 137.780
59.90000 135.044
59.91000 133.603
59.92000 132.630
59.93000 132.098
59.94000 135.625
59.95000 140.134
59.96000 144.043
59.97000 136.914
59.98000 129.377
59.99000 124.568
60.00000 129.812
60.01000 135.991
60.02000 140.599
60.03000 141.313
60.04000 141.844
60.05000 142.178
60.06000 139.992
60.07000 138.381
60.08000 135.518
60.09000 131.275
60.10000 127.072
60.11000 128.584
60.12000 134.162
60.13000 139.623
60.14000 138.377
60.15000 134.107
60.16000 130.122
60.17000 130.147
60.18000 131.466
60.19000 132.574
60.20000 132.018
60.21000 131.105
60.22000 130.330
60.23000 133.159
60.24000 135.943
60.25000 137.763
60.26000 136.420
60.27000 134.831
60.28000 132.759
60.29000 129.614
60.30000 126.431
60.31000 124.520
60.32000 129.821
60.33000 133.637
60.34000 137.877
60.35000 142.528
60.36000 147.121
60.37000 147.161
60.38000 144.324
60.39000 141.567
60.40000 140.740
60.41000 140.734
60.42000 140.702
60.43000 140.363
60.44000 139.935
60.45000 139.408
60.46000 138.204
60.47000 136.871
60.48000 135.764
60.49000 136.801
60.50000 137.866
60.51000 138.433
60.52000 137.547
60.53000 136.566
60.54000 136.284
60.55000 137.380
60.56000 138.514
60.57000 139.161
60.58000 138.790
60.59000 138.527
60.60000 137.796
60.61000 136.666
60.62000 135.584
60.63000 136.946
60.64000 139.682
60.65000 142.318
60.66000 141.431
60.67000 139.339
60.68000 137.265
60.69000 135.368
60.70000 133.517
60.71000 131.288
60.72000 126.803
60.73000 121.943
60.74000 118.005
60.75000 122.845
60.76000 127.504
60.77000 131.490
60.78000 133.723
60.79000 135.865
60.80000 137.694
60.81000 138.973
60.82000 140.242
60.83000 140.926
60.84000 138.188
60.85000 136.311
60.86000 134.046
60.87000 131.489
60.88000 128.986
60.89000 128.420
60.90000 128.826
60.91000 129.214
60.92000 130.551
60.93000 132.090
60.94000 133.357
60.95000 132.325
60.96000 130.774
60.97000 129.638
60.98000 130.684
60.99000 132.046
61.00000 133.121
61.01000 139.700
61.02000 145.352
61.03000 148.142
61.04000 144.262
61.05000 140.110
61.06000 136.604
61.07000 134.114
61.08000 131.637
61.09000 130.383
61.10000 136.703
61.11000 140.898
61.12000 141.441
61.13000 139.550
61.14000 137.663
61.15000 135.847
61.16000 134.063
61.17000 132.381
61.18000 131.516
61.19000 130.950
61.20000 130.865
61.21000 134.284
61.22000 138.403
61.23000 141.703
61.24000 141.212
61.25000 140.245
61.26000 139.504
61.27000 140.267
61.28000 140.954
61.29000 140.707
61.30000 138.516
61.31000 136.265
61.32000 135.915
61.33000 138.214
61.34000 140.530
61.35000 142.863
61.36000 145.207
61.37000 147.485
61.38000 145.664
61.39000 141.414
61.40000 137.307
61.41000 136.189
61.42000 136.266
61.43000 136.338
61.44000 135.360
61.45000 134.220
61.46000 134.134
61.47000 140.728
61.48000 148.498
61.49000 155.999
61.50000 162.403
61.51000 168.688
61.52000 173.362
61.53000 187.669
61.54000 199.226
61.55000 210.800
61.56000 222.405
61.57000 234.009
61.58000 246.223
61.59000 259.187
61.60000 272.130
61.61000 282.728
61.62000 291.426
61.63000 300.086
61.64000 307.138
61.65000 313.340
61.66000 319.533
61.67000 325.575
61.68000 331.563
61.69000 337.061
61.70000 340.077
61.71000 342.238
61.72000 343.143
61.73000 337.074
61.74000 329.932
61.75000 323.798
61.76000 321.336
61.77000 319.209
61.78000 317.679
61.79000 283.540
61.80000 256.264
61.81000 236.382
61.82000 228.728
61.83000 221.258
61.84000 212.033
61.85000 200.902
61.86000 189.818
61.87000 177.589
61.88000 164.692
61.89000 151.969
61.90000 144.577
61.91000 139.697
61.92000 135.253
61.93000 136.803
61.94000 140.263
61.95000 143.391
61.96000 145.765
61.97000 147.714
61.98000 149.426
61.99000 149.982
62.00000 150.382
62.01000 150.602
62.02000 150.235
62.03000 149.823
62.04000 149.538
62.05000 151.190
62.06000 152.486
62.07000 150.285
62.08000 142.944
62.09000 135.558
62.10000 136.032
62.11000 143.994
62.12000 151.893
62.13000 153.937
62.14000 152.357
62.15000 150.776
62.16000 149.184
62.17000 147.588
62.18000 145.913
62.19000 143.340
62.20000 140.513
62.21000 137.999
62.22000 138.314
62.23000 139.045
62.24000 139.441
62.25000 138.393
62.26000 137.179
62.27000 137.361
62.28000 141.574
62.29000 146.041
62.30000 149.021
62.31000 144.078
62.32000 140.264
62.33000 138.375
62.34000 138.995
62.35000 139.627
62.36000 140.885
62.37000 142.666
62.38000 144.425
62.39000 142.997
62.40000 139.883
62.41000 137.005
62.42000 138.486
62.43000 141.604
62.44000 144.498
62.45000 145.217
62.46000 145.388
62.47000 145.538
62.48000 148.533
62.49000 151.493
62.50000 153.086
62.51000 149.438
62.52000 145.275
62.53000 143.083
62.54000 145.969
62.55000 149.114
62.56000 151.124
62.57000 148.194
62.58000 145.996
62.59000 144.031
62.60000 142.337
62.61000 140.643
62.62000 139.126
62.63000 137.738
62.64000 136.377
62.65000 137.318
62.66000 139.325
62.67000 141.257
62.68000 142.053
62.69000 142.468
62.70000 142.982
62.71000 144.323
62.72000 145.848
62.73000 147.153
62.74000 142.973
62.75000 138.789
62.76000 136.520
62.77000 140.781
62.78000 145.584
62.79000 148.493
62.80000 147.043
62.81000 145.419
62.82000 144.428
62.83000 142.709
62.84000 141.473
62.85000 142.988
62.86000 147.282
62.87000 151.515
62.88000 149.904
62.89000 144.451
62.90000 139.138
62.91000 139.308
62.92000 141.784
62.93000 144.307
62.94000 147.423
62.95000 150.716
62.96000 153.405
62.97000 151.764
62.98000 149.267
62.99000 147.179
63.00000 151.014
63.01000 154.809
63.02000 157.923
63.03000 158.972
63.04000 159.878
63.05000 159.479
63.06000 156.395
63.07000 153.231
63.08000 151.394
63.09000 146.527
63.10000 143.101
63.11000 142.545
63.12000 144.534
63.13000 146.513
63.14000 147.853
63.15000 148.820
63.16000 149.753
63.17000 151.121
63.18000 152.573
63.19000 153.890
63.20000 153.808
63.21000 153.354
63.22000 152.544
63.23000 149.509
63.24000 146.087
63.25000 143.291
63.26000 143.394
63.27000 143.730
63.28000 143.869
63.29000 143.476
63.30000 143.053
63.31000 142.616
63.32000 142.155
63.33000 141.693
63.34000 141.439
63.35000 145.877
63.36000 148.932
63.37000 150.020
63.38000 149.569
63.39000 149.158
63.40000 150.388
63.41000 152.473
63.42000 154.468
63.43000 154.045
63.44000 152.855
63.45000 152.023
63.46000 154.378
63.47000 157.485
63.48000 159.722
63.49000 157.195
63.50000 153.946
63.51000 151.358
63.52000 153.193
63.53000 154.993
63.54000 156.190
63.55000 155.928
63.56000 155.601
63.57000 154.830
63.58000 153.336
63.59000 151.832
63.60000 151.054
63.61000 155.671
63.62000 158.759
63.63000 158.490
63.64000 155.893
63.65000 153.348
63.66000 152.343
63.67000 152.054
63.68000 151.780
63.69000 152.772
63.70000 154.051
63.71000 155.490
63.72000 158.155
63.73000 161.077
63.74000 163.342
63.75000 162.440
63.76000 161.121
63.77000 160.099
63.78000 157.860
63.79000 156.010
63.80000 154.892
63.81000 155.356
63.82000 155.874
63.83000 157.821
63.84000 161.842
63.85000 165.879
63.86000 167.165
63.87000 165.866
63.88000 164.517
63.89000 159.525
63.90000 152.289
63.91000 145.501
63.92000 148.899
63.93000 156.530
63.94000 163.666
63.95000 162.075
63.96000 158.410
63.97000 155.139
63.98000 154.487
63.99000 154.316
64.00000 154.389
64.01000 155.499
64.02000 156.726
64.03000 157.649
64.04000 158.958
64.05000 160.000
64.06000 161.541
64.07000 164.043
64.08000 166.569
64.09000 168.225
64.10000 168.763
64.11000 169.296
64.12000 164.998
64.13000 156.731
64.14000 148.591
64.15000 146.466
64.16000 147.642
64.17000 149.300
64.18000 159.661
64.19000 173.252
64.20000 185.790
64.21000 180.580
64.22000 171.952
64.23000 165.008
64.24000 167.844
64.25000 172.255
64.26000 175.562
64.27000 174.686
64.28000 173.406
64.29000 172.475
64.30000 166.396
64.31000 161.521
64.32000 159.808
64.33000 163.534
64.34000 167.354
64.35000 170.258
64.36000 172.123
64.37000 173.980
64.38000 173.867
64.39000 172.325
64.40000 170.912
64.41000 173.844
64.42000 178.903
64.43000 183.540
64.44000 181.987
64.45000 178.384
64.46000 175.110
64.47000 171.397
64.48000 168.030
64.49000 164.866
64.50000 162.742
64.51000 160.764
64.52000 159.158
64.53000 158.805
64.54000 158.555
64.55000 158.379
64.56000 164.452
64.57000 169.234
64.58000 174.054
64.59000 178.929
64.60000 183.805
64.61000 184.775
64.62000 181.852
64.63000 178.948
64.64000 178.509
64.65000 179.653
64.66000 180.709
64.67000 179.507
64.68000 177.320
64.69000 175.460
64.70000 177.596
64.71000 180.911
64.72000 183.876
64.73000 184.378
64.74000 184.398
64.75000 184.231
64.76000 183.223
64.77000 182.113
64.78000 181.917
64.79000 184.463
64.80000 187.194
64.81000 189.041
64.82000 189.410
64.83000 189.652
64.84000 190.501
64.85000 192.174
64.86000 193.851
64.87000 194.830
64.88000 195.199
64.89000 195.564
64.90000 198.529
64.91000 202.891
64.92000 206.878
64.93000 203.365
64.94000 196.924
64.95000 191.260
64.96000 193.561
64.97000 197.953
64.98000 201.810
64.99000 202.665
65.00000 202.959
65.01000 204.226
65.02000 209.381
65.03000 214.940
65.04000 217.181
65.05000 210.532
65.06000 203.396
65.07000 198.766
65.08000 211.667
65.09000 221.380
65.10000 225.471
65.11000 222.811
65.12000 220.152
65.13000 221.453
65.14000 225.813
65.15000 230.099
65.16000 234.036
65.17000 237.670
65.18000 241.577
65.19000 249.863
65.20000 259.676
65.21000 268.679
65.22000 270.605
65.23000 270.883
65.24000 271.122
65.25000 278.797
65.26000 286.242
65.27000 292.741
65.28000 295.885
65.29000 298.734
65.30000 302.062
65.31000 306.539
65.32000 311.065
65.33000 313.874
65.34000 341.053
65.35000 360.847
65.36000 371.136
65.37000 371.381
65.38000 371.705
65.39000 381.511
65.40000 397.806
65.41000 413.723
65.42000 417.956
65.43000 416.866
65.44000 416.275
65.45000 422.264
65.46000 430.298
65.47000 437.682
65.48000 440.167
65.49000 441.644
65.50000 442.888
65.51000 442.904
65.52000 442.785
65.53000 443.881
65.54000 448.817
65.55000 454.035
65.56000 459.312
65.57000 464.715
65.58000 470.122
65.59000 473.318
65.60000 467.788
65.61000 463.836
65.62000 467.724
65.63000 478.876
65.64000 490.003
65.65000 499.430
65.66000 507.822
65.67000 515.953
65.68000 541.357
65.69000 572.114
65.70000 604.812
65.71000 658.957
65.72000 719.037
65.73000 780.278
65.74000 849.116
65.75000 919.331
65.76000 977.183
65.77000 1042.837
65.78000 1097.574
65.79000 1146.662
65.80000 1179.834
65.81000 1212.047
65.82000 1244.852
65.83000 1278.786
65.84000 1312.747
65.85000 1331.773
65.86000 1335.501
65.87000 1338.038
65.88000 1336.768
65.89000 1332.391
65.90000 1327.829
65.91000 1314.835
65.92000 1297.272
65.93000 1280.409
65.94000 1228.196
65.95000 1167.235
65.96000 1104.432
65.97000 1024.358
65.98000 940.038
65.99000 855.778
66.00000 771.859
66.01000 687.995
66.02000 620.600
66.03000 558.349
66.04000 508.285
66.05000 464.622
66.06000 437.061
66.07000 410.277
66.08000 387.391
66.09000 371.127
66.10000 354.973
66.11000 346.436
66.12000 338.591
66.13000 333.270
66.14000 329.064
66.15000 325.663
66.16000 322.097
66.17000 313.105
66.18000 301.489
66.19000 290.452
66.20000 304.277
66.21000 324.564
66.22000 343.050
66.23000 347.051
66.24000 347.898
66.25000 349.478
66.26000 354.738
66.27000 360.507
66.28000 365.020
66.29000 386.058
66.30000 403.905
66.31000 420.196
66.32000 432.989
66.33000 445.651
66.34000 458.326
66.35000 471.020
66.36000 483.715
66.37000 490.538
66.38000 491.595
66.39000 492.687
66.40000 496.813
66.41000 502.884
66.42000 508.868
66.43000 512.702
66.44000 515.608
66.45000 518.337
66.46000 510.204
66.47000 499.897
66.48000 489.657
66.49000 479.890
66.50000 470.214
66.51000 461.364
66.52000 456.185
66.53000 451.445
66.54000 447.844
66.55000 421.090
66.56000 398.858
66.57000 381.690
66.58000 374.678
66.59000 367.952
66.60000 359.382
66.61000 348.338
66.62000 337.290
66.63000 332.488
66.64000 333.076
66.65000 333.629
66.66000 332.287
66.67000 329.864
66.68000 327.458
66.69000 325.385
66.70000 323.441
66.71000 321.639
66.72000 326.542
66.73000 332.521
66.74000 337.443
66.75000 335.946
66.76000 333.368
66.77000 332.703
66.78000 339.576
66.79000 347.220
66.80000 352.845
66.81000 347.094
66.82000 342.173
66.83000 340.756
66.84000 345.609
66.85000 350.586
66.86000 354.127
66.87000 355.966
66.88000 357.798
66.89000 359.875
66.90000 362.126
66.91000 364.274
66.92000 362.573
66.93000 358.913
66.94000 355.641
66.95000 358.470
66.96000 363.398
66.97000 367.901
66.98000 366.910
66.99000 364.908
67.00000 364.056
67.01000 369.332
67.02000 375.510
67.03000 380.267
67.04000 380.048
67.05000 379.400
67.06000 378.938
67.07000 382.209
67.08000 384.820
67.09000 387.201
67.10000 389.215
67.11000 391.224
67.12000 392.302
67.13000 392.408
67.14000 392.513
67.15000 398.473
67.16000 408.261
67.17000 417.632
67.18000 415.327
67.19000 407.721
67.20000 401.010
67.21000 405.895
67.22000 414.339
67.23000 421.932
67.24000 411.713
67.25000 399.592
67.26000 390.868
67.27000 398.101
67.28000 407.369
67.29000 413.974
67.30000 412.269
67.31000 409.966
67.32000 408.388
67.33000 415.346
67.34000 420.764
67.35000 424.373
67.36000 425.419
67.37000 426.450
67.38000 432.464
67.39000 443.031
67.40000 453.498
67.41000 456.371
67.42000 454.715
67.43000 453.000
67.44000 449.996
67.45000 446.470
67.46000 443.542
67.47000 447.110
67.48000 452.453
67.49000 457.175
67.50000 463.291
67.51000 468.788
67.52000 472.016
67.53000 465.817
67.54000 458.584
67.55000 456.383
67.56000 468.188
67.57000 480.818
67.58000 489.133
67.59000 483.453
67.60000 479.029
67.61000 479.363
67.62000 485.656
67.63000 491.954
67.64000 493.589
67.65000 491.468
67.66000 489.378
67.67000 490.688
67.68000 493.726
67.69000 496.873
67.70000 501.906
67.71000 507.621
67.72000 512.226
67.73000 506.602
67.74000 498.496
67.75000 491.466
67.76000 503.311
67.77000 515.912
67.78000 526.248
67.79000 528.226
67.80000 529.426
67.81000 532.161
67.82000 538.714
67.83000 545.446
67.84000 549.689
67.85000 550.346
67.86000 550.780
67.87000 550.735
67.88000 550.159
67.89000 549.587
67.90000 549.519
67.91000 549.812
67.92000 550.098
67.93000 554.592
67.94000 560.842
67.95000 566.656
67.96000 566.346
67.97000 564.057
67.98000 562.754
67.99000 569.259
68.00000 577.441
68.01000 584.391
68.02000 590.330
68.03000 595.199
68.04000 597.948
68.05000 593.739
68.06000 588.984
68.07000 589.169
68.08000 600.316
68.09000 611.863
68.10000 618.803
68.11000 627.059
68.12000 632.938
68.13000 636.118
68.14000 636.685
68.15000 637.255
68.16000 638.051
68.17000 638.989
68.18000 639.901
68.19000 647.856
68.20000 658.270
68.21000 668.109
68.22000 671.216
68.23000 672.386
68.24000 674.027
68.25000 678.903
68.26000 684.391
68.27000 688.950
68.28000 691.922
68.29000 694.225
68.30000 697.632
68.31000 704.273
68.32000 711.123
68.33000 718.341
68.34000 726.289
68.35000 734.256
68.36000 738.803
68.37000 735.740
68.38000 733.594
68.39000 741.980
68.40000 759.333
68.41000 776.576
68.42000 788.073
68.43000 796.332
68.44000 804.289
68.45000 818.773
68.46000 834.712
68.47000 849.973
68.48000 858.531
68.49000 865.373
68.50000 872.661
68.51000 882.618
68.52000 893.019
68.53000 901.450
68.54000 925.904
68.55000 947.137
68.56000 974.036
68.57000 1015.743
68.58000 1058.224
68.59000 1095.351
68.60000 1123.019
68.61000 1150.508
68.62000 1165.333
68.63000 1240.153
68.64000 1291.432
68.65000 1351.661
68.66000 1418.620
68.67000 1485.524
68.68000 1550.379
68.69000 1614.205
68.70000 1675.076
68.71000 1734.372
68.72000 1788.891
68.73000 1845.760
68.74000 1922.518
68.75000 2003.789
68.76000 2083.486
68.77000 2154.910
68.78000 2225.135
68.79000 2280.581
68.80000 2365.800
68.81000 2436.212
68.82000 2520.891
68.83000 2638.874
68.84000 2758.224
68.85000 2909.303
68.86000 3110.287
68.87000 3311.879
68.88000 3414.039
68.89000 4093.877
68.90000 4553.478
68.91000 5454.382
68.92000 6649.667
68.93000 7887.431
68.94000 10276.969
68.95000 13183.194
68.96000 15923.754
68.97000 20987.055
68.98000 26270.656
68.99000 31674.959
69.00000 37960.977
69.01000 44423.750
69.02000 50732.621
69.03000 56328.418
69.04000 61834.664
69.05000 66060.031
69.06000 69805.516
69.07000 72738.664
69.08000 74985.180
69.09000 75800.484
69.10000 76571.195
69.11000 77183.938
69.12000 77576.047
69.13000 77966.539
69.14000 78612.344
69.15000 79487.367
69.16000 80355.984
69.17000 80826.930
69.18000 81061.922
69.19000 81222.383
69.20000 79813.836
69.21000 77776.703
69.22000 75879.742
69.23000 71952.836
69.24000 67906.898
69.25000 63884.063
69.26000 60008.027
69.27000 56157.875
69.28000 52500.363
69.29000 49633.098
69.30000 46851.031
69.31000 44780.898
69.32000 42839.137
69.33000 41334.211
69.34000 40040.645
69.35000 39140.168
69.36000 38248.531
69.37000 37045.324
69.38000 35457.000
69.39000 33870.469
69.40000 31551.305
69.41000 28663.463
69.42000 25770.615
69.43000 22666.447
69.44000 19450.545
69.45000 16271.997
69.46000 13722.646
69.47000 11398.364
69.48000 9264.028
69.49000 7548.849
69.50000 6108.193
69.51000 4774.304
69.52000 4034.456
69.53000 3386.240
69.54000 2822.468
69.55000 2566.368
69.56000 2338.432
69.57000 2174.385
69.58000 2017.238
69.59000 1897.154
69.60000 1791.733
69.61000 1710.609
69.62000 1629.851
69.63000 1565.939
69.64000 1520.373
69.65000 1475.012
69.66000 1427.086
69.67000 1377.869
69.68000 1328.932
69.69000 1288.641
69.70000 1252.427
69.71000 1216.081
69.72000 1177.903
69.73000 1139.140
69.74000 1104.088
69.75000 1077.038
69.76000 1054.726
69.77000 1032.922
69.78000 1013.605
69.79000 994.621
69.80000 976.531
69.81000 961.339
69.82000 946.369
69.83000 935.977
69.84000 925.511
69.85000 917.625
69.86000 908.478
69.87000 897.475
69.88000 886.456
69.89000 879.834
69.90000 877.409
69.91000 875.003
69.92000 866.882
69.93000 855.395
69.94000 843.886
69.95000 831.866
69.96000 819.630
69.97000 807.246
69.98000 793.140
69.99000 778.545
70.00000 765.569
