20.00000 576.865
20.01000 572.626
20.02000 567.780
20.03000 563.458
20.04000 561.175
20.05000 559.097
20.06000 557.572
20.07000 556.603
20.08000 555.877
20.09000 555.427
20.10000 555.464
20.11000 555.512
20.12000 553.109
20.13000 547.836
20.14000 542.572
20.15000 546.118
20.16000 556.236
20.17000 566.212
20.18000 570.978
20.19000 573.120
20.20000 574.918
20.21000 571.403
20.22000 566.078
20.23000 561.220
20.24000 564.570
20.25000 569.198
20.26000 573.317
20.27000 574.757
20.28000 575.808
20.29000 575.475
20.30000 570.344
20.31000 564.804
20.32000 560.877
20.33000 571.084
20.34000 579.289
20.35000 579.419
20.36000 566.819
20.37000 554.062
20.38000 552.738
20.39000 563.190
20.40000 573.582
20.41000 570.185
20.42000 557.735
20.43000 545.772
20.44000 547.057
20.45000 554.300
20.46000 561.266
20.47000 564.722
20.48000 567.111
20.49000 569.256
20.50000 565.456
20.51000 561.087
20.52000 557.988
20.53000 560.790
20.54000 564.334
20.55000 567.293
20.56000 568.445
20.57000 569.468
20.58000 570.167
20.59000 562.534
20.60000 556.630
20.61000 555.201
20.62000 560.037
20.63000 564.911
20.64000 562.975
20.65000 554.887
20.66000 546.879
20.67000 544.070
20.68000 544.346
20.69000 544.465
20.70000 541.256
20.71000 536.711
20.72000 532.277
20.73000 529.043
20.74000 526.134
20.75000 523.567
20.76000 525.449
20.77000 527.750
20.78000 530.623
20.79000 535.842
20.80000 541.315
20.81000 546.012
20.82000 548.570
20.83000 551.005
20.84000 552.602
20.85000 552.947
20.86000 553.180
20.87000 553.128
20.88000 552.722
20.89000 552.302
20.90000 547.837
20.91000 540.149
20.92000 532.579
20.93000 531.310
20.94000 533.318
20.95000 535.315
20.96000 537.130
20.97000 538.879
20.98000 540.839
20.99000 544.711
21.00000 549.041
21.01000 552.790
21.02000 547.646
21.03000 542.103
21.04000 538.564
21.05000 542.347
21.06000 546.803
21.07000 547.794
21.08000 540.259
21.09000 532.332
21.10000 527.356
21.11000 531.127
21.12000 533.949
21.13000 536.561
21.14000 538.945
21.15000 541.330
21.16000 543.758
21.17000 546.216
21.18000 548.622
21.19000 550.672
21.20000 552.478
21.21000 553.927
21.22000 550.426
21.23000 545.341
21.24000 541.724
21.25000 549.574
21.26000 559.861
21.27000 568.581
21.28000 554.596
21.29000 540.315
21.30000 531.799
21.31000 542.017
21.32000 553.678
21.33000 557.699
21.34000 544.934
21.35000 531.570
21.36000 523.574
21.37000 528.901
21.38000 532.768
21.39000 534.074
21.40000 532.930
21.41000 531.883
21.42000 538.407
21.43000 549.673
21.44000 560.613
21.45000 557.608
21.46000 549.165
21.47000 541.487
21.48000 542.633
21.49000 546.293
21.50000 549.551
21.51000 550.089
21.52000 550.118
21.53000 550.142
21.54000 551.790
21.55000 553.306
21.56000 551.908
21.57000 542.061
21.58000 531.679
21.59000 525.436
21.60000 527.312
21.61000 529.402
21.62000 530.590
21.63000 526.311
21.64000 523.326
21.65000 526.649
21.66000 535.282
21.67000 543.763
21.68000 544.614
21.69000 541.209
21.70000 537.932
21.71000 542.363
21.72000 549.246
21.73000 554.734
21.74000 546.592
21.75000 535.000
21.76000 526.132
21.77000 533.380
21.78000 543.277
21.79000 551.280
21.80000 553.926
21.81000 555.646
21.82000 560.529
21.83000 573.592
21.84000 587.073
21.85000 598.086
21.86000 604.782
21.87000 611.399
21.88000 614.948
21.89000 596.915
21.90000 584.644
21.91000 583.726
21.92000 591.255
21.93000 598.598
21.94000 599.327
21.95000 596.766
21.96000 594.326
21.97000 601.077
21.98000 610.200
21.99000 619.024
22.00000 625.346
22.01000 631.107
22.02000 636.433
22.03000 639.500
22.04000 642.243
22.05000 644.403
22.06000 641.666
22.07000 639.145
22.08000 638.651
22.09000 642.841
22.10000 647.220
22.11000 647.329
22.12000 640.790
22.13000 634.174
22.14000 630.841
22.15000 639.089
22.16000 644.584
22.17000 648.430
22.18000 651.186
22.19000 653.770
22.20000 651.818
22.21000 647.850
22.22000 644.113
22.23000 633.996
22.24000 622.987
22.25000 612.191
22.26000 602.932
22.27000 593.978
22.28000 586.572
22.29000 586.258
22.30000 586.824
22.31000 587.257
22.32000 575.016
22.33000 564.663
22.34000 555.767
22.35000 549.878
22.36000 544.080
22.37000 542.102
22.38000 545.402
22.39000 548.734
22.40000 552.748
22.41000 557.365
22.42000 561.907
22.43000 562.051
22.44000 559.611
22.45000 557.020
22.46000 551.314
22.47000 544.372
22.48000 537.916
22.49000 532.667
22.50000 528.217
22.51000 525.178
22.52000 530.998
22.53000 538.362
22.54000 542.203
22.55000 531.743
22.56000 519.763
22.57000 510.874
22.58000 520.270
22.59000 528.372
22.60000 532.658
22.61000 529.921
22.62000 527.032
22.63000 523.129
22.64000 517.989
22.65000 512.857
22.66000 515.290
22.67000 523.627
22.68000 531.779
22.69000 532.369
22.70000 529.000
22.71000 525.888
22.72000 527.014
22.73000 529.642
22.74000 532.051
22.75000 535.088
22.76000 537.926
22.77000 539.055
22.78000 530.784
22.79000 521.081
22.80000 511.501
22.81000 502.367
22.82000 493.273
22.83000 486.748
22.84000 495.264
22.85000 502.293
22.86000 507.530
22.87000 509.830
22.88000 512.088
22.89000 511.803
22.90000 508.779
22.91000 505.769
22.92000 509.461
22.93000 517.728
22.94000 525.806
22.95000 528.225
22.96000 528.000
22.97000 527.255
22.98000 519.456
22.99000 509.429
23.00000 500.375
23.01000 498.953
23.02000 499.109
23.03000 500.035
23.04000 504.691
23.05000 509.841
23.06000 515.981
23.07000 525.299
23.08000 534.857
23.09000 541.470
23.10000 528.015
23.11000 517.372
23.12000 509.544
23.13000 505.818
23.14000 502.129
23.15000 503.553
23.16000 509.805
23.17000 516.004
23.18000 516.809
23.19000 514.322
23.20000 512.120
23.21000 516.443
23.22000 523.486
23.23000 529.572
23.24000 524.803
23.25000 516.982
23.26000 510.038
23.27000 509.882
23.28000 510.834
23.29000 512.337
23.30000 516.204
23.31000 520.340
23.32000 519.450
23.33000 504.164
23.34000 487.986
23.35000 477.225
23.36000 494.220
23.37000 507.315
23.38000 513.907
23.39000 512.099
23.40000 510.267
23.41000 512.833
23.42000 519.052
23.43000 525.189
23.44000 525.889
23.45000 523.657
23.46000 521.648
23.47000 523.697
23.48000 527.257
23.49000 529.893
23.50000 523.658
23.51000 515.205
23.52000 507.839
23.53000 505.735
23.54000 504.665
23.55000 504.892
23.56000 510.050
23.57000 515.687
23.58000 518.400
23.59000 513.637
23.60000 508.501
23.61000 505.227
23.62000 503.086
23.63000 501.543
23.64000 499.445
23.65000 496.714
23.66000 493.982
23.67000 491.145
23.68000 488.232
23.69000 485.375
23.70000 490.163
23.71000 498.393
23.72000 506.383
23.73000 510.812
23.74000 514.058
23.75000 517.422
23.76000 521.754
23.77000 526.300
23.78000 530.183
23.79000 519.049
23.80000 507.886
23.81000 500.700
23.82000 506.955
23.83000 514.310
23.84000 518.025
23.85000 513.427
23.86000 508.505
23.87000 505.510
23.88000 502.993
23.89000 501.199
23.90000 503.012
23.91000 508.437
23.92000 513.823
23.93000 515.639
23.94000 515.128
23.95000 514.631
23.96000 511.710
23.97000 507.912
23.98000 504.555
23.99000 506.593
24.00000 510.229
24.01000 513.503
24.02000 514.203
24.03000 514.399
24.04000 514.564
24.05000 519.330
24.06000 523.753
24.07000 526.646
24.08000 524.930
24.09000 522.901
24.10000 521.991
24.11000 523.361
24.12000 524.797
24.13000 525.628
24.14000 528.862
24.15000 531.135
24.16000 530.087
24.17000 526.120
24.18000 522.156
24.19000 518.313
24.20000 514.540
24.21000 510.897
24.22000 514.886
24.23000 521.462
24.24000 527.159
24.25000 523.796
24.26000 518.045
24.27000 513.310
24.28000 514.861
24.29000 517.492
24.30000 519.638
24.31000 516.728
24.32000 513.915
24.33000 510.339
24.34000 504.708
24.35000 498.964
24.36000 494.722
24.37000 493.212
24.38000 491.759
24.39000 490.964
24.40000 486.531
24.41000 483.483
24.42000 481.631
24.43000 480.705
24.44000 479.913
24.45000 484.435
24.46000 491.705
24.47000 498.656
24.48000 502.364
24.49000 504.758
24.50000 506.264
24.51000 499.949
24.52000 491.806
24.53000 485.666
24.54000 490.397
24.55000 496.760
24.56000 501.819
24.57000 485.356
24.58000 470.559
24.59000 461.242
24.60000 465.077
24.61000 469.489
24.62000 475.134
24.63000 482.778
24.64000 490.450
24.65000 494.400
24.66000 493.389
24.67000 492.666
24.68000 487.016
24.69000 477.979
24.70000 469.342
24.71000 472.347
24.72000 480.724
24.73000 488.646
24.74000 486.986
24.75000 482.713
24.76000 480.151
24.77000 490.546
24.78000 503.621
24.79000 512.860
24.80000 503.766
24.81000 492.283
24.82000 483.406
24.83000 483.663
24.84000 484.402
24.85000 484.104
24.86000 481.583
24.87000 478.986
24.88000 477.536
24.89000 477.736
24.90000 477.948
24.91000 480.120
24.92000 484.114
24.93000 488.026
24.94000 486.242
24.95000 480.981
24.96000 476.134
24.97000 480.565
24.98000 488.820
24.99000 496.532
25.00000 492.135
25.01000 485.094
25.02000 479.305
25.03000 481.744
25.04000 485.682
25.05000 488.661
25.06000 487.591
25.07000 486.067
25.08000 484.923
25.09000 489.104
25.10000 492.622
25.11000 493.184
25.12000 488.091
25.13000 482.859
25.14000 475.954
25.15000 466.917
25.16000 457.885
25.17000 456.258
25.18000 460.684
25.19000 465.077
25.20000 467.963
25.21000 470.030
25.22000 471.737
25.23000 467.052
25.24000 460.014
25.25000 453.527
25.26000 458.713
25.27000 465.933
25.28000 471.876
25.29000 470.472
25.30000 467.895
25.31000 466.405
25.32000 468.992
25.33000 471.969
25.34000 474.129
25.35000 472.795
25.36000 471.639
25.37000 471.795
25.38000 474.187
25.39000 476.617
25.40000 476.824
25.41000 474.531
25.42000 472.244
25.43000 476.051
25.44000 484.203
25.45000 491.962
25.46000 486.707
25.47000 475.134
25.48000 464.185
25.49000 462.250
25.50000 463.276
25.51000 464.208
25.52000 466.362
25.53000 468.500
25.54000 470.674
25.55000 473.031
25.56000 475.414
25.57000 478.346
25.58000 483.115
25.59000 488.031
25.60000 491.476
25.61000 486.061
25.62000 481.711
25.63000 476.168
25.64000 468.815
25.65000 461.443
25.66000 458.019
25.67000 458.489
25.68000 458.957
25.69000 457.286
25.70000 454.286
25.71000 451.599
25.72000 456.706
25.73000 465.192
25.74000 472.957
25.75000 472.073
25.76000 468.657
25.77000 465.606
25.78000 462.805
25.79000 460.407
25.80000 460.008
25.81000 468.533
25.82000 478.128
25.83000 482.284
25.84000 470.248
25.85000 457.137
25.86000 448.296
25.87000 449.296
25.88000 450.248
25.89000 451.314
25.90000 452.534
25.91000 453.756
25.92000 456.195
25.93000 459.688
25.94000 463.141
25.95000 463.130
25.96000 461.183
25.97000 459.418
25.98000 461.223
25.99000 464.409
26.00000 466.532
26.01000 457.883
26.02000 446.430
26.03000 436.385
26.04000 442.959
26.05000 451.021
26.06000 457.769
26.07000 459.324
26.08000 460.345
26.09000 461.265
26.10000 461.915
26.11000 462.552
26.12000 462.963
26.13000 458.069
26.14000 454.412
26.15000 448.181
26.16000 438.888
26.17000 429.640
26.18000 432.118
26.19000 443.571
26.20000 454.829
26.21000 461.716
26.22000 466.216
26.23000 470.498
26.24000 471.327
26.25000 470.964
26.26000 469.609
26.27000 459.683
26.28000 447.777
26.29000 437.539
26.30000 443.105
26.31000 449.794
26.32000 455.342
26.33000 456.876
26.34000 458.062
26.35000 462.014
26.36000 472.528
26.37000 483.322
26.38000 489.996
26.39000 478.614
26.40000 470.266
26.41000 464.524
26.42000 461.510
26.43000 458.527
26.44000 458.888
26.45000 461.519
26.46000 464.087
26.47000 465.729
26.48000 466.896
26.49000 467.661
26.50000 463.180
26.51000 457.084
26.52000 451.434
26.53000 449.113
26.54000 447.472
26.55000 446.091
26.56000 447.227
26.57000 448.444
26.58000 449.986
26.59000 452.543
26.60000 455.174
26.61000 455.004
26.62000 448.901
26.63000 442.606
26.64000 438.900
26.65000 439.188
26.66000 439.414
26.67000 442.502
26.68000 448.217
26.69000 453.914
26.70000 458.462
26.71000 462.315
26.72000 466.047
26.73000 460.461
26.74000 451.591
26.75000 443.029
26.76000 437.836
26.77000 433.567
26.78000 430.440
26.79000 434.706
26.80000 440.300
26.81000 444.902
26.82000 442.000
26.83000 438.935
26.84000 438.124
26.85000 443.608
26.86000 449.466
26.87000 452.938
26.88000 451.897
26.89000 450.750
26.90000 450.110
26.91000 453.442
26.92000 455.752
26.93000 456.009
26.94000 454.607
26.95000 453.226
26.96000 452.811
26.97000 452.914
26.98000 453.013
26.99000 451.406
27.00000 449.324
27.01000 447.766
27.02000 451.056
27.03000 455.527
27.04000 458.691
27.05000 454.450
27.06000 449.045
27.07000 444.709
27.08000 453.395
27.09000 461.416
27.10000 465.987
27.11000 461.952
27.12000 457.509
27.13000 456.307
27.14000 460.567
27.15000 464.914
27.16000 467.201
27.17000 442.322
27.18000 425.557
27.19000 426.420
27.20000 439.897
27.21000 453.098
27.22000 457.472
27.23000 457.613
27.24000 457.747
27.25000 452.627
27.26000 446.329
27.27000 440.254
27.28000 435.958
27.29000 432.045
27.30000 429.174
27.31000 431.490
27.32000 434.515
27.33000 436.877
27.34000 434.436
27.35000 432.187
27.36000 431.553
27.37000 434.514
27.38000 437.607
27.39000 439.846
27.40000 440.804
27.41000 441.750
27.42000 438.633
27.43000 431.562
27.44000 424.625
27.45000 428.545
27.46000 439.364
27.47000 449.692
27.48000 448.070
27.49000 441.332
27.50000 435.011
27.51000 434.813
27.52000 436.246
27.53000 437.385
27.54000 436.504
27.55000 435.238
27.56000 434.305
27.57000 434.842
27.58000 435.552
27.59000 436.090
27.60000 445.254
27.61000 452.890
27.62000 454.398
27.63000 443.717
27.64000 432.702
27.65000 428.229
27.66000 432.448
27.67000 436.705
27.68000 438.301
27.69000 437.621
27.70000 436.962
27.71000 437.395
27.72000 438.445
27.73000 439.540
27.74000 441.506
27.75000 443.805
27.76000 445.934
27.77000 443.917
27.78000 441.144
27.79000 439.150
27.80000 441.833
27.81000 445.297
27.82000 446.124
27.83000 436.651
27.84000 426.139
27.85000 418.421
27.86000 419.848
27.87000 421.324
27.88000 423.629
27.89000 427.407
27.90000 431.212
27.91000 431.804
27.92000 428.622
27.93000 425.443
27.94000 426.543
27.95000 430.846
27.96000 435.072
27.97000 436.482
27.98000 436.469
27.99000 436.345
28.00000 434.487
28.01000 432.037
28.02000 429.801
28.03000 426.968
28.04000 424.333
28.05000 422.591
28.06000 425.554
28.07000 429.203
28.08000 432.551
28.09000 434.855
28.10000 437.071
28.11000 438.643
28.12000 443.294
28.13000 446.929
28.14000 445.355
28.15000 435.553
28.16000 425.649
28.17000 422.907
28.18000 427.557
28.19000 432.181
28.20000 440.318
28.21000 450.670
28.22000 460.580
28.23000 458.410
28.24000 450.801
28.25000 443.110
28.26000 434.381
28.27000 425.336
28.28000 417.213
28.29000 424.606
28.30000 433.810
28.31000 440.741
28.32000 437.100
28.33000 432.125
28.34000 429.300
28.35000 433.125
28.36000 437.423
28.37000 440.359
28.38000 436.880
28.39000 434.126
28.40000 431.792
28.41000 430.047
28.42000 428.306
28.43000 426.392
28.44000 424.321
28.45000 422.271
28.46000 420.130
28.47000 417.982
28.48000 415.924
28.49000 415.775
28.50000 416.394
28.51000 417.608
28.52000 425.206
28.53000 434.532
28.54000 442.763
28.55000 433.744
28.56000 423.327
28.57000 416.505
28.58000 424.489
28.59000 434.078
28.60000 441.042
28.61000 440.760
28.62000 440.057
28.63000 439.597
28.64000 424.822
28.65000 413.713
28.66000 410.798
28.67000 418.053
28.68000 425.321
28.69000 427.045
28.70000 424.347
28.71000 421.689
28.72000 416.816
28.73000 410.949
28.74000 405.471
28.75000 406.586
28.76000 410.069
28.77000 413.180
28.78000 412.891
28.79000 411.785
28.80000 410.828
28.81000 406.131
28.82000 401.643
28.83000 400.836
28.84000 413.496
28.85000 427.395
28.86000 433.855
28.87000 421.983
28.88000 409.263
28.89000 401.273
28.90000 400.197
28.91000 399.495
28.92000 401.274
28.93000 405.766
28.94000 410.222
28.95000 409.369
28.96000 404.767
28.97000 400.263
28.98000 399.590
28.99000 400.687
29.00000 401.810
29.01000 403.309
29.02000 404.928
29.03000 406.250
29.04000 405.241
29.05000 403.735
29.06000 402.458
29.07000 409.792
29.08000 416.911
29.09000 421.289
29.10000 416.740
29.11000 411.501
29.12000 408.754
29.13000 411.488
29.14000 414.418
29.15000 416.173
29.16000 411.594
29.17000 408.302
29.18000 407.137
29.19000 408.010
29.20000 408.873
29.21000 408.979
29.22000 408.611
29.23000 408.253
29.24000 402.152
29.25000 394.053
29.26000 386.978
29.27000 391.738
29.28000 399.875
29.29000 407.996
29.30000 416.001
29.31000 423.985
29.32000 430.604
29.33000 419.040
29.34000 407.742
29.35000 400.305
29.36000 404.074
29.37000 408.557
29.38000 413.348
29.39000 418.742
29.40000 424.153
29.41000 427.228
29.42000 423.228
29.43000 420.420
29.44000 417.735
29.45000 415.155
29.46000 412.504
29.47000 406.315
29.48000 398.150
29.49000 390.290
29.50000 391.768
29.51000 396.465
29.52000 401.298
29.53000 407.462
29.54000 413.963
29.55000 419.573
29.56000 419.900
29.57000 419.358
29.58000 418.919
29.59000 409.948
29.60000 401.958
29.61000 397.347
29.62000 401.492
29.63000 406.086
29.64000 410.217
29.65000 413.535
29.66000 416.838
29.67000 418.612
29.68000 420.736
29.69000 422.171
29.70000 420.415
29.71000 416.280
29.72000 412.268
29.73000 412.616
29.74000 415.138
29.75000 417.542
29.76000 415.849
29.77000 413.000
29.78000 410.828
29.79000 414.326
29.80000 419.100
29.81000 422.932
29.82000 421.861
29.83000 420.087
29.84000 418.690
29.85000 415.409
29.86000 412.653
29.87000 410.796
29.88000 411.019
29.89000 411.325
29.90000 412.728
29.91000 415.840
29.92000 418.972
29.93000 420.552
29.94000 429.137
29.95000 434.856
29.96000 438.496
29.97000 440.762
29.98000 443.034
29.99000 445.461
30.00000 447.956
30.01000 450.307
30.02000 441.220
30.03000 429.756
30.04000 419.666
30.05000 419.506
30.06000 421.319
30.07000 423.953
30.08000 430.352
30.09000 437.219
30.10000 442.477
30.11000 436.598
30.12000 431.347
30.13000 428.480
30.14000 430.543
30.15000 432.756
30.16000 431.808
30.17000 426.486
30.18000 421.138
30.19000 421.643
30.20000 427.366
30.21000 433.003
30.22000 433.445
30.23000 430.832
30.24000 428.285
30.25000 427.126
30.26000 426.518
30.27000 425.952
30.28000 421.444
30.29000 416.420
30.30000 412.406
30.31000 414.750
30.32000 418.203
30.33000 421.407
30.34000 423.598
30.35000 425.681
30.36000 427.228
30.37000 427.249
30.38000 427.198
30.39000 426.902
30.40000 426.151
30.41000 425.390
30.42000 425.309
30.43000 426.060
30.44000 426.812
30.45000 426.328
30.46000 424.879
30.47000 423.378
30.48000 419.744
30.49000 414.993
30.50000 410.493
30.51000 410.157
30.52000 411.298
30.53000 412.344
30.54000 418.144
30.55000 424.318
30.56000 428.326
30.57000 420.392
30.58000 410.636
30.59000 403.367
30.60000 405.084
30.61000 407.613
30.62000 409.428
30.63000 400.069
30.64000 392.526
30.65000 392.230
30.66000 403.841
30.67000 415.625
30.68000 420.569
30.69000 418.136
30.70000 415.711
30.71000 418.938
30.72000 426.028
30.73000 433.029
30.74000 437.327
30.75000 440.360
30.76000 443.198
30.77000 443.375
30.78000 442.709
30.79000 442.108
30.80000 439.834
30.81000 437.526
30.82000 437.112
30.83000 445.884
30.84000 455.875
30.85000 464.399
30.86000 468.206
30.87000 471.656
30.88000 474.044
30.89000 462.106
30.90000 452.750
30.91000 447.566
30.92000 448.476
30.93000 449.439
30.94000 457.832
30.95000 473.253
30.96000 488.545
30.97000 491.812
30.98000 487.705
30.99000 484.274
31.00000 496.424
31.01000 515.084
31.02000 532.663
31.03000 537.961
31.04000 539.797
31.05000 541.428
31.06000 564.125
31.07000 587.181
31.08000 607.549
31.09000 616.384
31.10000 623.901
31.11000 639.498
31.12000 678.274
31.13000 718.491
31.14000 745.260
31.15000 819.525
31.16000 875.373
31.17000 930.801
31.18000 985.687
31.19000 1040.606
31.20000 1113.161
31.21000 1200.392
31.22000 1286.474
31.23000 1381.179
31.24000 1477.963
31.25000 1575.109
31.26000 1678.872
31.27000 1785.104
31.28000 1892.038
31.29000 2005.713
31.30000 2121.078
31.31000 2221.633
31.32000 2343.722
31.33000 2451.056
31.34000 2556.320
31.35000 2653.701
31.36000 2750.314
31.37000 2837.082
31.38000 2898.638
31.39000 2958.932
31.40000 2997.387
31.41000 2987.852
31.42000 2980.301
31.43000 2961.023
31.44000 2928.352
31.45000 2895.563
31.46000 2844.705
31.47000 2780.552
31.48000 2717.626
31.49000 2650.175
31.50000 2583.044
31.51000 2513.040
31.52000 2400.438
31.53000 2273.651
31.54000 2146.166
31.55000 2012.930
31.56000 1878.418
31.57000 1763.518
31.58000 1638.224
31.59000 1531.433
31.60000 1427.788
31.61000 1334.797
31.62000 1242.680
31.63000 1155.739
31.64000 1080.636
31.65000 1005.996
31.66000 960.550
31.67000 882.142
31.68000 825.868
31.69000 777.638
31.70000 737.474
31.71000 697.372
31.72000 662.917
31.73000 632.148
31.74000 602.186
31.75000 588.085
31.76000 581.290
31.77000 573.352
31.78000 551.383
31.79000 525.249
31.80000 501.385
31.81000 493.686
31.82000 489.153
31.83000 485.366
31.84000 472.753
31.85000 461.386
31.86000 452.092
31.87000 449.053
31.88000 446.440
31.89000 445.662
31.90000 448.631
31.91000 451.710
31.92000 453.492
31.93000 442.145
31.94000 434.138
31.95000 429.355
31.96000 427.411
31.97000 425.454
31.98000 422.726
31.99000 419.549
32.00000 416.482
32.01000 415.673
32.02000 415.745
32.03000 415.954
32.04000 417.567
32.05000 419.550
32.06000 420.827
32.07000 417.724
32.08000 413.867
32.09000 410.720
32.10000 405.976
32.11000 401.959
32.12000 400.111
32.13000 404.105
32.14000 408.423
32.15000 414.101
32.16000 422.258
32.17000 430.467
32.18000 434.963
32.19000 423.323
32.20000 415.307
32.21000 410.761
32.22000 408.911
32.23000 407.081
32.24000 406.066
32.25000 405.473
32.26000 404.906
32.27000 400.562
32.28000 395.286
32.29000 390.750
32.30000 392.736
32.31000 396.250
32.32000 399.434
32.33000 400.824
32.34000 401.945
32.35000 402.837
32.36000 395.819
32.37000 389.600
32.38000 385.292
32.39000 385.582
32.40000 386.074
32.41000 386.315
32.42000 386.150
32.43000 385.979
32.44000 385.891
32.45000 379.617
32.46000 375.449
32.47000 378.288
32.48000 385.951
32.49000 393.209
32.50000 388.617
32.51000 378.549
32.52000 369.025
32.53000 376.259
32.54000 387.724
32.55000 396.800
32.56000 387.756
32.57000 374.957
32.58000 365.737
32.59000 373.650
32.60000 383.800
32.61000 391.650
32.62000 378.650
32.63000 367.108
32.64000 362.240
32.65000 371.708
32.66000 381.657
32.67000 386.780
32.68000 384.944
32.69000 383.052
32.70000 381.466
32.71000 380.164
32.72000 378.896
32.73000 379.968
32.74000 382.474
32.75000 384.708
32.76000 380.876
32.77000 374.539
32.78000 368.617
32.79000 373.338
32.80000 380.308
32.81000 385.622
32.82000 380.025
32.83000 372.437
32.84000 366.290
32.85000 366.245
32.86000 366.886
32.87000 367.366
32.88000 371.102
32.89000 374.175
32.90000 375.129
32.91000 372.022
32.92000 368.816
32.93000 371.582
32.94000 381.977
32.95000 392.387
32.96000 394.276
32.97000 389.188
32.98000 384.207
32.99000 384.170
33.00000 386.828
33.01000 389.287
33.02000 388.203
33.03000 385.813
33.04000 383.610
33.05000 384.834
33.06000 386.689
33.07000 388.066
33.08000 386.689
33.09000 384.871
33.10000 382.861
33.11000 380.127
33.12000 377.323
33.13000 375.286
33.14000 376.720
33.15000 377.952
33.16000 377.331
33.17000 373.541
33.18000 369.698
33.19000 364.877
33.20000 358.954
33.21000 353.051
33.22000 346.989
33.23000 340.865
33.24000 334.974
33.25000 336.850
33.26000 342.501
33.27000 348.010
33.28000 351.449
33.29000 354.207
33.30000 356.711
33.31000 354.822
33.32000 352.304
33.33000 350.026
33.34000 348.964
33.35000 348.070
33.36000 348.797
33.37000 354.939
33.38000 361.518
33.39000 366.130
33.40000 355.149
33.41000 346.392
33.42000 342.616
33.43000 346.415
33.44000 350.292
33.45000 350.381
33.46000 346.726
33.47000 343.095
33.48000 342.368
33.49000 343.495
33.50000 344.627
33.51000 345.873
33.52000 347.168
33.53000 348.675
33.54000 352.749
33.55000 357.574
33.56000 361.884
33.57000 347.846
33.58000 332.529
33.59000 322.330
33.60000 335.011
33.61000 350.443
33.62000 359.889
33.63000 351.488
33.64000 341.899
33.65000 335.428
33.66000 334.007
33.67000 333.056
33.68000 333.932
33.69000 337.270
33.70000 340.619
33.71000 342.329
33.72000 342.615
33.73000 342.898
33.74000 344.213
33.75000 346.075
33.76000 347.704
33.77000 344.765
33.78000 340.053
33.79000 335.710
33.80000 335.105
33.81000 335.475
33.82000 335.799
33.83000 337.095
33.84000 338.349
33.85000 340.173
33.86000 344.252
33.87000 348.563
33.88000 350.793
33.89000 347.482
33.90000 343.873
33.91000 341.536
33.92000 347.424
33.93000 351.853
33.94000 350.581
33.95000 342.513
33.96000 334.459
33.97000 333.020
33.98000 336.652
33.99000 340.222
34.00000 339.615
34.01000 336.962
34.02000 334.995
34.03000 343.905
34.04000 356.580
34.05000 367.369
34.06000 361.808
34.07000 352.467
34.08000 344.431
34.09000 346.875
34.10000 350.259
34.11000 352.182
34.12000 348.960
34.13000 345.288
34.14000 342.195
34.15000 340.475
34.16000 338.814
34.17000 337.786
34.18000 339.124
34.19000 340.108
34.20000 345.267
34.21000 354.805
34.22000 364.297
34.23000 368.545
34.24000 369.231
34.25000 369.900
34.26000 369.893
34.27000 369.591
34.28000 368.945
34.29000 363.806
34.30000 357.281
34.31000 351.220
34.32000 348.630
34.33000 346.749
34.34000 345.165
34.35000 344.258
34.36000 343.573
34.37000 343.812
34.38000 346.948
34.39000 350.295
34.40000 352.532
34.41000 352.416
34.42000 352.224
34.43000 352.110
34.44000 360.155
34.45000 365.873
34.46000 367.660
34.47000 365.830
34.48000 364.062
34.49000 366.340
34.50000 371.064
34.51000 375.638
34.52000 371.279
34.53000 363.708
34.54000 356.946
34.55000 359.028
34.56000 363.540
34.57000 367.220
34.58000 365.501
34.59000 362.810
34.60000 360.596
34.61000 360.789
34.62000 361.166
34.63000 360.525
34.64000 357.031
34.65000 353.368
34.66000 348.319
34.67000 340.646
34.68000 332.911
34.69000 328.592
34.70000 326.617
34.71000 325.262
34.72000 326.253
34.73000 329.146
34.74000 332.092
34.75000 337.395
34.76000 343.968
34.77000 350.274
34.78000 350.305
34.79000 348.197
34.80000 346.093
34.81000 344.019
34.82000 341.954
34.83000 339.661
34.84000 336.075
34.85000 332.285
34.86000 329.245
34.87000 336.661
34.88000 343.463
34.89000 344.433
34.90000 330.827
34.91000 316.527
34.92000 309.706
34.93000 315.507
34.94000 321.511
34.95000 324.672
34.96000 321.629
34.97000 319.582
34.98000 320.569
34.99000 323.730
35.00000 327.037
35.01000 335.015
35.02000 345.237
35.03000 354.943
35.04000 350.395
35.05000 341.921
35.06000 333.631
35.07000 326.806
35.08000 320.299
35.09000 315.323
35.10000 317.997
35.11000 321.721
35.12000 324.628
35.13000 321.710
35.14000 319.015
35.15000 317.004
35.16000 316.518
35.17000 316.089
35.18000 318.194
35.19000 324.105
35.20000 330.053
35.21000 332.542
35.22000 331.661
35.23000 330.730
35.24000 325.636
35.25000 317.894
35.26000 310.344
35.27000 307.493
35.28000 306.658
35.29000 305.874
35.30000 307.397
35.31000 309.394
35.32000 311.142
35.33000 311.164
35.34000 310.857
35.35000 309.996
35.36000 306.689
35.37000 303.092
35.38000 300.365
35.39000 304.047
35.40000 307.267
35.41000 308.721
35.42000 306.657
35.43000 304.495
35.44000 303.399
35.45000 303.722
35.46000 304.052
35.47000 307.735
35.48000 314.276
35.49000 320.721
35.50000 322.104
35.51000 320.617
35.52000 319.086
35.53000 316.686
35.54000 313.954
35.55000 311.424
35.56000 313.034
35.57000 315.441
35.58000 317.816
35.59000 319.995
35.60000 322.143
35.61000 323.884
35.62000 324.040
35.63000 324.035
35.64000 324.032
35.65000 317.208
35.66000 311.654
35.67000 308.133
35.68000 308.224
35.69000 308.385
35.70000 306.995
35.71000 303.781
35.72000 300.573
35.73000 300.504
35.74000 302.797
35.75000 304.917
35.76000 300.659
35.77000 293.179
35.78000 286.201
35.79000 287.024
35.80000 290.515
35.81000 293.701
35.82000 302.616
35.83000 311.688
35.84000 319.124
35.85000 317.913
35.86000 315.441
35.87000 313.173
35.88000 311.621
35.89000 310.130
35.90000 309.072
35.91000 315.095
35.92000 319.902
35.93000 318.532
35.94000 307.392
35.95000 296.131
35.96000 293.022
35.97000 298.342
35.98000 303.633
35.99000 303.053
36.00000 298.592
36.01000 294.417
36.02000 298.070
36.03000 305.256
36.04000 311.714
36.05000 308.858
36.06000 303.162
36.07000 298.046
36.08000 294.679
36.09000 292.040
36.10000 290.265
36.11000 292.512
36.12000 295.268
36.13000 297.068
36.14000 295.908
36.15000 294.537
36.16000 293.600
36.17000 303.732
36.18000 311.577
36.19000 313.382
36.20000 306.702
36.21000 299.966
36.22000 297.711
36.23000 299.519
36.24000 301.310
36.25000 303.513
36.26000 305.911
36.27000 308.190
36.28000 307.914
36.29000 306.610
36.30000 304.680
36.31000 296.028
36.32000 285.552
36.33000 276.304
36.34000 286.182
36.35000 297.635
36.36000 306.940
36.37000 307.382
36.38000 306.862
36.39000 305.466
36.40000 301.652
36.41000 297.697
36.42000 295.099
36.43000 303.244
36.44000 309.418
36.45000 310.961
36.46000 306.745
36.47000 302.514
36.48000 298.820
36.49000 295.555
36.50000 292.339
36.51000 291.295
36.52000 291.403
36.53000 291.354
36.54000 288.647
36.55000 284.985
36.56000 282.552
36.57000 291.356
36.58000 302.868
36.59000 312.838
36.60000 308.486
36.61000 302.892
36.62000 298.022
36.63000 295.809
36.64000 293.841
36.65000 292.912
36.66000 294.548
36.67000 296.304
36.68000 297.407
36.69000 300.988
36.70000 303.606
36.71000 305.084
36.72000 305.314
36.73000 305.557
36.74000 307.556
36.75000 310.799
36.76000 313.973
36.77000 311.008
36.78000 305.365
36.79000 300.014
36.80000 298.743
36.81000 298.782
36.82000 299.234
36.83000 302.938
36.84000 307.336
36.85000 311.066
36.86000 307.764
36.87000 304.199
36.88000 299.824
36.89000 292.807
36.90000 285.585
36.91000 282.919
36.92000 290.294
36.93000 298.029
36.94000 302.665
36.95000 304.372
36.96000 305.565
36.97000 305.238
36.98000 303.450
36.99000 301.681
37.00000 301.318
37.01000 301.838
37.02000 302.344
37.03000 307.278
37.04000 313.746
37.05000 319.177
37.06000 312.585
37.07000 302.556
37.08000 294.313
37.09000 298.211
37.10000 304.391
37.11000 309.518
37.12000 307.235
37.13000 304.637
37.14000 302.264
37.15000 300.545
37.16000 298.868
37.17000 296.593
37.18000 293.143
37.19000 289.662
37.20000 287.681
37.21000 293.289
37.22000 297.219
37.23000 300.140
37.24000 302.209
37.25000 304.193
37.26000 301.891
37.27000 297.190
37.28000 292.664
37.29000 293.733
37.30000 296.724
37.31000 299.209
37.32000 296.737
37.33000 293.006
37.34000 289.630
37.35000 288.368
37.36000 287.454
37.37000 286.714
37.38000 285.839
37.39000 285.115
37.40000 285.068
37.41000 286.774
37.42000 288.571
37.43000 289.521
37.44000 288.985
37.45000 288.420
37.46000 288.117
37.47000 282.659
37.48000 278.960
37.49000 282.121
37.50000 290.403
37.51000 298.472
37.52000 298.948
37.53000 295.634
37.54000 292.475
37.55000 298.729
37.56000 307.473
37.57000 315.071
37.58000 313.048
37.59000 308.857
37.60000 305.119
37.61000 303.738
37.62000 302.696
37.63000 301.875
37.64000 303.472
37.65000 304.915
37.66000 305.525
37.67000 304.203
37.68000 302.803
37.69000 299.502
37.70000 293.231
37.71000 286.925
37.72000 283.742
37.73000 294.132
37.74000 301.017
37.75000 301.600
37.76000 298.008
37.77000 294.530
37.78000 294.096
37.79000 295.019
37.80000 295.888
37.81000 292.414
37.82000 288.036
37.83000 284.439
37.84000 286.487
37.85000 289.659
37.86000 291.990
37.87000 290.451
37.88000 288.430
37.89000 286.882
37.90000 286.739
37.91000 286.704
37.92000 286.682
37.93000 286.689
37.94000 286.696
37.95000 286.152
37.96000 284.842
37.97000 283.528
37.98000 282.403
37.99000 281.449
38.00000 280.517
38.01000 280.967
38.02000 282.230
38.03000 283.471
38.04000 284.254
38.05000 284.855
38.06000 285.414
38.07000 291.562
38.08000 298.470
38.09000 304.175
38.10000 302.296
38.11000 299.091
38.12000 296.450
38.13000 296.107
38.14000 296.010
38.15000 295.938
38.16000 290.861
38.17000 286.694
38.18000 286.844
38.19000 294.968
38.20000 303.267
38.21000 307.907
38.22000 308.055
38.23000 308.192
38.24000 313.824
38.25000 323.741
38.26000 333.350
38.27000 330.241
38.28000 320.452
38.29000 311.152
38.30000 309.992
38.31000 311.725
38.32000 313.314
38.33000 318.736
38.34000 324.381
38.35000 329.871
38.36000 334.501
38.37000 339.000
38.38000 342.448
38.39000 342.090
38.40000 341.388
38.41000 340.883
38.42000 347.393
38.43000 352.615
38.44000 357.361
38.45000 361.322
38.46000 365.272
38.47000 376.657
38.48000 396.076
38.49000 415.410
38.50000 431.169
38.51000 444.288
38.52000 457.497
38.53000 473.432
38.54000 490.645
38.55000 509.260
38.56000 546.997
38.57000 590.796
38.58000 630.363
38.59000 648.012
38.60000 659.475
38.61000 675.401
38.62000 713.019
38.63000 753.519
38.64000 790.731
38.65000 817.345
38.66000 843.156
38.67000 861.034
38.68000 896.649
38.69000 923.918
38.70000 951.928
38.71000 981.024
38.72000 1010.128
38.73000 1026.511
38.74000 1030.844
38.75000 1035.140
38.76000 1046.731
38.77000 1062.557
38.78000 1077.244
38.79000 1065.614
38.80000 1042.968
38.81000 1020.446
38.82000 999.325
38.83000 978.600
38.84000 960.193
38.85000 934.641
38.86000 911.337
38.87000 885.871
38.88000 851.116
38.89000 815.297
38.90000 777.518
38.91000 734.112
38.92000 690.355
38.93000 661.212
38.94000 631.120
38.95000 608.831
38.96000 580.031
38.97000 542.789
38.98000 505.543
38.99000 483.049
39.00000 472.854
39.01000 462.793
39.02000 444.216
39.03000 421.557
39.04000 399.341
39.05000 385.232
39.06000 374.153
39.07000 363.349
39.08000 355.196
39.09000 347.708
39.10000 341.180
39.11000 339.272
39.12000 338.282
39.13000 335.289
39.14000 324.657
39.15000 313.279
39.16000 304.762
39.17000 303.583
39.18000 302.773
39.19000 302.256
39.20000 305.195
39.21000 307.378
39.22000 307.997
39.23000 306.827
39.24000 305.647
39.25000 303.124
39.26000 299.609
39.27000 296.161
39.28000 293.454
39.29000 291.199
39.30000 288.856
39.31000 285.206
39.32000 281.121
39.33000 277.634
39.34000 279.076
39.35000 281.615
39.36000 283.784
39.37000 281.563
39.38000 279.168
39.39000 277.754
39.40000 279.670
39.41000 281.859
39.42000 282.826
39.43000 280.991
39.44000 279.046
39.45000 277.860
39.46000 273.815
39.47000 270.902
39.48000 268.687
39.49000 267.175
39.50000 265.704
39.51000 268.028
39.52000 272.833
39.53000 277.514
39.54000 278.526
39.55000 277.952
39.56000 277.326
39.57000 276.069
39.58000 274.624
39.59000 273.146
39.60000 271.434
39.61000 269.677
39.62000 268.207
39.63000 265.434
39.64000 262.998
39.65000 262.307
39.66000 266.889
39.67000 271.832
39.68000 274.220
39.69000 271.385
39.70000 268.395
39.71000 266.663
39.72000 264.899
39.73000 263.663
39.74000 263.487
39.75000 264.246
39.76000 265.025
39.77000 266.951
39.78000 269.545
39.79000 272.050
39.80000 271.602
39.81000 270.085
39.82000 268.993
39.83000 272.309
39.84000 276.791
39.85000 280.078
39.86000 275.944
39.87000 270.530
39.88000 266.111
39.89000 264.678
39.90000 263.763
39.91000 263.475
39.92000 264.881
39.93000 266.382
39.94000 266.026
39.95000 262.282
39.96000 258.466
39.97000 256.374
39.98000 261.348
39.99000 264.777
40.00000 267.423
40.01000 269.461
40.02000 271.407
40.03000 269.670
40.04000 266.022
40.05000 262.533
40.06000 259.563
40.07000 256.967
40.08000 254.771
40.09000 256.106
40.10000 258.271
40.11000 260.495
40.12000 263.047
40.13000 265.648
40.14000 267.717
40.15000 267.659
40.16000 267.460
40.17000 267.649
40.18000 268.773
40.19000 269.938
40.20000 269.327
40.21000 265.829
40.22000 262.290
40.23000 260.464
40.24000 257.416
40.25000 255.401
40.26000 258.115
40.27000 264.088
40.28000 269.862
40.29000 269.789
40.30000 267.009
40.31000 264.378
40.32000 258.856
40.33000 252.947
40.34000 247.959
40.35000 249.975
40.36000 253.446
40.37000 256.657
40.38000 258.623
40.39000 260.427
40.40000 261.822
40.41000 251.217
40.42000 242.093
40.43000 237.954
40.44000 244.544
40.45000 251.496
40.46000 255.978
40.47000 256.894
40.48000 257.781
40.49000 254.151
40.50000 246.304
40.51000 238.560
40.52000 238.158
40.53000 242.254
40.54000 246.244
40.55000 247.837
40.56000 248.440
40.57000 249.003
40.58000 249.430
40.59000 249.784
40.60000 250.043
40.61000 249.683
40.62000 249.210
40.63000 248.843
40.64000 248.928
40.65000 249.063
40.66000 249.165
40.67000 253.084
40.68000 256.328
40.69000 258.612
40.70000 259.053
40.71000 259.449
40.72000 258.930
40.73000 257.240
40.74000 255.548
40.75000 251.862
40.76000 246.554
40.77000 241.306
40.78000 238.882
40.79000 238.001
40.80000 237.123
40.81000 236.308
40.82000 235.517
40.83000 234.788
40.84000 237.606
40.85000 240.916
40.86000 244.124
40.87000 246.741
40.88000 249.264
40.89000 251.265
40.90000 251.307
40.91000 251.160
40.92000 251.053
40.93000 254.227
40.94000 256.791
40.95000 257.898
40.96000 256.509
40.97000 255.078
40.98000 253.440
40.99000 251.567
41.00000 249.701
41.01000 248.247
41.02000 247.102
41.03000 245.893
41.04000 242.517
41.05000 238.086
41.06000 234.189
41.07000 238.062
41.08000 244.495
41.09000 250.338
41.10000 249.523
41.11000 247.513
41.12000 246.472
41.13000 250.349
41.14000 254.911
41.15000 257.135
41.16000 251.527
41.17000 245.286
41.18000 240.909
41.19000 246.345
41.20000 250.743
41.21000 254.627
41.22000 257.730
41.23000 260.825
41.24000 262.733
41.25000 263.463
41.26000 264.189
41.27000 260.756
41.28000 254.734
41.29000 248.935
41.30000 248.775
41.31000 251.068
41.32000 252.801
41.33000 247.775
41.34000 240.765
41.35000 234.502
41.36000 232.526
41.37000 231.528
41.38000 231.855
41.39000 238.121
41.40000 245.103
41.41000 250.339
41.42000 250.361
41.43000 250.036
41.44000 249.815
41.45000 250.936
41.46000 251.799
41.47000 251.876
41.48000 250.894
41.49000 249.903
41.50000 247.042
41.51000 242.553
41.52000 238.116
41.53000 236.017
41.54000 235.281
41.55000 234.534
41.56000 233.589
41.57000 232.567
41.58000 231.601
41.59000 231.200
41.60000 230.946
41.61000 230.724
41.62000 235.897
41.63000 241.128
41.64000 245.007
41.65000 243.517
41.66000 241.473
41.67000 240.781
41.68000 243.694
41.69000 246.802
41.70000 248.815
41.71000 246.515
41.72000 244.768
41.73000 242.855
41.74000 240.744
41.75000 238.634
41.76000 236.838
41.77000 235.285
41.78000 233.758
41.79000 236.955
41.80000 242.387
41.81000 247.329
41.82000 244.486
41.83000 238.944
41.84000 233.863
41.85000 232.790
41.86000 232.644
41.87000 232.519
41.88000 231.957
41.89000 231.427
41.90000 232.688
41.91000 240.274
41.92000 248.412
41.93000 252.726
41.94000 247.939
41.95000 242.762
41.96000 239.557
41.97000 243.747
41.98000 246.830
41.99000 247.492
42.00000 245.611
42.01000 243.728
42.02000 241.670
42.03000 239.491
42.04000 237.364
42.05000 237.920
42.06000 239.626
42.07000 241.041
42.08000 238.638
42.09000 235.055
42.10000 231.973
42.11000 232.645
42.12000 234.085
42.13000 235.298
42.14000 237.788
42.15000 240.003
42.16000 241.557
42.17000 241.030
42.18000 240.352
42.19000 239.946
42.20000 240.117
42.21000 240.308
42.22000 240.420
42.23000 237.152
42.24000 234.828
42.25000 235.690
42.26000 239.488
42.27000 243.267
42.28000 245.823
42.29000 247.639
42.30000 249.398
42.31000 245.321
42.32000 239.209
42.33000 233.515
42.34000 232.409
42.35000 232.566
42.36000 232.944
42.37000 234.765
42.38000 236.846
42.39000 238.559
42.40000 234.643
42.41000 230.910
42.42000 228.422
42.43000 229.424
42.44000 230.635
42.45000 231.514
42.46000 231.764
42.47000 232.000
42.48000 232.132
42.49000 234.916
42.50000 236.852
42.51000 239.400
42.52000 242.445
42.53000 245.415
42.54000 245.017
42.55000 242.803
42.56000 240.679
42.57000 237.806
42.58000 234.865
42.59000 232.245
42.60000 232.615
42.61000 233.716
42.62000 234.400
42.63000 232.706
42.64000 230.637
42.65000 228.976
42.66000 228.772
42.67000 228.718
42.68000 228.952
42.69000 229.908
42.70000 230.898
42.71000 231.158
42.72000 230.184
42.73000 229.190
42.74000 228.667
42.75000 230.722
42.76000 232.106
42.77000 231.725
42.78000 230.076
42.79000 228.546
42.80000 230.849
42.81000 234.995
42.82000 238.933
42.83000 237.342
42.84000 234.211
42.85000 231.865
42.86000 235.792
42.87000 241.076
42.88000 244.217
42.89000 236.631
42.90000 227.572
42.91000 220.495
42.92000 225.012
42.93000 229.347
42.94000 233.235
42.95000 236.125
42.96000 238.978
42.97000 238.947
42.98000 234.579
42.99000 230.168
43.00000 229.015
43.01000 231.044
43.02000 233.032
43.03000 231.618
43.04000 228.035
43.05000 224.506
43.06000 222.297
43.07000 220.656
43.08000 219.115
43.09000 217.280
43.10000 215.529
43.11000 214.452
43.12000 218.029
43.13000 222.495
43.14000 227.064
43.15000 232.091
43.16000 237.171
43.17000 241.025
43.18000 231.001
43.19000 222.414
43.20000 218.733
43.21000 224.842
43.22000 231.222
43.23000 234.784
43.24000 234.589
43.25000 234.374
43.26000 235.583
43.27000 238.007
43.28000 240.345
43.29000 238.078
43.30000 233.197
43.31000 228.369
43.32000 224.567
43.33000 221.159
43.34000 218.002
43.35000 221.929
43.36000 227.106
43.37000 230.942
43.38000 226.691
43.39000 221.084
43.40000 216.381
43.41000 215.220
43.42000 214.418
43.43000 213.828
43.44000 217.136
43.45000 219.854
43.46000 220.849
43.47000 218.778
43.48000 216.647
43.49000 217.581
43.50000 222.126
43.51000 226.666
43.52000 227.213
43.53000 224.750
43.54000 222.371
43.55000 223.104
43.56000 225.413
43.57000 227.580
43.58000 227.535
43.59000 226.733
43.60000 226.001
43.61000 227.086
43.62000 228.418
43.63000 229.216
43.64000 227.188
43.65000 224.746
43.66000 224.714
43.67000 233.075
43.68000 242.156
43.69000 248.605
43.70000 240.744
43.71000 234.308
43.72000 230.814
43.73000 231.982
43.74000 233.209
43.75000 230.758
43.76000 224.497
43.77000 218.270
43.78000 216.159
43.79000 216.805
43.80000 217.477
43.81000 218.847
43.82000 220.533
43.83000 222.223
43.84000 223.962
43.85000 225.717
43.86000 227.294
43.87000 226.836
43.88000 226.075
43.89000 224.953
43.90000 222.141
43.91000 219.116
43.92000 217.226
43.93000 218.864
43.94000 220.754
43.95000 222.047
43.96000 220.804
43.97000 219.813
43.98000 217.720
43.99000 214.075
44.00000 210.422
44.01000 211.585
44.02000 217.124
44.03000 222.609
44.04000 222.040
44.05000 217.940
44.06000 214.377
44.07000 222.273
44.08000 234.795
44.09000 245.780
44.10000 240.216
44.11000 230.153
44.12000 221.268
44.13000 219.119
44.14000 218.297
44.15000 217.493
44.16000 216.760
44.17000 216.036
44.18000 215.311
44.19000 214.588
44.20000 213.865
44.21000 213.389
44.22000 213.337
44.23000 213.305
44.24000 214.816
44.25000 218.248
44.26000 221.667
44.27000 219.066
44.28000 211.646
44.29000 204.335
44.30000 206.059
44.31000 212.400
44.32000 218.654
44.33000 223.419
44.34000 227.647
44.35000 230.859
44.36000 224.771
44.37000 216.438
44.38000 209.219
44.39000 215.749
44.40000 223.126
44.41000 228.628
44.42000 227.245
44.43000 225.226
44.44000 223.118
44.45000 220.791
44.46000 218.453
44.47000 216.983
44.48000 227.843
44.49000 235.836
44.50000 238.113
44.51000 234.114
44.52000 230.145
44.53000 230.961
44.54000 235.168
44.55000 239.286
44.56000 236.477
44.57000 230.618
44.58000 225.023
44.59000 223.123
44.60000 222.411
44.61000 222.136
44.62000 225.310
44.63000 229.220
44.64000 232.538
44.65000 237.435
44.66000 241.721
44.67000 245.460
44.68000 247.414
44.69000 249.230
44.70000 249.502
44.71000 246.365
44.72000 243.105
44.73000 241.150
44.74000 241.351
44.75000 241.508
44.76000 240.000
44.77000 236.888
44.78000 233.815
44.79000 233.825
44.80000 235.775
44.81000 237.669
44.82000 240.345
44.83000 243.201
44.84000 246.195
44.85000 250.793
44.86000 255.850
44.87000 260.752
44.88000 264.594
44.89000 268.236
44.90000 271.258
44.91000 269.450
44.92000 267.490
44.93000 267.248
44.94000 272.012
44.95000 277.095
44.96000 281.314
44.97000 283.827
44.98000 286.296
44.99000 287.701
45.00000 286.805
45.01000 286.181
45.02000 290.346
45.03000 298.565
45.04000 306.661
45.05000 308.521
45.06000 306.885
45.07000 305.309
45.08000 308.970
45.09000 314.269
45.10000 319.151
45.11000 319.929
45.12000 319.664
45.13000 318.410
45.14000 311.281
45.15000 303.181
45.16000 296.622
45.17000 299.468
45.18000 302.548
45.19000 304.805
45.20000 304.922
45.21000 304.928
45.22000 304.920
45.23000 304.888
45.24000 304.856
45.25000 304.839
45.26000 292.832
45.27000 284.634
45.28000 280.123
45.29000 278.369
45.30000 276.621
45.31000 275.048
45.32000 273.564
45.33000 272.148
45.34000 273.271
45.35000 275.109
45.36000 276.232
45.37000 271.354
45.38000 265.121
45.39000 259.198
45.40000 254.900
45.41000 250.835
45.42000 247.629
45.43000 239.842
45.44000 233.288
45.45000 229.990
45.46000 234.252
45.47000 238.821
45.48000 240.661
45.49000 238.230
45.50000 235.749
45.51000 234.495
45.52000 237.303
45.53000 239.134
45.54000 236.292
45.55000 230.350
45.56000 224.633
45.57000 224.953
45.58000 227.968
45.59000 230.810
45.60000 230.655
45.61000 229.687
45.62000 228.821
45.63000 228.700
45.64000 228.728
45.65000 228.211
45.66000 225.182
45.67000 221.840
45.68000 219.279
45.69000 220.117
45.70000 220.967
45.71000 218.766
45.72000 210.238
45.73000 201.515
45.74000 200.147
45.75000 208.997
45.76000 217.910
45.77000 217.872
45.78000 209.823
45.79000 201.928
45.80000 203.468
45.81000 210.577
45.82000 217.301
45.83000 216.017
45.84000 211.540
45.85000 207.374
45.86000 204.404
45.87000 202.009
45.88000 200.800
45.89000 207.077
45.90000 214.666
45.91000 220.084
45.92000 216.640
45.93000 212.246
45.94000 208.982
45.95000 208.587
45.96000 208.407
45.97000 206.693
45.98000 202.141
45.99000 197.526
46.00000 194.377
46.01000 193.032
46.02000 191.693
46.03000 193.429
46.04000 197.575
46.05000 201.654
46.06000 202.975
46.07000 202.846
46.08000 202.766
46.09000 203.514
46.10000 204.556
46.11000 205.513
46.12000 204.478
46.13000 203.132
46.14000 202.202
46.15000 203.573
46.16000 205.296
46.17000 206.870
46.18000 207.902
46.19000 208.885
46.20000 209.591
46.21000 208.520
46.22000 207.640
46.23000 206.847
46.24000 206.198
46.25000 205.552
46.26000 205.269
46.27000 205.378
46.28000 205.487
46.29000 206.147
46.30000 207.182
46.31000 208.198
46.32000 208.621
46.33000 208.765
46.34000 208.902
46.35000 208.925
46.36000 208.911
46.37000 208.899
46.38000 207.092
46.39000 205.170
46.40000 203.563
46.41000 203.494
46.42000 203.629
46.43000 203.529
46.44000 202.672
46.45000 201.757
46.46000 201.123
46.47000 208.623
46.48000 214.483
46.49000 216.928
46.50000 214.369
46.51000 211.767
46.52000 209.935
46.53000 208.833
46.54000 207.741
46.55000 207.673
46.56000 208.231
46.57000 208.722
46.58000 207.672
46.59000 205.975
46.60000 204.551
46.61000 206.237
46.62000 208.802
46.63000 211.082
46.64000 207.184
46.65000 202.808
46.66000 199.669
46.67000 201.857
46.68000 204.656
46.69000 204.754
46.70000 197.081
46.71000 188.921
46.72000 183.483
46.73000 187.564
46.74000 190.766
46.75000 195.358
46.76000 201.754
46.77000 208.150
46.78000 210.350
46.79000 209.045
46.80000 207.757
46.81000 203.739
46.82000 198.356
46.83000 193.319
46.84000 194.630
46.85000 198.316
46.86000 201.892
46.87000 204.394
46.88000 206.626
46.89000 208.572
46.90000 208.013
46.91000 207.187
46.92000 206.326
46.93000 205.335
46.94000 204.331
46.95000 204.184
46.96000 206.240
46.97000 208.407
46.98000 209.791
46.99000 213.860
47.00000 216.855
47.01000 215.569
47.02000 209.374
47.03000 203.180
47.04000 198.323
47.05000 194.452
47.06000 190.654
47.07000 189.540
47.08000 189.744
47.09000 189.784
47.10000 187.370
47.11000 184.136
47.12000 181.760
47.13000 186.484
47.14000 192.789
47.15000 198.178
47.16000 202.385
47.17000 205.790
47.18000 206.467
47.19000 197.873
47.20000 188.515
47.21000 183.656
47.22000 189.121
47.23000 194.994
47.24000 198.575
47.25000 205.486
47.26000 210.453
47.27000 208.500
47.28000 199.579
47.29000 190.707
47.30000 186.401
47.31000 185.087
47.32000 183.807
47.33000 181.412
47.34000 178.660
47.35000 176.575
47.36000 182.727
47.37000 191.332
47.38000 198.418
47.39000 194.645
47.40000 188.737
47.41000 183.797
47.42000 185.128
47.43000 186.873
47.44000 188.498
47.45000 189.762
47.46000 191.002
47.47000 193.850
47.48000 199.995
47.49000 206.238
47.50000 209.857
47.51000 200.178
47.52000 193.336
47.53000 191.044
47.54000 192.772
47.55000 194.470
47.56000 194.343
47.57000 193.153
47.58000 192.004
47.59000 189.117
47.60000 185.751
47.61000 182.799
47.62000 184.145
47.63000 186.630
47.64000 189.080
47.65000 191.314
47.66000 193.512
47.67000 195.306
47.68000 187.869
47.69000 180.988
47.70000 178.025
47.71000 185.649
47.72000 193.863
47.73000 197.974
47.74000 194.587
47.75000 191.040
47.76000 189.094
47.77000 191.775
47.78000 193.616
47.79000 192.881
47.80000 190.137
47.81000 187.407
47.82000 185.264
47.83000 183.427
47.84000 181.669
47.85000 183.817
47.86000 187.096
47.87000 190.458
47.88000 194.564
47.89000 198.845
47.90000 201.629
47.91000 196.243
47.92000 189.623
47.93000 184.355
47.94000 184.780
47.95000 185.532
47.96000 186.182
47.97000 186.584
47.98000 186.975
47.99000 186.239
48.00000 183.670
48.01000 181.075
48.02000 179.735
48.03000 179.521
48.04000 179.383
48.05000 179.890
48.06000 180.844
48.07000 181.776
48.08000 182.045
48.09000 182.008
48.10000 181.973
48.11000 184.387
48.12000 187.313
48.13000 189.590
48.14000 186.923
48.15000 183.228
48.16000 179.902
48.17000 178.354
48.18000 177.039
48.19000 176.021
48.20000 184.864
48.21000 192.467
48.22000 196.674
48.23000 193.563
48.24000 190.203
48.25000 189.761
48.26000 193.541
48.27000 197.356
48.28000 196.281
48.29000 190.633
48.30000 185.021
48.31000 181.922
48.32000 180.366
48.33000 178.829
48.34000 177.693
48.35000 176.724
48.36000 175.819
48.37000 180.953
48.38000 187.144
48.39000 192.648
48.40000 193.600
48.41000 193.719
48.42000 192.771
48.43000 187.290
48.44000 181.298
48.45000 176.797
48.46000 174.258
48.47000 172.367
48.48000 174.718
48.49000 185.228
48.50000 195.942
48.51000 198.041
48.52000 189.096
48.53000 180.121
48.54000 175.944
48.55000 175.720
48.56000 175.539
48.57000 177.387
48.58000 180.344
48.59000 183.279
48.60000 185.824
48.61000 188.223
48.62000 190.437
48.63000 189.758
48.64000 188.508
48.65000 186.832
48.66000 182.689
48.67000 178.150
48.68000 175.007
48.69000 177.133
48.70000 179.765
48.71000 181.678
48.72000 180.981
48.73000 180.346
48.74000 179.421
48.75000 177.997
48.76000 176.565
48.77000 176.284
48.78000 177.306
48.79000 178.325
48.80000 176.432
48.81000 172.450
48.82000 168.698
48.83000 172.629
48.84000 180.309
48.85000 187.428
48.86000 186.348
48.87000 182.562
48.88000 179.122
48.89000 177.686
48.90000 176.805
48.91000 175.855
48.92000 174.558
48.93000 173.213
48.94000 172.322
48.95000 172.958
48.96000 173.718
48.97000 174.251
48.98000 178.581
48.99000 181.970
49.00000 183.408
49.01000 181.872
49.02000 180.304
49.03000 178.965
49.04000 177.851
49.05000 176.746
49.06000 174.865
49.07000 172.520
49.08000 170.264
49.09000 170.280
49.10000 171.286
49.11000 172.370
49.12000 174.404
49.13000 176.717
49.14000 178.785
49.15000 177.182
49.16000 175.164
49.17000 173.810
49.18000 175.436
49.19000 177.422
49.20000 178.620
49.21000 177.462
49.22000 176.146
49.23000 175.257
49.24000 179.423
49.25000 182.633
49.26000 185.706
49.27000 188.596
49.28000 191.479
49.29000 189.120
49.30000 182.192
49.31000 175.342
49.32000 174.148
49.33000 176.162
49.34000 178.110
49.35000 178.767
49.36000 178.921
49.37000 179.100
49.38000 179.536
49.39000 180.039
49.40000 180.480
49.41000 179.581
49.42000 178.611
49.43000 177.899
49.44000 178.208
49.45000 178.624
49.46000 178.563
49.47000 177.230
49.48000 175.828
49.49000 174.920
49.50000 173.970
49.51000 173.274
49.52000 175.911
49.53000 182.536
49.54000 189.136
49.55000 187.739
49.56000 180.187
49.57000 172.762
49.58000 169.350
49.59000 168.043
49.60000 167.138
49.61000 172.669
49.62000 180.434
49.63000 187.393
49.64000 187.330
49.65000 185.638
49.66000 184.181
49.67000 183.412
49.68000 182.848
49.69000 182.454
49.70000 182.664
49.71000 182.927
49.72000 183.772
49.73000 186.006
49.74000 188.299
49.75000 189.721
49.76000 182.576
49.77000 177.356
49.78000 175.130
49.79000 176.057
49.80000 176.963
49.81000 175.435
49.82000 172.247
49.83000 169.133
49.84000 169.311
49.85000 170.925
49.86000 172.625
49.87000 175.460
49.88000 178.646
49.89000 180.796
49.90000 175.165
49.91000 167.937
49.92000 161.846
49.93000 164.571
49.94000 167.794
49.95000 170.772
49.96000 172.976
49.97000 175.124
49.98000 177.381
49.99000 179.869
50.00000 182.364
50.01000 183.837
50.02000 176.170
50.03000 170.709
50.04000 168.647
50.05000 169.723
50.06000 170.822
50.07000 173.503
50.08000 177.143
50.09000 180.670
50.10000 179.327
50.11000 176.171
50.12000 173.346
50.13000 174.172
50.14000 176.005
50.15000 177.227
50.16000 174.465
50.17000 170.984
50.18000 168.118
50.19000 175.253
50.20000 182.035
50.21000 187.387
50.22000 188.724
50.23000 189.820
50.24000 189.233
50.25000 185.447
50.26000 181.585
50.27000 179.424
50.28000 177.155
50.29000 175.586
50.30000 175.292
50.31000 176.036
50.32000 176.807
50.33000 178.828
50.34000 181.524
50.35000 184.113
50.36000 188.322
50.37000 192.813
50.38000 196.438
50.39000 191.975
50.40000 185.533
50.41000 181.124
50.42000 188.316
50.43000 197.342
50.44000 204.590
50.45000 199.795
50.46000 194.988
50.47000 191.576
50.48000 191.666
50.49000 191.923
50.50000 193.786
50.51000 198.369
50.52000 202.996
50.53000 205.437
50.54000 213.145
50.55000 218.349
50.56000 218.797
50.57000 215.824
50.58000 213.052
50.59000 216.851
50.60000 223.817
50.61000 230.433
50.62000 233.077
50.63000 234.321
50.64000 235.704
50.65000 238.193
50.66000 240.921
50.67000 243.145
50.68000 242.839
50.69000 242.184
50.70000 241.673
50.71000 236.630
50.72000 232.319
50.73000 230.293
50.74000 233.384
50.75000 236.666
50.76000 238.850
50.77000 239.380
50.78000 239.893
50.79000 241.332
50.80000 243.679
50.81000 246.017
50.82000 247.655
50.83000 248.846
50.84000 249.791
50.85000 244.701
50.86000 237.014
50.87000 229.797
50.88000 228.793
50.89000 229.524
50.90000 229.375
50.91000 223.131
50.92000 215.720
50.93000 208.862
50.94000 204.452
50.95000 200.332
50.96000 197.205
50.97000 197.771
50.98000 198.406
50.99000 198.013
51.00000 195.566
51.01000 193.061
51.02000 193.352
51.03000 197.377
51.04000 201.418
51.05000 200.633
51.06000 195.709
51.07000 190.788
51.08000 186.033
51.09000 181.372
51.10000 177.031
51.11000 178.869
51.12000 183.082
51.13000 186.985
51.14000 187.281
51.15000 186.709
51.16000 185.624
51.17000 181.436
51.18000 176.727
51.19000 173.332
51.20000 175.100
51.21000 177.393
51.22000 179.078
51.23000 175.599
51.24000 172.696
51.25000 171.827
51.26000 174.586
51.27000 177.416
51.28000 179.952
51.29000 182.141
51.30000 184.324
51.31000 183.914
51.32000 181.550
51.33000 179.139
51.34000 174.985
51.35000 169.948
51.36000 165.237
51.37000 165.611
51.38000 167.731
51.39000 169.667
51.40000 169.595
51.41000 169.123
51.42000 168.254
51.43000 165.277
51.44000 161.990
51.45000 159.019
51.46000 157.153
51.47000 155.382
51.48000 154.124
51.49000 157.430
51.50000 160.092
51.51000 162.975
51.52000 166.208
51.53000 169.445
51.54000 168.333
51.55000 162.706
51.56000 157.110
51.57000 156.801
51.58000 160.009
51.59000 163.134
51.60000 163.944
51.61000 163.706
51.62000 163.451
51.63000 162.977
51.64000 162.437
51.65000 161.951
51.66000 158.743
51.67000 155.452
51.68000 153.053
51.69000 154.829
51.70000 157.136
51.71000 160.630
51.72000 167.818
51.73000 175.270
51.74000 180.371
51.75000 173.574
51.76000 168.200
51.77000 162.190
51.78000 155.282
51.79000 148.374
51.80000 150.391
51.81000 160.534
51.82000 170.579
51.83000 172.095
51.84000 168.579
51.85000 165.369
51.86000 168.731
51.87000 174.748
51.88000 179.663
51.89000 172.678
51.90000 162.454
51.91000 153.423
51.92000 156.959
51.93000 161.945
51.94000 166.129
51.95000 166.993
51.96000 167.494
51.97000 167.129
51.98000 164.364
51.99000 161.458
52.00000 159.547
52.01000 162.889
52.02000 165.439
52.03000 165.487
52.04000 162.414
52.05000 159.339
52.06000 158.833
52.07000 160.387
52.08000 161.918
52.09000 162.115
52.10000 161.617
52.11000 161.174
52.12000 161.682
52.13000 162.532
52.14000 163.227
52.15000 162.491
52.16000 161.408
52.17000 160.470
52.18000 161.355
52.19000 162.349
52.20000 162.734
52.21000 160.879
52.22000 158.816
52.23000 158.316
52.24000 161.686
52.25000 165.237
52.26000 167.471
52.27000 163.248
52.28000 160.119
52.29000 158.575
52.30000 158.772
52.31000 158.978
52.32000 160.114
52.33000 161.910
52.34000 163.669
52.35000 164.437
52.36000 164.720
52.37000 165.079
52.38000 166.487
52.39000 168.232
52.40000 169.929
52.41000 171.247
52.42000 172.483
52.43000 173.533
52.44000 171.502
52.45000 169.449
52.46000 167.608
52.47000 166.460
52.48000 165.367
52.49000 163.936
52.50000 161.758
52.51000 159.553
52.52000 158.230
52.53000 154.795
52.54000 152.340
52.55000 152.413
52.56000 154.925
52.57000 157.414
52.58000 158.092
52.59000 157.627
52.60000 157.176
52.61000 157.218
52.62000 157.457
52.63000 157.917
52.64000 160.957
52.65000 164.736
52.66000 167.604
52.67000 164.246
52.68000 159.713
52.69000 155.950
52.70000 155.058
52.71000 154.598
52.72000 154.395
52.73000 154.942
52.74000 155.537
52.75000 157.162
52.76000 160.821
52.77000 164.535
52.78000 166.651
52.79000 165.340
52.80000 164.412
52.81000 162.038
52.82000 158.438
52.83000 154.918
52.84000 155.503
52.85000 158.394
52.86000 161.178
52.87000 160.082
52.88000 157.670
52.89000 155.610
52.90000 157.028
52.91000 159.332
52.92000 161.551
52.93000 163.270
52.94000 164.906
52.95000 166.231
52.96000 163.914
52.97000 161.730
52.98000 158.915
52.99000 154.451
53.00000 149.901
53.01000 148.820
53.02000 153.844
53.03000 158.983
53.04000 161.749
53.05000 162.272
53.06000 162.621
53.07000 161.866
53.08000 160.282
53.09000 158.818
53.10000 161.688
53.11000 166.729
53.12000 171.535
53.13000 168.286
53.14000 162.741
53.15000 158.165
53.16000 161.746
53.17000 167.173
53.18000 171.498
53.19000 170.063
53.20000 167.796
53.21000 166.007
53.22000 171.146
53.23000 175.736
53.24000 176.649
53.25000 169.010
53.26000 161.021
53.27000 156.134
53.28000 156.108
53.29000 156.141
53.30000 156.157
53.31000 164.606
53.32000 170.208
53.33000 170.514
53.34000 167.301
53.35000 164.214
53.36000 164.530
53.37000 166.368
53.38000 168.100
53.39000 162.800
53.40000 155.999
53.41000 150.392
53.42000 153.459
53.43000 158.258
53.44000 161.715
53.45000 158.979
53.46000 155.468
53.47000 152.777
53.48000 163.381
53.49000 172.493
53.50000 175.963
53.51000 167.712
53.52000 159.099
53.53000 155.208
53.54000 157.888
53.55000 160.609
53.56000 162.235
53.57000 162.875
53.58000 163.504
53.59000 163.397
53.60000 162.855
53.61000 162.240
53.62000 160.085
53.63000 157.315
53.64000 154.737
53.65000 155.185
53.66000 156.324
53.67000 157.403
53.68000 158.107
53.69000 158.744
53.70000 159.519
53.71000 160.853
53.72000 162.247
53.73000 163.283
53.74000 163.987
53.75000 164.519
53.76000 163.393
53.77000 159.196
53.78000 154.930
53.79000 154.143
53.80000 157.640
53.81000 161.141
53.82000 162.654
53.83000 162.593
53.84000 162.482
53.85000 160.302
53.86000 157.032
53.87000 153.902
53.88000 153.122
53.89000 153.180
53.90000 153.233
53.91000 155.338
53.92000 157.653
53.93000 159.534
53.94000 159.011
53.95000 158.118
53.96000 156.761
53.97000 153.713
53.98000 150.511
53.99000 148.210
54.00000 150.407
54.01000 152.246
54.02000 152.178
54.03000 148.960
54.04000 145.695
54.05000 144.757
54.06000 146.343
54.07000 147.923
54.08000 152.699
54.09000 159.641
54.10000 166.360
54.11000 166.245
54.12000 162.916
54.13000 159.632
54.14000 156.950
54.15000 154.461
54.16000 152.210
54.17000 149.872
54.18000 147.799
54.19000 145.704
54.20000 143.504
54.21000 141.290
54.22000 139.996
54.23000 141.680
54.24000 143.591
54.25000 144.916
54.26000 157.231
54.27000 166.795
54.28000 172.724
54.29000 173.317
54.30000 173.862
54.31000 171.272
54.32000 165.700
54.33000 160.173
54.34000 161.454
54.35000 166.875
54.36000 172.049
54.37000 171.456
54.38000 168.440
54.39000 165.827
54.40000 167.819
54.41000 171.115
54.42000 174.045
54.43000 170.539
54.44000 166.459
54.45000 163.075
54.46000 162.698
54.47000 162.667
54.48000 162.225
54.49000 160.600
54.50000 158.901
54.51000 157.768
54.52000 157.109
54.53000 156.631
54.54000 156.758
54.55000 157.674
54.56000 158.590
54.57000 158.261
54.58000 156.891
54.59000 155.538
54.60000 153.797
54.61000 151.892
54.62000 150.288
54.63000 154.206
54.64000 160.195
54.65000 165.433
54.66000 163.397
54.67000 159.529
54.68000 156.154
54.69000 154.809
54.70000 153.942
54.71000 153.629
54.72000 155.440
54.73000 157.458
54.74000 159.025
54.75000 159.431
54.76000 159.778
54.77000 160.000
54.78000 150.975
54.79000 144.285
54.80000 144.821
54.81000 153.658
54.82000 162.456
54.83000 162.492
54.84000 156.046
54.85000 149.721
54.86000 151.628
54.87000 157.391
54.88000 162.664
54.89000 160.605
54.90000 156.093
54.91000 152.131
54.92000 152.736
54.93000 154.361
54.94000 155.749
54.95000 154.156
54.96000 152.455
54.97000 152.086
54.98000 156.250
54.99000 160.790
55.00000 163.870
55.01000 163.598
55.02000 163.193
55.03000 162.946
55.04000 163.561
55.05000 164.007
55.06000 164.175
55.07000 164.062
55.08000 163.939
55.09000 162.820
55.10000 161.049
55.11000 159.323
55.12000 159.342
55.13000 160.094
55.14000 160.546
55.15000 157.271
55.16000 152.884
55.17000 149.689
55.18000 155.024
55.19000 162.041
55.20000 167.910
55.21000 163.860
55.22000 159.482
55.23000 157.311
55.24000 161.839
55.25000 166.826
55.26000 169.633
55.27000 167.966
55.28000 166.166
55.29000 165.121
55.30000 168.816
55.31000 171.427
55.32000 170.909
55.33000 167.623
55.34000 164.367
55.35000 162.912
55.36000 162.509
55.37000 162.120
55.38000 166.478
55.39000 172.353
55.40000 178.009
55.41000 181.396
55.42000 184.180
55.43000 186.083
55.44000 182.493
55.45000 177.951
55.46000 174.241
55.47000 171.430
55.48000 169.206
55.49000 170.792
55.50000 182.689
55.51000 195.163
55.52000 202.558
55.53000 200.655
55.54000 198.554
55.55000 197.400
55.56000 206.813
55.57000 213.283
55.58000 213.021
55.59000 207.500
55.60000 202.160
55.61000 204.105
55.62000 209.842
55.63000 215.332
55.64000 228.493
55.65000 243.267
55.66000 256.629
55.67000 257.466
55.68000 255.351
55.69000 255.684
55.70000 269.397
55.71000 285.136
55.72000 297.667
55.73000 312.197
55.74000 324.057
55.75000 336.387
55.76000 349.854
55.77000 363.372
55.78000 380.177
55.79000 402.342
55.80000 424.584
55.81000 436.082
55.82000 451.303
55.83000 461.555
55.84000 470.532
55.85000 478.626
55.86000 487.183
55.87000 509.408
55.88000 537.982
55.89000 565.026
55.90000 577.784
55.91000 585.392
55.92000 593.459
55.93000 605.038
55.94000 617.349
55.95000 627.273
55.96000 625.709
55.97000 622.635
55.98000 620.254
55.99000 627.859
56.00000 634.490
56.01000 633.192
56.02000 614.776
56.03000 595.777
56.04000 586.233
56.05000 590.393
56.06000 594.664
56.07000 586.256
56.08000 565.964
56.09000 545.781
56.10000 533.426
56.11000 525.886
56.12000 518.110
56.13000 504.998
56.14000 489.672
56.15000 475.343
56.16000 449.906
56.17000 423.991
56.18000 400.682
56.19000 394.651
56.20000 391.791
56.21000 385.305
56.22000 363.378
56.23000 339.703
56.24000 321.914
56.25000 313.783
56.26000 307.890
56.27000 300.502
56.28000 290.234
56.29000 279.894
56.30000 271.266
56.31000 264.836
56.32000 258.422
56.33000 248.325
56.34000 235.230
56.35000 222.287
56.36000 216.501
56.37000 214.636
56.38000 212.480
56.39000 205.089
56.40000 195.758
56.41000 187.152
56.42000 182.479
56.43000 179.167
56.44000 176.310
56.45000 176.081
56.46000 176.275
56.47000 175.899
56.48000 173.371
56.49000 170.635
56.50000 168.645
56.51000 173.963
56.52000 178.332
56.53000 179.645
56.54000 175.707
56.55000 171.679
56.56000 169.008
56.57000 167.874
56.58000 166.746
56.59000 164.179
56.60000 160.592
56.61000 157.169
56.62000 159.270
56.63000 164.070
56.64000 168.237
56.65000 163.127
56.66000 154.950
56.67000 147.519
56.68000 153.116
56.69000 160.598
56.70000 165.857
56.71000 159.803
56.72000 152.163
56.73000 146.522
56.74000 147.598
56.75000 149.220
56.76000 150.358
56.77000 155.752
56.78000 159.960
56.79000 161.251
56.80000 158.084
56.81000 154.870
56.82000 155.008
56.83000 158.479
56.84000 161.927
56.85000 162.123
56.86000 160.240
56.87000 158.328
56.88000 155.676
56.89000 152.700
56.90000 149.974
56.91000 150.275
56.92000 151.467
56.93000 152.532
56.94000 150.856
56.95000 148.931
56.96000 147.685
56.97000 149.491
56.98000 151.667
56.99000 153.054
57.00000 152.078
57.01000 150.943
57.02000 150.176
57.03000 150.917
57.04000 151.502
57.05000 150.432
57.06000 147.121
57.07000 143.800
57.08000 142.948
57.09000 144.253
57.10000 145.543
57.11000 142.732
57.12000 137.677
57.13000 133.027
57.14000 136.438
57.15000 142.990
57.16000 149.026
57.17000 149.790
57.18000 149.171
57.19000 148.628
57.20000 148.553
57.21000 148.557
57.22000 148.964
57.23000 150.977
57.24000 153.157
57.25000 153.261
57.26000 147.814
57.27000 142.064
57.28000 138.335
57.29000 136.874
57.30000 135.838
57.31000 135.368
57.32000 135.577
57.33000 135.806
57.34000 140.940
57.35000 149.854
57.36000 158.619
57.37000 156.164
57.38000 148.211
57.39000 140.709
57.40000 140.437
57.41000 142.680
57.42000 144.704
57.43000 144.826
57.44000 144.504
57.45000 144.228
57.46000 144.788
57.47000 145.368
57.48000 144.633
57.49000 139.241
57.50000 133.440
57.51000 131.257
57.52000 137.713
57.53000 144.542
57.54000 148.777
57.55000 148.632
57.56000 148.485
57.57000 146.492
57.58000 142.552
57.59000 138.652
57.60000 139.378
57.61000 143.265
57.62000 147.061
57.63000 147.139
57.64000 145.582
57.65000 143.784
57.66000 138.810
57.67000 132.851
57.68000 128.470
57.69000 135.953
57.70000 145.874
57.71000 154.236
57.72000 150.112
57.73000 145.321
57.74000 141.314
57.75000 139.782
57.76000 138.432
57.77000 140.402
57.78000 149.453
57.79000 158.738
57.80000 164.220
57.81000 156.173
57.82000 150.416
57.83000 147.489
57.84000 147.180
57.85000 146.852
57.86000 145.291
57.87000 142.981
57.88000 140.743
57.89000 139.786
57.90000 139.377
57.91000 139.137
57.92000 140.761
57.93000 142.901
57.94000 144.576
57.95000 143.215
57.96000 141.305
57.97000 139.732
57.98000 139.582
57.99000 139.588
58.00000 139.333
58.01000 138.342
58.02000 137.306
58.03000 135.379
58.04000 131.752
58.05000 128.085
58.06000 126.033
58.07000 128.292
58.08000 129.877
58.09000 135.301
58.10000 143.851
58.11000 152.214
58.12000 152.103
58.13000 147.406
58.14000 142.897
58.15000 142.369
58.16000 143.238
58.17000 144.110
58.18000 145.011
58.19000 145.919
58.20000 146.725
58.21000 146.952
58.22000 147.086
58.23000 147.194
58.24000 141.712
58.25000 136.841
58.26000 132.427
58.27000 129.163
58.28000 125.954
58.29000 126.085
58.30000 131.882
58.31000 137.773
58.32000 140.883
58.33000 139.625
58.34000 138.775
58.35000 138.977
58.36000 139.938
58.37000 140.844
58.38000 139.931
58.39000 138.140
58.40000 136.440
58.41000 134.472
58.42000 132.574
58.43000 131.165
58.44000 133.678
58.45000 137.044
58.46000 139.055
58.47000 134.263
58.48000 128.532
58.49000 124.051
58.50000 132.816
58.51000 140.654
58.52000 145.315
58.53000 142.852
58.54000 140.123
58.55000 137.891
58.56000 136.412
58.57000 134.940
58.58000 134.231
58.59000 134.272
58.60000 134.319
58.61000 134.942
58.62000 135.935
58.63000 136.973
58.64000 139.131
58.65000 141.772
58.66000 144.252
58.67000 141.591
58.68000 137.800
58.69000 134.353
58.70000 133.293
58.71000 132.691
58.72000 132.372
58.73000 133.311
58.74000 134.399
58.75000 135.225
58.76000 132.722
58.77000 130.583
58.78000 130.067
58.79000 132.801
58.80000 135.626
58.81000 138.035
58.82000 139.888
58.83000 141.736
58.84000 140.563
58.85000 136.796
58.86000 133.110
58.87000 133.834
58.88000 137.070
58.89000 140.061
58.90000 138.304
58.91000 134.720
58.92000 131.398
58.93000 133.175
58.94000 135.963
58.95000 137.991
58.96000 135.425
58.97000 132.085
58.98000 129.860
58.99000 132.023
59.00000 134.632
59.01000 136.551
59.02000 134.833
59.03000 133.354
59.04000 132.101
59.05000 131.253
59.06000 130.414
59.07000 131.535
59.08000 134.976
59.09000 138.412
59.10000 138.856
59.11000 137.035
59.12000 135.273
59.13000 135.759
59.14000 137.386
59.15000 138.698
59.16000 135.072
59.17000 129.750
59.18000 124.888
59.19000 126.579
59.20000 129.415
59.21000 132.003
59.22000 133.273
59.23000 134.349
59.24000 135.584
59.25000 137.375
59.26000 139.214
59.27000 140.521
59.28000 137.585
59.29000 135.214
59.30000 135.014
59.31000 138.267
59.32000 141.564
59.33000 143.315
59.34000 143.458
59.35000 143.600
59.36000 141.946
59.37000 139.117
59.38000 136.329
59.39000 134.700
59.40000 133.596
59.41000 132.486
59.42000 131.311
59.43000 130.116
59.44000 129.042
59.45000 132.259
59.46000 135.839
59.47000 138.179
59.48000 134.711
59.49000 130.504
59.50000 126.517
59.51000 123.217
59.52000 119.965
59.53000 117.738
59.54000 125.536
59.55000 131.617
59.56000 134.610
59.57000 133.240
59.58000 131.838
59.59000 130.130
59.60000 128.142
59.61000 126.174
59.62000 125.789
59.63000 126.342
59.64000 127.049
59.65000 131.072
59.66000 136.439
59.67000 141.063
59.68000 137.655
59.69000 132.055
59.70000 127.107
59.71000 127.891
59.72000 129.451
59.73000 130.224
59.74000 127.729
59.75000 124.877
59.76000 124.012
59.77000 128.671
59.78000 133.655
59.79000 136.934
59.80000 130.813
59.81000 126.144
59.82000 124.293
59.83000 125.966
59.84000 127.648
59.85000 128.735
59.86000 129.344
59.87000 129.945
59.88000 134.115
59.89000 140.013
59.90000 145.573
59.91000 145.321
59.92000 142.968
59.93000 140.344
59.94000 135.228
59.95000 129.507
59.96000 124.548
59.97000 127.886
59.98000 131.830
59.99000 134.768
60.00000 133.998
60.01000 132.884
60.02000 132.765
60.03000 135.114
60.04000 137.578
60.05000 139.130
60.06000 137.451
60.07000 136.199
60.08000 133.048
60.09000 127.806
60.10000 122.611
60.11000 124.484
60.12000 131.384
60.13000 138.140
60.14000 138.776
60.15000 136.583
60.16000 134.377
60.17000 131.979
60.18000 129.518
60.19000 127.431
60.20000 128.294
60.21000 129.790
60.22000 131.060
60.23000 130.797
60.24000 130.403
60.25000 130.584
60.26000 132.654
60.27000 134.871
60.28000 136.611
60.29000 137.293
60.30000 137.937
60.31000 138.324
60.32000 134.834
60.33000 132.328
60.34000 129.423
60.35000 126.134
60.36000 122.902
60.37000 124.224
60.38000 128.422
60.39000 132.502
60.40000 133.084
60.41000 132.222
60.42000 131.502
60.43000 132.444
60.44000 133.863
60.45000 135.333
60.46000 137.144
60.47000 139.020
60.48000 140.578
60.49000 141.262
60.50000 141.742
60.51000 141.415
60.52000 138.730
60.53000 135.893
60.54000 132.273
60.55000 127.103
60.56000 121.891
60.57000 118.919
60.58000 129.920
60.59000 137.627
60.60000 138.348
60.61000 133.132
60.62000 128.045
60.63000 129.637
60.64000 134.985
60.65000 140.137
60.66000 139.257
60.67000 136.277
60.68000 133.505
60.69000 132.788
60.70000 132.597
60.71000 132.655
60.72000 134.209
60.73000 136.010
60.74000 137.470
60.75000 133.620
60.76000 130.050
60.77000 127.840
60.78000 129.179
60.79000 130.703
60.80000 132.165
60.81000 133.519
60.82000 134.870
60.83000 135.599
60.84000 139.145
60.85000 141.565
60.86000 142.446
60.87000 142.172
60.88000 141.859
60.89000 140.157
60.90000 137.757
60.91000 135.469
60.92000 135.493
60.93000 136.243
60.94000 137.006
60.95000 137.879
60.96000 138.776
60.97000 139.496
60.98000 139.284
60.99000 138.938
61.00000 138.664
61.01000 134.224
61.02000 130.379
61.03000 128.481
61.04000 131.122
61.05000 133.948
61.06000 136.424
61.07000 138.349
61.08000 140.267
61.09000 141.238
61.10000 141.602
61.11000 141.854
61.12000 142.967
61.13000 144.654
61.14000 146.099
61.15000 140.988
61.16000 132.942
61.17000 125.356
61.18000 128.173
61.19000 133.637
61.20000 138.248
61.21000 136.645
61.22000 133.798
61.23000 131.413
61.24000 131.160
61.25000 131.174
61.26000 131.185
61.27000 135.560
61.28000 139.258
61.29000 142.170
61.30000 143.446
61.31000 144.671
61.32000 145.565
61.33000 145.998
61.34000 146.428
61.35000 142.887
61.36000 135.783
61.37000 128.795
61.38000 128.975
61.39000 133.402
61.40000 137.665
61.41000 138.512
61.42000 137.993
61.43000 137.509
61.44000 139.821
61.45000 142.592
61.46000 145.280
61.47000 147.437
61.48000 149.501
61.49000 150.960
61.50000 149.947
61.51000 148.667
61.52000 147.715
61.53000 149.904
61.54000 151.747
61.55000 157.645
61.56000 171.071
61.57000 184.667
61.58000 194.211
61.59000 198.758
61.60000 203.283
61.61000 211.192
61.62000 221.736
61.63000 232.082
61.64000 234.146
61.65000 231.837
61.66000 229.867
61.67000 233.577
61.68000 239.314
61.69000 244.582
61.70000 248.468
61.71000 251.639
61.72000 254.439
61.73000 255.174
61.74000 255.592
61.75000 253.836
61.76000 244.177
61.77000 233.796
61.78000 226.329
61.79000 221.812
61.80000 218.458
61.81000 213.596
61.82000 206.238
61.83000 198.843
61.84000 190.399
61.85000 180.815
61.86000 171.272
61.87000 166.464
61.88000 164.996
61.89000 163.458
61.90000 159.776
61.91000 155.084
61.92000 150.732
61.93000 151.054
61.94000 152.864
61.95000 154.501
61.96000 150.740
61.97000 146.426
61.98000 143.350
61.99000 146.319
62.00000 150.098
62.01000 152.794
62.02000 151.984
62.03000 150.906
62.04000 150.158
62.05000 149.273
62.06000 148.602
62.07000 148.826
62.08000 150.366
62.09000 151.917
62.10000 150.448
62.11000 146.101
62.12000 141.788
62.13000 142.023
62.14000 145.041
62.15000 147.933
62.16000 147.883
62.17000 146.595
62.18000 144.899
62.19000 138.521
62.20000 130.813
62.21000 123.962
62.22000 127.738
62.23000 132.735
62.24000 137.332
62.25000 140.205
62.26000 142.880
62.27000 145.939
62.28000 150.108
62.29000 154.346
62.30000 157.174
62.31000 147.877
62.32000 140.757
62.33000 138.198
62.34000 141.584
62.35000 144.991
62.36000 146.084
62.37000 145.237
62.38000 144.401
62.39000 144.916
62.40000 146.148
62.41000 147.368
62.42000 148.369
62.43000 149.287
62.44000 149.683
62.45000 145.014
62.46000 139.067
62.47000 133.878
62.48000 139.528
62.49000 145.878
62.50000 150.821
62.51000 150.377
62.52000 149.402
62.53000 146.495
62.54000 138.609
62.55000 130.469
62.56000 125.265
62.57000 131.029
62.58000 135.370
62.59000 137.653
62.60000 137.565
62.61000 137.480
62.62000 138.220
62.63000 139.572
62.64000 140.899
62.65000 139.699
62.66000 137.334
62.67000 135.236
62.68000 137.127
62.69000 140.356
62.70000 143.221
62.71000 143.069
62.72000 142.242
62.73000 141.535
62.74000 140.136
62.75000 138.874
62.76000 137.905
62.77000 137.933
62.78000 138.043
62.79000 137.922
62.80000 137.267
62.81000 136.592
62.82000 136.179
62.83000 138.423
62.84000 140.048
62.85000 139.999
62.86000 138.256
62.87000 136.570
62.88000 140.249
62.89000 147.457
62.90000 154.479
62.91000 150.392
62.92000 141.808
62.93000 133.923
62.94000 134.726
62.95000 138.125
62.96000 141.209
62.97000 142.034
62.98000 142.412
62.99000 142.729
63.00000 144.896
63.01000 146.886
63.02000 148.014
63.03000 146.526
63.04000 144.857
63.05000 143.789
63.06000 143.954
63.07000 144.156
63.08000 144.274
63.09000 144.341
63.10000 144.386
63.11000 142.860
63.12000 139.941
63.13000 137.105
63.14000 139.162
63.15000 144.082
63.16000 148.836
63.17000 149.109
63.18000 147.698
63.19000 146.265
63.20000 144.601
63.21000 142.876
63.22000 141.445
63.23000 141.847
63.24000 142.567
63.25000 143.155
63.26000 142.948
63.27000 142.709
63.28000 142.426
63.29000 142.026
63.30000 141.620
63.31000 141.447
63.32000 141.703
63.33000 141.969
63.34000 142.115
63.35000 144.654
63.36000 146.402
63.37000 147.183
63.38000 147.206
63.39000 147.197
63.40000 145.891
63.41000 143.908
63.42000 142.011
63.43000 139.805
63.44000 137.649
63.45000 135.850
63.46000 137.230
63.47000 139.360
63.48000 141.907
63.49000 146.738
63.50000 151.916
63.51000 156.040
63.52000 150.859
63.53000 146.008
63.54000 143.320
63.55000 145.867
63.56000 148.647
63.57000 149.217
63.58000 146.176
63.59000 143.083
63.60000 141.482
63.61000 146.768
63.62000 150.322
63.63000 152.467
63.64000 153.636
63.65000 154.724
63.66000 153.400
63.67000 150.953
63.68000 148.637
63.69000 151.361
63.70000 155.324
63.71000 158.579
63.72000 156.402
63.73000 153.092
63.74000 150.027
63.75000 148.145
63.76000 146.420
63.77000 145.083
63.78000 153.113
63.79000 160.047
63.80000 162.496
63.81000 155.247
63.82000 147.665
63.83000 142.245
63.84000 139.963
63.85000 137.707
63.86000 139.455
63.87000 144.961
63.88000 150.444
63.89000 154.223
63.90000 156.952
63.91000 159.542
63.92000 158.939
63.93000 157.011
63.94000 155.207
63.95000 157.321
63.96000 160.237
63.97000 162.780
63.98000 162.848
63.99000 162.460
64.00000 161.370
64.01000 157.280
64.02000 152.850
64.03000 149.519
64.04000 154.741
64.05000 159.236
64.06000 160.939
64.07000 157.253
64.08000 153.432
64.09000 149.245
64.10000 144.589
64.11000 139.937
64.12000 141.864
64.13000 149.209
64.14000 156.388
64.15000 155.679
64.16000 150.642
64.17000 146.060
64.18000 149.705
64.19000 156.402
64.20000 162.580
64.21000 161.022
64.22000 157.900
64.23000 154.467
64.24000 149.237
64.25000 143.716
64.26000 140.541
64.27000 146.242
64.28000 152.800
64.29000 157.573
64.30000 158.586
64.31000 159.223
64.32000 160.470
64.33000 162.766
64.34000 165.080
64.35000 166.247
64.36000 166.113
64.37000 165.979
64.38000 164.456
64.39000 161.939
64.40000 159.456
64.41000 158.126
64.42000 157.360
64.43000 156.813
64.44000 159.481
64.45000 163.213
64.46000 166.605
64.47000 163.796
64.48000 160.103
64.49000 157.671
64.50000 161.670
64.51000 166.571
64.52000 169.631
64.53000 166.486
64.54000 162.837
64.55000 160.274
64.56000 161.720
64.57000 162.932
64.58000 164.424
64.59000 166.345
64.60000 168.270
64.61000 167.265
64.62000 163.341
64.63000 159.443
64.64000 161.533
64.65000 167.420
64.66000 173.037
64.67000 171.773
64.68000 167.503
64.69000 163.404
64.70000 161.398
64.71000 160.010
64.72000 158.768
64.73000 162.960
64.74000 167.536
64.75000 171.279
64.76000 171.265
64.77000 170.796
64.78000 170.412
64.79000 170.284
64.80000 170.174
64.81000 170.099
64.82000 174.388
64.83000 177.677
64.84000 178.839
64.85000 177.113
64.86000 175.372
64.87000 175.885
64.88000 178.367
64.89000 180.823
64.90000 179.406
64.91000 175.838
64.92000 172.483
64.93000 173.386
64.94000 175.950
64.95000 178.349
64.96000 179.047
64.97000 179.299
64.98000 179.520
64.99000 179.923
65.00000 180.297
65.01000 181.158
65.02000 183.962
65.03000 186.968
65.04000 189.691
65.05000 191.653
65.06000 193.574
65.07000 194.820
65.08000 188.602
65.09000 183.935
65.10000 183.719
65.11000 188.848
65.12000 193.979
65.13000 196.711
65.14000 197.590
65.15000 198.456
65.16000 198.411
65.17000 197.914
65.18000 197.536
65.19000 199.062
65.20000 201.251
65.21000 203.686
65.22000 208.277
65.23000 213.371
65.24000 217.757
65.25000 218.745
65.26000 219.152
65.27000 219.514
65.28000 219.720
65.29000 219.911
65.30000 223.114
65.31000 233.518
65.32000 244.235
65.33000 250.885
65.34000 256.959
65.35000 261.323
65.36000 265.775
65.37000 270.318
65.38000 274.873
65.39000 280.737
65.40000 287.498
65.41000 294.102
65.42000 295.997
65.43000 295.739
65.44000 295.913
65.45000 301.798
65.46000 309.457
65.47000 317.033
65.48000 323.981
65.49000 330.799
65.50000 336.547
65.51000 348.478
65.52000 359.110
65.53000 367.715
65.54000 369.922
65.55000 371.658
65.56000 374.068
65.57000 377.918
65.58000 381.815
65.59000 384.118
65.60000 378.046
65.61000 373.714
65.62000 379.164
65.63000 393.678
65.64000 408.040
65.65000 411.981
65.66000 409.582
65.67000 407.257
65.68000 417.719
65.69000 432.590
65.70000 448.193
65.71000 471.877
65.72000 497.798
65.73000 524.271
65.74000 554.358
65.75000 585.099
65.76000 610.429
65.77000 653.564
65.78000 690.690
65.79000 729.373
65.80000 772.440
65.81000 815.771
65.82000 848.869
65.83000 862.460
65.84000 875.578
65.85000 882.926
65.86000 891.705
65.87000 897.772
65.88000 895.739
65.89000 887.097
65.90000 878.555
65.91000 874.591
65.92000 873.108
65.93000 871.685
65.94000 864.097
65.95000 854.887
65.96000 842.676
65.97000 802.326
65.98000 755.059
65.99000 707.925
66.00000 661.546
66.01000 615.287
66.02000 578.114
66.03000 522.973
66.04000 476.894
66.05000 434.909
66.06000 403.222
66.07000 372.033
66.08000 347.767
66.09000 335.263
66.10000 322.954
66.11000 316.450
66.12000 303.130
66.13000 294.097
66.14000 287.726
66.15000 283.279
66.16000 278.920
66.17000 277.460
66.18000 277.402
66.19000 277.347
66.20000 278.297
66.21000 279.478
66.22000 281.015
66.23000 285.419
66.24000 290.448
66.25000 295.021
66.26000 297.298
66.27000 299.258
66.28000 300.792
66.29000 307.800
66.30000 313.744
66.31000 320.956
66.32000 331.018
66.33000 341.186
66.34000 351.099
66.35000 360.625
66.36000 370.147
66.37000 375.644
66.38000 377.185
66.39000 378.776
66.40000 384.634
66.41000 393.225
66.42000 401.421
66.43000 399.813
66.44000 393.973
66.45000 388.488
66.46000 381.195
66.47000 374.062
66.48000 367.948
66.49000 368.924
66.50000 371.262
66.51000 372.529
66.52000 369.031
66.53000 364.965
66.54000 361.877
66.55000 357.140
66.56000 353.332
66.57000 346.274
66.58000 332.699
66.59000 318.941
66.60000 309.452
66.61000 305.687
66.62000 301.954
66.63000 296.083
66.64000 288.383
66.65000 280.852
66.66000 282.486
66.67000 289.350
66.68000 295.800
66.69000 294.190
66.70000 289.472
66.71000 285.099
66.72000 288.383
66.73000 293.126
66.74000 297.319
66.75000 298.175
66.76000 298.468
66.77000 299.308
66.78000 302.307
66.79000 305.525
66.80000 307.894
66.81000 299.292
66.82000 292.181
66.83000 287.517
66.84000 287.231
66.85000 287.032
66.86000 290.600
66.87000 298.631
66.88000 306.650
66.89000 309.636
66.90000 308.793
66.91000 307.979
66.92000 308.269
66.93000 309.120
66.94000 309.989
66.95000 311.121
66.96000 312.344
66.97000 313.462
66.98000 312.338
66.99000 310.882
67.00000 309.329
67.01000 307.253
67.02000 305.101
67.03000 304.165
67.04000 307.489
67.05000 311.180
67.06000 313.806
67.07000 317.125
67.08000 319.674
67.09000 322.305
67.10000 325.065
67.11000 327.827
67.12000 330.956
67.13000 334.469
67.14000 337.963
67.15000 338.719
67.16000 337.639
67.17000 336.599
67.18000 336.680
67.19000 337.269
67.20000 338.004
67.21000 340.638
67.22000 343.855
67.23000 346.748
67.24000 349.611
67.25000 352.113
67.26000 353.248
67.27000 347.964
67.28000 341.861
67.29000 338.791
67.30000 345.179
67.31000 352.249
67.32000 357.093
67.33000 359.922
67.34000 361.992
67.35000 361.923
67.36000 358.826
67.37000 355.710
67.38000 356.688
67.39000 361.406
67.40000 366.080
67.41000 366.742
67.42000 365.031
67.43000 363.508
67.44000 366.052
67.45000 370.246
67.46000 374.652
67.47000 381.355
67.48000 388.685
67.49000 395.163
67.50000 394.334
67.51000 392.489
67.52000 390.580
67.53000 388.405
67.54000 386.200
67.55000 384.821
67.56000 385.743
67.57000 386.799
67.58000 387.495
67.59000 381.159
67.60000 376.371
67.61000 378.864
67.62000 390.479
67.63000 402.106
67.64000 408.271
67.65000 410.039
67.66000 411.781
67.67000 415.254
67.68000 419.525
67.69000 423.263
67.70000 417.813
67.71000 409.037
67.72000 401.443
67.73000 404.754
67.74000 410.711
67.75000 415.877
67.76000 414.786
67.77000 413.023
67.78000 413.034
67.79000 419.590
67.80000 426.756
67.81000 434.578
67.82000 444.028
67.83000 453.555
67.84000 459.560
67.85000 452.837
67.86000 447.825
67.87000 447.790
67.88000 453.250
67.89000 458.722
67.90000 465.566
67.91000 473.389
67.92000 481.047
67.93000 484.026
67.94000 484.739
67.95000 485.263
67.96000 483.117
67.97000 480.109
67.98000 477.290
67.99000 475.976
68.00000 474.984
68.01000 474.142
68.02000 487.554
68.03000 500.438
68.04000 510.670
68.05000 512.195
68.06000 513.039
68.07000 512.618
68.08000 509.391
68.09000 506.060
68.10000 504.059
68.11000 512.056
68.12000 517.810
68.13000 523.108
68.14000 527.965
68.15000 532.810
68.16000 536.698
68.17000 539.979
68.18000 543.168
68.19000 537.871
68.20000 529.399
68.21000 522.189
68.22000 529.766
68.23000 541.600
68.24000 552.491
68.25000 556.912
68.26000 560.107
68.27000 562.761
68.28000 564.120
68.29000 565.118
68.30000 565.283
68.31000 563.011
68.32000 560.581
68.33000 563.042
68.34000 575.192
68.35000 587.605
68.36000 594.689
68.37000 614.132
68.38000 627.730
68.39000 636.965
68.40000 642.484
68.41000 647.984
68.42000 652.497
68.43000 656.453
68.44000 660.265
68.45000 650.975
68.46000 637.562
68.47000 626.870
68.48000 643.119
68.49000 666.262
68.50000 684.910
68.51000 676.663
68.52000 663.945
68.53000 653.636
68.54000 702.153
68.55000 746.491
68.56000 779.524
68.57000 783.006
68.58000 784.947
68.59000 793.546
68.60000 813.909
68.61000 834.497
68.62000 845.599
68.63000 892.668
68.64000 924.931
68.65000 963.910
68.66000 1007.941
68.67000 1051.682
68.68000 1084.868
68.69000 1112.749
68.70000 1139.339
68.71000 1188.571
68.72000 1241.390
68.73000 1293.444
68.74000 1339.021
68.75000 1383.128
68.76000 1424.748
68.77000 1453.307
68.78000 1479.971
68.79000 1501.024
68.80000 1545.921
68.81000 1583.572
68.82000 1627.502
68.83000 1686.092
68.84000 1745.283
68.85000 1812.915
68.86000 1893.823
68.87000 1974.894
68.88000 2015.978
68.89000 2182.611
68.90000 2295.324
68.91000 2522.551
68.92000 2826.166
68.93000 3145.237
68.94000 3883.358
68.95000 4809.465
68.96000 5682.781
68.97000 7766.227
68.98000 10010.959
68.99000 12409.376
69.00000 15930.440
69.01000 19676.559
69.02000 23473.621
69.03000 27506.701
69.04000 31569.422
69.05000 34687.063
69.06000 38157.730
69.07000 40920.098
69.08000 43177.047
69.09000 44380.520
69.10000 45551.164
69.11000 46309.426
69.12000 46491.711
69.13000 46670.063
69.14000 46943.203
69.15000 47301.406
69.16000 47661.680
69.17000 48151.039
69.18000 48716.977
69.19000 49257.211
69.20000 49256.367
69.21000 49038.750
69.22000 48836.105
69.23000 47239.418
69.24000 45455.613
69.25000 43594.969
69.26000 41246.000
69.27000 38810.926
69.28000 36392.902
69.29000 34044.832
69.30000 31704.305
69.31000 29962.725
69.32000 28089.322
69.33000 26625.928
69.34000 25478.111
69.35000 24917.213
69.36000 24369.514
69.37000 23823.322
69.38000 23278.994
69.39000 22735.646
69.40000 21762.396
69.41000 20453.660
69.42000 19134.217
69.43000 17362.611
69.44000 15351.925
69.45000 13351.976
69.46000 11532.857
69.47000 9778.425
69.48000 8167.370
69.49000 6724.951
69.50000 5474.112
69.51000 4303.811
69.52000 3581.619
69.53000 2928.549
69.54000 2361.561
69.55000 2108.217
69.56000 1883.582
69.57000 1721.911
69.58000 1578.777
69.59000 1469.833
69.60000 1385.601
69.61000 1342.320
69.62000 1299.656
69.63000 1254.823
69.64000 1207.628
69.65000 1160.637
69.66000 1117.317
69.67000 1077.001
69.68000 1036.993
69.69000 1006.440
69.70000 980.348
69.71000 954.527
69.72000 932.436
69.73000 911.535
69.74000 892.635
69.75000 873.137
69.76000 855.867
69.77000 838.548
69.78000 820.987
69.79000 803.395
69.80000 788.926
69.81000 784.587
69.82000 781.026
69.83000 778.553
69.84000 774.675
69.85000 771.716
69.86000 761.914
69.87000 742.031
69.88000 722.058
69.89000 710.068
69.90000 705.701
69.91000 701.368
69.92000 696.391
69.93000 691.106
69.94000 685.627
69.95000 675.611
69.96000 663.682
69.97000 652.241
69.98000 646.406
69.99000 642.163
70.00000 638.391
