20.00000 551.255
20.01000 555.014
20.02000 559.311
20.03000 564.835
20.04000 575.149
20.05000 585.944
20.06000 593.866
20.07000 587.060
20.08000 581.203
20.09000 577.520
20.10000 577.684
20.11000 577.922
20.12000 576.651
20.13000 573.613
20.14000 570.580
20.15000 571.597
20.16000 575.640
20.17000 579.303
20.18000 569.019
20.19000 551.712
20.20000 535.558
20.21000 537.206
20.22000 544.918
20.23000 551.956
20.24000 551.572
20.25000 549.735
20.26000 549.278
20.27000 556.083
20.28000 563.946
20.29000 569.610
20.30000 567.657
20.31000 565.057
20.32000 563.213
20.33000 560.402
20.34000 558.235
20.35000 557.496
20.36000 559.010
20.37000 560.551
20.38000 566.050
20.39000 575.625
20.40000 585.145
20.41000 583.182
20.42000 573.669
20.43000 564.737
20.44000 571.641
20.45000 585.664
20.46000 598.254
20.47000 592.597
20.48000 581.397
20.49000 571.340
20.50000 570.097
20.51000 570.559
20.52000 569.633
20.53000 562.266
20.54000 554.088
20.55000 549.873
20.56000 557.901
20.57000 566.794
20.58000 572.869
20.59000 581.160
20.60000 587.413
20.61000 585.137
20.62000 570.921
20.63000 556.626
20.64000 547.808
20.65000 543.937
20.66000 540.103
20.67000 545.111
20.68000 555.158
20.69000 564.716
20.70000 563.953
20.71000 559.044
20.72000 554.232
20.73000 550.441
20.74000 546.927
20.75000 543.826
20.76000 553.832
20.77000 564.462
20.78000 572.245
20.79000 568.324
20.80000 563.137
20.81000 559.755
20.82000 561.348
20.83000 563.228
20.84000 564.462
20.85000 552.344
20.86000 543.210
20.87000 540.811
20.88000 546.757
20.89000 552.717
20.90000 555.520
20.91000 555.809
20.92000 556.093
20.93000 557.787
20.94000 560.153
20.95000 562.579
20.96000 565.999
20.97000 569.775
20.98000 572.404
20.99000 564.603
21.00000 554.298
21.01000 545.377
21.02000 552.385
21.03000 560.438
21.04000 566.449
21.05000 565.002
21.06000 562.870
21.07000 560.377
21.08000 556.995
21.09000 553.573
21.10000 551.425
21.11000 555.231
21.12000 558.047
21.13000 560.358
21.14000 562.115
21.15000 563.868
21.16000 565.060
21.17000 565.856
21.18000 566.635
21.19000 565.672
21.20000 563.957
21.21000 562.227
21.22000 560.284
21.23000 558.272
21.24000 556.260
21.25000 554.236
21.26000 552.210
21.27000 550.492
21.28000 551.485
21.29000 552.622
21.30000 555.165
21.31000 562.281
21.32000 569.748
21.33000 571.125
21.34000 559.119
21.35000 546.637
21.36000 539.167
21.37000 550.109
21.38000 557.993
21.39000 559.546
21.40000 555.038
21.41000 550.595
21.42000 551.126
21.43000 554.772
21.44000 558.313
21.45000 558.870
21.46000 558.203
21.47000 557.958
21.48000 562.596
21.49000 568.625
21.50000 573.242
21.51000 568.302
21.52000 561.571
21.53000 555.992
21.54000 552.807
21.55000 550.405
21.56000 548.207
21.57000 546.599
21.58000 545.028
21.59000 545.794
21.60000 551.144
21.61000 556.614
21.62000 559.721
21.63000 574.299
21.64000 584.478
21.65000 589.582
21.66000 590.413
21.67000 591.206
21.68000 590.130
21.69000 588.013
21.70000 585.974
21.71000 595.240
21.72000 607.933
21.73000 620.196
21.74000 628.262
21.75000 635.265
21.76000 641.702
21.77000 644.796
21.78000 647.340
21.79000 649.397
21.80000 657.781
21.81000 665.111
21.82000 675.684
21.83000 694.651
21.84000 714.047
21.85000 730.630
21.86000 742.293
21.87000 753.866
21.88000 760.074
21.89000 757.870
21.90000 756.433
21.91000 769.270
21.92000 792.729
21.93000 816.160
21.94000 838.617
21.95000 860.591
21.96000 881.527
21.97000 881.505
21.98000 874.948
21.99000 869.129
22.00000 869.478
22.01000 871.210
22.02000 873.254
22.03000 876.909
22.04000 880.795
22.05000 883.856
22.06000 869.919
22.07000 857.612
22.08000 848.246
22.09000 845.674
22.10000 843.374
22.11000 831.898
22.12000 806.135
22.13000 780.207
22.14000 767.143
22.15000 756.275
22.16000 748.974
22.17000 738.028
22.18000 724.676
22.19000 711.179
22.20000 693.857
22.21000 674.836
22.22000 656.918
22.23000 639.740
22.24000 624.225
22.25000 609.850
22.26000 603.694
22.27000 599.169
22.28000 595.679
22.29000 596.937
22.30000 598.784
22.31000 600.198
22.32000 583.829
22.33000 569.939
22.34000 560.144
22.35000 558.797
22.36000 557.707
22.37000 558.121
22.38000 560.616
22.39000 563.122
22.40000 563.409
22.41000 561.720
22.42000 560.001
22.43000 556.455
22.44000 551.837
22.45000 547.433
22.46000 547.440
22.47000 549.196
22.48000 550.830
22.49000 550.864
22.50000 550.509
22.51000 549.817
22.52000 547.013
22.53000 543.840
22.54000 540.298
22.55000 535.256
22.56000 530.055
22.57000 526.196
22.58000 532.220
22.59000 537.334
22.60000 543.625
22.61000 552.083
22.62000 560.588
22.63000 557.492
22.64000 540.213
22.65000 522.933
22.66000 519.873
22.67000 527.946
22.68000 535.843
22.69000 536.508
22.70000 533.387
22.71000 530.330
22.72000 528.313
22.73000 526.664
22.74000 525.152
22.75000 525.458
22.76000 526.115
22.77000 527.001
22.78000 529.144
22.79000 531.479
22.80000 532.813
22.81000 530.537
22.82000 527.936
22.83000 526.069
22.84000 523.736
22.85000 521.935
22.86000 520.715
22.87000 520.446
22.88000 520.190
22.89000 523.974
22.90000 532.107
22.91000 540.203
22.92000 541.155
22.93000 537.179
22.94000 533.043
22.95000 524.111
22.96000 512.939
22.97000 502.676
22.98000 504.744
22.99000 510.708
23.00000 516.093
23.01000 518.207
23.02000 519.462
23.03000 519.726
23.04000 515.186
23.05000 510.011
23.06000 509.494
23.07000 523.936
23.08000 539.505
23.09000 550.278
23.10000 541.315
23.11000 534.060
23.12000 528.273
23.13000 524.626
23.14000 520.998
23.15000 518.513
23.16000 517.109
23.17000 515.716
23.18000 516.211
23.19000 517.843
23.20000 519.261
23.21000 515.744
23.22000 510.169
23.23000 505.234
23.24000 507.544
23.25000 511.892
23.26000 515.752
23.27000 521.395
23.28000 526.572
23.29000 528.642
23.30000 517.406
23.31000 504.654
23.32000 494.726
23.33000 492.885
23.34000 491.546
23.35000 490.656
23.36000 493.587
23.37000 495.827
23.38000 500.568
23.39000 508.541
23.40000 516.506
23.41000 514.245
23.42000 503.492
23.43000 492.881
23.44000 494.991
23.45000 503.862
23.46000 512.104
23.47000 508.919
23.48000 501.476
23.49000 495.027
23.50000 498.108
23.51000 503.571
23.52000 508.331
23.53000 511.051
23.54000 513.092
23.55000 514.424
23.56000 513.059
23.57000 511.431
23.58000 511.164
23.59000 514.374
23.60000 517.757
23.61000 519.914
23.62000 522.787
23.63000 524.885
23.64000 524.587
23.65000 521.556
23.66000 518.490
23.67000 509.824
23.68000 497.044
23.69000 484.510
23.70000 488.521
23.71000 500.217
23.72000 511.201
23.73000 511.664
23.74000 508.629
23.75000 505.004
23.76000 496.538
23.77000 486.999
23.78000 478.854
23.79000 494.738
23.80000 510.971
23.81000 524.027
23.82000 526.347
23.83000 527.787
23.84000 525.587
23.85000 515.078
23.86000 504.244
23.87000 497.652
23.88000 500.328
23.89000 502.313
23.90000 506.255
23.91000 512.157
23.92000 517.952
23.93000 513.971
23.94000 503.617
23.95000 493.536
23.96000 497.660
23.97000 507.529
23.98000 517.292
23.99000 525.752
24.00000 533.825
24.01000 539.801
24.02000 530.872
24.03000 519.030
24.04000 509.137
24.05000 506.993
24.06000 505.998
24.07000 506.313
24.08000 510.573
24.09000 515.100
24.10000 514.678
24.11000 504.165
24.12000 493.357
24.13000 487.105
24.14000 488.636
24.15000 489.745
24.16000 494.643
24.17000 502.871
24.18000 510.899
24.19000 507.460
24.20000 497.371
24.21000 487.630
24.22000 486.841
24.23000 489.403
24.24000 492.085
24.25000 495.996
24.26000 500.231
24.27000 504.265
24.28000 507.050
24.29000 509.621
24.30000 511.718
24.31000 503.036
24.32000 495.014
24.33000 491.809
24.34000 501.552
24.35000 512.010
24.36000 516.547
24.37000 510.317
24.38000 503.862
24.39000 500.329
24.40000 483.611
24.41000 472.158
24.42000 475.737
24.43000 490.974
24.44000 505.952
24.45000 510.740
24.46000 510.259
24.47000 509.800
24.48000 512.343
24.49000 515.689
24.50000 517.966
24.51000 510.850
24.52000 501.538
24.53000 493.065
24.54000 489.146
24.55000 485.912
24.56000 483.341
24.57000 486.422
24.58000 489.307
24.59000 492.590
24.60000 496.828
24.61000 501.108
24.62000 501.479
24.63000 495.521
24.64000 489.476
24.65000 486.362
24.66000 497.065
24.67000 504.167
24.68000 498.642
24.69000 484.440
24.70000 470.705
24.71000 470.534
24.72000 476.622
24.73000 482.380
24.74000 482.851
24.75000 481.767
24.76000 481.449
24.77000 486.929
24.78000 493.609
24.79000 498.030
24.80000 491.658
24.81000 483.879
24.82000 477.867
24.83000 484.738
24.84000 490.945
24.85000 493.508
24.86000 488.259
24.87000 482.749
24.88000 479.039
24.89000 477.918
24.90000 476.819
24.91000 480.676
24.92000 489.144
24.93000 497.487
24.94000 497.184
24.95000 491.601
24.96000 485.852
24.97000 476.411
24.98000 465.448
24.99000 455.206
25.00000 466.079
25.01000 481.265
25.02000 494.671
25.03000 496.376
25.04000 495.950
25.05000 495.207
25.06000 493.126
25.07000 490.894
25.08000 489.220
25.09000 481.168
25.10000 474.577
25.11000 470.942
25.12000 472.963
25.13000 475.124
25.14000 479.312
25.15000 486.086
25.16000 492.860
25.17000 491.938
25.18000 484.736
25.19000 477.589
25.20000 472.978
25.21000 469.746
25.22000 466.771
25.23000 468.348
25.24000 471.599
25.25000 474.596
25.26000 480.505
25.27000 486.439
25.28000 491.253
25.29000 489.629
25.30000 486.978
25.31000 484.345
25.32000 481.781
25.33000 479.224
25.34000 477.367
25.35000 471.674
25.36000 467.153
25.37000 466.222
25.38000 471.413
25.39000 476.707
25.40000 480.182
25.41000 481.611
25.42000 483.033
25.43000 479.167
25.44000 471.533
25.45000 464.143
25.46000 464.802
25.47000 469.369
25.48000 473.813
25.49000 476.481
25.50000 478.565
25.51000 480.458
25.52000 475.331
25.53000 469.450
25.54000 464.375
25.55000 463.378
25.56000 462.948
25.57000 463.661
25.58000 468.190
25.59000 473.025
25.60000 476.413
25.61000 478.593
25.62000 480.208
25.63000 481.892
25.64000 483.681
25.65000 485.471
25.66000 484.950
25.67000 482.149
25.68000 479.368
25.69000 474.607
25.70000 468.667
25.71000 463.102
25.72000 466.915
25.73000 474.793
25.74000 481.784
25.75000 478.100
25.76000 471.293
25.77000 465.214
25.78000 464.107
25.79000 463.977
25.80000 463.652
25.81000 462.456
25.82000 461.154
25.83000 461.479
25.84000 466.641
25.85000 472.124
25.86000 475.822
25.87000 476.034
25.88000 476.119
25.89000 474.562
25.90000 470.793
25.91000 467.013
25.92000 463.446
25.93000 460.065
25.94000 456.722
25.95000 459.104
25.96000 464.629
25.97000 469.870
25.98000 469.547
25.99000 467.070
26.00000 464.703
26.01000 463.451
26.02000 462.489
26.03000 461.645
26.04000 461.125
26.05000 460.727
26.06000 461.484
26.07000 466.813
26.08000 472.611
26.09000 474.869
26.10000 467.720
26.11000 460.064
26.12000 455.112
26.13000 461.290
26.14000 465.971
26.15000 469.292
26.16000 470.992
26.17000 472.678
26.18000 471.723
26.19000 468.747
26.20000 465.822
26.21000 466.245
26.22000 468.305
26.23000 469.680
26.24000 460.223
26.25000 447.023
26.26000 435.950
26.27000 443.278
26.28000 454.853
26.29000 464.808
26.30000 468.114
26.31000 470.080
26.32000 470.443
26.33000 465.170
26.34000 459.406
26.35000 457.233
26.36000 463.574
26.37000 470.278
26.38000 474.423
26.39000 478.660
26.40000 481.706
26.41000 482.204
26.42000 480.035
26.43000 477.819
26.44000 470.443
26.45000 459.567
26.46000 448.949
26.47000 448.399
26.48000 452.262
26.49000 456.363
26.50000 463.574
26.51000 471.743
26.52000 477.638
26.53000 466.577
26.54000 452.056
26.55000 439.833
26.56000 443.221
26.57000 447.717
26.58000 449.982
26.59000 445.259
26.60000 440.030
26.61000 437.656
26.62000 441.329
26.63000 445.198
26.64000 447.476
26.65000 449.061
26.66000 450.178
26.67000 455.544
26.68000 464.812
26.69000 473.954
26.70000 474.783
26.71000 470.598
26.72000 466.545
26.73000 463.392
26.74000 460.756
26.75000 458.241
26.76000 457.045
26.77000 456.211
26.78000 455.166
26.79000 452.760
26.80000 450.109
26.81000 447.929
26.82000 458.296
26.83000 467.954
26.84000 473.975
26.85000 469.833
26.86000 465.089
26.87000 459.186
26.88000 451.092
26.89000 442.945
26.90000 438.400
26.91000 439.122
26.92000 439.640
26.93000 442.423
26.94000 447.038
26.95000 451.571
26.96000 452.497
26.97000 451.485
26.98000 450.514
26.99000 452.142
27.00000 454.546
27.01000 457.139
27.02000 461.487
27.03000 466.262
27.04000 469.540
27.05000 464.338
27.06000 457.801
27.07000 452.558
27.08000 449.233
27.09000 446.686
27.10000 445.337
27.11000 446.977
27.12000 448.760
27.13000 451.781
27.14000 456.891
27.15000 462.033
27.16000 464.739
27.17000 460.530
27.18000 457.656
27.19000 452.316
27.20000 445.212
27.21000 438.334
27.22000 438.718
27.23000 442.585
27.24000 446.256
27.25000 449.834
27.26000 453.109
27.27000 455.736
27.28000 453.216
27.29000 449.585
27.30000 446.944
27.31000 449.242
27.32000 452.215
27.33000 454.535
27.34000 453.014
27.35000 451.560
27.36000 451.954
27.37000 456.468
27.38000 461.134
27.39000 464.053
27.40000 464.356
27.41000 464.633
27.42000 462.247
27.43000 457.269
27.44000 452.311
27.45000 449.003
27.46000 446.744
27.47000 444.526
27.48000 443.335
27.49000 442.582
27.50000 441.875
27.51000 448.353
27.52000 456.147
27.53000 462.285
27.54000 457.012
27.55000 449.568
27.56000 442.716
27.57000 438.470
27.58000 434.532
27.59000 431.547
27.60000 430.913
27.61000 430.535
27.62000 432.019
27.63000 437.206
27.64000 442.494
27.65000 448.203
27.66000 454.472
27.67000 460.739
27.68000 459.640
27.69000 452.261
27.70000 445.002
27.71000 444.008
27.72000 446.560
27.73000 448.799
27.74000 445.060
27.75000 439.035
27.76000 433.455
27.77000 433.517
27.78000 434.876
27.79000 436.107
27.80000 436.567
27.81000 436.899
27.82000 436.805
27.83000 435.044
27.84000 433.115
27.85000 431.699
27.86000 450.338
27.87000 465.561
27.88000 471.344
27.89000 460.384
27.90000 449.102
27.91000 443.643
27.92000 445.022
27.93000 446.408
27.94000 442.842
27.95000 435.585
27.96000 428.566
27.97000 430.295
27.98000 436.437
27.99000 442.244
28.00000 442.886
28.01000 441.764
28.02000 440.740
28.03000 431.549
28.04000 421.745
28.05000 415.245
28.06000 426.183
28.07000 439.660
28.08000 451.360
28.09000 456.885
28.10000 461.884
28.11000 465.429
28.12000 455.676
28.13000 447.838
28.14000 443.230
28.15000 443.722
28.16000 444.277
28.17000 442.900
28.18000 439.530
28.19000 436.178
28.20000 433.947
28.21000 432.486
28.22000 431.088
28.23000 431.422
28.24000 432.537
28.25000 433.998
28.26000 439.888
28.27000 447.126
28.28000 453.626
28.29000 444.780
28.30000 434.336
28.31000 426.024
28.32000 427.632
28.33000 430.491
28.34000 433.727
28.35000 438.130
28.36000 442.616
28.37000 445.681
28.38000 448.387
28.39000 450.403
28.40000 448.776
28.41000 442.038
28.42000 435.269
28.43000 433.087
28.44000 435.058
28.45000 437.010
28.46000 439.311
28.47000 441.769
28.48000 444.047
28.49000 442.523
28.50000 439.469
28.51000 436.488
28.52000 434.288
28.53000 432.300
28.54000 430.545
28.55000 435.746
28.56000 441.297
28.57000 442.879
28.58000 428.115
28.59000 411.580
28.60000 402.718
28.61000 415.038
28.62000 428.585
28.63000 437.476
28.64000 432.077
28.65000 427.865
28.66000 428.201
28.67000 434.181
28.68000 440.161
28.69000 440.809
28.70000 437.204
28.71000 433.652
28.72000 434.479
28.73000 437.534
28.74000 440.506
28.75000 442.059
28.76000 443.103
28.77000 443.318
28.78000 435.984
28.79000 426.833
28.80000 418.910
28.81000 427.169
28.82000 436.327
28.83000 442.951
28.84000 440.306
28.85000 436.808
28.86000 430.819
28.87000 418.690
28.88000 406.277
28.89000 398.480
28.90000 414.908
28.91000 427.052
28.92000 432.168
28.93000 429.595
28.94000 427.037
28.95000 427.014
28.96000 428.783
28.97000 430.515
28.98000 429.661
28.99000 427.665
29.00000 426.145
29.01000 431.229
29.02000 438.427
29.03000 444.097
29.04000 437.795
29.05000 428.944
29.06000 421.438
29.07000 421.518
29.08000 422.443
29.09000 424.962
29.10000 432.678
29.11000 440.795
29.12000 443.636
29.13000 434.864
29.14000 425.676
29.15000 420.174
29.16000 415.795
29.17000 412.694
29.18000 415.025
29.19000 422.567
29.20000 430.009
29.21000 429.713
29.22000 424.563
29.23000 419.561
29.24000 416.314
29.25000 413.935
29.26000 411.742
29.27000 411.685
29.28000 412.238
29.29000 413.461
29.30000 419.239
29.31000 425.871
29.32000 431.370
29.33000 437.630
29.34000 442.873
29.35000 444.273
29.36000 434.511
29.37000 424.039
29.38000 417.814
29.39000 419.934
29.40000 422.275
29.41000 423.606
29.42000 424.809
29.43000 425.650
29.44000 428.595
29.45000 433.315
29.46000 437.923
29.47000 436.971
29.48000 432.912
29.49000 429.004
29.50000 426.950
29.51000 425.679
29.52000 425.037
29.53000 430.553
29.54000 437.630
29.55000 443.881
29.56000 445.231
29.57000 445.775
29.58000 446.215
29.59000 447.725
29.60000 449.041
29.61000 448.209
29.62000 441.807
29.63000 435.120
29.64000 431.429
29.65000 432.987
29.66000 434.642
29.67000 435.531
29.68000 443.280
29.69000 448.550
29.70000 448.357
29.71000 444.094
29.72000 439.829
29.73000 435.512
29.74000 431.170
29.75000 427.032
29.76000 426.817
29.77000 427.845
29.78000 429.064
29.79000 431.884
29.80000 435.065
29.81000 439.284
29.82000 448.907
29.83000 459.305
29.84000 467.499
29.85000 465.210
29.86000 462.672
29.87000 460.432
29.88000 458.879
29.89000 457.354
29.90000 460.329
29.91000 470.322
29.92000 480.397
29.93000 485.478
29.94000 474.314
29.95000 466.953
29.96000 469.769
29.97000 479.314
29.98000 488.232
29.99000 480.481
30.00000 465.313
30.01000 451.023
30.02000 450.732
30.03000 454.318
30.04000 458.022
30.05000 462.586
30.06000 467.322
30.07000 471.966
30.08000 476.196
30.09000 480.374
30.10000 483.573
30.11000 467.758
30.12000 454.231
30.13000 445.250
30.14000 445.667
30.15000 446.369
30.16000 445.813
30.17000 443.514
30.18000 441.204
30.19000 442.392
30.20000 446.696
30.21000 450.964
30.22000 453.062
30.23000 453.884
30.24000 454.632
30.25000 453.880
30.26000 452.532
30.27000 451.277
30.28000 452.473
30.29000 454.144
30.30000 454.332
30.31000 445.189
30.32000 434.416
30.33000 426.429
30.34000 429.768
30.35000 434.315
30.36000 437.690
30.37000 443.079
30.38000 447.355
30.39000 450.646
30.40000 452.120
30.41000 453.554
30.42000 449.264
30.43000 437.964
30.44000 426.668
30.45000 425.975
30.46000 433.591
30.47000 441.229
30.48000 449.733
30.49000 458.693
30.50000 466.733
30.51000 459.538
30.52000 446.937
30.53000 435.379
30.54000 439.684
30.55000 446.877
30.56000 452.121
30.57000 446.627
30.58000 439.495
30.59000 434.973
30.60000 439.882
30.61000 445.644
30.62000 449.781
30.63000 447.269
30.64000 445.118
30.65000 444.857
30.66000 447.699
30.67000 450.587
30.68000 458.512
30.69000 471.871
30.70000 485.171
30.71000 487.904
30.72000 483.319
30.73000 478.816
30.74000 476.758
30.75000 475.845
30.76000 475.352
30.77000 480.580
30.78000 487.617
30.79000 493.974
30.80000 496.284
30.81000 497.568
30.82000 499.056
30.83000 501.536
30.84000 504.148
30.85000 506.046
30.86000 505.645
30.87000 505.071
30.88000 504.673
30.89000 527.724
30.90000 545.680
30.91000 552.719
30.92000 543.814
30.93000 534.776
30.94000 540.084
30.95000 558.959
30.96000 577.678
30.97000 594.838
30.98000 610.737
30.99000 627.176
31.00000 656.067
31.01000 690.160
31.02000 724.360
31.03000 759.768
31.04000 795.518
31.05000 827.262
31.06000 880.247
31.07000 929.587
31.08000 982.877
31.09000 1053.110
31.10000 1125.280
31.11000 1206.101
31.12000 1311.736
31.13000 1418.916
31.14000 1490.253
31.15000 1675.622
31.16000 1814.936
31.17000 1959.921
31.18000 2112.244
31.19000 2264.614
31.20000 2425.299
31.21000 2592.902
31.22000 2758.300
31.23000 2937.890
31.24000 3120.261
31.25000 3301.068
31.26000 3453.334
31.27000 3594.950
31.28000 3733.874
31.29000 3846.904
31.30000 3953.450
31.31000 4046.318
31.32000 4103.260
31.33000 4146.946
31.34000 4179.722
31.35000 4170.969
31.36000 4158.169
31.37000 4130.578
31.38000 4065.110
31.39000 3997.745
31.40000 3954.781
31.41000 3803.506
31.42000 3692.097
31.43000 3567.182
31.44000 3426.840
31.45000 3286.319
31.46000 3117.431
31.47000 2927.671
31.48000 2741.541
31.49000 2559.318
31.50000 2385.612
31.51000 2212.232
31.52000 2043.699
31.53000 1876.780
31.54000 1713.620
31.55000 1581.414
31.56000 1456.078
31.57000 1349.016
31.58000 1222.937
31.59000 1114.458
31.60000 1013.867
31.61000 939.988
31.62000 868.301
31.63000 805.661
31.64000 763.712
31.65000 722.573
31.66000 697.525
31.67000 661.361
31.68000 635.438
31.69000 614.675
31.70000 599.086
31.71000 583.483
31.72000 566.528
31.73000 548.692
31.74000 531.323
31.75000 518.482
31.76000 508.138
31.77000 498.395
31.78000 496.015
31.79000 495.822
31.80000 494.735
31.81000 487.286
31.82000 478.590
31.83000 471.323
31.84000 468.809
31.85000 467.205
31.86000 465.080
31.87000 461.384
31.88000 457.581
31.89000 451.762
31.90000 441.828
31.91000 431.772
31.92000 425.951
31.93000 437.938
31.94000 446.409
31.95000 446.655
31.96000 439.661
31.97000 432.806
31.98000 433.955
31.99000 439.753
32.00000 445.351
32.01000 442.756
32.02000 437.280
32.03000 432.428
32.04000 434.013
32.05000 437.298
32.06000 440.018
32.07000 439.229
32.08000 437.837
32.09000 436.700
32.10000 429.899
32.11000 423.850
32.12000 419.213
32.13000 418.377
32.14000 417.752
32.15000 417.543
32.16000 418.092
32.17000 418.656
32.18000 418.966
32.19000 417.930
32.20000 417.207
32.21000 414.196
32.22000 409.406
32.23000 404.648
32.24000 401.149
32.25000 398.302
32.26000 395.580
32.27000 400.177
32.28000 406.844
32.29000 413.465
32.30000 419.694
32.31000 425.830
32.32000 429.846
32.33000 422.338
32.34000 413.096
32.35000 405.747
32.36000 402.841
32.37000 400.817
32.38000 401.662
32.39000 409.406
32.40000 417.453
32.41000 420.677
32.42000 416.078
32.43000 411.369
32.44000 408.942
32.45000 400.528
32.46000 394.863
32.47000 389.488
32.48000 384.313
32.49000 379.387
32.50000 381.697
32.51000 387.353
32.52000 392.704
32.53000 392.045
32.54000 389.714
32.55000 387.240
32.56000 383.681
32.57000 379.898
32.58000 376.748
32.59000 376.629
32.60000 376.905
32.61000 377.119
32.62000 370.698
32.63000 365.213
32.64000 364.094
32.65000 372.354
32.66000 380.930
32.67000 383.771
32.68000 378.342
32.69000 372.847
32.70000 372.343
32.71000 376.490
32.72000 380.634
32.73000 384.560
32.74000 388.354
32.75000 391.868
32.76000 389.090
32.77000 383.715
32.78000 378.692
32.79000 384.759
32.80000 393.064
32.81000 400.755
32.82000 404.394
32.83000 407.294
32.84000 410.019
32.85000 412.000
32.86000 413.897
32.87000 415.320
32.88000 436.162
32.89000 453.368
32.90000 466.248
32.91000 470.834
32.92000 475.216
32.93000 477.544
32.94000 477.248
32.95000 476.944
32.96000 479.689
32.97000 484.921
32.98000 490.137
32.99000 494.654
33.00000 498.788
33.01000 502.504
33.02000 498.761
33.03000 492.268
33.04000 486.283
33.05000 476.147
33.06000 466.152
33.07000 456.806
33.08000 451.195
33.09000 446.181
33.10000 441.775
33.11000 439.657
33.12000 437.759
33.13000 436.380
33.14000 420.238
33.15000 407.271
33.16000 395.630
33.17000 386.256
33.18000 376.921
33.19000 369.615
33.20000 364.597
33.21000 359.598
33.22000 354.278
33.23000 348.770
33.24000 343.456
33.25000 344.549
33.26000 348.758
33.27000 352.447
33.28000 348.602
33.29000 342.279
33.30000 336.536
33.31000 339.746
33.32000 344.313
33.33000 348.599
33.34000 351.464
33.35000 354.132
33.36000 356.189
33.37000 356.204
33.38000 356.056
33.39000 355.951
33.40000 353.644
33.41000 351.835
33.42000 351.710
33.43000 354.145
33.44000 356.606
33.45000 356.569
33.46000 354.062
33.47000 351.573
33.48000 354.121
33.49000 359.826
33.50000 365.272
33.51000 364.207
33.52000 360.315
33.53000 356.402
33.54000 352.239
33.55000 348.002
33.56000 344.217
33.57000 344.589
33.58000 345.612
33.59000 347.172
33.60000 351.135
33.61000 355.386
33.62000 357.696
33.63000 354.221
33.64000 350.360
33.65000 347.755
33.66000 349.467
33.67000 350.833
33.68000 349.815
33.69000 345.580
33.70000 341.331
33.71000 340.385
33.72000 342.306
33.73000 344.204
33.74000 342.096
33.75000 337.795
33.76000 333.733
33.77000 334.389
33.78000 336.875
33.79000 338.985
33.80000 337.283
33.81000 334.587
33.82000 332.222
33.83000 343.029
33.84000 354.231
33.85000 362.760
33.86000 360.698
33.87000 357.545
33.88000 353.900
33.89000 348.944
33.90000 343.918
33.91000 340.664
33.92000 340.416
33.93000 340.279
33.94000 341.486
33.95000 344.294
33.96000 347.091
33.97000 346.691
33.98000 343.838
33.99000 341.033
34.00000 338.704
34.01000 336.687
34.02000 334.797
34.03000 334.938
34.04000 335.782
34.05000 336.435
34.06000 335.437
34.07000 334.057
34.08000 332.869
34.09000 328.324
34.10000 324.054
34.11000 321.529
34.12000 325.153
34.13000 329.312
34.14000 333.401
34.15000 337.322
34.16000 341.237
34.17000 343.659
34.18000 345.143
34.19000 346.200
34.20000 346.380
34.21000 345.638
34.22000 344.876
34.23000 341.906
34.24000 337.434
34.25000 333.069
34.26000 331.765
34.27000 331.855
34.28000 332.013
34.29000 333.069
34.30000 334.401
34.31000 335.580
34.32000 335.616
34.33000 335.419
34.34000 335.252
34.35000 340.409
34.36000 345.282
34.37000 347.617
34.38000 341.990
34.39000 335.785
34.40000 331.953
34.41000 333.159
34.42000 334.528
34.43000 335.335
34.44000 329.251
34.45000 324.923
34.46000 325.916
34.47000 331.802
34.48000 337.619
34.49000 338.917
34.50000 337.482
34.51000 336.093
34.52000 333.994
34.53000 331.735
34.54000 329.587
34.55000 328.657
34.56000 328.062
34.57000 328.777
34.58000 338.002
34.59000 348.758
34.60000 357.608
34.61000 349.832
34.62000 341.930
34.63000 336.084
34.64000 335.995
34.65000 336.249
34.66000 334.032
34.67000 327.139
34.68000 320.135
34.69000 316.225
34.70000 320.933
34.71000 324.207
34.72000 325.577
34.73000 325.404
34.74000 325.262
34.75000 326.457
34.76000 328.373
34.77000 330.212
34.78000 332.395
34.79000 334.554
34.80000 336.900
34.81000 340.987
34.82000 345.499
34.83000 348.990
34.84000 346.683
34.85000 343.462
34.86000 340.878
34.87000 330.692
34.88000 321.864
34.89000 317.652
34.90000 324.977
34.91000 332.852
34.92000 335.964
34.93000 331.041
34.94000 325.987
34.95000 323.327
34.96000 315.301
34.97000 309.905
34.98000 312.170
34.99000 319.926
35.00000 327.516
35.01000 329.743
35.02000 329.394
35.03000 329.063
35.04000 334.842
35.05000 342.011
35.06000 347.368
35.07000 338.287
35.08000 326.085
35.09000 316.110
35.10000 317.254
35.11000 319.923
35.12000 322.007
35.13000 316.574
35.14000 311.766
35.15000 307.820
35.16000 305.795
35.17000 303.842
35.18000 303.098
35.19000 304.172
35.20000 305.263
35.21000 308.299
35.22000 313.228
35.23000 318.105
35.24000 318.676
35.25000 316.505
35.26000 314.370
35.27000 313.087
35.28000 312.169
35.29000 311.309
35.30000 307.465
35.31000 303.176
35.32000 300.395
35.33000 308.032
35.34000 317.656
35.35000 326.540
35.36000 332.163
35.37000 337.400
35.38000 341.371
35.39000 336.903
35.40000 332.962
35.41000 329.878
35.42000 328.502
35.43000 327.173
35.44000 325.801
35.45000 324.373
35.46000 322.945
35.47000 323.563
35.48000 325.929
35.49000 328.184
35.50000 324.605
35.51000 317.721
35.52000 310.896
35.53000 305.202
35.54000 299.941
35.55000 295.068
35.56000 300.360
35.57000 307.473
35.58000 313.585
35.59000 313.666
35.60000 312.738
35.61000 312.238
35.62000 313.419
35.63000 314.769
35.64000 315.761
35.65000 308.369
35.66000 302.312
35.67000 299.733
35.68000 303.333
35.69000 307.052
35.70000 309.857
35.71000 311.586
35.72000 313.308
35.73000 317.035
35.74000 322.244
35.75000 327.263
35.76000 325.268
35.77000 319.728
35.78000 314.676
35.79000 317.198
35.80000 322.310
35.81000 326.976
35.82000 322.508
35.83000 316.694
35.84000 311.999
35.85000 313.223
35.86000 315.311
35.87000 315.387
35.88000 308.465
35.89000 300.946
35.90000 295.609
35.91000 303.268
35.92000 309.506
35.93000 311.922
35.94000 308.291
35.95000 304.584
35.96000 303.185
35.97000 304.173
35.98000 305.155
35.99000 308.083
36.00000 312.261
36.01000 316.245
36.02000 314.870
36.03000 311.078
36.04000 307.651
36.05000 308.891
36.06000 311.555
36.07000 313.948
36.08000 314.363
36.09000 314.378
36.10000 315.081
36.11000 318.994
36.12000 323.314
36.13000 324.764
36.14000 317.322
36.15000 309.247
36.16000 303.726
36.17000 303.835
36.18000 304.051
36.19000 304.190
36.20000 304.221
36.21000 304.253
36.22000 305.548
36.23000 307.989
36.24000 310.406
36.25000 308.485
36.26000 304.071
36.27000 299.685
36.28000 295.908
36.29000 292.377
36.30000 289.627
36.31000 295.266
36.32000 303.182
36.33000 310.170
36.34000 310.261
36.35000 309.284
36.36000 308.626
36.37000 309.286
36.38000 310.089
36.39000 310.782
36.40000 311.175
36.41000 311.549
36.42000 311.796
36.43000 316.292
36.44000 319.673
36.45000 319.362
36.46000 314.463
36.47000 309.564
36.48000 309.364
36.49000 312.921
36.50000 316.423
36.51000 313.613
36.52000 307.630
36.53000 301.760
36.54000 297.811
36.55000 294.552
36.56000 291.629
36.57000 291.779
36.58000 292.669
36.59000 293.439
36.60000 293.605
36.61000 293.666
36.62000 293.589
36.63000 293.006
36.64000 292.376
36.65000 294.100
36.66000 301.636
36.67000 309.442
36.68000 314.348
36.69000 317.309
36.70000 319.429
36.71000 320.344
36.72000 319.939
36.73000 319.494
36.74000 313.671
36.75000 304.041
36.76000 294.616
36.77000 296.143
36.78000 302.598
36.79000 308.573
36.80000 307.867
36.81000 305.016
36.82000 302.796
36.83000 305.534
36.84000 309.330
36.85000 312.549
36.86000 309.992
36.87000 307.193
36.88000 304.824
36.89000 303.854
36.90000 302.993
36.91000 301.884
36.92000 300.228
36.93000 298.553
36.94000 297.548
36.95000 298.259
36.96000 298.776
36.97000 300.226
36.98000 302.575
36.99000 304.929
37.00000 307.791
37.01000 310.971
37.02000 314.060
37.03000 314.575
37.04000 314.028
37.05000 312.949
37.06000 305.705
37.07000 296.699
37.08000 289.753
37.09000 296.824
37.10000 306.531
37.11000 314.582
37.12000 308.831
37.13000 302.753
37.14000 299.955
37.15000 306.699
37.16000 314.052
37.17000 317.006
37.18000 311.301
37.19000 305.366
37.20000 301.989
37.21000 302.248
37.22000 302.441
37.23000 302.790
37.24000 303.271
37.25000 303.743
37.26000 303.740
37.27000 303.471
37.28000 303.212
37.29000 305.016
37.30000 307.442
37.31000 308.804
37.32000 299.734
37.33000 288.012
37.34000 278.870
37.35000 285.039
37.36000 293.734
37.37000 300.772
37.38000 306.444
37.39000 310.950
37.40000 312.140
37.41000 304.719
37.42000 296.854
37.43000 292.023
37.44000 292.515
37.45000 293.106
37.46000 293.423
37.47000 289.680
37.48000 287.141
37.49000 288.805
37.50000 293.609
37.51000 298.393
37.52000 302.460
37.53000 306.169
37.54000 309.704
37.55000 304.455
37.56000 296.838
37.57000 290.171
37.58000 291.478
37.59000 294.581
37.60000 296.702
37.61000 293.700
37.62000 289.960
37.63000 287.013
37.64000 289.084
37.65000 291.082
37.66000 292.990
37.67000 294.692
37.68000 296.386
37.69000 295.526
37.70000 290.677
37.71000 285.782
37.72000 283.310
37.73000 292.133
37.74000 298.013
37.75000 301.783
37.76000 304.156
37.77000 306.406
37.78000 305.386
37.79000 302.909
37.80000 300.574
37.81000 299.568
37.82000 299.014
37.83000 298.681
37.84000 299.946
37.85000 301.529
37.86000 301.888
37.87000 296.614
37.88000 290.640
37.89000 286.063
37.90000 291.610
37.91000 296.546
37.92000 299.403
37.93000 297.955
37.94000 296.375
37.95000 297.080
37.96000 300.954
37.97000 304.847
37.98000 304.049
37.99000 299.061
38.00000 294.128
38.01000 292.490
38.02000 292.793
38.03000 293.117
38.04000 293.878
38.05000 294.813
38.06000 295.683
38.07000 296.316
38.08000 296.831
38.09000 298.191
38.10000 304.880
38.11000 312.501
38.12000 316.724
38.13000 307.101
38.14000 296.000
38.15000 287.755
38.16000 292.117
38.17000 296.064
38.18000 298.353
38.19000 297.581
38.20000 296.741
38.21000 297.158
38.22000 299.118
38.23000 301.078
38.24000 300.703
38.25000 298.496
38.26000 296.408
38.27000 299.177
38.28000 304.497
38.29000 309.756
38.30000 313.985
38.31000 317.849
38.32000 321.395
38.33000 333.111
38.34000 345.287
38.35000 355.359
38.36000 353.809
38.37000 350.480
38.38000 347.430
38.39000 345.384
38.40000 343.429
38.41000 342.026
38.42000 364.182
38.43000 381.947
38.44000 396.522
38.45000 405.850
38.46000 415.100
38.47000 425.848
38.48000 438.214
38.49000 450.524
38.50000 460.738
38.51000 469.394
38.52000 478.411
38.53000 498.343
38.54000 523.392
38.55000 548.172
38.56000 569.289
38.57000 589.245
38.58000 607.273
38.59000 607.068
38.60000 603.515
38.61000 604.194
38.62000 625.451
38.63000 649.442
38.64000 671.904
38.65000 689.439
38.66000 706.601
38.67000 718.488
38.68000 713.889
38.69000 709.995
38.70000 705.900
38.71000 701.509
38.72000 697.116
38.73000 687.013
38.74000 671.501
38.75000 656.117
38.76000 641.239
38.77000 626.938
38.78000 612.378
38.79000 591.799
38.80000 568.701
38.81000 546.633
38.82000 536.295
38.83000 529.267
38.84000 523.025
38.85000 500.356
38.86000 478.059
38.87000 457.731
38.88000 445.872
38.89000 434.983
38.90000 424.059
38.91000 413.035
38.92000 402.004
38.93000 394.658
38.94000 384.923
38.95000 377.673
38.96000 370.142
38.97000 362.246
38.98000 354.352
38.99000 347.876
39.00000 342.582
39.01000 337.357
39.02000 333.288
39.03000 329.949
39.04000 326.381
39.05000 318.603
39.06000 309.252
39.07000 300.444
39.08000 296.866
39.09000 294.600
39.10000 292.624
39.11000 284.836
39.12000 277.370
39.13000 273.051
39.14000 280.729
39.15000 289.580
39.16000 293.687
39.17000 285.629
39.18000 276.960
39.19000 271.427
39.20000 275.109
39.21000 277.906
39.22000 282.399
39.23000 288.833
39.24000 295.231
39.25000 294.657
39.26000 288.945
39.27000 283.341
39.28000 278.993
39.29000 275.399
39.30000 272.148
39.31000 273.997
39.32000 277.548
39.33000 280.914
39.34000 282.762
39.35000 284.273
39.36000 285.563
39.37000 288.094
39.38000 290.375
39.39000 289.532
39.40000 278.091
39.41000 265.779
39.42000 259.509
39.43000 267.078
39.44000 275.193
39.45000 280.137
39.46000 272.545
39.47000 267.020
39.48000 269.105
39.49000 278.839
39.50000 288.488
39.51000 290.281
39.52000 286.935
39.53000 283.677
39.54000 276.797
39.55000 268.720
39.56000 261.233
39.57000 261.012
39.58000 262.952
39.59000 265.201
39.60000 269.662
39.61000 274.556
39.62000 278.647
39.63000 270.529
39.64000 262.546
39.65000 258.012
39.66000 263.904
39.67000 270.507
39.68000 274.844
39.69000 274.545
39.70000 274.108
39.71000 273.855
39.72000 271.322
39.73000 269.535
39.74000 267.634
39.75000 265.631
39.76000 263.687
39.77000 265.164
39.78000 268.631
39.79000 271.980
39.80000 270.452
39.81000 267.205
39.82000 264.509
39.83000 267.530
39.84000 272.064
39.85000 275.499
39.86000 272.111
39.87000 267.546
39.88000 263.819
39.89000 261.777
39.90000 260.251
39.91000 259.624
39.92000 261.427
39.93000 263.364
39.94000 264.208
39.95000 263.058
39.96000 261.866
39.97000 261.213
39.98000 271.378
39.99000 278.358
40.00000 277.911
40.01000 271.683
40.02000 265.613
40.03000 265.824
40.04000 269.293
40.05000 272.611
40.06000 271.207
40.07000 268.357
40.08000 265.604
40.09000 263.718
40.10000 262.035
40.11000 261.625
40.12000 268.149
40.13000 275.718
40.14000 281.740
40.15000 274.984
40.16000 268.624
40.17000 263.019
40.18000 259.234
40.19000 255.529
40.20000 255.277
40.21000 260.637
40.22000 266.075
40.23000 268.881
40.24000 266.263
40.25000 264.498
40.26000 262.779
40.27000 261.090
40.28000 259.547
40.29000 262.274
40.30000 266.979
40.31000 271.430
40.32000 267.490
40.33000 261.452
40.34000 256.279
40.35000 257.688
40.36000 260.465
40.37000 262.438
40.38000 260.561
40.39000 258.180
40.40000 256.338
40.41000 261.490
40.42000 265.992
40.43000 268.977
40.44000 268.698
40.45000 268.308
40.46000 265.443
40.47000 259.004
40.48000 252.537
40.49000 249.869
40.50000 250.751
40.51000 251.679
40.52000 255.883
40.53000 262.096
40.54000 267.949
40.55000 265.715
40.56000 260.137
40.57000 254.923
40.58000 256.418
40.59000 259.472
40.60000 261.714
40.61000 258.600
40.62000 254.507
40.63000 251.600
40.64000 253.728
40.65000 256.423
40.66000 258.446
40.67000 257.765
40.68000 257.104
40.69000 254.297
40.70000 247.371
40.71000 240.343
40.72000 238.374
40.73000 242.879
40.74000 247.401
40.75000 251.215
40.76000 254.434
40.77000 257.557
40.78000 256.205
40.79000 252.411
40.80000 249.007
40.81000 252.589
40.82000 258.751
40.83000 264.432
40.84000 257.921
40.85000 249.387
40.86000 242.671
40.87000 246.450
40.88000 251.911
40.89000 255.303
40.90000 250.904
40.91000 245.759
40.92000 242.020
40.93000 246.399
40.94000 250.073
40.95000 251.001
40.96000 247.229
40.97000 243.376
40.98000 240.856
40.99000 239.840
41.00000 238.829
41.01000 241.547
41.02000 246.932
41.03000 252.224
41.04000 254.447
41.05000 255.175
41.06000 255.677
41.07000 252.896
41.08000 249.033
41.09000 245.525
41.10000 239.833
41.11000 234.382
41.12000 231.909
41.13000 244.544
41.14000 259.286
41.15000 268.749
41.16000 260.527
41.17000 250.878
41.18000 244.109
41.19000 250.812
41.20000 256.274
41.21000 257.339
41.22000 251.708
41.23000 246.006
41.24000 245.439
41.25000 249.957
41.26000 254.444
41.27000 255.154
41.28000 253.453
41.29000 251.756
41.30000 250.184
41.31000 248.665
41.32000 246.997
41.33000 243.507
41.34000 239.484
41.35000 235.888
41.36000 244.829
41.37000 254.732
41.38000 261.872
41.39000 256.636
41.40000 249.907
41.41000 245.683
41.42000 248.937
41.43000 252.691
41.44000 255.225
41.45000 250.044
41.46000 246.023
41.47000 246.041
41.48000 251.515
41.49000 257.016
41.50000 259.016
41.51000 257.971
41.52000 256.938
41.53000 253.168
41.54000 247.952
41.55000 242.879
41.56000 240.602
41.57000 239.412
41.58000 238.301
41.59000 237.999
41.60000 237.908
41.61000 237.828
41.62000 240.660
41.63000 243.518
41.64000 245.716
41.65000 245.290
41.66000 244.594
41.67000 244.565
41.68000 246.317
41.69000 248.165
41.70000 249.362
41.71000 248.591
41.72000 247.998
41.73000 247.510
41.74000 247.147
41.75000 246.769
41.76000 242.841
41.77000 236.187
41.78000 229.646
41.79000 229.249
41.80000 231.910
41.81000 234.308
41.82000 232.537
41.83000 229.320
41.84000 226.608
41.85000 228.281
41.86000 230.971
41.87000 233.286
41.88000 238.497
41.89000 243.274
41.90000 246.874
41.91000 246.321
41.92000 245.405
41.93000 244.627
41.94000 244.177
41.95000 243.742
41.96000 243.472
41.97000 238.909
41.98000 235.587
41.99000 233.596
42.00000 233.005
42.01000 232.427
42.02000 233.473
42.03000 235.623
42.04000 237.723
42.05000 240.656
42.06000 243.827
42.07000 246.522
42.08000 242.978
42.09000 237.506
42.10000 233.044
42.11000 236.149
42.12000 240.804
42.13000 244.725
42.14000 238.042
42.15000 231.326
42.16000 227.269
42.17000 231.570
42.18000 236.479
42.19000 240.140
42.20000 241.146
42.21000 242.066
42.22000 242.608
42.23000 244.021
42.24000 245.024
42.25000 247.920
42.26000 252.558
42.27000 257.099
42.28000 255.099
42.29000 249.139
42.30000 243.365
42.31000 237.968
42.32000 233.007
42.33000 228.499
42.34000 228.969
42.35000 230.808
42.36000 232.140
42.37000 230.172
42.38000 227.609
42.39000 225.500
42.40000 232.807
42.41000 239.673
42.42000 244.372
42.43000 242.999
42.44000 241.262
42.45000 239.301
42.46000 236.912
42.47000 234.514
42.48000 233.173
42.49000 235.922
42.50000 237.834
42.51000 239.422
42.52000 240.748
42.53000 242.000
42.54000 239.952
42.55000 236.123
42.56000 232.449
42.57000 230.098
42.58000 228.350
42.59000 226.682
42.60000 225.760
42.61000 225.020
42.62000 225.001
42.63000 229.077
42.64000 233.800
42.65000 237.591
42.66000 237.480
42.67000 237.092
42.68000 234.820
42.69000 227.835
42.70000 220.625
42.71000 216.539
42.72000 217.734
42.73000 219.015
42.74000 219.691
42.75000 224.390
42.76000 227.581
42.77000 230.994
42.78000 234.565
42.79000 237.955
42.80000 235.484
42.81000 230.193
42.82000 225.168
42.83000 229.243
42.84000 235.740
42.85000 241.293
42.86000 239.299
42.87000 235.672
42.88000 231.932
42.89000 227.625
42.90000 223.239
42.91000 219.814
42.92000 227.676
42.93000 234.662
42.94000 237.879
42.95000 232.674
42.96000 227.157
42.97000 227.588
42.98000 236.964
42.99000 246.430
43.00000 244.931
43.01000 232.727
43.02000 220.685
43.03000 222.124
43.04000 232.158
43.05000 241.859
43.06000 243.383
43.07000 241.394
43.08000 239.528
43.09000 237.510
43.10000 235.630
43.11000 233.847
43.12000 232.738
43.13000 231.758
43.14000 230.862
43.15000 230.333
43.16000 229.849
43.17000 229.481
43.18000 223.267
43.19000 218.085
43.20000 216.047
43.21000 220.284
43.22000 224.694
43.23000 226.050
43.24000 223.331
43.25000 220.594
43.26000 222.448
43.27000 228.229
43.28000 233.949
43.29000 236.432
43.30000 237.076
43.31000 237.619
43.32000 236.198
43.33000 234.023
43.34000 232.009
43.35000 231.059
43.36000 230.452
43.37000 229.661
43.38000 227.755
43.39000 225.662
43.40000 225.256
43.41000 231.462
43.42000 238.338
43.43000 243.391
43.44000 241.024
43.45000 238.889
43.46000 235.853
43.47000 231.211
43.48000 226.538
43.49000 226.027
43.50000 230.420
43.51000 234.810
43.52000 233.868
43.53000 228.916
43.54000 224.119
43.55000 225.043
43.56000 228.864
43.57000 232.414
43.58000 231.756
43.59000 229.657
43.60000 227.741
43.61000 225.157
43.62000 222.729
43.63000 220.515
43.64000 219.439
43.65000 218.529
43.66000 218.208
43.67000 219.938
43.68000 221.843
43.69000 223.196
43.70000 229.294
43.71000 234.085
43.72000 236.557
43.73000 235.352
43.74000 234.102
43.75000 231.059
43.76000 226.161
43.77000 221.290
43.78000 221.070
43.79000 223.939
43.80000 226.597
43.81000 223.457
43.82000 217.696
43.83000 212.382
43.84000 212.793
43.85000 214.952
43.86000 216.893
43.87000 226.122
43.88000 235.489
43.89000 241.418
43.90000 231.285
43.91000 219.117
43.92000 212.121
43.93000 221.185
43.94000 231.394
43.95000 238.379
43.96000 239.263
43.97000 239.779
43.98000 237.673
43.99000 231.876
44.00000 226.055
44.01000 225.121
44.02000 228.624
44.03000 232.094
44.04000 229.970
44.05000 224.617
44.06000 219.434
44.07000 217.891
44.08000 217.816
44.09000 218.259
44.10000 224.275
44.11000 231.805
44.12000 238.455
44.13000 242.911
44.14000 246.420
44.15000 248.355
44.16000 243.784
44.17000 238.505
44.18000 233.102
44.19000 227.356
44.20000 221.590
44.21000 217.801
44.22000 225.682
44.23000 231.681
44.24000 233.804
44.25000 231.099
44.26000 228.379
44.27000 225.150
44.28000 221.513
44.29000 217.930
44.30000 218.454
44.31000 221.084
44.32000 223.973
44.33000 231.291
44.34000 240.204
44.35000 247.527
44.36000 240.285
44.37000 229.528
44.38000 220.208
44.39000 224.991
44.40000 230.927
44.41000 235.742
44.42000 236.437
44.43000 236.751
44.44000 235.348
44.45000 229.700
44.46000 223.854
44.47000 220.177
44.48000 224.537
44.49000 227.781
44.50000 231.892
44.51000 236.954
44.52000 241.990
44.53000 243.372
44.54000 242.163
44.55000 240.979
44.56000 241.395
44.57000 242.524
44.58000 243.979
44.59000 249.979
44.60000 257.440
44.61000 264.493
44.62000 268.337
44.63000 271.494
44.64000 274.174
44.65000 275.262
44.66000 275.994
44.67000 277.064
44.68000 279.239
44.69000 281.499
44.70000 284.557
44.71000 289.378
44.72000 294.262
44.73000 297.191
44.74000 306.480
44.75000 313.120
44.76000 317.860
44.77000 320.770
44.78000 323.760
44.79000 333.100
44.80000 346.437
44.81000 359.393
44.82000 372.198
44.83000 384.300
44.84000 396.356
44.85000 407.881
44.86000 419.253
44.87000 429.502
44.88000 432.094
44.89000 433.243
44.90000 434.196
44.91000 456.330
44.92000 476.663
44.93000 492.599
44.94000 495.721
44.95000 498.023
44.96000 500.717
44.97000 504.183
44.98000 507.670
44.99000 509.655
45.00000 515.609
45.01000 519.763
45.02000 518.369
45.03000 512.279
45.04000 506.411
45.05000 511.849
45.06000 523.626
45.07000 534.965
45.08000 526.152
45.09000 510.710
45.10000 495.766
45.11000 485.726
45.12000 476.934
45.13000 467.169
45.14000 451.617
45.15000 435.107
45.16000 421.740
45.17000 414.595
45.18000 409.283
45.19000 403.218
45.20000 395.194
45.21000 387.069
45.22000 377.889
45.23000 366.854
45.24000 355.785
45.25000 349.831
45.26000 330.275
45.27000 316.927
45.28000 309.173
45.29000 305.605
45.30000 302.014
45.31000 297.639
45.32000 292.872
45.33000 288.328
45.34000 284.565
45.35000 281.320
45.36000 278.370
45.37000 277.887
45.38000 277.962
45.39000 276.158
45.40000 264.545
45.41000 251.518
45.42000 241.245
45.43000 240.629
45.44000 240.785
45.45000 240.051
45.46000 237.248
45.47000 234.360
45.48000 234.227
45.49000 238.403
45.50000 242.630
45.51000 244.766
45.52000 245.261
45.53000 245.580
45.54000 244.669
45.55000 242.943
45.56000 241.233
45.57000 239.985
45.58000 238.942
45.59000 237.959
45.60000 232.827
45.61000 226.983
45.62000 222.538
45.63000 228.249
45.64000 235.983
45.65000 241.444
45.66000 236.424
45.67000 230.096
45.68000 225.247
45.69000 219.144
45.70000 214.255
45.71000 212.470
45.72000 217.122
45.73000 221.972
45.74000 223.215
45.75000 219.446
45.76000 215.647
45.77000 214.543
45.78000 215.853
45.79000 217.167
45.80000 218.754
45.81000 220.501
45.82000 222.274
45.83000 224.576
45.84000 227.088
45.85000 229.426
45.86000 229.328
45.87000 228.648
45.88000 226.723
45.89000 216.926
45.90000 205.749
45.91000 196.798
45.92000 196.929
45.93000 198.032
45.94000 198.851
45.95000 206.478
45.96000 212.709
45.97000 215.999
45.98000 213.847
45.99000 211.575
46.00000 210.362
46.01000 210.451
46.02000 210.544
46.03000 210.696
46.04000 210.893
46.05000 210.988
46.06000 206.858
46.07000 200.505
46.08000 194.630
46.09000 196.718
46.10000 201.642
46.11000 206.160
46.12000 208.028
46.13000 209.131
46.14000 210.598
46.15000 214.081
46.16000 217.872
46.17000 219.507
46.18000 213.322
46.19000 206.428
46.20000 201.474
46.21000 202.469
46.22000 203.438
46.23000 203.752
46.24000 202.990
46.25000 202.211
46.26000 202.396
46.27000 203.623
46.28000 204.846
46.29000 205.702
46.30000 206.294
46.31000 206.998
46.32000 211.090
46.33000 216.773
46.34000 221.885
46.35000 219.198
46.36000 214.035
46.37000 209.369
46.38000 210.904
46.39000 213.404
46.40000 214.844
46.41000 211.123
46.42000 206.714
46.43000 203.360
46.44000 203.406
46.45000 203.712
46.46000 203.924
46.47000 209.995
46.48000 214.719
46.49000 216.811
46.50000 215.045
46.51000 213.245
46.52000 207.450
46.53000 197.861
46.54000 188.351
46.55000 189.338
46.56000 196.715
46.57000 203.936
46.58000 207.547
46.59000 209.645
46.60000 211.422
46.61000 209.552
46.62000 206.649
46.63000 204.071
46.64000 200.672
46.65000 197.593
46.66000 195.326
46.67000 196.557
46.68000 198.191
46.69000 200.113
46.70000 202.865
46.71000 205.669
46.72000 207.538
46.73000 209.211
46.74000 210.446
46.75000 209.584
46.76000 206.000
46.77000 202.408
46.78000 200.513
46.79000 200.035
46.80000 199.563
46.81000 197.096
46.82000 193.620
46.83000 190.625
46.84000 196.478
46.85000 205.644
46.86000 213.565
46.87000 209.460
46.88000 202.334
46.89000 196.119
46.90000 201.658
46.91000 208.032
46.92000 212.288
46.93000 208.455
46.94000 203.830
46.95000 199.851
46.96000 197.533
46.97000 195.298
46.98000 193.871
46.99000 199.444
47.00000 203.591
47.01000 204.028
47.02000 200.211
47.03000 196.418
47.04000 197.877
47.05000 203.213
47.06000 208.449
47.07000 207.587
47.08000 203.854
47.09000 200.355
47.10000 200.343
47.11000 201.496
47.12000 202.356
47.13000 200.791
47.14000 198.687
47.15000 196.888
47.16000 189.473
47.17000 182.551
47.18000 179.346
47.19000 188.768
47.20000 199.231
47.21000 205.115
47.22000 200.490
47.23000 195.450
47.24000 192.376
47.25000 195.104
47.26000 197.101
47.27000 195.612
47.28000 190.614
47.29000 185.655
47.30000 184.375
47.31000 185.505
47.32000 186.606
47.33000 186.661
47.34000 186.274
47.35000 186.466
47.36000 193.822
47.37000 203.311
47.38000 211.043
47.39000 206.214
47.40000 198.916
47.41000 192.813
47.42000 189.637
47.43000 187.299
47.44000 186.562
47.45000 190.676
47.46000 195.122
47.47000 198.527
47.48000 199.797
47.49000 201.004
47.50000 201.704
47.51000 195.194
47.52000 190.598
47.53000 188.508
47.54000 188.631
47.55000 188.777
47.56000 190.223
47.57000 192.427
47.58000 194.556
47.59000 195.324
47.60000 195.542
47.61000 195.769
47.62000 196.079
47.63000 196.411
47.64000 196.773
47.65000 197.321
47.66000 197.901
47.67000 198.375
47.68000 194.032
47.69000 190.064
47.70000 187.177
47.71000 187.212
47.72000 187.411
47.73000 188.350
47.74000 190.643
47.75000 192.964
47.76000 194.238
47.77000 188.724
47.78000 184.933
47.79000 184.662
47.80000 187.137
47.81000 189.628
47.82000 192.803
47.83000 196.334
47.84000 199.711
47.85000 200.200
47.86000 199.710
47.87000 198.947
47.88000 195.776
47.89000 192.039
47.90000 189.329
47.91000 192.223
47.92000 195.963
47.93000 198.940
47.94000 197.000
47.95000 195.082
47.96000 192.474
47.97000 188.200
47.98000 183.853
47.99000 180.285
48.00000 177.985
48.01000 175.704
48.02000 174.525
48.03000 190.245
48.04000 200.763
48.05000 201.635
48.06000 195.846
48.07000 190.174
48.08000 187.983
48.09000 187.407
48.10000 186.861
48.11000 187.098
48.12000 187.541
48.13000 187.495
48.14000 183.721
48.15000 179.172
48.16000 175.799
48.17000 178.076
48.18000 181.094
48.19000 183.430
48.20000 180.348
48.21000 177.581
48.22000 177.006
48.23000 181.153
48.24000 185.460
48.25000 187.232
48.26000 185.335
48.27000 183.409
48.28000 184.201
48.29000 187.535
48.30000 190.812
48.31000 189.974
48.32000 186.609
48.33000 183.578
48.34000 188.080
48.35000 195.701
48.36000 202.826
48.37000 195.140
48.38000 184.408
48.39000 175.405
48.40000 177.828
48.41000 182.345
48.42000 185.824
48.43000 184.893
48.44000 183.465
48.45000 182.392
48.46000 184.216
48.47000 185.780
48.48000 188.298
48.49000 192.652
48.50000 197.052
48.51000 197.675
48.52000 193.456
48.53000 189.225
48.54000 185.489
48.55000 182.171
48.56000 178.843
48.57000 175.042
48.58000 170.984
48.59000 167.487
48.60000 174.074
48.61000 184.391
48.62000 193.905
48.63000 187.252
48.64000 177.700
48.65000 170.264
48.66000 175.060
48.67000 181.821
48.68000 187.198
48.69000 187.362
48.70000 187.024
48.71000 186.778
48.72000 181.938
48.73000 178.040
48.74000 177.842
48.75000 183.986
48.76000 190.239
48.77000 194.356
48.78000 196.060
48.79000 197.755
48.80000 194.453
48.81000 187.568
48.82000 180.788
48.83000 177.556
48.84000 176.055
48.85000 174.734
48.86000 176.051
48.87000 178.239
48.88000 180.227
48.89000 180.796
48.90000 181.022
48.91000 180.594
48.92000 176.835
48.93000 172.610
48.94000 170.042
48.95000 173.030
48.96000 176.468
48.97000 178.881
48.98000 184.267
48.99000 188.430
49.00000 188.622
49.01000 182.756
49.02000 176.825
49.03000 173.901
49.04000 173.962
49.05000 174.023
49.06000 177.924
49.07000 184.210
49.08000 190.097
49.09000 185.864
49.10000 177.224
49.11000 169.030
49.12000 166.228
49.13000 165.013
49.14000 163.927
49.15000 178.276
49.16000 193.389
49.17000 204.656
49.18000 198.664
49.19000 190.586
49.20000 184.960
49.21000 186.665
49.22000 188.861
49.23000 190.345
49.24000 186.448
49.25000 183.432
49.26000 181.895
49.27000 182.358
49.28000 182.829
49.29000 180.863
49.30000 176.771
49.31000 172.726
49.32000 170.022
49.33000 168.137
49.34000 166.590
49.35000 171.747
49.36000 179.513
49.37000 186.614
49.38000 186.932
49.39000 185.476
49.40000 184.198
49.41000 179.845
49.42000 175.656
49.43000 172.235
49.44000 171.870
49.45000 171.822
49.46000 172.707
49.47000 176.079
49.48000 179.588
49.49000 181.862
49.50000 182.591
49.51000 183.101
49.52000 183.804
49.53000 184.738
49.54000 185.672
49.55000 186.363
49.56000 186.868
49.57000 187.364
49.58000 184.156
49.59000 179.215
49.60000 174.540
49.61000 174.122
49.62000 175.182
49.63000 176.547
49.64000 180.574
49.65000 185.219
49.66000 189.217
49.67000 191.124
49.68000 192.477
49.69000 192.048
49.70000 185.325
49.71000 178.051
49.72000 172.813
49.73000 172.427
49.74000 172.250
49.75000 172.140
49.76000 174.602
49.77000 176.397
49.78000 178.665
49.79000 181.431
49.80000 184.168
49.81000 183.619
49.82000 180.828
49.83000 178.103
49.84000 175.039
49.85000 171.958
49.86000 169.170
49.87000 170.223
49.88000 172.467
49.89000 175.188
49.90000 181.489
49.91000 188.524
49.92000 194.452
49.93000 193.042
49.94000 191.074
49.95000 187.821
49.96000 180.526
49.97000 172.935
49.98000 169.794
49.99000 176.129
50.00000 182.775
50.01000 186.697
50.02000 181.048
50.03000 177.010
50.04000 177.008
50.05000 180.732
50.06000 184.397
50.07000 184.055
50.08000 181.285
50.09000 178.601
50.10000 176.867
50.11000 175.594
50.12000 174.831
50.13000 179.675
50.14000 186.066
50.15000 191.493
50.16000 190.641
50.17000 188.653
50.18000 187.017
50.19000 188.155
50.20000 189.343
50.21000 189.685
50.22000 187.648
50.23000 185.468
50.24000 184.785
50.25000 186.946
50.26000 189.175
50.27000 190.422
50.28000 196.182
50.29000 200.168
50.30000 198.575
50.31000 192.447
50.32000 186.513
50.33000 189.358
50.34000 196.946
50.35000 204.230
50.36000 208.733
50.37000 211.994
50.38000 214.938
50.39000 214.930
50.40000 214.198
50.41000 214.822
50.42000 223.173
50.43000 232.745
50.44000 240.432
50.45000 237.669
50.46000 234.630
50.47000 234.958
50.48000 243.726
50.49000 252.899
50.50000 260.304
50.51000 264.715
50.52000 269.077
50.53000 271.377
50.54000 270.927
50.55000 270.638
50.56000 273.116
50.57000 277.584
50.58000 282.065
50.59000 286.943
50.60000 292.012
50.61000 296.828
50.62000 299.054
50.63000 300.331
50.64000 300.596
50.65000 292.758
50.66000 283.163
50.67000 275.083
50.68000 274.597
50.69000 275.157
50.70000 275.594
50.71000 282.495
50.72000 288.411
50.73000 291.515
50.74000 288.320
50.75000 284.891
50.76000 279.636
50.77000 271.633
50.78000 263.603
50.79000 256.681
50.80000 250.843
50.81000 245.040
50.82000 242.130
50.83000 241.067
50.84000 239.961
50.85000 237.788
50.86000 235.155
50.87000 232.683
50.88000 229.524
50.89000 226.463
50.90000 223.415
50.91000 220.463
50.92000 217.530
50.93000 214.493
50.94000 210.997
50.95000 207.446
50.96000 204.751
50.97000 197.826
50.98000 192.167
50.99000 188.377
51.00000 188.326
51.01000 188.379
51.02000 189.451
51.03000 191.883
51.04000 194.320
51.05000 191.709
51.06000 184.771
51.07000 177.913
51.08000 175.283
51.09000 175.056
51.10000 174.905
51.11000 176.230
51.12000 178.122
51.13000 179.875
51.14000 180.323
51.15000 180.422
51.16000 179.703
51.17000 174.032
51.18000 167.529
51.19000 163.385
51.20000 168.499
51.21000 174.555
51.22000 179.007
51.23000 181.142
51.24000 182.698
51.25000 182.758
51.26000 180.150
51.27000 177.490
51.28000 176.065
51.29000 176.098
51.30000 176.134
51.31000 175.579
51.32000 174.581
51.33000 173.661
51.34000 175.624
51.35000 179.050
51.36000 182.255
51.37000 182.008
51.38000 180.578
51.39000 179.271
51.40000 171.070
51.41000 162.388
51.42000 155.853
51.43000 160.714
51.44000 167.245
51.45000 171.722
51.46000 169.029
51.47000 165.719
51.48000 163.368
51.49000 167.976
51.50000 171.705
51.51000 175.291
51.52000 178.650
51.53000 182.007
51.54000 180.415
51.55000 173.687
51.56000 166.996
51.57000 168.159
51.58000 174.526
51.59000 180.565
51.60000 177.504
51.61000 170.325
51.62000 163.655
51.63000 163.532
51.64000 165.411
51.65000 167.101
51.66000 166.424
51.67000 165.412
51.68000 164.922
51.69000 166.876
51.70000 169.139
51.71000 171.497
51.72000 174.148
51.73000 176.820
51.74000 178.649
51.75000 169.799
51.76000 162.917
51.77000 159.471
51.78000 160.869
51.79000 162.302
51.80000 164.912
51.81000 168.592
51.82000 172.237
51.83000 170.262
51.84000 165.033
51.85000 159.956
51.86000 158.147
51.87000 157.659
51.88000 157.421
51.89000 159.873
51.90000 163.057
51.91000 165.870
51.92000 164.852
51.93000 163.384
51.94000 162.773
51.95000 165.710
51.96000 169.034
51.97000 170.685
51.98000 167.697
51.99000 164.438
52.00000 162.295
52.01000 159.931
52.02000 158.187
52.03000 160.107
52.04000 166.600
52.05000 173.082
52.06000 171.139
52.07000 162.437
52.08000 153.864
52.09000 155.631
52.10000 162.699
52.11000 169.403
52.12000 169.879
52.13000 168.107
52.14000 166.000
52.15000 160.811
52.16000 154.876
52.17000 149.734
52.18000 147.736
52.19000 146.454
52.20000 146.698
52.21000 152.559
52.22000 158.940
52.23000 162.691
52.24000 159.926
52.25000 156.857
52.26000 154.925
52.27000 155.437
52.28000 155.834
52.29000 156.741
52.30000 158.206
52.31000 159.668
52.32000 160.526
52.33000 160.957
52.34000 161.378
52.35000 164.734
52.36000 169.299
52.37000 173.273
52.38000 168.993
52.39000 162.054
52.40000 155.701
52.41000 153.962
52.42000 153.210
52.43000 152.573
52.44000 158.870
52.45000 164.942
52.46000 169.120
52.47000 167.100
52.48000 164.598
52.49000 162.625
52.50000 161.822
52.51000 161.061
52.52000 160.604
52.53000 163.023
52.54000 164.761
52.55000 165.035
52.56000 163.895
52.57000 162.747
52.58000 160.957
52.59000 158.762
52.60000 156.630
52.61000 154.919
52.62000 153.464
52.63000 152.276
52.64000 154.212
52.65000 157.045
52.66000 159.424
52.67000 158.709
52.68000 157.410
52.69000 156.331
52.70000 160.088
52.71000 163.660
52.72000 166.559
52.73000 167.492
52.74000 168.299
52.75000 167.356
52.76000 162.956
52.77000 158.464
52.78000 155.904
52.79000 162.242
52.80000 166.687
52.81000 169.145
52.82000 169.920
52.83000 170.660
52.84000 169.629
52.85000 167.602
52.86000 165.650
52.87000 165.143
52.88000 165.182
52.89000 165.465
52.90000 168.162
52.91000 171.474
52.92000 173.422
52.93000 167.236
52.94000 159.703
52.95000 153.601
52.96000 156.085
52.97000 158.807
52.98000 162.339
52.99000 167.981
53.00000 173.733
53.01000 175.792
53.02000 171.349
53.03000 166.783
53.04000 164.325
53.05000 165.789
53.06000 166.799
53.07000 168.938
53.08000 171.922
53.09000 174.727
53.10000 171.068
53.11000 164.172
53.12000 157.597
53.13000 158.927
53.14000 162.645
53.15000 165.949
53.16000 165.760
53.17000 164.781
53.18000 163.470
53.19000 160.419
53.20000 157.115
53.21000 154.510
53.22000 156.965
53.23000 159.277
53.24000 160.236
53.25000 158.051
53.26000 155.737
53.27000 154.851
53.28000 156.200
53.29000 157.577
53.30000 158.273
53.31000 155.597
53.32000 153.863
53.33000 157.781
53.34000 165.458
53.35000 172.918
53.36000 174.559
53.37000 173.597
53.38000 172.690
53.39000 173.689
53.40000 175.131
53.41000 175.730
53.42000 170.202
53.43000 163.449
53.44000 158.130
53.45000 159.425
53.46000 161.548
53.47000 163.175
53.48000 167.604
53.49000 171.258
53.50000 171.875
53.51000 166.183
53.52000 160.297
53.53000 156.551
53.54000 155.784
53.55000 155.038
53.56000 158.374
53.57000 165.367
53.58000 172.263
53.59000 173.165
53.60000 170.525
53.61000 167.770
53.62000 162.620
53.63000 156.513
53.64000 150.829
53.65000 152.009
53.66000 154.743
53.67000 157.068
53.68000 156.801
53.69000 156.078
53.70000 156.082
53.71000 159.057
53.72000 162.352
53.73000 164.800
53.74000 164.338
53.75000 163.849
53.76000 161.998
53.77000 157.623
53.78000 153.191
53.79000 151.425
53.80000 152.940
53.81000 154.461
53.82000 156.615
53.83000 159.257
53.84000 161.835
53.85000 161.753
53.86000 160.270
53.87000 158.829
53.88000 158.092
53.89000 157.605
53.90000 157.158
53.91000 155.132
53.92000 152.990
53.93000 151.167
53.94000 151.122
53.95000 151.350
53.96000 152.842
53.97000 158.926
53.98000 165.427
53.99000 170.101
54.00000 168.293
54.01000 166.684
54.02000 165.264
54.03000 164.158
54.04000 163.057
54.05000 162.116
54.06000 161.349
54.07000 160.585
54.08000 158.309
54.09000 155.007
54.10000 151.833
54.11000 152.579
54.12000 155.167
54.13000 157.612
54.14000 158.096
54.15000 157.956
54.16000 157.829
54.17000 162.493
54.18000 167.485
54.19000 171.059
54.20000 167.715
54.21000 163.447
54.22000 159.273
54.23000 155.407
54.24000 151.563
54.25000 148.898
54.26000 152.164
54.27000 154.780
54.28000 155.702
54.29000 154.137
54.30000 152.549
54.31000 149.974
54.32000 146.459
54.33000 142.972
54.34000 143.738
54.35000 147.092
54.36000 150.386
54.37000 152.306
54.38000 153.649
54.39000 154.833
54.40000 154.201
54.41000 153.054
54.42000 152.035
54.43000 150.644
54.44000 149.379
54.45000 148.518
54.46000 149.407
54.47000 150.497
54.48000 152.025
54.49000 154.816
54.50000 157.688
54.51000 159.602
54.52000 156.261
54.53000 153.686
54.54000 152.800
54.55000 154.109
54.56000 155.428
54.57000 156.516
54.58000 157.409
54.59000 158.292
54.60000 157.425
54.61000 155.638
54.62000 153.992
54.63000 154.938
54.64000 156.856
54.65000 158.518
54.66000 157.699
54.67000 156.255
54.68000 154.996
54.69000 157.779
54.70000 160.724
54.71000 162.793
54.72000 161.511
54.73000 159.900
54.74000 158.450
54.75000 157.417
54.76000 156.405
54.77000 155.758
54.78000 149.142
54.79000 144.249
54.80000 143.733
54.81000 148.247
54.82000 152.756
54.83000 155.318
54.84000 156.440
54.85000 157.541
54.86000 155.438
54.87000 151.883
54.88000 148.425
54.89000 146.418
54.90000 144.897
54.91000 144.091
54.92000 149.213
54.93000 155.657
54.94000 161.167
54.95000 160.135
54.96000 158.481
54.97000 157.866
54.98000 160.790
54.99000 164.006
55.00000 166.852
55.01000 168.850
55.02000 170.814
55.03000 172.012
55.04000 170.042
55.05000 168.608
55.06000 167.963
55.07000 168.113
55.08000 168.239
55.09000 166.000
55.10000 162.208
55.11000 158.515
55.12000 160.673
55.13000 165.196
55.14000 169.396
55.15000 169.597
55.16000 168.604
55.17000 167.342
55.18000 164.160
55.19000 160.599
55.20000 157.621
55.21000 164.599
55.22000 171.415
55.23000 176.585
55.24000 176.765
55.25000 176.602
55.26000 177.350
55.27000 179.964
55.28000 182.635
55.29000 184.184
55.30000 179.029
55.31000 175.383
55.32000 172.633
55.33000 170.676
55.34000 168.737
55.35000 167.904
55.36000 167.715
55.37000 167.533
55.38000 169.600
55.39000 172.384
55.40000 175.826
55.41000 186.111
55.42000 198.213
55.43000 208.365
55.44000 206.355
55.45000 202.238
55.46000 198.875
55.47000 209.579
55.48000 219.556
55.49000 226.028
55.50000 223.016
55.51000 219.474
55.52000 218.397
55.53000 221.835
55.54000 225.370
55.55000 227.311
55.56000 243.346
55.57000 254.412
55.58000 267.284
55.59000 281.567
55.60000 295.707
55.61000 304.084
55.62000 309.463
55.63000 314.609
55.64000 324.067
55.65000 334.290
55.66000 345.004
55.67000 360.074
55.68000 376.170
55.69000 393.382
55.70000 416.700
55.71000 440.942
55.72000 460.243
55.73000 477.698
55.74000 491.638
55.75000 507.470
55.76000 527.878
55.77000 548.489
55.78000 568.087
55.79000 586.034
55.80000 603.957
55.81000 613.222
55.82000 623.798
55.83000 630.934
55.84000 638.776
55.85000 647.107
55.86000 655.757
55.87000 673.826
55.88000 696.272
55.89000 717.516
55.90000 713.494
55.91000 702.496
55.92000 691.067
55.93000 676.343
55.94000 660.932
55.95000 646.876
55.96000 639.341
55.97000 632.663
55.98000 627.492
55.99000 615.038
56.00000 604.717
56.01000 593.331
56.02000 579.646
56.03000 565.882
56.04000 547.435
56.05000 522.198
56.06000 496.910
56.07000 472.536
56.08000 449.030
56.09000 425.606
56.10000 407.982
56.11000 393.925
56.12000 379.840
56.13000 365.099
56.14000 350.086
56.15000 336.050
56.16000 320.374
56.17000 305.725
56.18000 292.219
56.19000 286.282
56.20000 281.735
56.21000 275.320
56.22000 260.950
56.23000 245.680
56.24000 234.206
56.25000 225.346
56.26000 218.545
56.27000 213.094
56.28000 210.246
56.29000 207.462
56.30000 204.423
56.31000 201.054
56.32000 197.689
56.33000 198.235
56.34000 201.998
56.35000 205.570
56.36000 200.158
56.37000 189.823
56.38000 179.850
56.39000 176.374
56.40000 175.304
56.41000 174.317
56.42000 172.114
56.43000 169.870
56.44000 167.929
56.45000 167.742
56.46000 167.837
56.47000 168.412
56.48000 170.801
56.49000 173.365
56.50000 175.229
56.51000 168.944
56.52000 163.798
56.53000 160.389
56.54000 159.964
56.55000 159.591
56.56000 159.540
56.57000 159.854
56.58000 160.167
56.59000 161.094
56.60000 162.459
56.61000 163.748
56.62000 162.504
56.63000 160.023
56.64000 157.797
56.65000 159.311
56.66000 162.062
56.67000 164.561
56.68000 165.155
56.69000 165.308
56.70000 164.807
56.71000 160.971
56.72000 156.668
56.73000 153.803
56.74000 155.772
56.75000 158.133
56.76000 159.791
56.77000 150.478
56.78000 143.107
56.79000 141.019
56.80000 147.004
56.81000 153.076
56.82000 153.414
56.83000 148.050
56.84000 142.722
56.85000 142.663
56.86000 145.968
56.87000 149.170
56.88000 149.734
56.89000 149.148
56.90000 148.181
56.91000 142.580
56.92000 135.613
56.93000 129.386
56.94000 136.093
56.95000 144.129
56.96000 150.964
56.97000 152.397
56.98000 153.176
56.99000 153.901
57.00000 154.463
57.01000 155.013
57.02000 155.385
57.03000 155.116
57.04000 154.901
57.05000 154.207
57.06000 152.863
57.07000 151.515
57.08000 149.311
57.09000 146.361
57.10000 143.443
57.11000 143.135
57.12000 144.303
57.13000 145.569
57.14000 148.761
57.15000 152.704
57.16000 156.018
57.17000 152.908
57.18000 148.114
57.19000 143.905
57.20000 147.095
57.21000 150.921
57.22000 153.433
57.23000 150.707
57.24000 147.439
57.25000 145.572
57.26000 147.454
57.27000 149.540
57.28000 150.893
57.29000 150.180
57.30000 149.628
57.31000 148.238
57.32000 145.847
57.33000 143.454
57.34000 141.166
57.35000 138.961
57.36000 136.792
57.37000 136.662
57.38000 137.549
57.39000 138.639
57.40000 142.965
57.41000 148.417
57.42000 153.116
57.43000 151.231
57.44000 147.815
57.45000 144.875
57.46000 148.375
57.47000 152.154
57.48000 154.050
57.49000 149.278
57.50000 143.921
57.51000 141.368
57.52000 145.511
57.53000 149.943
57.54000 152.691
57.55000 150.307
57.56000 148.543
57.57000 146.104
57.58000 142.955
57.59000 139.820
57.60000 138.367
57.61000 138.063
57.62000 137.765
57.63000 141.871
57.64000 147.736
57.65000 153.171
57.66000 152.955
57.67000 150.986
57.68000 149.164
57.69000 148.442
57.70000 147.947
57.71000 147.530
57.72000 148.607
57.73000 149.667
57.74000 150.535
57.75000 150.794
57.76000 151.009
57.77000 150.875
57.78000 149.997
57.79000 149.095
57.80000 148.562
57.81000 147.642
57.82000 146.990
57.83000 145.626
57.84000 143.604
57.85000 141.610
57.86000 141.524
57.87000 142.598
57.88000 143.638
57.89000 144.541
57.90000 145.342
57.91000 145.943
57.92000 144.343
57.93000 142.136
57.94000 140.754
57.95000 144.770
57.96000 149.764
57.97000 153.876
57.98000 146.225
57.99000 138.853
58.00000 134.184
58.01000 137.116
58.02000 140.504
58.03000 141.829
58.04000 139.227
58.05000 136.531
58.06000 135.022
58.07000 137.514
58.08000 139.245
58.09000 139.064
58.10000 137.326
58.11000 135.588
58.12000 133.891
58.13000 132.215
58.14000 130.606
58.15000 134.765
58.16000 140.630
58.17000 146.262
58.18000 149.719
58.19000 152.642
58.20000 154.956
58.21000 153.786
58.22000 152.065
58.23000 150.681
58.24000 145.466
58.25000 140.946
58.26000 138.791
58.27000 142.579
58.28000 146.653
58.29000 148.502
58.30000 146.578
58.31000 144.592
58.32000 143.544
58.33000 147.813
58.34000 150.689
58.35000 149.558
58.36000 145.541
58.37000 141.542
58.38000 138.179
58.39000 135.121
58.40000 132.216
58.41000 132.821
58.42000 134.439
58.43000 136.214
58.44000 139.257
58.45000 142.577
58.46000 145.344
58.47000 145.340
58.48000 144.954
58.49000 144.652
58.50000 140.228
58.51000 136.436
58.52000 133.850
58.53000 133.973
58.54000 134.198
58.55000 135.321
58.56000 137.800
58.57000 140.294
58.58000 141.610
58.59000 141.771
58.60000 141.929
58.61000 141.687
58.62000 141.190
58.63000 140.588
58.64000 137.392
58.65000 133.077
58.66000 129.027
58.67000 128.425
58.68000 128.791
58.69000 129.376
58.70000 131.473
58.71000 133.860
58.72000 135.671
58.73000 134.927
58.74000 133.879
58.75000 133.084
58.76000 134.589
58.77000 135.891
58.78000 137.697
58.79000 140.510
58.80000 143.352
58.81000 142.825
58.82000 137.792
58.83000 132.739
58.84000 132.395
58.85000 136.100
58.86000 139.713
58.87000 138.444
58.88000 134.395
58.89000 130.646
58.90000 132.721
58.91000 137.038
58.92000 141.040
58.93000 142.704
58.94000 143.658
58.95000 144.335
58.96000 143.333
58.97000 142.048
58.98000 141.585
58.99000 144.354
59.00000 147.452
59.01000 149.732
59.02000 147.410
59.03000 145.424
59.04000 142.951
59.05000 139.608
59.06000 136.248
59.07000 134.532
59.08000 134.762
59.09000 134.995
59.10000 135.296
59.11000 135.645
59.12000 135.991
59.13000 136.218
59.14000 136.383
59.15000 136.443
59.16000 134.847
59.17000 132.682
59.18000 130.704
59.19000 137.846
59.20000 146.046
59.21000 152.921
59.22000 152.753
59.23000 151.550
59.24000 149.281
59.25000 143.286
59.26000 136.971
59.27000 132.481
59.28000 134.287
59.29000 135.863
59.30000 135.002
59.31000 130.267
59.32000 125.482
59.33000 125.099
59.34000 129.295
59.35000 133.468
59.36000 135.068
59.37000 134.934
59.38000 134.771
59.39000 133.776
59.40000 132.404
59.41000 131.214
59.42000 132.368
59.43000 134.242
59.44000 135.926
59.45000 137.739
59.46000 139.351
59.47000 140.360
59.48000 138.550
59.49000 136.382
59.50000 134.427
59.51000 133.138
59.52000 131.897
59.53000 131.047
59.54000 132.443
59.55000 133.542
59.56000 133.692
59.57000 132.502
59.58000 131.302
59.59000 132.075
59.60000 134.646
59.61000 137.192
59.62000 139.942
59.63000 142.754
59.64000 145.385
59.65000 144.131
59.66000 141.305
59.67000 138.806
59.68000 139.862
59.69000 141.887
59.70000 143.677
59.71000 141.401
59.72000 138.809
59.73000 135.750
59.74000 130.751
59.75000 125.539
59.76000 123.764
59.77000 131.538
59.78000 139.872
59.79000 145.356
59.80000 140.140
59.81000 136.117
59.82000 133.100
59.83000 131.344
59.84000 129.606
59.85000 132.744
59.86000 139.800
59.87000 146.752
59.88000 143.607
59.89000 135.318
59.90000 127.537
59.91000 128.478
59.92000 132.572
59.93000 136.642
59.94000 140.493
59.95000 144.292
59.96000 147.585
59.97000 143.419
59.98000 138.881
59.99000 135.055
60.00000 133.854
60.01000 132.896
60.02000 132.177
60.03000 132.050
60.04000 131.951
60.05000 131.888
60.06000 128.763
60.07000 126.467
60.08000 127.331
60.09000 131.677
60.10000 136.005
60.11000 137.397
60.12000 136.700
60.13000 136.018
60.14000 135.198
60.15000 134.346
60.16000 133.559
60.17000 133.679
60.18000 134.090
60.19000 134.653
60.20000 136.414
60.21000 138.432
60.22000 140.146
60.23000 141.347
60.24000 142.296
60.25000 141.583
60.26000 135.422
60.27000 128.836
60.28000 126.136
60.29000 132.049
60.30000 138.275
60.31000 142.014
60.32000 139.541
60.33000 137.742
60.34000 136.847
60.35000 136.826
60.36000 136.804
60.37000 136.658
60.38000 136.435
60.39000 136.218
60.40000 135.410
60.41000 134.404
60.42000 133.409
60.43000 132.548
60.44000 131.726
60.45000 131.386
60.46000 134.342
60.47000 137.921
60.48000 140.893
60.49000 136.213
60.50000 131.603
60.51000 128.273
60.52000 128.686
60.53000 129.341
60.54000 130.421
60.55000 132.342
60.56000 134.286
60.57000 135.394
60.58000 133.068
60.59000 131.436
60.60000 130.528
60.61000 130.234
60.62000 129.935
60.63000 129.391
60.64000 128.707
60.65000 128.049
60.66000 129.726
60.67000 132.133
60.68000 134.232
60.69000 133.284
60.70000 131.558
60.71000 130.606
60.72000 134.285
60.73000 138.732
60.74000 142.336
60.75000 141.435
60.76000 140.333
60.77000 139.245
60.78000 138.190
60.79000 137.137
60.80000 137.904
60.81000 141.881
60.82000 145.919
60.83000 148.095
60.84000 139.615
60.85000 133.835
60.86000 133.824
60.87000 138.146
60.88000 142.307
60.89000 140.651
60.90000 136.079
60.91000 131.718
60.92000 133.230
60.93000 136.482
60.94000 139.356
60.95000 139.041
60.96000 138.004
60.97000 137.625
60.98000 140.697
60.99000 144.270
61.00000 147.089
61.01000 135.848
61.02000 125.876
61.03000 120.232
61.04000 124.674
61.05000 129.529
61.06000 133.516
61.07000 136.139
61.08000 138.746
61.09000 140.066
61.10000 142.200
61.11000 143.621
61.12000 144.268
61.13000 144.398
61.14000 144.599
61.15000 146.686
61.16000 149.618
61.17000 152.382
61.18000 148.865
61.19000 143.901
61.20000 139.311
61.21000 137.442
61.22000 136.117
61.23000 135.024
61.24000 135.001
61.25000 135.112
61.26000 135.197
61.27000 140.789
61.28000 145.513
61.29000 147.739
61.30000 144.770
61.31000 141.639
61.32000 140.381
61.33000 141.734
61.34000 143.105
61.35000 142.873
61.36000 141.203
61.37000 139.534
61.38000 137.934
61.39000 136.375
61.40000 134.850
61.41000 134.020
61.42000 133.469
61.43000 132.955
61.44000 137.054
61.45000 141.882
61.46000 146.854
61.47000 152.736
61.48000 158.777
61.49000 164.861
61.50000 171.115
61.51000 177.387
61.52000 182.052
61.53000 193.471
61.54000 202.655
61.55000 215.278
61.56000 234.289
61.57000 253.443
61.58000 266.818
61.59000 273.064
61.60000 279.280
61.61000 290.557
61.62000 305.776
61.63000 320.793
61.64000 327.353
61.65000 329.448
61.66000 331.189
61.67000 326.989
61.68000 320.668
61.69000 314.864
61.70000 321.842
61.71000 330.792
61.72000 337.593
61.73000 332.463
61.74000 325.496
61.75000 317.741
61.76000 307.122
61.77000 296.241
61.78000 288.414
61.79000 259.154
61.80000 236.005
61.81000 218.164
61.82000 209.104
61.83000 200.174
61.84000 191.043
61.85000 181.691
61.86000 172.380
61.87000 165.038
61.88000 159.140
61.89000 153.387
61.90000 152.078
61.91000 152.863
61.92000 153.268
61.93000 148.464
61.94000 142.000
61.95000 136.156
61.96000 136.890
61.97000 138.761
61.98000 139.940
61.99000 137.733
62.00000 135.074
62.01000 134.435
62.02000 140.340
62.03000 146.746
62.04000 151.190
62.05000 144.901
62.06000 139.880
62.07000 138.938
62.08000 143.997
62.09000 149.109
62.10000 151.305
62.11000 150.722
62.12000 150.143
62.13000 146.449
62.14000 140.911
62.15000 135.645
62.16000 136.714
62.17000 140.450
62.18000 144.080
62.19000 146.510
62.20000 148.600
62.21000 150.457
62.22000 145.769
62.23000 140.643
62.24000 136.263
62.25000 135.115
62.26000 134.339
62.27000 133.812
62.28000 134.005
62.29000 134.243
62.30000 134.402
62.31000 143.557
62.32000 150.512
62.33000 151.687
62.34000 145.328
62.35000 138.944
62.36000 135.631
62.37000 134.894
62.38000 134.167
62.39000 134.650
62.40000 135.776
62.41000 136.880
62.42000 137.583
62.43000 138.136
62.44000 138.650
62.45000 138.789
62.46000 138.834
62.47000 138.873
62.48000 141.022
62.49000 143.155
62.50000 145.344
62.51000 147.751
62.52000 150.180
62.53000 151.281
62.54000 148.958
62.55000 146.463
62.56000 144.867
62.57000 141.685
62.58000 139.348
62.59000 139.470
62.60000 142.423
62.61000 145.383
62.62000 149.146
62.63000 153.505
62.64000 157.782
62.65000 157.009
62.66000 153.853
62.67000 150.679
62.68000 147.244
62.69000 143.722
62.70000 140.451
62.71000 139.266
62.72000 138.548
62.73000 137.933
62.74000 137.442
62.75000 137.042
62.76000 137.823
62.77000 142.629
62.78000 147.770
62.79000 150.950
62.80000 149.617
62.81000 148.105
62.82000 147.181
62.83000 145.149
62.84000 143.686
62.85000 141.297
62.86000 137.971
62.87000 134.711
62.88000 137.682
62.89000 144.751
62.90000 151.638
62.91000 152.374
62.92000 150.481
62.93000 148.688
62.94000 148.134
62.95000 147.949
62.96000 148.095
62.97000 150.609
62.98000 153.591
62.99000 156.087
63.00000 154.732
63.01000 153.212
63.02000 151.504
63.03000 149.222
63.04000 146.901
63.05000 144.613
63.06000 142.396
63.07000 140.180
63.08000 138.893
63.09000 142.806
63.10000 145.577
63.11000 149.041
63.12000 153.121
63.13000 157.150
63.14000 158.210
63.15000 157.533
63.16000 156.878
63.17000 153.988
63.18000 150.430
63.19000 147.136
63.20000 146.611
63.21000 146.821
63.22000 146.771
63.23000 145.095
63.24000 143.138
63.25000 141.539
63.26000 145.727
63.27000 149.657
63.28000 154.325
63.29000 160.993
63.30000 167.774
63.31000 169.976
63.32000 163.783
63.33000 157.409
63.34000 153.906
63.35000 149.963
63.36000 147.254
63.37000 146.542
63.38000 147.392
63.39000 148.189
63.40000 146.875
63.41000 144.459
63.42000 142.147
63.43000 145.450
63.44000 150.372
63.45000 154.513
63.46000 151.713
63.47000 147.274
63.48000 143.876
63.49000 146.177
63.50000 149.342
63.51000 151.863
63.52000 156.149
63.53000 159.733
63.54000 161.147
63.55000 157.310
63.56000 153.240
63.57000 152.776
63.58000 158.206
63.59000 163.720
63.60000 166.572
63.61000 164.795
63.62000 163.578
63.63000 160.256
63.64000 155.474
63.65000 150.921
63.66000 153.125
63.67000 158.474
63.68000 163.538
63.69000 161.448
63.70000 157.456
63.71000 153.816
63.72000 152.875
63.73000 152.497
63.74000 152.144
63.75000 151.913
63.76000 151.699
63.77000 151.532
63.78000 153.540
63.79000 155.264
63.80000 158.624
63.81000 165.520
63.82000 172.537
63.83000 175.027
63.84000 170.944
63.85000 166.807
63.86000 161.903
63.87000 156.280
63.88000 150.734
63.89000 150.676
63.90000 154.001
63.91000 157.120
63.92000 155.573
63.93000 152.086
63.94000 148.825
63.95000 152.533
63.96000 157.674
63.97000 162.202
63.98000 162.665
63.99000 162.381
64.00000 162.463
64.01000 164.112
64.02000 165.939
64.03000 167.312
64.04000 159.897
64.05000 153.675
64.06000 150.176
64.07000 151.933
64.08000 153.822
64.09000 155.917
64.10000 158.276
64.11000 160.633
64.12000 161.664
64.13000 161.599
64.14000 161.526
64.15000 161.031
64.16000 160.304
64.17000 159.548
64.18000 158.239
64.19000 156.727
64.20000 155.331
64.21000 157.330
64.22000 159.879
64.23000 161.877
64.24000 160.682
64.25000 158.973
64.26000 158.120
64.27000 160.508
64.28000 163.209
64.29000 165.174
64.30000 162.725
64.31000 160.672
64.32000 161.196
64.33000 166.151
64.34000 171.182
64.35000 172.561
64.36000 169.793
64.37000 167.030
64.38000 164.953
64.39000 163.391
64.40000 161.994
64.41000 166.210
64.42000 173.174
64.43000 179.399
64.44000 174.795
64.45000 166.604
64.46000 159.159
64.47000 163.230
64.48000 169.075
64.49000 173.936
64.50000 173.782
64.51000 172.924
64.52000 172.348
64.53000 172.722
64.54000 173.172
64.55000 173.489
64.56000 174.087
64.57000 174.549
64.58000 176.068
64.59000 179.207
64.60000 182.363
64.61000 181.823
64.62000 177.599
64.63000 173.403
64.64000 172.844
64.65000 174.616
64.66000 176.518
64.67000 181.701
64.68000 188.318
64.69000 194.205
64.70000 191.189
64.71000 185.546
64.72000 180.500
64.73000 181.561
64.74000 183.522
64.75000 184.970
64.76000 184.104
64.77000 182.958
64.78000 181.621
64.79000 179.709
64.80000 177.759
64.81000 176.441
64.82000 182.568
64.83000 187.293
64.84000 190.170
64.85000 190.535
64.86000 190.881
64.87000 187.646
64.88000 181.277
64.89000 174.978
64.90000 176.683
64.91000 182.864
64.92000 189.103
64.93000 196.500
64.94000 204.348
64.95000 211.140
64.96000 207.090
64.97000 200.194
64.98000 194.137
64.99000 202.771
65.00000 212.353
65.01000 220.713
65.02000 224.197
65.03000 227.173
65.04000 227.342
65.05000 219.991
65.06000 212.228
65.07000 207.190
65.08000 216.986
65.09000 224.384
65.10000 227.492
65.11000 225.446
65.12000 223.422
65.13000 229.400
65.14000 241.556
65.15000 253.510
65.16000 258.490
65.17000 259.831
65.18000 261.266
65.19000 264.194
65.20000 267.642
65.21000 271.169
65.22000 275.385
65.23000 279.761
65.24000 283.530
65.25000 289.283
65.26000 294.408
65.27000 301.359
65.28000 314.783
65.29000 328.777
65.30000 339.575
65.31000 342.730
65.32000 345.553
65.33000 347.305
65.34000 358.487
65.35000 366.624
65.36000 375.472
65.37000 385.071
65.38000 394.678
65.39000 405.182
65.40000 416.300
65.41000 427.159
65.42000 428.508
65.43000 425.613
65.44000 423.743
65.45000 435.405
65.46000 451.272
65.47000 465.421
65.48000 466.628
65.49000 465.169
65.50000 463.939
65.51000 467.057
65.52000 470.132
65.53000 474.152
65.54000 481.157
65.55000 488.382
65.56000 493.751
65.57000 495.158
65.58000 496.434
65.59000 497.188
65.60000 502.148
65.61000 505.675
65.62000 510.056
65.63000 515.227
65.64000 520.477
65.65000 531.092
65.66000 544.972
65.67000 558.422
65.68000 589.961
65.69000 626.844
65.70000 665.844
65.71000 728.237
65.72000 797.103
65.73000 865.966
65.74000 934.815
65.75000 1003.661
65.76000 1060.385
65.77000 1123.211
65.78000 1175.465
65.79000 1223.008
65.80000 1257.277
65.81000 1290.746
65.82000 1320.421
65.83000 1342.865
65.84000 1365.134
65.85000 1377.609
65.86000 1386.776
65.87000 1393.092
65.88000 1387.477
65.89000 1372.127
65.90000 1356.567
65.91000 1331.471
65.92000 1301.207
65.93000 1272.148
65.94000 1208.005
65.95000 1135.974
65.96000 1063.385
65.97000 985.568
65.98000 906.465
65.99000 825.682
66.00000 735.288
66.01000 643.367
66.02000 569.499
66.03000 511.266
66.04000 465.266
66.05000 427.984
66.06000 412.636
66.07000 398.347
66.08000 383.032
66.09000 365.973
66.10000 348.886
66.11000 339.857
66.12000 330.835
66.13000 324.745
66.14000 324.430
66.15000 328.284
66.16000 331.942
66.17000 329.198
66.18000 323.357
66.19000 317.807
66.20000 319.768
66.21000 323.849
66.22000 328.386
66.23000 336.593
66.24000 345.600
66.25000 354.987
66.26000 366.293
66.27000 377.863
66.28000 386.913
66.29000 404.888
66.30000 419.806
66.31000 435.701
66.32000 453.793
66.33000 471.967
66.34000 484.024
66.35000 486.836
66.36000 489.554
66.37000 495.578
66.38000 504.850
66.39000 514.052
66.40000 517.327
66.41000 516.803
66.42000 516.153
66.43000 512.389
66.44000 507.280
66.45000 502.482
66.46000 509.295
66.47000 518.595
66.48000 524.429
66.49000 506.125
66.50000 483.185
66.51000 462.391
66.52000 451.133
66.53000 441.014
66.54000 433.327
66.55000 411.361
66.56000 393.353
66.57000 378.162
66.58000 368.620
66.59000 359.237
66.60000 350.771
66.61000 343.533
66.62000 336.306
66.63000 336.988
66.64000 344.481
66.65000 351.842
66.66000 352.047
66.67000 348.171
66.68000 344.377
66.69000 342.213
66.70000 340.677
66.71000 339.253
66.72000 337.637
66.73000 336.138
66.74000 335.115
66.75000 336.988
66.76000 339.348
66.77000 341.525
66.78000 342.976
66.79000 344.353
66.80000 345.367
66.81000 341.341
66.82000 338.017
66.83000 338.729
66.84000 346.663
66.85000 354.739
66.86000 362.241
66.87000 369.062
66.88000 375.865
66.89000 375.596
66.90000 369.972
66.91000 364.452
66.92000 362.861
66.93000 363.270
66.94000 363.448
66.95000 360.022
66.96000 355.356
66.97000 351.092
66.98000 359.323
66.99000 369.184
67.00000 377.256
67.01000 375.801
67.02000 372.943
67.03000 371.558
67.04000 375.332
67.05000 379.551
67.06000 382.551
67.07000 384.961
67.08000 386.777
67.09000 387.330
67.10000 385.871
67.11000 384.386
67.12000 384.826
67.13000 387.273
67.14000 389.706
67.15000 390.762
67.16000 390.886
67.17000 391.195
67.18000 396.680
67.19000 404.516
67.20000 411.222
67.21000 403.297
67.22000 390.882
67.23000 379.718
67.24000 393.039
67.25000 409.066
67.26000 422.109
67.27000 421.144
67.28000 418.392
67.29000 415.694
67.30000 413.166
67.31000 410.650
67.32000 408.926
67.33000 414.357
67.34000 418.598
67.35000 423.825
67.36000 430.445
67.37000 437.074
67.38000 440.279
67.39000 440.356
67.40000 440.432
67.41000 442.071
67.42000 444.595
67.43000 447.156
67.44000 450.496
67.45000 454.151
67.46000 457.821
67.47000 461.647
67.48000 465.516
67.49000 468.935
67.50000 461.079
67.51000 452.552
67.52000 447.337
67.53000 455.881
67.54000 465.933
67.55000 473.836
67.56000 475.754
67.57000 477.321
67.58000 478.352
67.59000 480.892
67.60000 482.789
67.61000 488.475
67.62000 498.907
67.63000 509.328
67.64000 510.501
67.65000 504.228
67.66000 498.047
67.67000 496.016
67.68000 496.200
67.69000 496.567
67.70000 500.084
67.71000 504.742
67.72000 510.111
67.73000 522.037
67.74000 535.554
67.75000 547.275
67.76000 541.719
67.77000 534.685
67.78000 530.026
67.79000 534.127
67.80000 539.046
67.81000 543.200
67.82000 545.452
67.83000 547.616
67.84000 548.979
67.85000 560.449
67.86000 568.867
67.87000 568.054
67.88000 557.046
67.89000 546.098
67.90000 544.577
67.91000 549.774
67.92000 554.863
67.93000 564.927
67.94000 576.881
67.95000 588.460
67.96000 594.766
67.97000 599.368
67.98000 603.613
67.99000 605.032
68.00000 605.843
68.01000 606.532
68.02000 598.426
68.03000 590.618
68.04000 587.001
68.05000 597.148
68.06000 608.371
68.07000 612.870
68.08000 602.444
68.09000 591.473
68.10000 584.879
68.11000 601.538
68.12000 613.539
68.13000 621.056
68.14000 624.229
68.15000 627.458
68.16000 635.162
68.17000 645.697
68.18000 655.934
68.19000 656.298
68.20000 652.642
68.21000 650.356
68.22000 664.131
68.23000 682.529
68.24000 698.266
68.25000 695.752
68.26000 689.781
68.27000 684.822
68.28000 691.339
68.29000 697.843
68.30000 705.357
68.31000 715.828
68.32000 726.489
68.33000 735.548
68.34000 741.431
68.35000 747.228
68.36000 750.537
68.37000 773.777
68.38000 790.045
68.39000 799.300
68.40000 802.585
68.41000 805.939
68.42000 812.904
68.43000 821.904
68.44000 830.573
68.45000 844.986
68.46000 860.578
68.47000 875.399
68.48000 882.596
68.49000 887.842
68.50000 894.292
68.51000 907.944
68.52000 922.794
68.53000 934.832
68.54000 972.250
68.55000 1004.811
68.56000 1040.163
68.57000 1082.812
68.58000 1125.841
68.59000 1159.509
68.60000 1176.635
68.61000 1193.446
68.62000 1202.513
68.63000 1298.639
68.64000 1364.513
68.65000 1438.457
68.66000 1518.471
68.67000 1598.053
68.68000 1661.945
68.69000 1717.953
68.70000 1771.367
68.71000 1844.782
68.72000 1919.207
68.73000 1992.990
68.74000 2061.334
68.75000 2128.443
68.76000 2194.625
68.77000 2255.929
68.78000 2316.527
68.79000 2364.372
68.80000 2478.996
68.81000 2575.522
68.82000 2682.973
68.83000 2815.927
68.84000 2949.928
68.85000 3145.567
68.86000 3438.157
68.87000 3731.928
68.88000 3880.801
68.89000 4838.954
68.90000 5486.560
68.91000 6740.996
68.92000 8400.230
68.93000 10112.520
68.94000 13263.283
68.95000 17059.350
68.96000 20639.027
68.97000 26444.744
68.98000 32381.633
68.99000 38371.254
69.00000 44746.090
69.01000 51198.148
69.02000 57391.813
69.03000 62388.305
69.04000 67234.445
69.05000 70953.258
69.06000 73675.484
69.07000 75771.195
69.08000 77399.086
69.09000 78051.820
69.10000 78674.164
69.11000 79304.742
69.12000 79946.820
69.13000 80588.742
69.14000 81322.625
69.15000 82138.555
69.16000 82942.445
69.17000 82996.977
69.18000 82606.930
69.19000 82141.313
69.20000 80085.188
69.21000 77391.852
69.22000 74883.844
69.23000 70517.383
69.24000 66115.836
69.25000 61803.883
69.26000 58061.313
69.27000 54419.141
69.28000 51012.836
69.29000 48574.133
69.30000 46239.742
69.31000 44502.730
69.32000 42784.254
69.33000 41448.121
69.34000 40206.129
69.35000 39139.215
69.36000 38076.242
69.37000 36601.770
69.38000 34618.664
69.39000 32637.719
69.40000 29972.754
69.41000 26779.148
69.42000 23586.896
69.43000 20451.809
69.44000 17346.947
69.45000 14282.847
69.46000 11905.312
69.47000 9773.366
69.48000 7815.650
69.49000 6370.652
69.50000 5191.036
69.51000 4108.929
69.52000 3569.362
69.53000 3113.483
69.54000 2703.392
69.55000 2460.131
69.56000 2232.141
69.57000 2068.055
69.58000 1927.987
69.59000 1821.581
69.60000 1727.917
69.61000 1655.365
69.62000 1583.131
69.63000 1516.420
69.64000 1455.722
69.65000 1395.290
69.66000 1348.143
69.67000 1310.732
69.68000 1273.368
69.69000 1237.415
69.70000 1202.128
69.71000 1167.341
69.72000 1139.441
69.73000 1113.738
69.74000 1090.497
69.75000 1082.657
69.76000 1078.630
69.77000 1071.399
69.78000 1048.472
69.79000 1023.441
69.80000 995.964
69.81000 960.556
69.82000 924.539
69.83000 899.536
69.84000 895.015
69.85000 892.156
69.86000 889.371
69.87000 886.694
69.88000 884.018
69.89000 879.100
69.90000 872.040
69.91000 865.038
69.92000 854.915
69.93000 843.056
69.94000 831.163
69.95000 818.452
69.96000 805.396
69.97000 793.095
69.98000 789.472
69.99000 788.316
70.00000 787.288
