20.00000 574.953
20.01000 575.134
20.02000 575.340
20.03000 575.503
20.04000 575.497
20.05000 575.473
20.06000 575.456
20.07000 571.515
20.08000 568.310
20.09000 566.169
20.10000 565.911
20.11000 565.690
20.12000 568.150
20.13000 573.754
20.14000 579.347
20.15000 571.715
20.16000 554.231
20.17000 537.321
20.18000 541.447
20.19000 556.166
20.20000 570.125
20.21000 572.350
20.22000 570.577
20.23000 568.959
20.24000 565.686
20.25000 562.450
20.26000 558.891
20.27000 553.636
20.28000 548.133
20.29000 545.139
20.30000 550.839
20.31000 557.278
20.32000 561.843
20.33000 561.390
20.34000 560.888
20.35000 561.426
20.36000 563.603
20.37000 565.800
20.38000 568.978
20.39000 573.164
20.40000 577.327
20.41000 577.726
20.42000 575.638
20.43000 573.404
20.44000 567.212
20.45000 559.239
20.46000 551.695
20.47000 549.607
20.48000 549.177
20.49000 548.791
20.50000 554.707
20.51000 560.991
20.52000 566.397
20.53000 567.725
20.54000 568.539
20.55000 569.442
20.56000 570.623
20.57000 571.824
20.58000 572.644
20.59000 564.227
20.60000 557.714
20.61000 556.832
20.62000 563.832
20.63000 570.881
20.64000 570.512
20.65000 563.444
20.66000 556.446
20.67000 563.616
20.68000 578.880
20.69000 593.300
20.70000 589.870
20.71000 579.274
20.72000 568.899
20.73000 560.900
20.74000 553.543
20.75000 547.051
20.76000 547.542
20.77000 549.031
20.78000 549.437
20.79000 545.391
20.80000 540.863
20.81000 538.852
20.82000 543.774
20.83000 549.096
20.84000 552.588
20.85000 545.429
20.86000 539.986
20.87000 537.971
20.88000 540.203
20.89000 542.456
20.90000 547.925
20.91000 555.955
20.92000 563.863
20.93000 564.720
20.94000 561.927
20.95000 559.018
20.96000 554.154
20.97000 548.590
20.98000 543.741
20.99000 545.395
21.00000 548.611
21.01000 551.395
21.02000 551.247
21.03000 550.735
21.04000 551.923
21.05000 559.320
21.06000 567.287
21.07000 571.821
21.08000 567.910
21.09000 563.609
21.10000 560.909
21.11000 564.872
21.12000 567.809
21.13000 568.114
21.14000 565.545
21.15000 563.008
21.16000 565.039
21.17000 570.292
21.18000 575.431
21.19000 569.188
21.20000 558.029
21.21000 547.390
21.22000 543.953
21.23000 542.819
21.24000 541.331
21.25000 537.073
21.26000 532.227
21.27000 528.119
21.28000 520.378
21.29000 513.481
21.30000 510.547
21.31000 520.500
21.32000 531.444
21.33000 540.502
21.34000 545.417
21.35000 550.184
21.36000 553.036
21.37000 563.172
21.38000 570.412
21.39000 570.166
21.40000 562.753
21.41000 555.437
21.42000 555.607
21.43000 560.465
21.44000 565.183
21.45000 563.535
21.46000 559.420
21.47000 555.076
21.48000 548.096
21.49000 540.366
21.50000 535.036
21.51000 545.975
21.52000 559.960
21.53000 571.551
21.54000 563.849
21.55000 555.642
21.56000 549.241
21.57000 548.078
21.58000 547.247
21.59000 549.112
21.60000 556.265
21.61000 563.558
21.62000 567.700
21.63000 571.305
21.64000 573.812
21.65000 574.462
21.66000 573.550
21.67000 572.607
21.68000 570.155
21.69000 566.860
21.70000 563.689
21.71000 565.651
21.72000 569.308
21.73000 573.020
21.74000 577.272
21.75000 581.660
21.76000 585.503
21.77000 586.119
21.78000 586.205
21.79000 586.275
21.80000 589.888
21.81000 593.113
21.82000 598.242
21.83000 608.301
21.84000 618.612
21.85000 626.091
21.86000 628.614
21.87000 631.046
21.88000 632.351
21.89000 639.630
21.90000 644.664
21.91000 660.875
21.92000 685.404
21.93000 709.609
21.94000 722.350
21.95000 729.388
21.96000 736.095
21.97000 737.661
21.98000 737.510
21.99000 738.723
22.00000 751.330
22.01000 766.495
22.02000 781.029
22.03000 792.284
22.04000 803.070
22.05000 811.565
22.06000 813.950
22.07000 815.452
22.08000 816.172
22.09000 815.082
22.10000 813.920
22.11000 808.354
22.12000 795.934
22.13000 783.433
22.14000 777.135
22.15000 772.193
22.16000 768.883
22.17000 764.902
22.18000 760.478
22.19000 755.631
22.20000 739.615
22.21000 718.639
22.22000 698.879
22.23000 683.369
22.24000 670.343
22.25000 658.981
22.26000 659.618
22.27000 662.633
22.28000 661.742
22.29000 642.946
22.30000 621.931
22.31000 605.846
22.32000 602.765
22.33000 601.044
22.34000 597.591
22.35000 590.563
22.36000 583.427
22.37000 578.086
22.38000 575.224
22.39000 572.379
22.40000 568.133
22.41000 562.646
22.42000 557.196
22.43000 553.998
22.44000 552.123
22.45000 550.313
22.46000 549.849
22.47000 549.918
22.48000 549.983
22.49000 551.204
22.50000 552.586
22.51000 553.001
22.52000 547.342
22.53000 540.624
22.54000 537.243
22.55000 547.407
22.56000 559.012
22.57000 567.622
22.58000 556.507
22.59000 547.007
22.60000 540.120
22.61000 538.045
22.62000 536.075
22.63000 533.812
22.64000 531.189
22.65000 528.572
22.66000 527.260
22.67000 526.975
22.68000 526.764
22.69000 529.535
22.70000 533.867
22.71000 538.016
22.72000 539.157
22.73000 539.232
22.74000 539.301
22.75000 540.260
22.76000 541.303
22.77000 542.237
22.78000 542.570
22.79000 542.812
22.80000 541.856
22.81000 536.586
22.82000 530.926
22.83000 526.865
22.84000 528.814
22.85000 530.511
22.86000 528.244
22.87000 519.476
22.88000 510.614
22.89000 506.378
22.90000 507.123
22.91000 507.866
22.92000 507.236
22.93000 505.668
22.94000 504.107
22.95000 502.777
22.96000 501.555
22.97000 500.867
22.98000 507.421
22.99000 516.262
23.00000 524.245
23.01000 526.405
23.02000 527.230
23.03000 527.787
23.04000 527.040
23.05000 526.120
23.06000 525.189
23.07000 524.223
23.08000 523.254
23.09000 522.583
23.10000 524.062
23.11000 525.231
23.12000 526.657
23.13000 528.458
23.14000 530.262
23.15000 526.290
23.16000 516.869
23.17000 507.526
23.18000 509.554
23.19000 518.447
23.20000 527.034
23.21000 528.584
23.22000 527.198
23.23000 525.555
23.24000 521.013
23.25000 515.655
23.26000 510.898
23.27000 511.077
23.28000 512.022
23.29000 513.764
23.30000 518.919
23.31000 524.462
23.32000 526.250
23.33000 517.285
23.34000 507.652
23.35000 501.245
23.36000 507.746
23.37000 512.799
23.38000 512.530
23.39000 505.385
23.40000 498.236
23.41000 501.968
23.42000 514.739
23.43000 527.340
23.44000 525.601
23.45000 516.222
23.46000 507.236
23.47000 505.372
23.48000 506.161
23.49000 506.594
23.50000 503.603
23.51000 499.756
23.52000 496.404
23.53000 496.435
23.54000 496.929
23.55000 498.181
23.56000 502.308
23.57000 506.715
23.58000 508.983
23.59000 505.780
23.60000 502.305
23.61000 500.089
23.62000 519.224
23.63000 533.409
23.64000 537.009
23.65000 528.540
23.66000 520.070
23.67000 513.489
23.68000 508.298
23.69000 503.206
23.70000 502.531
23.71000 503.972
23.72000 505.427
23.73000 507.107
23.74000 508.861
23.75000 510.297
23.76000 509.130
23.77000 507.385
23.78000 505.895
23.79000 502.020
23.80000 498.472
23.81000 497.765
23.82000 506.660
23.83000 516.341
23.84000 521.343
23.85000 515.661
23.86000 509.563
23.87000 505.852
23.88000 497.740
23.89000 491.912
23.90000 489.949
23.91000 491.856
23.92000 493.735
23.93000 492.939
23.94000 490.402
23.95000 487.931
23.96000 492.724
23.97000 500.328
23.98000 507.403
23.99000 508.001
24.00000 506.680
24.01000 505.616
24.02000 506.374
24.03000 507.489
24.04000 508.420
24.05000 506.581
24.06000 504.773
24.07000 502.983
24.08000 501.249
24.09000 499.518
24.10000 498.517
24.11000 499.004
24.12000 499.535
24.13000 499.841
24.14000 504.264
24.15000 507.378
24.16000 507.537
24.17000 505.100
24.18000 502.716
24.19000 503.382
24.20000 505.818
24.21000 508.169
24.22000 507.030
24.23000 504.668
24.24000 502.303
24.25000 499.898
24.26000 497.483
24.27000 494.674
24.28000 489.424
24.29000 483.753
24.30000 479.128
24.31000 484.048
24.32000 488.886
24.33000 491.833
24.34000 489.690
24.35000 487.267
24.36000 487.357
24.37000 492.018
24.38000 496.775
24.39000 499.379
24.40000 501.056
24.41000 502.197
24.42000 500.723
24.43000 497.221
24.44000 493.663
24.45000 487.863
24.46000 480.906
24.47000 474.253
24.48000 477.610
24.49000 483.993
24.50000 490.160
24.51000 494.437
24.52000 498.272
24.53000 501.714
24.54000 503.031
24.55000 504.028
24.56000 504.821
24.57000 504.931
24.58000 504.970
24.59000 503.033
24.60000 496.353
24.61000 489.465
24.62000 485.401
24.63000 485.908
24.64000 486.478
24.65000 486.772
24.66000 485.878
24.67000 485.245
24.68000 481.061
24.69000 474.436
24.70000 468.053
24.71000 468.683
24.72000 472.550
24.73000 476.207
24.74000 483.172
24.75000 490.522
24.76000 497.147
24.77000 498.276
24.78000 498.269
24.79000 496.638
24.80000 487.250
24.81000 476.852
24.82000 468.814
24.83000 474.546
24.84000 479.902
24.85000 481.636
24.86000 475.605
24.87000 469.315
24.88000 468.224
24.89000 474.617
24.90000 481.069
24.91000 483.330
24.92000 481.692
24.93000 480.126
24.94000 483.563
24.95000 490.055
24.96000 496.226
24.97000 495.212
24.98000 491.236
24.99000 487.523
25.00000 485.097
25.01000 483.222
25.02000 481.203
25.03000 478.238
25.04000 475.102
25.05000 473.291
25.06000 477.080
25.07000 481.497
25.08000 484.810
25.09000 483.225
25.10000 481.755
25.11000 478.219
25.12000 470.732
25.13000 463.148
25.14000 464.137
25.15000 476.056
25.16000 487.998
25.17000 494.111
25.18000 495.443
25.19000 496.733
25.20000 496.063
25.21000 494.326
25.22000 492.391
25.23000 486.942
25.24000 480.201
25.25000 473.988
25.26000 478.027
25.27000 483.908
25.28000 487.614
25.29000 478.819
25.30000 468.029
25.31000 461.030
25.32000 468.253
25.33000 476.834
25.34000 483.063
25.35000 486.003
25.36000 488.139
25.37000 485.271
25.38000 473.865
25.39000 462.316
25.40000 458.799
25.41000 464.316
25.42000 469.821
25.43000 473.290
25.44000 475.267
25.45000 477.247
25.46000 479.333
25.47000 481.471
25.48000 483.366
25.49000 481.759
25.50000 479.002
25.51000 476.499
25.52000 476.999
25.53000 478.019
25.54000 479.718
25.55000 484.839
25.56000 490.437
25.57000 493.391
25.58000 487.519
25.59000 480.940
25.60000 476.330
25.61000 468.839
25.62000 463.090
25.63000 461.357
25.64000 465.716
25.65000 470.139
25.66000 470.156
25.67000 465.827
25.68000 461.528
25.69000 460.119
25.70000 460.561
25.71000 461.024
25.72000 462.012
25.73000 463.228
25.74000 464.338
25.75000 464.160
25.76000 463.605
25.77000 463.110
25.78000 467.879
25.79000 472.916
25.80000 477.108
25.81000 477.528
25.82000 477.496
25.83000 474.475
25.84000 462.556
25.85000 450.046
25.86000 441.610
25.87000 463.073
25.88000 479.673
25.89000 488.048
25.90000 485.349
25.91000 482.592
25.92000 481.015
25.93000 480.462
25.94000 479.916
25.95000 477.196
25.96000 473.327
25.97000 469.369
25.98000 463.647
25.99000 457.243
26.00000 452.053
26.01000 459.165
26.02000 469.479
26.03000 478.526
26.04000 483.300
26.05000 486.779
26.06000 488.032
26.07000 480.478
26.08000 472.020
26.09000 467.291
26.10000 472.464
26.11000 478.172
26.12000 481.863
26.13000 469.496
26.14000 460.215
26.15000 456.880
26.16000 460.619
26.17000 464.347
26.18000 462.631
26.19000 456.749
26.20000 450.967
26.21000 451.681
26.22000 455.579
26.23000 459.188
26.24000 458.229
26.25000 455.692
26.26000 453.484
26.27000 454.133
26.28000 455.442
26.29000 456.567
26.30000 459.502
26.31000 462.214
26.32000 463.022
26.33000 457.139
26.34000 450.675
26.35000 446.795
26.36000 449.044
26.37000 451.555
26.38000 453.107
26.39000 463.542
26.40000 471.123
26.41000 472.651
26.42000 467.844
26.43000 463.085
26.44000 463.796
26.45000 468.218
26.46000 472.535
26.47000 469.801
26.48000 464.112
26.49000 459.047
26.50000 462.113
26.51000 467.684
26.52000 471.870
26.53000 465.733
26.54000 457.489
26.55000 450.550
26.56000 448.154
26.57000 446.642
26.58000 444.659
26.59000 441.201
26.60000 437.637
26.61000 436.069
26.62000 438.730
26.63000 441.530
26.64000 443.177
26.65000 447.477
26.66000 450.525
26.67000 452.982
26.68000 454.896
26.69000 456.857
26.70000 461.829
26.71000 468.617
26.72000 475.190
26.73000 465.439
26.74000 449.931
26.75000 436.402
26.76000 444.467
26.77000 458.456
26.78000 469.474
26.79000 461.242
26.80000 449.552
26.81000 439.938
26.82000 449.310
26.83000 458.733
26.84000 465.882
26.85000 466.678
26.86000 467.097
26.87000 466.733
26.88000 464.888
26.89000 463.007
26.90000 461.958
26.91000 461.651
26.92000 461.439
26.93000 460.662
26.94000 459.430
26.95000 458.091
26.96000 452.034
26.97000 443.441
26.98000 435.197
26.99000 440.283
27.00000 449.566
27.01000 457.750
27.02000 455.753
27.03000 451.275
27.04000 447.873
27.05000 450.576
27.06000 454.238
27.07000 457.176
27.08000 445.059
27.09000 434.106
27.10000 428.806
27.11000 437.609
27.12000 447.082
27.13000 453.844
27.14000 456.036
27.15000 458.155
27.16000 459.270
27.17000 447.278
27.18000 439.177
27.19000 436.742
27.20000 438.361
27.21000 439.827
27.22000 436.371
27.23000 430.554
27.24000 425.032
27.25000 432.313
27.26000 442.866
27.27000 452.216
27.28000 451.996
27.29000 449.712
27.30000 448.068
27.31000 449.616
27.32000 451.602
27.33000 453.151
27.34000 448.376
27.35000 444.171
27.36000 442.035
27.37000 444.511
27.38000 447.156
27.39000 449.974
27.40000 453.050
27.41000 456.129
27.42000 454.994
27.43000 449.761
27.44000 444.560
27.45000 442.009
27.46000 441.142
27.47000 440.567
27.48000 447.087
27.49000 456.646
27.50000 465.615
27.51000 462.065
27.52000 455.535
27.53000 449.030
27.54000 442.702
27.55000 436.407
27.56000 432.321
27.57000 437.958
27.58000 444.743
27.59000 449.885
27.60000 440.109
27.61000 431.672
27.62000 426.935
27.63000 429.558
27.64000 432.384
27.65000 434.583
27.66000 435.949
27.67000 437.310
27.68000 438.565
27.69000 439.727
27.70000 440.907
27.71000 443.015
27.72000 445.649
27.73000 448.094
27.74000 446.922
27.75000 444.368
27.76000 442.002
27.77000 441.607
27.78000 441.706
27.79000 443.188
27.80000 452.982
27.81000 464.165
27.82000 470.727
27.83000 459.249
27.84000 445.949
27.85000 436.184
27.86000 426.803
27.87000 419.568
27.88000 416.529
27.89000 420.932
27.90000 425.479
27.91000 425.530
27.92000 420.303
27.93000 415.082
27.94000 417.544
27.95000 425.753
27.96000 433.970
27.97000 442.503
27.98000 451.195
27.99000 459.396
28.00000 459.996
28.01000 458.002
28.02000 456.182
28.03000 446.228
28.04000 435.753
28.05000 426.538
28.06000 423.971
28.07000 422.372
28.08000 422.833
28.09000 430.442
28.10000 438.660
28.11000 444.490
28.12000 434.480
28.13000 426.368
28.14000 424.032
28.15000 430.820
28.16000 437.721
28.17000 441.812
28.18000 443.003
28.19000 444.187
28.20000 446.447
28.21000 449.387
28.22000 452.029
28.23000 446.487
28.24000 437.261
28.25000 428.986
28.26000 432.871
28.27000 440.455
28.28000 447.267
28.29000 445.549
28.30000 442.543
28.31000 440.948
28.32000 445.921
28.33000 451.722
28.34000 453.897
28.35000 444.849
28.36000 435.004
28.37000 428.277
28.38000 428.530
28.39000 428.884
28.40000 431.708
28.41000 437.996
28.42000 444.306
28.43000 448.008
28.44000 449.349
28.45000 450.677
28.46000 445.141
28.47000 435.720
28.48000 426.722
28.49000 426.695
28.50000 430.276
28.51000 433.608
28.52000 434.282
28.53000 434.235
28.54000 434.193
28.55000 431.608
28.56000 428.988
28.57000 425.920
28.58000 421.010
28.59000 415.900
28.60000 413.958
28.61000 420.760
28.62000 428.068
28.63000 432.864
28.64000 432.619
28.65000 432.355
28.66000 428.357
28.67000 419.724
28.68000 411.094
28.69000 407.626
28.70000 408.278
28.71000 408.920
28.72000 413.316
28.73000 419.513
28.74000 425.547
28.75000 428.827
28.76000 431.118
28.77000 433.790
28.78000 439.931
28.79000 446.906
28.80000 452.946
28.81000 436.659
28.82000 419.863
28.83000 408.183
28.84000 415.216
28.85000 423.973
28.86000 429.002
28.87000 424.845
28.88000 420.264
28.89000 417.386
28.90000 410.081
28.91000 404.751
28.92000 403.487
28.93000 406.671
28.94000 409.884
28.95000 416.733
28.96000 426.152
28.97000 435.369
28.98000 433.973
28.99000 427.806
29.00000 421.989
29.01000 421.036
29.02000 421.640
29.03000 422.310
29.04000 423.505
29.05000 424.811
29.06000 425.919
29.07000 429.031
29.08000 431.866
29.09000 432.820
29.10000 427.650
29.11000 422.007
29.12000 416.651
29.13000 411.925
29.14000 407.221
29.15000 404.405
29.16000 415.585
29.17000 423.612
29.18000 425.914
29.19000 422.725
29.20000 419.600
29.21000 421.465
29.22000 426.460
29.23000 431.311
29.24000 433.821
29.25000 435.265
29.26000 436.334
29.27000 433.069
29.28000 428.566
29.29000 425.263
29.30000 430.099
29.31000 436.463
29.32000 441.739
29.33000 431.050
29.34000 420.688
29.35000 412.322
29.36000 409.750
29.37000 407.547
29.38000 407.084
29.39000 410.038
29.40000 413.083
29.41000 414.813
29.42000 421.090
29.43000 425.464
29.44000 423.047
29.45000 414.900
29.46000 406.959
29.47000 409.350
29.48000 417.514
29.49000 425.373
29.50000 422.777
29.51000 416.635
29.52000 411.155
29.53000 412.148
29.54000 414.784
29.55000 417.646
29.56000 421.856
29.57000 426.288
29.58000 429.873
29.59000 430.047
29.60000 429.912
29.61000 428.713
29.62000 424.754
29.63000 420.654
29.64000 422.333
29.65000 434.137
29.66000 446.127
29.67000 452.565
29.68000 427.888
29.69000 411.070
29.70000 406.232
29.71000 410.326
29.72000 414.345
29.73000 415.688
29.74000 415.697
29.75000 415.706
29.76000 416.626
29.77000 417.763
29.78000 419.744
29.79000 428.782
29.80000 439.408
29.81000 446.065
29.82000 432.075
29.83000 415.122
29.84000 401.764
29.85000 413.817
29.86000 425.182
29.87000 432.847
29.88000 431.946
29.89000 430.699
29.90000 428.284
29.91000 424.046
29.92000 419.787
29.93000 417.638
29.94000 444.347
29.95000 462.062
29.96000 465.896
29.97000 460.549
29.98000 455.316
29.99000 453.098
30.00000 452.221
30.01000 451.395
30.02000 455.219
30.03000 459.997
30.04000 464.618
30.05000 468.104
30.06000 471.365
30.07000 472.865
30.08000 466.281
30.09000 458.692
30.10000 452.881
30.11000 447.532
30.12000 443.334
30.13000 444.493
30.14000 456.721
30.15000 469.287
30.16000 470.524
30.17000 456.080
30.18000 441.542
30.19000 437.331
30.20000 442.332
30.21000 447.246
30.22000 446.834
30.23000 443.290
30.24000 439.792
30.25000 437.239
30.26000 435.061
30.27000 433.035
30.28000 433.107
30.29000 433.678
30.30000 433.730
30.31000 430.512
30.32000 426.724
30.33000 424.210
30.34000 426.872
30.35000 430.087
30.36000 432.473
30.37000 423.832
30.38000 416.632
30.39000 415.661
30.40000 426.181
30.41000 436.953
30.42000 440.602
30.43000 435.528
30.44000 430.442
30.45000 432.841
30.46000 441.091
30.47000 449.092
30.48000 446.819
30.49000 439.158
30.50000 431.904
30.51000 431.409
30.52000 433.311
30.53000 435.056
30.54000 435.229
30.55000 435.050
30.56000 435.615
30.57000 440.277
30.58000 445.566
30.59000 449.936
30.60000 450.989
30.61000 451.741
30.62000 452.282
30.63000 455.125
30.64000 457.379
30.65000 457.414
30.66000 453.802
30.67000 450.138
30.68000 449.826
30.69000 453.129
30.70000 456.418
30.71000 457.068
30.72000 455.892
30.73000 454.839
30.74000 457.533
30.75000 461.980
30.76000 465.736
30.77000 460.090
30.78000 451.470
30.79000 443.685
30.80000 447.855
30.81000 453.728
30.82000 460.649
30.83000 472.652
30.84000 485.328
30.85000 495.927
30.86000 499.843
30.87000 503.253
30.88000 505.614
30.89000 500.509
30.90000 496.472
30.91000 492.585
30.92000 488.914
30.93000 485.246
30.94000 488.202
30.95000 497.423
30.96000 506.566
30.97000 518.471
30.98000 531.838
30.99000 545.425
31.00000 564.083
31.01000 584.858
31.02000 604.953
31.03000 617.316
31.04000 627.499
31.05000 636.542
31.06000 660.034
31.07000 682.718
31.08000 708.505
31.09000 747.612
31.10000 788.241
31.11000 830.994
31.12000 879.844
31.13000 929.073
31.14000 961.839
31.15000 1051.710
31.16000 1119.286
31.17000 1200.373
31.18000 1298.944
31.19000 1397.630
31.20000 1517.800
31.21000 1655.848
31.22000 1792.078
31.23000 1924.811
31.24000 2052.088
31.25000 2181.757
31.26000 2355.049
31.27000 2544.620
31.28000 2731.924
31.29000 2897.434
31.30000 3057.487
31.31000 3196.994
31.32000 3353.554
31.33000 3489.729
31.34000 3628.345
31.35000 3776.258
31.36000 3925.077
31.37000 4049.656
31.38000 4112.165
31.39000 4171.565
31.40000 4209.450
31.41000 4242.529
31.42000 4266.525
31.43000 4258.780
31.44000 4214.778
31.45000 4170.412
31.46000 4068.958
31.47000 3925.502
31.48000 3784.790
31.49000 3641.623
31.50000 3502.527
31.51000 3361.031
31.52000 3183.948
31.53000 2995.015
31.54000 2805.818
31.55000 2614.447
31.56000 2422.594
31.57000 2258.714
31.58000 2083.634
31.59000 1934.806
31.60000 1788.208
31.61000 1649.164
31.62000 1510.740
31.63000 1385.287
31.64000 1289.495
31.65000 1194.865
31.66000 1137.247
31.67000 1013.760
31.68000 925.021
31.69000 851.295
31.70000 792.625
31.71000 734.176
31.72000 696.049
31.73000 671.191
31.74000 646.984
31.75000 621.425
31.76000 596.499
31.77000 571.813
31.78000 550.069
31.79000 529.198
31.80000 510.246
31.81000 504.955
31.82000 502.339
31.83000 500.154
31.84000 489.201
31.85000 479.219
31.86000 470.329
31.87000 464.738
31.88000 459.371
31.89000 458.911
31.90000 468.469
31.91000 478.323
31.92000 484.027
31.93000 470.552
31.94000 461.027
31.95000 454.833
31.96000 451.572
31.97000 448.344
31.98000 447.008
31.99000 446.771
32.00000 446.543
32.01000 440.725
32.02000 433.177
32.03000 425.985
32.04000 422.469
32.05000 419.924
32.06000 418.045
32.07000 420.296
32.08000 423.258
32.09000 425.675
32.10000 424.417
32.11000 423.072
32.12000 421.282
32.13000 418.288
32.14000 415.229
32.15000 412.130
32.16000 408.962
32.17000 405.793
32.18000 404.057
32.19000 399.235
32.20000 395.935
32.21000 397.760
32.22000 403.566
32.23000 409.281
32.24000 411.380
32.25000 411.606
32.26000 411.822
32.27000 412.863
32.28000 414.101
32.29000 415.551
32.30000 418.866
32.31000 422.617
32.32000 425.001
32.33000 419.949
32.34000 413.779
32.35000 408.873
32.36000 403.543
32.37000 399.218
32.38000 394.619
32.39000 389.361
32.40000 384.074
32.41000 382.014
32.42000 385.191
32.43000 388.441
32.44000 390.116
32.45000 384.342
32.46000 380.502
32.47000 382.759
32.48000 389.214
32.49000 395.595
32.50000 399.830
32.51000 403.073
32.52000 406.140
32.53000 402.080
32.54000 396.300
32.55000 390.523
32.56000 384.772
32.57000 379.027
32.58000 374.194
32.59000 373.729
32.60000 373.834
32.61000 373.915
32.62000 380.408
32.63000 385.938
32.64000 389.448
32.65000 388.624
32.66000 387.653
32.67000 388.141
32.68000 390.730
32.69000 393.336
32.70000 390.813
32.71000 383.510
32.72000 376.209
32.73000 369.065
32.74000 362.018
32.75000 355.382
32.76000 357.963
32.77000 364.349
32.78000 370.316
32.79000 381.421
32.80000 392.796
32.81000 402.261
32.82000 399.147
32.83000 393.738
32.84000 389.845
32.85000 392.375
32.86000 395.626
32.87000 398.066
32.88000 402.992
32.89000 406.958
32.90000 407.814
32.91000 402.705
32.92000 397.450
32.93000 399.941
32.94000 412.326
32.95000 424.731
32.96000 434.289
32.97000 441.486
32.98000 448.720
32.99000 457.657
33.00000 467.523
33.01000 477.031
33.02000 480.160
33.03000 480.939
33.04000 481.656
33.05000 483.021
33.06000 484.386
33.07000 484.042
33.08000 473.859
33.09000 462.102
33.10000 450.904
33.11000 441.803
33.12000 432.903
33.13000 426.440
33.14000 425.976
33.15000 425.844
33.16000 424.042
33.17000 419.384
33.18000 414.678
33.19000 408.827
33.20000 401.688
33.21000 394.573
33.22000 383.624
33.23000 370.009
33.24000 356.763
33.25000 355.804
33.26000 360.820
33.27000 365.016
33.28000 357.323
33.29000 345.719
33.30000 335.181
33.31000 337.361
33.32000 341.746
33.33000 345.689
33.34000 347.391
33.35000 348.781
33.36000 349.915
33.37000 350.192
33.38000 350.401
33.39000 350.548
33.40000 348.578
33.41000 347.026
33.42000 349.312
33.43000 357.431
33.44000 365.611
33.45000 367.498
33.46000 363.162
33.47000 358.856
33.48000 353.515
33.49000 347.601
33.50000 342.023
33.51000 344.918
33.52000 351.491
33.53000 357.319
33.54000 354.173
33.55000 348.396
33.56000 343.236
33.57000 336.055
33.58000 329.460
33.59000 325.380
33.60000 332.543
33.61000 341.057
33.62000 347.637
33.63000 348.450
33.64000 348.878
33.65000 349.167
33.66000 350.839
33.67000 352.114
33.68000 351.361
33.69000 347.873
33.70000 344.371
33.71000 341.427
33.72000 338.967
33.73000 336.536
33.74000 337.078
33.75000 339.271
33.76000 341.098
33.77000 335.707
33.78000 327.518
33.79000 320.550
33.80000 325.997
33.81000 334.680
33.82000 342.297
33.83000 345.835
33.84000 348.279
33.85000 350.235
33.86000 350.254
33.87000 350.074
33.88000 348.790
33.89000 344.572
33.90000 340.195
33.91000 337.362
33.92000 338.298
33.93000 339.039
33.94000 342.617
33.95000 349.578
33.96000 356.524
33.97000 358.562
33.98000 356.836
33.99000 355.140
34.00000 351.137
34.01000 346.126
34.02000 341.235
34.03000 338.243
34.04000 335.908
34.05000 334.078
34.06000 336.620
34.07000 340.174
34.08000 343.231
34.09000 343.876
34.10000 344.119
34.11000 343.335
34.12000 338.936
34.13000 334.222
34.14000 333.802
34.15000 343.584
34.16000 353.801
34.17000 360.124
34.18000 350.717
34.19000 343.807
34.20000 340.262
34.21000 340.247
34.22000 340.169
34.23000 332.930
34.24000 320.826
34.25000 309.009
34.26000 311.279
34.27000 319.604
34.28000 327.445
34.29000 328.962
34.30000 328.527
34.31000 329.023
34.32000 336.475
34.33000 345.350
34.34000 352.823
34.35000 345.831
34.36000 338.446
34.37000 333.310
34.38000 335.225
34.39000 337.653
34.40000 337.739
34.41000 332.855
34.42000 327.810
34.43000 324.837
34.44000 333.989
34.45000 340.509
34.46000 341.164
34.47000 336.424
34.48000 331.762
34.49000 332.273
34.50000 335.910
34.51000 339.432
34.52000 340.675
34.53000 340.973
34.54000 341.213
34.55000 340.827
34.56000 340.269
34.57000 338.493
34.58000 328.817
34.59000 317.718
34.60000 308.586
34.61000 315.963
34.62000 323.527
34.63000 329.421
34.64000 330.645
34.65000 331.591
34.66000 332.214
34.67000 332.226
34.68000 332.223
34.69000 332.222
34.70000 338.768
34.71000 343.302
34.72000 343.275
34.73000 339.554
34.74000 335.874
34.75000 334.020
34.76000 333.151
34.77000 332.317
34.78000 330.206
34.79000 327.798
34.80000 325.390
34.81000 322.980
34.82000 320.570
34.83000 318.485
34.84000 318.248
34.85000 318.302
34.86000 318.346
34.87000 318.251
34.88000 318.163
34.89000 321.015
34.90000 331.212
34.91000 341.759
34.92000 344.788
34.93000 335.131
34.94000 325.268
34.95000 320.076
34.96000 323.347
34.97000 325.583
34.98000 329.763
34.99000 335.337
35.00000 340.652
35.01000 337.648
35.02000 330.647
35.03000 323.999
35.04000 325.879
35.05000 330.173
35.06000 333.656
35.07000 330.671
35.08000 326.289
35.09000 323.208
35.10000 326.632
35.11000 330.947
35.12000 334.317
35.13000 325.581
35.14000 317.850
35.15000 313.136
35.16000 315.155
35.17000 317.424
35.18000 318.077
35.19000 316.307
35.20000 314.512
35.21000 313.165
35.22000 312.253
35.23000 311.329
35.24000 309.376
35.25000 306.768
35.26000 304.202
35.27000 302.637
35.28000 301.502
35.29000 300.436
35.30000 299.606
35.31000 298.911
35.32000 299.023
35.33000 304.698
35.34000 311.434
35.35000 316.861
35.36000 316.513
35.37000 315.482
35.38000 314.700
35.39000 319.906
35.40000 324.301
35.41000 327.532
35.42000 328.443
35.43000 329.290
35.44000 328.730
35.45000 326.298
35.46000 323.859
35.47000 320.075
35.48000 315.149
35.49000 310.225
35.50000 305.372
35.51000 300.561
35.52000 296.010
35.53000 296.467
35.54000 298.843
35.55000 301.043
35.56000 311.775
35.57000 323.403
35.58000 332.529
35.59000 326.582
35.60000 318.114
35.61000 311.720
35.62000 313.443
35.63000 315.988
35.64000 317.857
35.65000 311.971
35.66000 307.105
35.67000 303.583
35.68000 302.451
35.69000 301.365
35.70000 301.948
35.71000 304.492
35.72000 307.033
35.73000 311.565
35.74000 317.564
35.75000 323.408
35.76000 323.530
35.77000 320.759
35.78000 318.122
35.79000 317.552
35.80000 317.689
35.81000 317.813
35.82000 315.240
35.83000 312.409
35.84000 310.715
35.85000 315.023
35.86000 320.207
35.87000 322.957
35.88000 317.239
35.89000 310.799
35.90000 306.227
35.91000 307.953
35.92000 309.465
35.93000 308.665
35.94000 304.207
35.95000 299.703
35.96000 300.586
35.97000 307.037
35.98000 313.451
35.99000 311.124
36.00000 303.037
36.01000 295.279
36.02000 296.525
36.03000 301.833
36.04000 306.491
36.05000 302.820
36.06000 296.610
36.07000 291.031
36.08000 296.862
36.09000 303.980
36.10000 310.360
36.11000 313.304
36.12000 315.813
36.13000 316.187
36.14000 309.943
36.15000 303.227
36.16000 298.636
36.17000 308.459
36.18000 316.152
36.19000 317.050
36.20000 308.402
36.21000 299.692
36.22000 298.032
36.23000 302.765
36.24000 307.453
36.25000 305.260
36.26000 299.095
36.27000 293.321
36.28000 295.907
36.29000 301.860
36.30000 307.360
36.31000 307.985
36.32000 307.287
36.33000 306.671
36.34000 303.041
36.35000 299.445
36.36000 297.437
36.37000 301.975
36.38000 307.225
36.39000 308.593
36.40000 299.231
36.41000 289.244
36.42000 282.686
36.43000 281.717
36.44000 281.098
36.45000 282.245
36.46000 285.589
36.47000 288.935
36.48000 291.271
36.49000 292.797
36.50000 294.301
36.51000 296.309
36.52000 298.516
36.53000 300.871
36.54000 305.750
36.55000 311.536
36.56000 316.354
36.57000 312.319
36.58000 306.151
36.59000 300.809
36.60000 297.131
36.61000 294.222
36.62000 292.399
36.63000 294.552
36.64000 297.072
36.65000 297.261
36.66000 291.693
36.67000 285.859
36.68000 282.191
36.69000 293.984
36.70000 302.683
36.71000 306.814
36.72000 305.938
36.73000 305.037
36.74000 300.962
36.75000 294.641
36.76000 288.456
36.77000 292.413
36.78000 300.833
36.79000 308.550
36.80000 306.478
36.81000 301.264
36.82000 296.744
36.83000 297.666
36.84000 299.749
36.85000 301.517
36.86000 300.314
36.87000 298.969
36.88000 300.124
36.89000 309.430
36.90000 319.366
36.91000 326.713
36.92000 328.351
36.93000 329.784
36.94000 330.642
36.95000 324.511
36.96000 320.111
36.97000 317.098
36.98000 315.419
36.99000 313.735
37.00000 311.717
37.01000 309.488
37.02000 307.323
37.03000 306.509
37.04000 306.279
37.05000 306.277
37.06000 308.916
37.07000 312.309
37.08000 314.921
37.09000 312.215
37.10000 308.508
37.11000 305.434
37.12000 308.036
37.13000 310.732
37.14000 313.059
37.15000 314.317
37.16000 315.506
37.17000 315.436
37.18000 312.890
37.19000 310.278
37.20000 308.792
37.21000 306.539
37.22000 304.964
37.23000 302.161
37.24000 298.321
37.25000 294.593
37.26000 296.594
37.27000 301.801
37.28000 306.813
37.29000 314.151
37.30000 321.864
37.31000 328.009
37.32000 318.783
37.33000 305.649
37.34000 293.619
37.35000 288.142
37.36000 283.746
37.37000 280.188
37.38000 286.542
37.39000 292.516
37.40000 297.477
37.41000 299.811
37.42000 302.010
37.43000 299.826
37.44000 289.950
37.45000 279.931
37.46000 274.546
37.47000 294.997
37.48000 308.944
37.49000 313.664
37.50000 311.493
37.51000 309.208
37.52000 302.828
37.53000 294.405
37.54000 286.376
37.55000 287.425
37.56000 291.239
37.57000 295.022
37.58000 298.543
37.59000 302.005
37.60000 304.317
37.61000 300.634
37.62000 296.090
37.63000 292.507
37.64000 295.659
37.65000 298.640
37.66000 299.985
37.67000 297.538
37.68000 294.938
37.69000 292.078
37.70000 288.812
37.71000 285.541
37.72000 283.890
37.73000 288.619
37.74000 291.792
37.75000 295.933
37.76000 300.717
37.77000 305.148
37.78000 300.165
37.79000 290.987
37.80000 282.339
37.81000 286.774
37.82000 294.440
37.83000 301.417
37.84000 303.408
37.85000 304.406
37.86000 304.964
37.87000 303.498
37.88000 301.780
37.89000 300.465
37.90000 295.847
37.91000 292.019
37.92000 291.698
37.93000 298.639
37.94000 305.802
37.95000 308.420
37.96000 304.733
37.97000 301.008
37.98000 299.580
37.99000 300.206
38.00000 300.770
38.01000 297.563
38.02000 292.135
38.03000 287.305
38.04000 294.892
38.05000 307.421
38.06000 319.079
38.07000 314.846
38.08000 307.176
38.09000 299.715
38.10000 293.579
38.11000 287.674
38.12000 284.421
38.13000 291.972
38.14000 300.676
38.15000 307.140
38.16000 298.414
38.17000 290.959
38.18000 288.007
38.19000 293.370
38.20000 298.916
38.21000 302.061
38.22000 302.260
38.23000 302.451
38.24000 303.286
38.25000 304.623
38.26000 305.913
38.27000 305.258
38.28000 303.582
38.29000 302.029
38.30000 302.508
38.31000 303.709
38.32000 304.811
38.33000 311.808
38.34000 319.295
38.35000 325.581
38.36000 325.238
38.37000 323.880
38.38000 322.564
38.39000 321.398
38.40000 320.246
38.41000 319.419
38.42000 334.696
38.43000 346.939
38.44000 356.042
38.45000 359.975
38.46000 363.833
38.47000 366.095
38.48000 366.634
38.49000 367.170
38.50000 379.168
38.51000 398.958
38.52000 418.580
38.53000 433.110
38.54000 445.253
38.55000 457.390
38.56000 469.442
38.57000 481.466
38.58000 492.329
38.59000 514.654
38.60000 536.406
38.61000 557.422
38.62000 574.867
38.63000 591.838
38.64000 611.012
38.65000 637.287
38.66000 664.100
38.67000 682.673
38.68000 692.742
38.69000 700.096
38.70000 713.685
38.71000 736.393
38.72000 759.179
38.73000 775.000
38.74000 784.222
38.75000 793.367
38.76000 787.404
38.77000 772.342
38.78000 757.719
38.79000 753.254
38.80000 753.042
38.81000 752.155
38.82000 743.599
38.83000 732.877
38.84000 723.355
38.85000 690.237
38.86000 657.727
38.87000 627.675
38.88000 608.187
38.89000 589.909
38.90000 572.052
38.91000 555.404
38.92000 538.832
38.93000 527.795
38.94000 496.376
38.95000 472.735
38.96000 448.116
38.97000 422.228
38.98000 396.358
38.99000 381.478
39.00000 375.760
39.01000 370.117
39.02000 363.826
39.03000 357.356
39.04000 351.116
39.05000 349.095
39.06000 348.650
39.07000 346.992
39.08000 333.644
39.09000 317.364
39.10000 303.169
39.11000 308.905
39.12000 316.577
39.13000 319.976
39.14000 307.076
39.15000 292.585
39.16000 283.352
39.17000 287.609
39.18000 292.544
39.19000 295.694
39.20000 295.759
39.21000 295.766
39.22000 295.334
39.23000 294.401
39.24000 293.469
39.25000 292.947
39.26000 292.726
39.27000 292.509
39.28000 290.828
39.29000 288.514
39.30000 286.156
39.31000 283.158
39.32000 279.946
39.33000 276.969
39.34000 275.937
39.35000 275.337
39.36000 274.824
39.37000 276.345
39.38000 277.869
39.39000 279.061
39.40000 279.121
39.41000 279.089
39.42000 277.797
39.43000 273.621
39.44000 269.332
39.45000 266.719
39.46000 270.582
39.47000 273.394
39.48000 274.943
39.49000 275.221
39.50000 275.490
39.51000 274.847
39.52000 273.608
39.53000 272.401
39.54000 272.028
39.55000 272.021
39.56000 271.993
39.57000 271.706
39.58000 271.341
39.59000 271.353
39.60000 274.055
39.61000 277.285
39.62000 279.985
39.63000 278.159
39.64000 276.182
39.65000 274.954
39.66000 275.990
39.67000 277.181
39.68000 278.468
39.69000 279.951
39.70000 281.440
39.71000 282.303
39.72000 272.455
39.73000 265.508
39.74000 263.028
39.75000 264.489
39.76000 265.916
39.77000 265.405
39.78000 263.766
39.79000 262.184
39.80000 263.485
39.81000 265.779
39.82000 268.098
39.83000 270.682
39.84000 273.335
39.85000 275.891
39.86000 277.843
39.87000 279.692
39.88000 281.201
39.89000 276.625
39.90000 272.358
39.91000 268.248
39.92000 264.560
39.93000 260.895
39.94000 259.917
39.95000 263.842
39.96000 267.870
39.97000 270.078
39.98000 271.290
39.99000 272.125
40.00000 273.942
40.01000 276.523
40.02000 278.938
40.03000 274.731
40.04000 267.087
40.05000 259.777
40.06000 258.976
40.07000 260.358
40.08000 261.434
40.09000 259.804
40.10000 257.539
40.11000 256.274
40.12000 260.459
40.13000 265.466
40.14000 269.449
40.15000 265.393
40.16000 261.549
40.17000 258.884
40.18000 259.060
40.19000 259.362
40.20000 256.239
40.21000 247.551
40.22000 238.786
40.23000 234.263
40.24000 245.139
40.25000 252.439
40.26000 256.069
40.27000 257.168
40.28000 258.248
40.29000 258.789
40.30000 259.079
40.31000 259.353
40.32000 256.464
40.33000 252.896
40.34000 249.781
40.35000 250.107
40.36000 251.148
40.37000 252.280
40.38000 253.849
40.39000 255.475
40.40000 256.733
40.41000 258.229
40.42000 259.430
40.43000 260.218
40.44000 260.116
40.45000 259.983
40.46000 257.259
40.47000 250.791
40.48000 244.293
40.49000 243.071
40.50000 246.778
40.51000 250.463
40.52000 252.676
40.53000 253.986
40.54000 255.263
40.55000 255.809
40.56000 256.052
40.57000 256.280
40.58000 256.289
40.59000 256.242
40.60000 256.454
40.61000 258.371
40.62000 260.600
40.63000 261.918
40.64000 259.371
40.65000 256.389
40.66000 254.150
40.67000 253.222
40.68000 252.559
40.69000 251.733
40.70000 250.594
40.71000 249.447
40.72000 250.449
40.73000 254.203
40.74000 257.962
40.75000 259.594
40.76000 259.478
40.77000 259.335
40.78000 257.928
40.79000 255.831
40.80000 253.950
40.81000 255.917
40.82000 259.305
40.83000 262.429
40.84000 259.310
40.85000 255.132
40.86000 251.597
40.87000 251.771
40.88000 252.539
40.89000 252.708
40.90000 250.620
40.91000 248.315
40.92000 246.640
40.93000 246.245
40.94000 245.989
40.95000 245.685
40.96000 245.296
40.97000 244.906
40.98000 246.084
40.99000 249.032
41.00000 251.972
41.01000 252.093
41.02000 250.181
41.03000 248.372
41.04000 249.985
41.05000 253.265
41.06000 255.904
41.07000 249.203
41.08000 239.424
41.09000 230.543
41.10000 233.675
41.11000 238.770
41.12000 243.703
41.13000 247.811
41.14000 251.803
41.15000 254.041
41.16000 250.401
41.17000 246.287
41.18000 243.401
41.19000 254.336
41.20000 263.011
41.21000 265.150
41.22000 257.333
41.23000 249.412
41.24000 243.902
41.25000 240.781
41.26000 237.680
41.27000 239.991
41.28000 245.707
41.29000 251.213
41.30000 251.444
41.31000 249.383
41.32000 247.354
41.33000 245.735
41.34000 244.235
41.35000 242.895
41.36000 249.415
41.37000 256.420
41.38000 261.337
41.39000 256.897
41.40000 251.329
41.41000 248.582
41.42000 254.256
41.43000 260.492
41.44000 264.703
41.45000 256.957
41.46000 250.936
41.47000 246.180
41.48000 243.133
41.49000 240.100
41.50000 241.648
41.51000 247.181
41.52000 252.651
41.53000 252.523
41.54000 249.256
41.55000 246.100
41.56000 245.115
41.57000 244.974
41.58000 245.045
41.59000 247.283
41.60000 250.087
41.61000 252.547
41.62000 249.106
41.63000 245.288
41.64000 241.167
41.65000 235.844
41.66000 230.398
41.67000 227.202
41.68000 230.007
41.69000 233.138
41.70000 235.166
41.71000 236.728
41.72000 237.864
41.73000 237.126
41.74000 234.149
41.75000 231.177
41.76000 230.366
41.77000 231.217
41.78000 232.052
41.79000 233.717
41.80000 235.738
41.81000 237.789
41.82000 240.327
41.83000 243.033
41.84000 245.371
41.85000 244.507
41.86000 242.900
41.87000 241.518
41.88000 244.963
41.89000 248.488
41.90000 251.603
41.91000 253.273
41.92000 254.816
41.93000 253.595
41.94000 245.791
41.95000 237.706
41.96000 232.699
41.97000 237.059
41.98000 240.283
41.99000 239.316
42.00000 233.944
42.01000 228.612
42.02000 227.797
42.03000 230.057
42.04000 232.264
42.05000 234.110
42.06000 235.719
42.07000 237.038
42.08000 234.578
42.09000 230.949
42.10000 228.273
42.11000 232.730
42.12000 238.648
42.13000 243.633
42.14000 239.689
42.15000 235.437
42.16000 232.162
42.17000 231.955
42.18000 231.971
42.19000 232.966
42.20000 236.045
42.21000 239.192
42.22000 241.047
42.23000 240.946
42.24000 240.864
42.25000 240.138
42.26000 238.818
42.27000 237.528
42.28000 238.184
42.29000 240.020
42.30000 241.798
42.31000 237.033
42.32000 229.996
42.33000 223.790
42.34000 226.698
42.35000 232.114
42.36000 236.801
42.37000 236.740
42.38000 235.822
42.39000 235.068
42.40000 233.537
42.41000 232.207
42.42000 231.194
42.43000 231.069
42.44000 230.997
42.45000 230.894
42.46000 230.733
42.47000 230.571
42.48000 230.480
42.49000 231.243
42.50000 231.775
42.51000 233.120
42.52000 235.124
42.53000 237.063
42.54000 236.061
42.55000 233.474
42.56000 230.991
42.57000 232.069
42.58000 234.293
42.59000 235.945
42.60000 232.281
42.61000 227.316
42.62000 223.489
42.63000 226.132
42.64000 229.796
42.65000 232.737
42.66000 240.339
42.67000 246.853
42.68000 250.362
42.69000 246.348
42.70000 241.975
42.71000 237.049
42.72000 231.191
42.73000 225.318
42.74000 222.223
42.75000 228.119
42.76000 232.078
42.77000 229.147
42.78000 221.266
42.79000 213.722
42.80000 217.066
42.81000 225.649
42.82000 233.801
42.83000 236.173
42.84000 236.626
42.85000 236.879
42.86000 235.530
42.87000 233.835
42.88000 232.581
42.89000 233.538
42.90000 234.798
42.91000 235.782
42.92000 228.363
42.93000 221.913
42.94000 217.675
42.95000 218.380
42.96000 219.269
42.97000 222.755
42.98000 230.146
42.99000 237.575
43.00000 238.573
43.01000 233.290
43.02000 228.072
43.03000 228.248
43.04000 231.863
43.05000 235.226
43.06000 232.395
43.07000 226.902
43.08000 221.746
43.09000 225.864
43.10000 232.069
43.11000 236.709
43.12000 230.518
43.13000 222.259
43.14000 217.270
43.15000 226.738
43.16000 237.921
43.17000 246.405
43.18000 234.592
43.19000 224.270
43.20000 218.952
43.21000 223.622
43.22000 228.568
43.23000 231.326
43.24000 231.167
43.25000 230.993
43.26000 232.243
43.27000 234.710
43.28000 237.097
43.29000 235.210
43.30000 230.898
43.31000 226.760
43.32000 225.979
43.33000 226.487
43.34000 226.957
43.35000 232.784
43.36000 239.268
43.37000 244.587
43.38000 242.871
43.39000 239.975
43.40000 236.610
43.41000 231.405
43.42000 226.013
43.43000 222.051
43.44000 226.286
43.45000 229.896
43.46000 232.951
43.47000 235.018
43.48000 237.065
43.49000 235.513
43.50000 229.719
43.51000 223.933
43.52000 218.844
43.53000 214.313
43.54000 209.979
43.55000 212.928
43.56000 219.565
43.57000 225.891
43.58000 227.376
43.59000 227.203
43.60000 227.046
43.61000 227.605
43.62000 228.248
43.63000 228.019
43.64000 223.178
43.65000 217.663
43.66000 214.269
43.67000 218.271
43.68000 222.907
43.69000 226.199
43.70000 220.588
43.71000 216.035
43.72000 213.565
43.73000 214.395
43.74000 215.266
43.75000 217.159
43.76000 220.111
43.77000 223.046
43.78000 224.614
43.79000 225.257
43.80000 225.740
43.81000 221.825
43.82000 215.923
43.83000 210.816
43.84000 215.927
43.85000 224.156
43.86000 231.552
43.87000 230.596
43.88000 228.281
43.89000 226.562
43.90000 227.622
43.91000 229.034
43.92000 230.331
43.93000 231.274
43.94000 232.192
43.95000 232.820
43.96000 219.621
43.97000 209.413
43.98000 207.525
43.99000 217.347
44.00000 227.247
44.01000 229.657
44.02000 225.260
44.03000 220.907
44.04000 221.184
44.05000 224.165
44.06000 227.005
44.07000 226.809
44.08000 225.389
44.09000 223.856
44.10000 221.118
44.11000 218.052
44.12000 215.345
44.13000 217.153
44.14000 219.407
44.15000 221.598
44.16000 223.531
44.17000 225.435
44.18000 227.473
44.19000 229.880
44.20000 232.308
44.21000 233.904
44.22000 228.166
44.23000 223.819
44.24000 225.098
44.25000 233.388
44.26000 241.671
44.27000 241.159
44.28000 233.602
44.29000 226.158
44.30000 221.476
44.31000 218.360
44.32000 215.616
44.33000 219.209
44.34000 225.086
44.35000 230.196
44.36000 228.287
44.37000 224.684
44.38000 221.563
44.39000 214.874
44.40000 208.710
44.41000 205.272
44.42000 211.843
44.43000 219.339
44.44000 225.048
44.45000 226.337
44.46000 227.420
44.47000 228.101
44.48000 228.894
44.49000 229.468
44.50000 228.203
44.51000 224.917
44.52000 221.655
44.53000 221.874
44.54000 224.559
44.55000 227.188
44.56000 227.460
44.57000 226.645
44.58000 225.816
44.59000 224.791
44.60000 223.703
44.61000 223.342
44.62000 228.706
44.63000 235.292
44.64000 240.882
44.65000 243.002
44.66000 244.386
44.67000 245.880
44.68000 247.732
44.69000 249.611
44.70000 249.933
44.71000 246.813
44.72000 243.569
44.73000 241.623
44.74000 245.983
44.75000 249.122
44.76000 251.719
44.77000 253.793
44.78000 255.942
44.79000 263.911
44.80000 275.543
44.81000 286.843
44.82000 285.254
44.83000 278.549
44.84000 273.085
44.85000 282.040
44.86000 295.125
44.87000 307.472
44.88000 314.789
44.89000 321.159
44.90000 326.444
44.91000 341.941
44.92000 355.732
44.93000 369.072
44.94000 381.096
44.95000 393.036
44.96000 400.770
44.97000 400.213
44.98000 399.433
44.99000 398.989
45.00000 403.919
45.01000 407.376
45.02000 413.112
45.03000 420.777
45.04000 428.412
45.05000 434.559
45.06000 439.871
45.07000 444.986
45.08000 444.868
45.09000 442.896
45.10000 441.595
45.11000 446.879
45.12000 453.841
45.13000 459.357
45.14000 456.280
45.15000 451.783
45.16000 448.141
45.17000 445.814
45.18000 444.027
45.19000 437.280
45.20000 417.635
45.21000 397.324
45.22000 384.348
45.23000 384.267
45.24000 384.426
45.25000 384.512
45.26000 369.927
45.27000 359.982
45.28000 356.917
45.29000 358.999
45.30000 360.754
45.31000 350.751
45.32000 334.870
45.33000 319.732
45.34000 313.484
45.35000 310.479
45.36000 306.873
45.37000 298.217
45.38000 288.421
45.39000 279.250
45.40000 273.348
45.41000 267.916
45.42000 263.632
45.43000 262.236
45.44000 261.311
45.45000 262.430
45.46000 268.294
45.47000 274.350
45.48000 272.654
45.49000 258.828
45.50000 244.856
45.51000 237.797
45.52000 242.639
45.53000 245.815
45.54000 242.604
45.55000 235.154
45.56000 227.910
45.57000 226.186
45.58000 226.925
45.59000 227.621
45.60000 230.123
45.61000 232.913
45.62000 235.495
45.63000 236.579
45.64000 237.363
45.65000 236.897
45.66000 230.666
45.67000 223.717
45.68000 218.391
45.69000 222.177
45.70000 225.669
45.71000 225.222
45.72000 216.604
45.73000 207.734
45.74000 205.050
45.75000 210.958
45.76000 216.919
45.77000 218.525
45.78000 216.230
45.79000 213.940
45.80000 211.906
45.81000 210.024
45.82000 208.338
45.83000 210.739
45.84000 214.770
45.85000 218.521
45.86000 218.559
45.87000 217.692
45.88000 216.619
45.89000 214.253
45.90000 211.660
45.91000 210.829
45.92000 217.193
45.93000 224.327
45.94000 229.628
45.95000 221.785
45.96000 215.105
45.97000 211.391
45.98000 213.166
45.99000 215.063
46.00000 212.172
46.01000 203.394
46.02000 194.617
46.03000 194.121
46.04000 200.140
46.05000 206.091
46.06000 209.193
46.07000 210.797
46.08000 212.247
46.09000 211.144
46.10000 209.131
46.11000 207.283
46.12000 201.549
46.13000 195.611
46.14000 191.698
46.15000 198.986
46.16000 207.992
46.17000 214.024
46.18000 209.280
46.19000 203.557
46.20000 199.445
46.21000 205.801
46.22000 211.029
46.23000 214.060
46.24000 213.469
46.25000 212.825
46.26000 211.229
46.27000 208.601
46.28000 205.985
46.29000 207.699
46.30000 212.392
46.31000 216.892
46.32000 215.499
46.33000 211.339
46.34000 207.489
46.35000 207.864
46.36000 209.580
46.37000 211.131
46.38000 210.509
46.39000 209.559
46.40000 208.516
46.41000 207.024
46.42000 205.473
46.43000 204.224
46.44000 203.956
46.45000 203.763
46.46000 203.629
46.47000 208.164
46.48000 211.701
46.49000 213.408
46.50000 212.432
46.51000 211.433
46.52000 208.560
46.53000 203.908
46.54000 199.294
46.55000 198.599
46.56000 200.308
46.57000 201.898
46.58000 200.712
46.59000 198.362
46.60000 196.342
46.61000 198.086
46.62000 200.895
46.63000 203.390
46.64000 202.246
46.65000 200.667
46.66000 199.970
46.67000 203.068
46.68000 206.602
46.69000 207.718
46.70000 201.875
46.71000 195.597
46.72000 191.413
46.73000 196.971
46.74000 201.271
46.75000 203.571
46.76000 203.272
46.77000 202.961
46.78000 201.712
46.79000 199.680
46.80000 197.674
46.81000 199.254
46.82000 202.726
46.83000 206.141
46.84000 208.505
46.85000 210.476
46.86000 211.942
46.87000 208.529
46.88000 203.890
46.89000 199.844
46.90000 203.737
46.91000 208.172
46.92000 210.665
46.93000 205.739
46.94000 200.087
46.95000 195.886
46.96000 195.413
46.97000 195.128
46.98000 194.946
46.99000 194.727
47.00000 194.567
47.01000 194.632
47.02000 194.955
47.03000 195.290
47.04000 197.676
47.05000 201.575
47.06000 205.401
47.07000 206.273
47.08000 205.707
47.09000 205.024
47.10000 202.593
47.11000 199.579
47.12000 196.717
47.13000 195.109
47.14000 193.781
47.15000 192.645
47.16000 194.860
47.17000 197.128
47.18000 197.340
47.19000 190.570
47.20000 183.223
47.21000 178.383
47.22000 179.291
47.23000 180.427
47.24000 181.120
47.25000 191.821
47.26000 199.551
47.27000 199.532
47.28000 191.710
47.29000 183.955
47.30000 182.440
47.31000 185.015
47.32000 187.522
47.33000 187.835
47.34000 187.212
47.35000 186.691
47.36000 187.443
47.37000 188.574
47.38000 189.001
47.39000 184.389
47.40000 178.787
47.41000 174.102
47.42000 179.923
47.43000 185.828
47.44000 190.158
47.45000 189.717
47.46000 188.949
47.47000 187.939
47.48000 186.432
47.49000 184.910
47.50000 184.027
47.51000 192.029
47.52000 197.676
47.53000 198.143
47.54000 194.032
47.55000 189.988
47.56000 189.783
47.57000 191.817
47.58000 193.781
47.59000 193.394
47.60000 192.157
47.61000 190.476
47.62000 184.174
47.63000 176.648
47.64000 171.276
47.65000 179.314
47.66000 189.670
47.67000 198.126
47.68000 192.323
47.69000 186.346
47.70000 181.948
47.71000 181.817
47.72000 181.923
47.73000 182.741
47.74000 184.857
47.75000 187.002
47.76000 188.178
47.77000 182.295
47.78000 178.246
47.79000 176.847
47.80000 177.515
47.81000 178.219
47.82000 180.369
47.83000 183.270
47.84000 186.046
47.85000 188.289
47.86000 190.203
47.87000 191.907
47.88000 191.741
47.89000 191.137
47.90000 190.714
47.91000 191.278
47.92000 191.992
47.93000 192.560
47.94000 193.920
47.95000 195.074
47.96000 195.565
47.97000 194.459
47.98000 193.281
47.99000 190.240
48.00000 184.165
48.01000 178.047
48.02000 174.888
48.03000 189.405
48.04000 199.112
48.05000 199.049
48.06000 192.235
48.07000 185.724
48.08000 188.135
48.09000 194.682
48.10000 200.878
48.11000 202.921
48.12000 203.602
48.13000 203.507
48.14000 197.506
48.15000 190.277
48.16000 184.085
48.17000 182.876
48.18000 182.321
48.19000 181.891
48.20000 186.543
48.21000 190.536
48.22000 192.391
48.23000 189.636
48.24000 186.724
48.25000 184.996
48.26000 184.980
48.27000 184.978
48.28000 185.666
48.29000 186.998
48.30000 188.331
48.31000 189.755
48.32000 191.234
48.33000 192.693
48.34000 193.707
48.35000 194.537
48.36000 195.313
48.37000 192.457
48.38000 188.945
48.39000 185.792
48.40000 185.013
48.41000 184.670
48.42000 184.371
48.43000 184.260
48.44000 184.170
48.45000 184.102
48.46000 188.399
48.47000 191.966
48.48000 194.604
48.49000 195.454
48.50000 196.259
48.51000 196.250
48.52000 195.195
48.53000 194.137
48.54000 190.238
48.55000 184.018
48.56000 177.926
48.57000 177.792
48.58000 180.915
48.59000 183.777
48.60000 181.932
48.61000 178.346
48.62000 175.039
48.63000 177.925
48.64000 181.886
48.65000 185.714
48.66000 188.773
48.67000 191.708
48.68000 193.510
48.69000 191.033
48.70000 188.144
48.71000 186.045
48.72000 185.124
48.73000 184.460
48.74000 184.926
48.75000 187.330
48.76000 189.767
48.77000 190.500
48.78000 189.306
48.79000 188.114
48.80000 188.136
48.81000 189.035
48.82000 189.888
48.83000 189.220
48.84000 187.809
48.85000 186.307
48.86000 183.472
48.87000 180.196
48.88000 177.220
48.89000 184.711
48.90000 193.362
48.91000 199.158
48.92000 190.442
48.93000 179.696
48.94000 172.173
48.95000 175.461
48.96000 179.624
48.97000 182.546
48.98000 186.789
48.99000 190.040
49.00000 189.769
49.01000 184.126
49.02000 178.426
49.03000 177.095
49.04000 180.102
49.05000 183.089
49.06000 185.229
49.07000 186.797
49.08000 188.162
49.09000 184.397
49.10000 178.397
49.11000 172.654
49.12000 170.031
49.13000 168.325
49.14000 166.800
49.15000 170.099
49.16000 173.790
49.17000 177.373
49.18000 180.471
49.19000 183.509
49.20000 184.412
49.21000 178.927
49.22000 173.013
49.23000 169.018
49.24000 175.439
49.25000 180.443
49.26000 181.888
49.27000 178.515
49.28000 175.117
49.29000 174.158
49.30000 175.323
49.31000 176.475
49.32000 175.751
49.33000 173.991
49.34000 172.296
49.35000 171.900
49.36000 172.010
49.37000 172.089
49.38000 171.847
49.39000 171.523
49.40000 171.237
49.41000 177.073
49.42000 182.984
49.43000 187.938
49.44000 189.091
49.45000 189.852
49.46000 188.453
49.47000 181.292
49.48000 173.818
49.49000 168.974
49.50000 175.665
49.51000 180.735
49.52000 181.708
49.53000 177.780
49.54000 173.863
49.55000 175.139
49.56000 180.411
49.57000 185.595
49.58000 186.155
49.59000 184.403
49.60000 182.995
49.61000 187.095
49.62000 193.107
49.63000 198.280
49.64000 196.143
49.65000 192.311
49.66000 189.012
49.67000 182.700
49.68000 176.975
49.69000 173.129
49.70000 175.929
49.71000 179.311
49.72000 181.534
49.73000 180.998
49.74000 180.342
49.75000 179.936
49.76000 179.767
49.77000 179.648
49.78000 180.022
49.79000 180.914
49.80000 181.802
49.81000 182.257
49.82000 182.415
49.83000 182.570
49.84000 181.761
49.85000 180.563
49.86000 179.230
49.87000 176.121
49.88000 172.461
49.89000 169.477
49.90000 171.562
49.91000 174.689
49.92000 177.323
49.93000 177.156
49.94000 176.715
49.95000 176.535
49.96000 177.177
49.97000 177.880
49.98000 178.970
49.99000 180.887
50.00000 182.830
50.01000 183.977
50.02000 178.200
50.03000 174.085
50.04000 172.583
50.05000 173.493
50.06000 174.382
50.07000 173.869
50.08000 172.505
50.09000 171.184
50.10000 175.008
50.11000 180.618
50.12000 186.011
50.13000 189.019
50.14000 191.369
50.15000 192.878
50.16000 188.908
50.17000 183.949
50.18000 179.865
50.19000 183.109
50.20000 186.446
50.21000 188.070
50.22000 184.884
50.23000 181.410
50.24000 179.462
50.25000 180.414
50.26000 181.436
50.27000 182.008
50.28000 186.236
50.29000 189.166
50.30000 189.347
50.31000 187.292
50.32000 185.272
50.33000 184.821
50.34000 185.217
50.35000 185.596
50.36000 189.801
50.37000 195.040
50.38000 199.683
50.39000 198.762
50.40000 196.477
50.41000 194.870
50.42000 197.126
50.43000 199.992
50.44000 202.294
50.45000 205.389
50.46000 207.958
50.47000 209.938
50.48000 210.441
50.49000 210.874
50.50000 213.156
50.51000 218.572
50.52000 224.038
50.53000 226.922
50.54000 228.958
50.55000 230.357
50.56000 234.470
50.57000 240.534
50.58000 246.476
50.59000 248.418
50.60000 248.433
50.61000 248.447
50.62000 249.854
50.63000 251.572
50.64000 254.305
50.65000 265.173
50.66000 277.806
50.67000 287.700
50.68000 283.868
50.69000 278.146
50.70000 273.674
50.71000 276.793
50.72000 279.762
50.73000 282.107
50.74000 283.053
50.75000 283.948
50.76000 284.223
50.77000 283.566
50.78000 282.899
50.79000 280.292
50.80000 275.787
50.81000 271.318
50.82000 269.857
50.83000 270.318
50.84000 270.702
50.85000 269.213
50.86000 266.918
50.87000 264.763
50.88000 259.251
50.89000 253.336
50.90000 247.850
50.91000 245.339
50.92000 243.397
50.93000 240.619
50.94000 234.140
50.95000 227.221
50.96000 221.970
50.97000 218.238
50.98000 215.384
50.99000 212.481
51.00000 209.480
51.01000 206.476
51.02000 203.022
51.03000 198.967
51.04000 194.912
51.05000 192.378
51.06000 191.156
51.07000 189.928
51.08000 188.456
51.09000 186.844
51.10000 185.162
51.11000 182.118
51.12000 178.550
51.13000 175.245
51.14000 175.094
51.15000 175.692
51.16000 176.579
51.17000 179.214
51.18000 182.142
51.19000 183.357
51.20000 177.844
51.21000 171.648
51.22000 167.092
51.23000 176.097
51.24000 183.619
51.25000 184.882
51.26000 174.983
51.27000 164.865
51.28000 161.630
51.29000 166.519
51.30000 171.410
51.31000 170.596
51.32000 165.484
51.33000 160.534
51.34000 161.622
51.35000 165.772
51.36000 169.692
51.37000 170.011
51.38000 169.094
51.39000 168.257
51.40000 166.066
51.41000 163.844
51.42000 162.361
51.43000 164.793
51.44000 167.798
51.45000 169.447
51.46000 166.359
51.47000 162.865
51.48000 160.382
51.49000 160.920
51.50000 161.425
51.51000 163.002
51.52000 166.281
51.53000 169.581
51.54000 173.078
51.55000 176.780
51.56000 180.461
51.57000 178.847
51.58000 173.734
51.59000 168.718
51.60000 166.346
51.61000 165.171
51.62000 163.670
51.63000 157.964
51.64000 150.972
51.65000 144.687
51.66000 148.854
51.67000 154.354
51.68000 159.158
51.69000 160.708
51.70000 161.844
51.71000 164.215
51.72000 170.423
51.73000 176.905
51.74000 181.343
51.75000 175.794
51.76000 171.401
51.77000 170.331
51.78000 173.947
51.79000 177.595
51.80000 178.405
51.81000 176.631
51.82000 174.874
51.83000 174.312
51.84000 174.461
51.85000 174.596
51.86000 174.418
51.87000 174.114
51.88000 173.603
51.89000 170.865
51.90000 167.520
51.91000 164.565
51.92000 162.043
51.93000 159.932
51.94000 159.307
51.95000 164.838
51.96000 171.040
51.97000 175.878
51.98000 176.931
51.99000 177.761
52.00000 178.308
52.01000 174.879
52.02000 172.287
52.03000 170.442
52.04000 169.531
52.05000 168.618
52.06000 165.919
52.07000 161.788
52.08000 157.719
52.09000 159.595
52.10000 164.494
52.11000 169.089
52.12000 168.490
52.13000 166.018
52.14000 163.931
52.15000 165.384
52.16000 167.693
52.17000 169.694
52.18000 161.275
52.19000 152.727
52.20000 146.617
52.21000 149.472
52.22000 153.158
52.23000 155.933
52.24000 156.448
52.25000 156.858
52.26000 157.116
52.27000 162.303
52.28000 166.111
52.29000 166.934
52.30000 164.472
52.31000 162.034
52.32000 163.215
52.33000 166.966
52.34000 170.637
52.35000 170.826
52.36000 169.414
52.37000 167.819
52.38000 163.663
52.39000 158.681
52.40000 154.331
52.41000 154.963
52.42000 156.661
52.43000 158.103
52.44000 157.054
52.45000 155.892
52.46000 155.614
52.47000 158.231
52.48000 161.074
52.49000 163.698
52.50000 165.837
52.51000 167.959
52.52000 169.232
52.53000 167.030
52.54000 165.441
52.55000 165.344
52.56000 166.685
52.57000 167.979
52.58000 165.572
52.59000 160.831
52.60000 156.225
52.61000 159.074
52.62000 164.789
52.63000 170.001
52.64000 169.341
52.65000 166.996
52.66000 164.690
52.67000 162.653
52.68000 160.666
52.69000 159.017
52.70000 165.372
52.71000 171.399
52.72000 174.452
52.73000 168.824
52.74000 162.639
52.75000 157.676
52.76000 155.126
52.77000 152.642
52.78000 151.226
52.79000 153.428
52.80000 154.975
52.81000 156.607
52.82000 158.311
52.83000 159.983
52.84000 160.036
52.85000 159.180
52.86000 158.356
52.87000 158.725
52.88000 159.497
52.89000 160.076
52.90000 158.758
52.91000 156.956
52.92000 155.609
52.93000 156.978
52.94000 158.796
52.95000 160.269
52.96000 161.006
52.97000 161.546
52.98000 161.916
52.99000 161.843
53.00000 161.747
53.01000 163.465
53.02000 168.379
53.03000 173.352
53.04000 176.030
53.05000 170.318
53.06000 166.405
53.07000 162.246
53.08000 157.904
53.09000 153.644
53.10000 152.335
53.11000 152.505
53.12000 152.667
53.13000 159.635
53.14000 168.237
53.15000 175.947
53.16000 176.143
53.17000 174.642
53.18000 172.527
53.19000 167.202
53.20000 161.415
53.21000 156.848
53.22000 158.500
53.23000 160.246
53.24000 162.291
53.25000 165.032
53.26000 167.802
53.27000 169.000
53.28000 167.736
53.29000 166.441
53.30000 165.787
53.31000 167.664
53.32000 168.910
53.33000 169.057
53.34000 168.473
53.35000 167.920
53.36000 168.224
53.37000 168.909
53.38000 169.556
53.39000 165.457
53.40000 160.391
53.41000 156.214
53.42000 158.506
53.43000 162.090
53.44000 165.474
53.45000 167.939
53.46000 170.288
53.47000 172.090
53.48000 170.350
53.49000 168.779
53.50000 167.366
53.51000 166.279
53.52000 165.203
53.53000 163.942
53.54000 162.425
53.55000 160.906
53.56000 162.094
53.57000 165.708
53.58000 169.254
53.59000 168.573
53.60000 165.393
53.61000 162.277
53.62000 160.487
53.63000 159.227
53.64000 158.054
53.65000 157.426
53.66000 156.991
53.67000 156.763
53.68000 157.840
53.69000 159.147
53.70000 159.931
53.71000 158.576
53.72000 156.991
53.73000 155.813
53.74000 156.860
53.75000 157.773
53.76000 158.344
53.77000 158.280
53.78000 158.202
53.79000 158.914
53.80000 160.598
53.81000 162.283
53.82000 161.361
53.83000 158.391
53.84000 155.493
53.85000 155.595
53.86000 157.277
53.87000 158.715
53.88000 156.070
53.89000 151.968
53.90000 148.204
53.91000 153.539
53.92000 160.234
53.93000 165.099
53.94000 159.821
53.95000 152.984
53.96000 148.283
53.97000 151.334
53.98000 155.092
53.99000 157.794
54.00000 156.297
54.01000 155.005
54.02000 152.214
54.03000 146.945
54.04000 141.641
54.05000 139.163
54.06000 139.754
54.07000 140.342
54.08000 142.859
54.09000 146.687
54.10000 150.532
54.11000 154.940
54.12000 159.612
54.13000 164.028
54.14000 164.937
54.15000 164.730
54.16000 164.542
54.17000 163.997
54.18000 163.451
54.19000 162.832
54.20000 161.864
54.21000 160.848
54.22000 159.452
54.23000 156.827
54.24000 154.109
54.25000 152.224
54.26000 152.175
54.27000 152.187
54.28000 155.001
54.29000 161.929
54.30000 168.891
54.31000 166.767
54.32000 155.999
54.33000 145.320
54.34000 144.579
54.35000 149.929
54.36000 154.983
54.37000 153.115
54.38000 148.341
54.39000 143.988
54.40000 144.461
54.41000 146.300
54.42000 147.935
54.43000 149.157
54.44000 150.151
54.45000 151.634
54.46000 155.231
54.47000 159.070
54.48000 162.110
54.49000 162.844
54.50000 163.433
54.51000 163.827
54.52000 163.224
54.53000 162.758
54.54000 160.702
54.55000 156.576
54.56000 152.447
54.57000 151.212
54.58000 152.398
54.59000 153.569
54.60000 155.467
54.61000 157.707
54.62000 159.870
54.63000 160.622
54.64000 160.845
54.65000 161.015
54.66000 160.675
54.67000 160.207
54.68000 159.799
54.69000 156.540
54.70000 153.356
54.71000 151.047
54.72000 152.088
54.73000 153.459
54.74000 154.804
54.75000 156.084
54.76000 157.361
54.77000 158.177
54.78000 155.941
54.79000 154.274
54.80000 154.054
54.81000 155.496
54.82000 156.923
54.83000 155.143
54.84000 150.990
54.85000 146.916
54.86000 147.837
54.87000 151.106
54.88000 154.185
54.89000 154.432
54.90000 153.731
54.91000 153.138
54.92000 153.433
54.93000 153.927
54.94000 154.349
54.95000 155.910
54.96000 157.362
54.97000 158.552
54.98000 158.849
54.99000 159.071
55.00000 159.953
55.01000 162.350
55.02000 164.807
55.03000 166.306
55.04000 160.495
55.05000 156.281
55.06000 155.410
55.07000 157.912
55.08000 160.381
55.09000 159.656
55.10000 156.837
55.11000 154.090
55.12000 156.443
55.13000 160.835
55.14000 164.745
55.15000 162.678
55.16000 158.828
55.17000 155.809
55.18000 158.751
55.19000 162.866
55.20000 166.309
55.21000 166.479
55.22000 166.286
55.23000 166.406
55.24000 167.476
55.25000 168.611
55.26000 169.305
55.27000 169.095
55.28000 168.857
55.29000 168.719
55.30000 165.579
55.31000 163.365
55.32000 164.407
55.33000 168.330
55.34000 172.210
55.35000 173.492
55.36000 173.258
55.37000 173.032
55.38000 171.972
55.39000 170.662
55.40000 169.402
55.41000 168.668
55.42000 168.073
55.43000 167.964
55.44000 170.878
55.45000 174.317
55.46000 177.126
55.47000 183.937
55.48000 189.858
55.49000 193.713
55.50000 191.975
55.51000 189.924
55.52000 190.197
55.53000 194.724
55.54000 199.343
55.55000 201.879
55.56000 212.017
55.57000 218.982
55.58000 219.351
55.59000 214.568
55.60000 210.003
55.61000 214.258
55.62000 223.103
55.63000 231.567
55.64000 237.663
55.65000 242.564
55.66000 247.491
55.67000 252.642
55.68000 257.847
55.69000 265.178
55.70000 284.135
55.71000 304.851
55.72000 321.345
55.73000 333.641
55.74000 343.252
55.75000 355.155
55.76000 372.598
55.77000 390.287
55.78000 406.387
55.79000 419.899
55.80000 433.373
55.81000 440.339
55.82000 473.258
55.83000 495.434
55.84000 515.082
55.85000 532.980
55.86000 551.039
55.87000 573.852
55.88000 598.874
55.89000 622.556
55.90000 628.298
55.91000 628.397
55.92000 629.069
55.93000 634.119
55.94000 640.080
55.95000 645.328
55.96000 647.142
55.97000 648.504
55.98000 649.559
55.99000 654.078
56.00000 657.872
56.01000 658.155
56.02000 650.860
56.03000 643.306
56.04000 634.147
56.05000 622.663
56.06000 611.161
56.07000 595.033
56.08000 574.574
56.09000 554.087
56.10000 531.603
56.11000 507.891
56.12000 484.790
56.13000 475.543
56.14000 472.043
56.15000 468.771
56.16000 445.648
56.17000 419.613
56.18000 395.530
56.19000 384.386
56.20000 375.617
56.21000 367.288
56.22000 360.836
56.23000 354.595
56.24000 349.906
56.25000 321.761
56.26000 298.631
56.27000 281.368
56.28000 275.410
56.29000 269.734
56.30000 263.460
56.31000 256.417
56.32000 249.380
56.33000 239.179
56.34000 226.406
56.35000 213.696
56.36000 203.916
56.37000 195.741
56.38000 187.794
56.39000 183.962
56.40000 181.653
56.41000 179.524
56.42000 184.874
56.43000 191.332
56.44000 196.047
56.45000 190.668
56.46000 183.665
56.47000 177.726
56.48000 175.802
56.49000 174.265
56.50000 173.148
56.51000 173.896
56.52000 174.543
56.53000 174.005
56.54000 171.433
56.55000 168.825
56.56000 167.691
56.57000 168.228
56.58000 168.764
56.59000 165.440
56.60000 159.349
56.61000 153.363
56.62000 150.905
56.63000 150.171
56.64000 149.618
56.65000 151.719
56.66000 154.697
56.67000 157.404
56.68000 158.301
56.69000 158.741
56.70000 159.039
56.71000 158.610
56.72000 158.079
56.73000 157.646
56.74000 157.538
56.75000 157.458
56.76000 157.401
56.77000 154.438
56.78000 152.109
56.79000 149.017
56.80000 144.756
56.81000 140.482
56.82000 138.848
56.83000 139.838
56.84000 140.821
56.85000 143.993
56.86000 148.513
56.87000 152.849
56.88000 152.536
56.89000 150.193
56.90000 148.007
56.91000 147.724
56.92000 148.001
56.93000 148.249
56.94000 146.966
56.95000 145.588
56.96000 145.138
56.97000 148.861
56.98000 153.088
56.99000 156.432
57.00000 157.128
57.01000 157.647
57.02000 157.997
57.03000 148.924
57.04000 141.964
57.05000 137.834
57.06000 137.542
57.07000 137.276
57.08000 141.471
57.09000 149.560
57.10000 157.559
57.11000 157.894
57.12000 153.905
57.13000 150.189
57.14000 151.888
57.15000 155.698
57.16000 158.849
57.17000 155.254
57.18000 149.892
57.19000 145.184
57.20000 147.667
57.21000 150.856
57.22000 153.246
57.23000 152.452
57.24000 151.327
57.25000 149.528
57.26000 145.924
57.27000 142.222
57.28000 139.821
57.29000 136.500
57.30000 134.055
57.31000 136.819
57.32000 145.826
57.33000 154.817
57.34000 156.849
57.35000 153.517
57.36000 150.241
57.37000 149.898
57.38000 151.026
57.39000 152.016
57.40000 150.801
57.41000 148.819
57.42000 146.917
57.43000 145.720
57.44000 144.687
57.45000 143.798
57.46000 146.072
57.47000 148.398
57.48000 150.041
57.49000 149.265
57.50000 148.276
57.51000 147.453
57.52000 147.026
57.53000 146.616
57.54000 146.361
57.55000 146.274
57.56000 146.214
57.57000 148.080
57.58000 151.980
57.59000 155.860
57.60000 157.354
57.61000 157.218
57.62000 157.085
57.63000 157.170
57.64000 157.346
57.65000 157.110
57.66000 151.450
57.67000 144.106
57.68000 137.684
57.69000 138.191
57.70000 140.123
57.71000 141.751
57.72000 141.330
57.73000 140.758
57.74000 140.019
57.75000 138.757
57.76000 137.456
57.77000 136.947
57.78000 138.130
57.79000 139.369
57.80000 140.100
57.81000 141.412
57.82000 142.343
57.83000 145.586
57.84000 150.966
57.85000 156.214
57.86000 152.500
57.87000 143.344
57.88000 134.473
57.89000 133.587
57.90000 135.846
57.91000 138.090
57.92000 140.170
57.93000 142.204
57.94000 143.871
57.95000 143.138
57.96000 141.970
57.97000 141.008
57.98000 141.236
57.99000 141.533
58.00000 142.653
58.01000 146.086
58.02000 149.658
58.03000 149.816
58.04000 143.474
58.05000 136.976
58.06000 133.339
58.07000 131.309
58.08000 129.917
58.09000 132.680
58.10000 138.826
58.11000 144.869
58.12000 146.229
58.13000 145.056
58.14000 143.929
58.15000 144.479
58.16000 145.568
58.17000 146.521
58.18000 146.207
58.19000 145.583
58.20000 144.675
58.21000 142.146
58.22000 139.360
58.23000 137.122
58.24000 137.600
58.25000 138.197
58.26000 138.635
58.27000 138.677
58.28000 138.700
58.29000 139.375
58.30000 141.156
58.31000 142.956
58.32000 143.906
58.33000 145.850
58.34000 147.143
58.35000 144.229
58.36000 138.282
58.37000 132.545
58.38000 133.644
58.39000 138.042
58.40000 142.221
58.41000 144.060
58.42000 145.053
58.43000 145.936
58.44000 145.936
58.45000 145.743
58.46000 144.975
58.47000 141.317
58.48000 137.259
58.49000 134.087
58.50000 137.849
58.51000 141.292
58.52000 143.295
58.53000 142.068
58.54000 140.719
58.55000 138.080
58.56000 133.495
58.57000 128.889
58.58000 127.744
58.59000 129.990
58.60000 132.208
58.61000 132.050
58.62000 130.373
58.63000 128.772
58.64000 129.063
58.65000 130.171
58.66000 131.211
58.67000 136.046
58.68000 141.463
58.69000 145.799
58.70000 142.619
58.71000 137.998
58.72000 134.006
58.73000 132.802
58.74000 131.930
58.75000 131.268
58.76000 128.824
58.77000 126.812
58.78000 127.024
58.79000 131.690
58.80000 136.481
58.81000 138.365
58.82000 136.359
58.83000 134.335
58.84000 135.476
58.85000 139.336
58.86000 143.151
58.87000 144.523
58.88000 144.504
58.89000 144.361
58.90000 141.822
58.91000 138.361
58.92000 135.153
58.93000 135.339
58.94000 136.297
58.95000 136.750
58.96000 134.139
58.97000 131.012
58.98000 129.394
58.99000 133.710
59.00000 138.630
59.01000 142.250
59.02000 143.674
59.03000 144.685
59.04000 143.917
59.05000 139.971
59.06000 135.964
59.07000 133.891
59.08000 134.107
59.09000 134.327
59.10000 134.360
59.11000 134.251
59.12000 134.168
59.13000 135.063
59.14000 136.455
59.15000 137.713
59.16000 136.887
59.17000 135.345
59.18000 133.936
59.19000 134.457
59.20000 135.313
59.21000 136.032
59.22000 136.024
59.23000 135.909
59.24000 135.603
59.25000 134.630
59.26000 133.600
59.27000 132.868
59.28000 138.145
59.29000 142.356
59.30000 143.703
59.31000 140.498
59.32000 137.234
59.33000 135.670
59.34000 135.874
59.35000 136.077
59.36000 136.216
59.37000 136.311
59.38000 136.433
59.39000 137.282
59.40000 138.461
59.41000 139.625
59.42000 140.593
59.43000 141.499
59.44000 142.315
59.45000 138.613
59.46000 134.569
59.47000 130.914
59.48000 129.079
59.49000 127.476
59.50000 127.818
59.51000 134.214
59.52000 141.045
59.53000 145.724
59.54000 144.829
59.55000 144.025
59.56000 140.983
59.57000 134.780
59.58000 128.559
59.59000 129.674
59.60000 137.481
59.61000 145.212
59.62000 147.282
59.63000 145.984
59.64000 144.571
59.65000 140.703
59.66000 135.840
59.67000 130.997
59.68000 126.363
59.69000 121.785
59.70000 117.741
59.71000 126.589
59.72000 136.216
59.73000 143.320
59.74000 139.963
59.75000 135.461
59.76000 131.222
59.77000 127.712
59.78000 124.245
59.79000 121.964
59.80000 124.084
59.81000 125.721
59.82000 127.771
59.83000 130.338
59.84000 132.899
59.85000 132.906
59.86000 130.860
59.87000 128.844
59.88000 128.835
59.89000 129.868
59.90000 130.982
59.91000 133.509
59.92000 136.547
59.93000 139.118
59.94000 137.396
59.95000 134.634
59.96000 132.240
59.97000 133.854
59.98000 135.762
59.99000 137.684
60.00000 139.659
60.01000 141.639
60.02000 142.150
60.03000 139.016
60.04000 135.712
60.05000 133.630
60.06000 126.002
60.07000 120.418
60.08000 119.151
60.09000 122.643
60.10000 126.145
60.11000 130.786
60.12000 136.238
60.13000 141.575
60.14000 139.625
60.15000 134.413
60.16000 129.858
60.17000 134.529
60.18000 142.176
60.19000 148.413
60.20000 143.517
60.21000 136.235
60.22000 130.050
60.23000 132.350
60.24000 135.246
60.25000 138.228
60.26000 141.491
60.27000 144.777
60.28000 145.401
60.29000 140.126
60.30000 134.638
60.31000 131.341
60.32000 136.159
60.33000 139.638
60.34000 139.378
60.35000 135.503
60.36000 131.659
60.37000 130.249
60.38000 130.377
60.39000 130.501
60.40000 133.954
60.41000 138.581
60.42000 142.654
60.43000 140.246
60.44000 135.976
60.45000 132.137
60.46000 131.245
60.47000 130.910
60.48000 130.631
60.49000 130.023
60.50000 129.489
60.51000 129.346
60.52000 130.351
60.53000 131.430
60.54000 133.401
60.55000 137.137
60.56000 140.920
60.57000 143.078
60.58000 138.164
60.59000 134.715
60.60000 131.594
60.61000 128.753
60.62000 125.993
60.63000 127.373
60.64000 131.083
60.65000 134.656
60.66000 132.416
60.67000 128.238
60.68000 125.074
60.69000 131.935
60.70000 141.358
60.71000 148.897
60.72000 145.191
60.73000 139.619
60.74000 135.104
60.75000 133.035
60.76000 131.548
60.77000 130.375
60.78000 130.017
60.79000 129.702
60.80000 130.167
60.81000 132.009
60.82000 133.876
60.83000 134.882
60.84000 130.644
60.85000 127.752
60.86000 127.119
60.87000 128.182
60.88000 129.287
60.89000 131.922
60.90000 135.326
60.91000 138.571
60.92000 137.382
60.93000 134.883
60.94000 132.615
60.95000 132.298
60.96000 132.424
60.97000 132.401
60.98000 131.594
60.99000 130.675
61.00000 129.949
61.01000 133.219
61.02000 136.113
61.03000 138.712
61.04000 140.623
61.05000 142.506
61.06000 142.331
61.07000 138.922
61.08000 135.475
61.09000 133.729
61.10000 142.925
61.11000 149.032
61.12000 150.207
61.13000 148.098
61.14000 145.957
61.15000 142.997
61.16000 139.669
61.17000 136.531
61.18000 137.312
61.19000 139.112
61.20000 140.495
61.21000 138.828
61.22000 136.552
61.23000 135.123
61.24000 137.611
61.25000 140.590
61.26000 142.875
61.27000 145.181
61.28000 147.005
61.29000 148.386
61.30000 148.846
61.31000 149.277
61.32000 148.266
61.33000 145.244
61.34000 142.209
61.35000 142.654
61.36000 146.227
61.37000 149.780
61.38000 152.096
61.39000 153.679
61.40000 154.967
61.41000 150.054
61.42000 142.661
61.43000 135.778
61.44000 139.123
61.45000 144.639
61.46000 149.250
61.47000 148.128
61.48000 145.998
61.49000 145.145
61.50000 149.518
61.51000 154.453
61.52000 158.124
61.53000 167.516
61.54000 175.077
61.55000 184.141
61.56000 195.994
61.57000 207.910
61.58000 221.137
61.59000 235.982
61.60000 250.803
61.61000 265.202
61.62000 279.199
61.63000 293.007
61.64000 298.862
61.65000 300.518
61.66000 302.126
61.67000 302.933
61.68000 303.454
61.69000 303.932
61.70000 315.549
61.71000 328.287
61.72000 338.862
61.73000 337.427
61.74000 334.143
61.75000 329.940
61.76000 322.397
61.77000 314.549
61.78000 308.904
61.79000 296.251
61.80000 286.320
61.81000 273.618
61.82000 256.334
61.83000 238.981
61.84000 224.715
61.85000 213.805
61.86000 202.944
61.87000 191.328
61.88000 179.308
61.89000 167.535
61.90000 163.342
61.91000 162.718
61.92000 161.973
61.93000 159.562
61.94000 156.621
61.95000 153.961
61.96000 152.104
61.97000 150.619
61.98000 148.809
61.99000 145.407
62.00000 141.793
62.01000 139.490
62.02000 141.433
62.03000 143.702
62.04000 145.276
62.05000 141.860
62.06000 139.156
62.07000 139.652
62.08000 144.855
62.09000 150.100
62.10000 152.055
62.11000 150.876
62.12000 149.707
62.13000 147.219
62.14000 143.969
62.15000 140.881
62.16000 141.573
62.17000 143.855
62.18000 145.949
62.19000 145.884
62.20000 145.207
62.21000 144.605
62.22000 144.529
62.23000 144.548
62.24000 145.135
62.25000 148.174
62.26000 151.496
62.27000 152.878
62.28000 148.659
62.29000 144.086
62.30000 141.035
62.31000 143.293
62.32000 145.068
62.33000 145.666
62.34000 144.730
62.35000 143.785
62.36000 141.610
62.37000 138.405
62.38000 135.241
62.39000 134.954
62.40000 136.230
62.41000 137.454
62.42000 137.694
62.43000 137.565
62.44000 137.583
62.45000 139.026
62.46000 140.828
62.47000 142.400
62.48000 144.785
62.49000 146.939
62.50000 147.800
62.51000 143.703
62.52000 139.118
62.53000 136.714
62.54000 139.932
62.55000 143.435
62.56000 145.675
62.57000 143.950
62.58000 142.642
62.59000 141.324
62.60000 139.994
62.61000 138.680
62.62000 140.355
62.63000 144.244
62.64000 148.061
62.65000 147.192
62.66000 144.116
62.67000 141.358
62.68000 143.354
62.69000 146.944
62.70000 150.204
62.71000 150.728
62.72000 150.641
62.73000 150.566
62.74000 144.927
62.75000 139.503
62.76000 136.388
62.77000 141.143
62.78000 146.551
62.79000 150.517
62.80000 151.163
62.81000 151.677
62.82000 151.991
62.83000 152.967
62.84000 153.671
62.85000 152.353
62.86000 148.992
62.87000 145.649
62.88000 144.043
62.89000 143.578
62.90000 143.126
62.91000 143.531
62.92000 144.281
62.93000 145.292
62.94000 149.568
62.95000 154.818
62.96000 159.422
62.97000 159.383
62.98000 158.428
62.99000 157.629
63.00000 154.966
63.01000 152.562
63.02000 150.567
63.03000 149.817
63.04000 149.153
63.05000 149.263
63.06000 150.966
63.07000 152.717
63.08000 153.734
63.09000 147.753
63.10000 143.526
63.11000 141.596
63.12000 141.703
63.13000 141.799
63.14000 141.273
63.15000 140.383
63.16000 139.523
63.17000 140.009
63.18000 140.970
63.19000 142.035
63.20000 144.197
63.21000 146.651
63.22000 148.841
63.23000 149.383
63.24000 149.640
63.25000 149.850
63.26000 153.247
63.27000 156.303
63.28000 158.386
63.29000 157.832
63.30000 157.129
63.31000 156.348
63.32000 155.421
63.33000 154.491
63.34000 153.980
63.35000 150.802
63.36000 148.614
63.37000 147.761
63.38000 147.952
63.39000 148.153
63.40000 148.708
63.41000 149.449
63.42000 150.157
63.43000 148.810
63.44000 146.880
63.45000 145.372
63.46000 147.620
63.47000 150.755
63.48000 153.423
63.49000 153.533
63.50000 153.254
63.51000 153.032
63.52000 151.215
63.53000 149.634
63.54000 149.326
63.55000 152.101
63.56000 155.014
63.57000 155.875
63.58000 153.384
63.59000 150.845
63.60000 149.531
63.61000 159.411
63.62000 166.026
63.63000 166.380
63.64000 162.393
63.65000 158.429
63.66000 155.132
63.67000 152.146
63.68000 149.319
63.69000 152.480
63.70000 157.121
63.71000 161.265
63.72000 161.614
63.73000 161.170
63.74000 159.949
63.75000 154.980
63.76000 149.516
63.77000 145.284
63.78000 150.576
63.79000 155.346
63.80000 157.391
63.81000 153.540
63.82000 149.488
63.83000 149.873
63.84000 156.699
63.85000 163.579
63.86000 163.400
63.87000 156.592
63.88000 149.887
63.89000 150.574
63.90000 155.815
63.91000 160.762
63.92000 159.002
63.93000 154.456
63.94000 150.205
63.95000 153.179
63.96000 157.717
63.97000 161.557
63.98000 160.762
63.99000 159.115
64.00000 157.881
64.01000 158.407
64.02000 159.132
64.03000 159.678
64.04000 152.673
64.05000 146.831
64.06000 143.778
64.07000 146.104
64.08000 148.566
64.09000 151.638
64.10000 155.496
64.11000 159.353
64.12000 160.867
64.13000 160.445
64.14000 160.038
64.15000 160.304
64.16000 160.941
64.17000 161.488
64.18000 160.429
64.19000 158.774
64.20000 157.247
64.21000 156.146
64.22000 155.255
64.23000 154.270
64.24000 152.740
64.25000 151.123
64.26000 150.235
64.27000 152.109
64.28000 154.249
64.29000 155.807
64.30000 156.258
64.31000 156.563
64.32000 159.391
64.33000 166.558
64.34000 173.800
64.35000 176.332
64.36000 173.515
64.37000 170.703
64.38000 168.565
64.39000 166.935
64.40000 165.385
64.41000 166.574
64.42000 169.105
64.43000 171.425
64.44000 170.657
64.45000 168.867
64.46000 167.240
64.47000 164.568
64.48000 162.002
64.49000 159.801
64.50000 159.467
64.51000 159.395
64.52000 159.689
64.53000 161.217
64.54000 162.845
64.55000 163.988
64.56000 160.923
64.57000 158.478
64.58000 161.153
64.59000 171.665
64.60000 182.262
64.61000 184.665
64.62000 178.904
64.63000 173.180
64.64000 172.724
64.65000 175.641
64.66000 178.501
64.67000 179.907
64.68000 180.678
64.69000 181.108
64.70000 177.387
64.71000 172.441
64.72000 168.019
64.73000 170.746
64.74000 174.336
64.75000 177.348
64.76000 177.753
64.77000 177.841
64.78000 178.549
64.79000 181.118
64.80000 183.812
64.81000 185.634
64.82000 182.112
64.83000 179.372
64.84000 179.856
64.85000 184.716
64.86000 189.598
64.87000 191.313
64.88000 190.257
64.89000 189.212
64.90000 186.103
64.91000 181.902
64.92000 177.893
64.93000 177.713
64.94000 179.027
64.95000 180.289
64.96000 181.000
64.97000 181.568
64.98000 182.066
64.99000 195.145
65.00000 208.236
65.01000 217.389
65.02000 210.830
65.03000 202.638
65.04000 197.100
65.05000 198.672
65.06000 200.632
65.07000 201.905
65.08000 203.703
65.09000 205.028
65.10000 206.066
65.11000 206.761
65.12000 207.454
65.13000 208.136
65.14000 208.809
65.15000 209.470
65.16000 213.209
65.17000 218.359
65.18000 223.773
65.19000 233.435
65.20000 244.577
65.21000 254.515
65.22000 253.918
65.23000 250.867
65.24000 248.240
65.25000 253.725
65.26000 259.400
65.27000 264.169
65.28000 265.723
65.29000 266.993
65.30000 271.296
65.31000 282.854
65.32000 294.725
65.33000 302.092
65.34000 315.176
65.35000 324.646
65.36000 325.184
65.37000 316.281
65.38000 307.514
65.39000 314.759
65.40000 332.962
65.41000 350.742
65.42000 363.530
65.43000 373.575
65.44000 382.877
65.45000 382.358
65.46000 378.786
65.47000 378.145
65.48000 399.580
65.49000 425.561
65.50000 447.467
65.51000 452.845
65.52000 455.547
65.53000 459.140
65.54000 465.547
65.55000 472.160
65.56000 478.383
65.57000 483.773
65.58000 489.135
65.59000 492.303
65.60000 504.232
65.61000 512.707
65.62000 517.730
65.63000 519.554
65.64000 521.464
65.65000 529.268
65.66000 540.658
65.67000 551.694
65.68000 569.523
65.69000 589.039
65.70000 609.520
65.71000 640.669
65.72000 674.770
65.73000 711.460
65.74000 765.098
65.75000 821.809
65.76000 868.536
65.77000 958.489
65.78000 1036.472
65.79000 1104.022
65.80000 1142.180
65.81000 1178.568
65.82000 1215.899
65.83000 1255.030
65.84000 1294.204
65.85000 1316.150
65.86000 1334.975
65.87000 1348.022
65.88000 1363.775
65.89000 1381.735
65.90000 1399.224
65.91000 1395.249
65.92000 1379.640
65.93000 1364.653
65.94000 1327.778
65.95000 1285.780
65.96000 1242.064
65.97000 1182.244
65.98000 1118.465
65.99000 1051.541
66.00000 966.616
66.01000 878.832
66.02000 808.288
66.03000 723.528
66.04000 653.730
66.05000 591.377
66.06000 547.755
66.07000 505.038
66.08000 466.810
66.09000 436.209
66.10000 405.735
66.11000 389.632
66.12000 375.456
66.13000 365.814
66.14000 353.841
66.15000 340.186
66.16000 326.769
66.17000 321.125
66.18000 319.240
66.19000 317.448
66.20000 317.032
66.21000 317.063
66.22000 317.119
66.23000 317.382
66.24000 317.691
66.25000 319.923
66.26000 331.834
66.27000 345.082
66.28000 355.445
66.29000 371.472
66.30000 384.627
66.31000 394.501
66.32000 397.003
66.33000 399.228
66.34000 405.795
66.35000 418.927
66.36000 432.125
66.37000 447.769
66.38000 465.815
66.39000 483.772
66.40000 494.098
66.41000 499.533
66.42000 504.906
66.43000 508.733
66.44000 511.893
66.45000 514.861
66.46000 518.943
66.47000 522.962
66.48000 526.552
66.49000 527.155
66.50000 527.184
66.51000 523.378
66.52000 502.525
66.53000 479.636
66.54000 462.249
66.55000 443.903
66.56000 429.431
66.57000 416.697
66.58000 407.450
66.59000 398.302
66.60000 387.691
66.61000 375.122
66.62000 362.552
66.63000 352.907
66.64000 345.802
66.65000 338.803
66.66000 337.532
66.67000 339.528
66.68000 341.251
66.69000 337.655
66.70000 332.009
66.71000 326.776
66.72000 332.318
66.73000 339.822
66.74000 346.217
66.75000 345.881
66.76000 344.409
66.77000 343.799
66.78000 346.579
66.79000 349.706
66.80000 352.007
66.81000 349.039
66.82000 346.523
66.83000 343.825
66.84000 340.799
66.85000 337.766
66.86000 338.703
66.87000 344.345
66.88000 349.980
66.89000 354.861
66.90000 359.139
66.91000 363.259
66.92000 361.393
66.93000 356.481
66.94000 351.684
66.95000 348.682
66.96000 346.298
66.97000 344.119
66.98000 352.468
66.99000 362.032
67.00000 370.459
67.01000 372.827
67.02000 374.304
67.03000 376.111
67.04000 379.075
67.05000 382.140
67.06000 384.320
67.07000 380.203
67.08000 376.866
67.09000 376.067
67.10000 379.309
67.11000 382.604
67.12000 382.707
67.13000 379.483
67.14000 376.277
67.15000 377.660
67.16000 382.085
67.17000 386.539
67.18000 391.789
67.19000 397.399
67.20000 402.763
67.21000 404.947
67.22000 406.155
67.23000 407.241
67.24000 403.922
67.25000 400.230
67.26000 398.334
67.27000 404.869
67.28000 412.479
67.29000 419.336
67.30000 423.839
67.31000 428.172
67.32000 431.142
67.33000 426.816
67.34000 423.399
67.35000 421.422
67.36000 421.482
67.37000 421.559
67.38000 424.362
67.39000 429.657
67.40000 434.901
67.41000 434.790
67.42000 431.529
67.43000 428.569
67.44000 432.123
67.45000 438.317
67.46000 443.982
67.47000 443.898
67.48000 442.242
67.49000 440.780
67.50000 450.678
67.51000 460.983
67.52000 468.875
67.53000 466.747
67.54000 463.521
67.55000 461.965
67.56000 465.062
67.57000 468.433
67.58000 470.652
67.59000 474.333
67.60000 477.070
67.61000 479.722
67.62000 482.267
67.63000 484.797
67.64000 482.126
67.65000 475.266
67.66000 468.506
67.67000 473.584
67.68000 484.663
67.69000 495.310
67.70000 498.509
67.71000 499.010
67.72000 499.787
67.73000 503.095
67.74000 507.018
67.75000 510.419
67.76000 511.175
67.77000 511.466
67.78000 511.325
67.79000 509.585
67.80000 507.696
67.81000 508.446
67.82000 515.753
67.83000 523.368
67.84000 528.168
67.85000 524.708
67.86000 522.109
67.87000 524.922
67.88000 533.711
67.89000 542.493
67.90000 549.701
67.91000 555.786
67.92000 561.744
67.93000 560.391
67.94000 555.736
67.95000 551.444
67.96000 552.262
67.97000 554.733
67.98000 557.066
67.99000 558.313
68.00000 559.327
68.01000 560.188
68.02000 565.903
68.03000 571.253
68.04000 578.096
68.05000 589.840
68.06000 601.968
68.07000 607.425
68.08000 598.077
68.09000 588.188
68.10000 582.244
68.11000 601.403
68.12000 615.194
68.13000 629.000
68.14000 642.821
68.15000 656.485
68.16000 657.556
68.17000 650.656
68.18000 643.952
68.19000 638.616
68.20000 634.101
68.21000 630.705
68.22000 640.422
68.23000 653.914
68.24000 665.548
68.25000 664.440
68.26000 660.919
68.27000 657.994
68.28000 674.255
68.29000 689.566
68.30000 703.190
68.31000 711.875
68.32000 720.240
68.33000 728.256
68.34000 735.580
68.35000 742.884
68.36000 747.053
68.37000 747.572
68.38000 747.924
68.39000 749.298
68.40000 751.544
68.41000 753.967
68.42000 765.625
68.43000 782.485
68.44000 798.727
68.45000 807.154
68.46000 812.275
68.47000 817.142
68.48000 819.506
68.49000 821.229
68.50000 825.235
68.51000 842.904
68.52000 862.845
68.53000 879.009
68.54000 897.352
68.55000 912.474
68.56000 930.289
68.57000 955.144
68.58000 980.367
68.59000 1006.107
68.60000 1032.761
68.61000 1059.432
68.62000 1073.816
68.63000 1159.639
68.64000 1218.381
68.65000 1270.971
68.66000 1318.931
68.67000 1367.283
68.68000 1429.874
68.69000 1499.618
68.70000 1566.133
68.71000 1643.138
68.72000 1717.893
68.73000 1791.980
68.74000 1860.417
68.75000 1927.573
68.76000 1993.010
68.77000 2049.421
68.78000 2104.523
68.79000 2148.029
68.80000 2229.332
68.81000 2297.147
68.82000 2365.045
68.83000 2433.136
68.84000 2501.236
68.85000 2596.079
68.86000 2732.988
68.87000 2870.409
68.88000 2940.049
68.89000 3305.875
68.90000 3553.066
68.91000 4025.093
68.92000 4647.102
68.93000 5292.891
68.94000 6583.463
68.95000 8163.287
68.96000 9653.054
68.97000 12996.565
68.98000 16574.396
68.99000 20379.941
69.00000 25848.916
69.01000 31651.354
69.02000 37571.746
69.03000 44038.645
69.04000 50574.176
69.05000 55589.391
69.06000 61602.480
69.07000 66409.930
69.08000 70344.141
69.09000 72458.219
69.10000 74515.578
69.11000 75983.750
69.12000 76628.984
69.13000 77268.469
69.14000 77787.547
69.15000 78197.719
69.16000 78612.297
69.17000 79301.656
69.18000 80154.039
69.19000 80968.328
69.20000 80980.813
69.21000 80672.070
69.22000 80384.578
69.23000 77792.359
69.24000 74886.234
69.25000 71896.617
69.26000 68376.438
69.27000 64762.695
69.28000 61099.980
69.29000 57236.352
69.30000 53351.063
69.31000 50460.035
69.32000 47303.910
69.33000 44836.602
69.34000 42798.781
69.35000 41559.738
69.36000 40338.656
69.37000 39208.641
69.38000 38191.184
69.39000 37175.859
69.40000 35567.566
69.41000 33497.766
69.42000 31414.189
69.43000 28748.912
69.44000 25776.063
69.45000 22805.252
69.46000 19868.793
69.47000 16944.619
69.48000 14259.419
69.49000 11757.822
69.50000 9565.219
69.51000 7507.658
69.52000 6201.463
69.53000 5011.169
69.54000 3967.945
69.55000 3460.581
69.56000 3002.266
69.57000 2672.415
69.58000 2392.927
69.59000 2180.694
69.60000 2009.630
69.61000 1906.783
69.62000 1804.964
69.63000 1708.724
69.64000 1618.559
69.65000 1528.788
69.66000 1470.269
69.67000 1434.114
69.68000 1397.791
69.69000 1356.276
69.70000 1312.313
69.71000 1268.510
69.72000 1226.919
69.73000 1186.034
69.74000 1149.063
69.75000 1131.773
69.76000 1120.228
69.77000 1106.577
69.78000 1082.605
69.79000 1057.251
69.80000 1034.017
69.81000 1017.660
69.82000 1001.831
69.83000 990.842
69.84000 972.747
69.85000 958.925
69.86000 941.218
69.87000 917.787
69.88000 894.304
69.89000 875.480
69.90000 861.105
69.91000 846.844
69.92000 839.070
69.93000 835.415
69.94000 831.310
69.95000 816.660
69.96000 797.566
69.97000 780.714
69.98000 789.639
69.99000 805.891
70.00000 820.342
