20.00000 571.452
20.01000 569.599
20.02000 567.481
20.03000 566.515
20.04000 570.038
20.05000 574.014
20.06000 576.931
20.07000 568.446
20.08000 561.428
20.09000 558.774
20.10000 563.849
20.11000 569.073
20.12000 569.898
20.13000 565.569
20.14000 561.245
20.15000 556.243
20.16000 550.768
20.17000 545.447
20.18000 545.751
20.19000 548.887
20.20000 552.325
20.21000 560.424
20.22000 570.110
20.23000 578.948
20.24000 572.263
20.25000 563.201
20.26000 556.025
20.27000 558.778
20.28000 562.975
20.29000 566.555
20.30000 567.996
20.31000 569.255
20.32000 570.148
20.33000 556.468
20.34000 545.609
20.35000 540.444
20.36000 544.257
20.37000 548.179
20.38000 549.538
20.39000 548.257
20.40000 546.984
20.41000 548.166
20.42000 550.953
20.43000 553.758
20.44000 557.050
20.45000 560.561
20.46000 564.089
20.47000 567.827
20.48000 571.629
20.49000 575.044
20.50000 573.920
20.51000 572.139
20.52000 569.502
20.53000 562.889
20.54000 555.775
20.55000 550.782
20.56000 552.337
20.57000 554.356
20.58000 555.734
20.59000 557.596
20.60000 559.001
20.61000 560.789
20.62000 563.115
20.63000 565.441
20.64000 560.982
20.65000 550.396
20.66000 539.914
20.67000 538.091
20.68000 541.346
20.69000 544.820
20.70000 552.923
20.71000 562.884
20.72000 571.313
20.73000 563.358
20.74000 550.973
20.75000 540.046
20.76000 546.901
20.77000 555.527
20.78000 563.364
20.79000 567.961
20.80000 572.207
20.81000 575.678
20.82000 577.012
20.83000 578.223
20.84000 579.017
20.85000 567.506
20.86000 558.835
20.87000 555.954
20.88000 560.248
20.89000 564.536
20.90000 560.339
20.91000 549.386
20.92000 538.599
20.93000 542.864
20.94000 554.734
20.95000 565.990
20.96000 566.856
20.97000 563.997
20.98000 560.799
20.99000 554.515
21.00000 547.490
21.01000 541.409
21.02000 539.143
21.03000 537.718
21.04000 536.752
21.05000 537.462
21.06000 538.326
21.07000 540.092
21.08000 544.074
21.09000 548.158
21.10000 550.722
21.11000 551.489
21.12000 552.023
21.13000 551.104
21.14000 548.597
21.15000 546.127
21.16000 548.802
21.17000 555.105
21.18000 561.273
21.19000 560.846
21.20000 557.444
21.21000 554.039
21.22000 550.590
21.23000 547.128
21.24000 544.660
21.25000 549.960
21.26000 556.910
21.27000 562.803
21.28000 559.285
21.29000 555.276
21.30000 553.535
21.31000 559.167
21.32000 565.366
21.33000 565.584
21.34000 552.662
21.35000 539.272
21.36000 531.259
21.37000 543.430
21.38000 552.197
21.39000 550.187
21.40000 537.861
21.41000 525.697
21.42000 526.088
21.43000 534.343
21.44000 542.360
21.45000 545.925
21.46000 547.526
21.47000 549.061
21.48000 549.843
21.49000 550.409
21.50000 550.722
21.51000 549.310
21.52000 547.576
21.53000 546.138
21.54000 539.458
21.55000 533.439
21.56000 528.667
21.57000 527.511
21.58000 526.583
21.59000 528.165
21.60000 534.666
21.61000 541.298
21.62000 545.064
21.63000 553.876
21.64000 560.017
21.65000 559.627
21.66000 553.738
21.67000 547.993
21.68000 549.446
21.69000 554.914
21.70000 560.176
21.71000 559.910
21.72000 557.705
21.73000 555.985
21.74000 559.003
21.75000 563.222
21.76000 566.553
21.77000 564.633
21.78000 561.850
21.79000 559.600
21.80000 565.151
21.81000 570.295
21.82000 573.153
21.83000 570.091
21.84000 566.727
21.85000 567.969
21.86000 577.265
21.87000 586.709
21.88000 591.775
21.89000 602.418
21.90000 609.668
21.91000 612.779
21.92000 612.810
21.93000 612.959
21.94000 617.284
21.95000 623.687
21.96000 629.787
21.97000 625.653
21.98000 618.630
21.99000 613.766
22.00000 626.946
22.01000 644.176
22.02000 657.551
22.03000 650.899
22.04000 641.380
22.05000 633.882
22.06000 634.127
22.07000 634.841
22.08000 638.796
22.09000 650.238
22.10000 661.982
22.11000 665.304
22.12000 655.518
22.13000 645.580
22.14000 640.573
22.15000 624.178
22.16000 613.371
22.17000 617.302
22.18000 630.961
22.19000 643.895
22.20000 637.651
22.21000 622.889
22.22000 608.983
22.23000 597.271
22.24000 587.156
22.25000 579.092
22.26000 585.819
22.27000 595.479
22.28000 600.828
22.29000 586.419
22.30000 569.562
22.31000 556.660
22.32000 556.022
22.33000 556.189
22.34000 556.415
22.35000 556.764
22.36000 557.116
22.37000 554.772
22.38000 548.701
22.39000 542.610
22.40000 542.244
22.41000 546.974
22.42000 551.587
22.43000 549.194
22.44000 542.687
22.45000 536.458
22.46000 535.966
22.47000 537.747
22.48000 539.405
22.49000 537.831
22.50000 535.630
22.51000 532.393
22.52000 522.650
22.53000 511.774
22.54000 503.574
22.55000 506.236
22.56000 510.052
22.57000 512.884
22.58000 525.226
22.59000 535.232
22.60000 538.548
22.61000 529.546
22.62000 520.275
22.63000 516.754
22.64000 520.260
22.65000 523.776
22.66000 520.653
22.67000 512.353
22.68000 504.428
22.69000 511.851
22.70000 527.308
22.71000 541.892
22.72000 542.052
22.73000 537.104
22.74000 532.567
22.75000 531.523
22.76000 531.331
22.77000 529.583
22.78000 519.277
22.79000 507.666
22.80000 499.367
22.81000 503.007
22.82000 507.724
22.83000 511.108
22.84000 516.112
22.85000 519.994
22.86000 522.604
22.87000 523.129
22.88000 523.623
22.89000 522.927
22.90000 520.950
22.91000 518.982
22.92000 518.687
22.93000 519.548
22.94000 520.428
22.95000 521.891
22.96000 523.626
22.97000 524.849
22.98000 519.122
22.99000 511.199
23.00000 504.046
23.01000 494.516
23.02000 485.701
23.03000 480.439
23.04000 492.383
23.05000 506.603
23.06000 517.379
23.07000 517.097
23.08000 515.981
23.09000 515.209
23.10000 519.486
23.11000 522.835
23.12000 521.385
23.13000 512.938
23.14000 504.433
23.15000 505.231
23.16000 514.810
23.17000 524.309
23.18000 519.140
23.19000 505.162
23.20000 491.913
23.21000 495.413
23.22000 505.901
23.23000 515.289
23.24000 512.209
23.25000 505.623
23.26000 499.776
23.27000 510.235
23.28000 521.910
23.29000 530.645
23.30000 526.784
23.31000 521.487
23.32000 516.294
23.33000 511.398
23.34000 506.521
23.35000 503.277
23.36000 506.552
23.37000 509.098
23.38000 512.152
23.39000 515.864
23.40000 519.569
23.41000 518.692
23.42000 514.010
23.43000 509.390
23.44000 508.017
23.45000 508.421
23.46000 509.057
23.47000 513.925
23.48000 520.368
23.49000 525.979
23.50000 523.595
23.51000 519.212
23.52000 515.393
23.53000 509.906
23.54000 504.986
23.55000 500.875
23.56000 499.835
23.57000 499.094
23.58000 499.427
23.59000 502.504
23.60000 505.719
23.61000 507.768
23.62000 512.996
23.63000 516.838
23.64000 517.963
23.65000 515.988
23.66000 514.028
23.67000 515.121
23.68000 518.458
23.69000 521.730
23.70000 523.845
23.71000 525.333
23.72000 526.558
23.73000 523.888
23.74000 519.922
23.75000 515.727
23.76000 509.645
23.77000 503.146
23.78000 497.596
23.79000 514.067
23.80000 530.557
23.81000 542.591
23.82000 539.563
23.83000 535.301
23.84000 529.378
23.85000 519.660
23.86000 509.793
23.87000 503.790
23.88000 521.268
23.89000 533.936
23.90000 540.307
23.91000 540.377
23.92000 540.416
23.93000 537.652
23.94000 533.061
23.95000 528.591
23.96000 519.342
23.97000 508.529
23.98000 499.228
23.99000 508.441
24.00000 523.140
24.01000 536.157
24.02000 537.227
24.03000 535.961
24.04000 534.903
24.05000 535.634
24.06000 536.423
24.07000 534.879
24.08000 526.309
24.09000 517.263
24.10000 512.744
24.11000 517.452
24.12000 522.431
24.13000 525.311
24.14000 517.496
24.15000 511.977
24.16000 510.610
24.17000 512.890
24.18000 515.180
24.19000 518.054
24.20000 521.265
24.21000 524.365
24.22000 521.065
24.23000 515.594
24.24000 511.003
24.25000 515.493
24.26000 522.376
24.27000 527.880
24.28000 524.849
24.29000 520.352
24.30000 516.683
24.31000 516.698
24.32000 517.025
24.33000 514.759
24.34000 505.522
24.35000 495.900
24.36000 490.487
24.37000 492.726
24.38000 495.125
24.39000 496.439
24.40000 493.322
24.41000 491.174
24.42000 489.172
24.43000 487.284
24.44000 485.347
24.45000 481.511
24.46000 476.693
24.47000 472.086
24.48000 475.373
24.49000 481.003
24.50000 486.091
24.51000 486.419
24.52000 485.633
24.53000 485.953
24.54000 492.269
24.55000 499.486
24.56000 505.222
24.57000 501.535
24.58000 497.894
24.59000 494.275
24.60000 490.710
24.61000 487.147
24.62000 485.200
24.63000 485.868
24.64000 486.572
24.65000 486.935
24.66000 481.974
24.67000 478.658
24.68000 478.331
24.69000 480.056
24.70000 481.782
24.71000 483.543
24.72000 485.320
24.73000 487.000
24.74000 485.375
24.75000 482.933
24.76000 480.913
24.77000 482.084
24.78000 483.915
24.79000 486.204
24.80000 490.678
24.81000 495.437
24.82000 499.115
24.83000 487.902
24.84000 478.134
24.85000 473.504
24.86000 479.894
24.87000 486.653
24.88000 494.913
24.89000 505.334
24.90000 515.771
24.91000 510.720
24.92000 491.266
24.93000 472.053
24.94000 469.585
24.95000 477.343
24.96000 484.739
24.97000 484.019
24.98000 479.954
24.99000 476.157
25.00000 473.109
25.01000 470.532
25.02000 469.285
25.03000 476.776
25.04000 485.860
25.05000 492.570
25.06000 489.244
25.07000 484.794
25.08000 481.457
25.09000 489.806
25.10000 496.881
25.11000 501.261
25.12000 500.482
25.13000 499.577
25.14000 497.216
25.15000 492.999
25.16000 488.780
25.17000 487.076
25.18000 487.430
25.19000 487.603
25.20000 479.374
25.21000 466.574
25.22000 454.604
25.23000 457.374
25.24000 465.568
25.25000 473.120
25.26000 473.935
25.27000 473.176
25.28000 472.104
25.29000 469.229
25.30000 466.066
25.31000 463.466
25.32000 462.977
25.33000 462.689
25.34000 462.480
25.35000 461.133
25.36000 460.054
25.37000 460.061
25.38000 461.920
25.39000 463.810
25.40000 467.475
25.41000 473.136
25.42000 478.778
25.43000 479.762
25.44000 477.390
25.45000 475.057
25.46000 474.044
25.47000 473.673
25.48000 473.286
25.49000 472.685
25.50000 472.013
25.51000 471.403
25.52000 469.690
25.53000 467.965
25.54000 466.963
25.55000 469.616
25.56000 472.777
25.57000 471.756
25.58000 456.768
25.59000 440.660
25.60000 429.374
25.61000 448.798
25.62000 464.373
25.63000 470.526
25.64000 462.382
25.65000 454.090
25.66000 450.042
25.67000 450.181
25.68000 450.320
25.69000 451.213
25.70000 452.570
25.71000 453.859
25.72000 453.447
25.73000 452.297
25.74000 451.654
25.75000 457.107
25.76000 464.344
25.77000 470.807
25.78000 464.971
25.79000 457.824
25.80000 452.076
25.81000 452.577
25.82000 453.828
25.83000 456.110
25.84000 461.461
25.85000 467.016
25.86000 470.762
25.87000 458.940
25.88000 449.816
25.89000 444.113
25.90000 443.015
25.91000 441.946
25.92000 443.680
25.93000 447.844
25.94000 451.960
25.95000 456.964
25.96000 462.343
25.97000 467.576
25.98000 469.933
25.99000 471.176
26.00000 472.162
26.01000 470.542
26.02000 468.244
26.03000 466.229
26.04000 463.611
26.05000 461.274
26.06000 459.899
26.07000 462.325
26.08000 465.141
26.09000 466.163
26.10000 462.416
26.11000 458.413
26.12000 455.823
26.13000 455.303
26.14000 454.952
26.15000 456.653
26.16000 460.794
26.17000 464.912
26.18000 462.665
26.19000 455.546
26.20000 448.548
26.21000 449.744
26.22000 454.945
26.23000 459.741
26.24000 458.120
26.25000 454.283
26.26000 450.958
26.27000 452.063
26.28000 454.190
26.29000 456.020
26.30000 458.373
26.31000 460.431
26.32000 461.903
26.33000 461.318
26.34000 460.554
26.35000 458.140
26.36000 451.812
26.37000 445.316
26.38000 441.300
26.39000 438.295
26.40000 436.145
26.41000 440.943
26.42000 453.014
26.43000 465.001
26.44000 467.547
26.45000 463.688
26.46000 459.921
26.47000 456.718
26.48000 453.899
26.49000 451.120
26.50000 448.840
26.51000 446.715
26.52000 444.936
26.53000 445.739
26.54000 447.069
26.55000 448.189
26.56000 452.724
26.57000 456.872
26.58000 460.934
26.59000 464.726
26.60000 468.499
26.61000 469.438
26.62000 464.376
26.63000 459.119
26.64000 456.025
26.65000 452.158
26.66000 449.428
26.67000 449.737
26.68000 452.836
26.69000 455.906
26.70000 457.139
26.71000 457.264
26.72000 457.384
26.73000 457.141
26.74000 456.771
26.75000 456.555
26.76000 458.023
26.77000 459.953
26.78000 461.164
26.79000 457.723
26.80000 453.445
26.81000 449.927
26.82000 447.632
26.83000 445.857
26.84000 445.588
26.85000 449.528
26.86000 453.717
26.87000 454.527
26.88000 448.950
26.89000 443.222
26.90000 440.027
26.91000 446.540
26.92000 451.058
26.93000 451.405
26.94000 448.378
26.95000 445.358
26.96000 442.593
26.97000 439.967
26.98000 437.446
26.99000 437.454
27.00000 438.320
27.01000 439.556
27.02000 444.224
27.03000 449.729
27.04000 454.111
27.05000 452.130
27.06000 449.149
27.07000 446.758
27.08000 449.922
27.09000 452.906
27.10000 453.403
27.11000 447.697
27.12000 441.697
27.13000 437.042
27.14000 434.652
27.15000 432.299
27.16000 431.061
27.17000 433.217
27.18000 434.668
27.19000 434.166
27.20000 432.266
27.21000 430.598
27.22000 436.364
27.23000 445.694
27.24000 454.552
27.25000 452.550
27.26000 447.451
27.27000 443.414
27.28000 447.833
27.29000 454.076
27.30000 459.393
27.31000 460.098
27.32000 460.172
27.33000 460.229
27.34000 459.322
27.35000 458.538
27.36000 457.249
27.37000 454.835
27.38000 452.381
27.39000 449.861
27.40000 447.243
27.41000 444.625
27.42000 446.390
27.43000 452.421
27.44000 458.362
27.45000 456.986
27.46000 450.960
27.47000 445.049
27.48000 441.921
27.49000 439.984
27.50000 438.168
27.51000 438.267
27.52000 438.863
27.53000 439.565
27.54000 441.001
27.55000 442.577
27.56000 443.081
27.57000 438.869
27.58000 434.101
27.59000 430.486
27.60000 432.001
27.61000 433.453
27.62000 437.265
27.63000 445.775
27.64000 454.413
27.65000 458.050
27.66000 455.042
27.67000 452.005
27.68000 448.803
27.69000 445.468
27.70000 442.063
27.71000 435.005
27.72000 425.878
27.73000 417.447
27.74000 422.303
27.75000 432.241
27.76000 441.443
27.77000 438.421
27.78000 432.880
27.79000 428.307
27.80000 429.562
27.81000 431.789
27.82000 433.978
27.83000 436.018
27.84000 438.043
27.85000 439.529
27.86000 437.721
27.87000 436.189
27.88000 433.358
27.89000 428.221
27.90000 423.040
27.91000 422.230
27.92000 426.551
27.93000 430.869
27.94000 433.635
27.95000 435.220
27.96000 436.858
27.97000 440.428
27.98000 444.974
27.99000 448.766
28.00000 440.893
28.01000 429.038
28.02000 418.218
28.03000 431.577
28.04000 448.316
28.05000 459.972
28.06000 444.804
28.07000 425.727
28.08000 412.776
28.09000 421.094
28.10000 431.224
28.11000 438.410
28.12000 430.686
28.13000 424.342
28.14000 421.475
28.15000 424.099
28.16000 426.792
28.17000 430.033
28.18000 433.839
28.19000 437.623
28.20000 435.409
28.21000 429.260
28.22000 423.447
28.23000 426.795
28.24000 434.268
28.25000 441.120
28.26000 440.017
28.27000 436.494
28.28000 433.330
28.29000 427.662
28.30000 422.261
28.31000 419.831
28.32000 431.220
28.33000 444.353
28.34000 451.582
28.35000 440.542
28.36000 428.207
28.37000 419.776
28.38000 416.531
28.39000 414.225
28.40000 414.020
28.41000 416.762
28.42000 419.525
28.43000 422.363
28.44000 425.271
28.45000 428.151
28.46000 432.896
28.47000 438.629
28.48000 443.771
28.49000 436.394
28.50000 423.982
28.51000 412.629
28.52000 412.630
28.53000 415.707
28.54000 418.422
28.55000 417.206
28.56000 415.557
28.57000 415.115
28.58000 419.649
28.59000 424.722
28.60000 428.284
28.61000 427.674
28.62000 426.823
28.63000 426.264
28.64000 427.885
28.65000 429.114
28.66000 426.501
28.67000 419.121
28.68000 411.750
28.69000 411.552
28.70000 417.077
28.71000 422.519
28.72000 423.980
28.73000 423.348
28.74000 422.913
28.75000 425.810
28.76000 429.904
28.77000 433.183
28.78000 429.034
28.79000 423.098
28.80000 417.958
28.81000 421.196
28.82000 425.054
28.83000 426.373
28.84000 418.403
28.85000 409.578
28.86000 406.828
28.87000 419.051
28.88000 431.967
28.89000 440.080
28.90000 438.108
28.91000 436.571
28.92000 433.780
28.93000 429.619
28.94000 425.443
28.95000 419.542
28.96000 412.421
28.97000 405.452
28.98000 404.404
28.99000 406.090
29.00000 408.058
29.01000 413.954
29.02000 421.107
29.03000 427.055
29.04000 423.564
29.05000 418.065
29.06000 413.401
29.07000 411.947
29.08000 411.091
29.09000 411.033
29.10000 413.570
29.11000 416.309
29.12000 419.477
29.13000 423.592
29.14000 427.742
29.15000 430.226
29.16000 412.415
29.17000 399.638
29.18000 397.676
29.19000 406.087
29.20000 414.465
29.21000 420.255
29.22000 424.421
29.23000 428.468
29.24000 423.999
29.25000 416.336
29.26000 409.612
29.27000 413.748
29.28000 420.984
29.29000 426.759
29.30000 422.624
29.31000 416.629
29.32000 411.659
29.33000 401.783
29.34000 393.154
29.35000 389.008
29.36000 397.879
29.37000 407.578
29.38000 411.573
29.39000 404.362
29.40000 396.853
29.41000 392.584
29.42000 402.428
29.43000 409.319
29.44000 410.794
29.45000 407.699
29.46000 404.702
29.47000 406.599
29.48000 411.229
29.49000 415.687
29.50000 416.105
29.51000 415.065
29.52000 414.353
29.53000 416.850
29.54000 420.161
29.55000 421.520
29.56000 411.315
29.57000 399.207
29.58000 389.410
29.59000 392.638
29.60000 396.315
29.61000 401.876
29.62000 412.317
29.63000 423.008
29.64000 425.763
29.65000 414.613
29.66000 403.206
29.67000 397.082
29.68000 409.702
29.69000 418.286
29.70000 417.013
29.71000 408.393
29.72000 400.150
29.73000 405.284
29.74000 417.085
29.75000 428.330
29.76000 425.342
29.77000 418.125
29.78000 412.134
29.79000 416.408
29.80000 422.991
29.81000 428.128
29.82000 425.742
29.83000 422.277
29.84000 419.547
29.85000 422.453
29.86000 425.160
29.87000 427.044
29.88000 427.021
29.89000 426.922
29.90000 423.242
29.91000 413.980
29.92000 404.652
29.93000 399.947
29.94000 406.626
29.95000 411.084
29.96000 414.716
29.97000 417.801
29.98000 420.948
29.99000 425.702
30.00000 431.172
30.01000 436.325
30.02000 436.184
30.03000 434.599
30.04000 432.450
30.05000 426.219
30.06000 419.178
30.07000 413.943
30.08000 416.999
30.09000 421.085
30.10000 424.214
30.11000 420.674
30.12000 417.514
30.13000 417.108
30.14000 422.397
30.15000 427.860
30.16000 430.051
30.17000 427.714
30.18000 425.348
30.19000 423.565
30.20000 422.304
30.21000 421.058
30.22000 420.716
30.23000 420.905
30.24000 421.174
30.25000 423.104
30.26000 425.693
30.27000 428.102
30.28000 426.929
30.29000 425.003
30.30000 424.082
30.31000 429.484
30.32000 435.991
30.33000 438.942
30.34000 427.433
30.35000 414.383
30.36000 404.696
30.37000 410.156
30.38000 415.067
30.39000 419.217
30.40000 421.964
30.41000 424.681
30.42000 424.066
30.43000 419.370
30.44000 414.673
30.45000 412.826
30.46000 413.221
30.47000 413.706
30.48000 417.864
30.49000 423.949
30.50000 429.679
30.51000 429.534
30.52000 427.306
30.53000 425.262
30.54000 424.329
30.55000 423.732
30.56000 423.367
30.57000 424.279
30.58000 425.385
30.59000 426.795
30.60000 429.302
30.61000 431.908
30.62000 433.779
30.63000 430.762
30.64000 428.286
30.65000 423.708
30.66000 415.676
30.67000 407.593
30.68000 407.492
30.69000 416.001
30.70000 424.474
30.71000 424.843
30.72000 419.618
30.73000 414.615
30.74000 416.268
30.75000 421.036
30.76000 425.790
30.77000 430.364
30.78000 434.882
30.79000 438.962
30.80000 438.827
30.81000 437.931
30.82000 437.795
30.83000 441.348
30.84000 445.390
30.85000 447.349
30.86000 442.605
30.87000 437.354
30.88000 433.719
30.89000 443.632
30.90000 451.444
30.91000 458.313
30.92000 463.804
30.93000 469.282
30.94000 470.735
30.95000 468.381
30.96000 466.047
30.97000 475.819
30.98000 492.777
30.99000 509.128
31.00000 511.495
31.01000 508.020
31.02000 505.884
31.03000 518.946
31.04000 536.293
31.05000 551.695
31.06000 580.796
31.07000 608.222
31.08000 633.567
31.09000 649.983
31.10000 665.379
31.11000 684.247
31.12000 713.075
31.13000 742.522
31.14000 762.122
31.15000 835.159
31.16000 890.210
31.17000 945.406
31.18000 1000.791
31.19000 1056.197
31.20000 1121.892
31.21000 1196.150
31.22000 1269.430
31.23000 1358.573
31.24000 1453.832
31.25000 1548.488
31.26000 1632.146
31.27000 1711.700
31.28000 1790.785
31.29000 1865.354
31.30000 1938.793
31.31000 2002.805
31.32000 2087.783
31.33000 2163.321
31.34000 2233.464
31.35000 2283.073
31.36000 2330.681
31.37000 2364.349
31.38000 2362.319
31.39000 2358.501
31.40000 2356.066
31.41000 2340.325
31.42000 2328.706
31.43000 2309.510
31.44000 2281.660
31.45000 2253.609
31.46000 2192.026
31.47000 2105.771
31.48000 2021.166
31.49000 1937.118
31.50000 1856.408
31.51000 1775.329
31.52000 1688.779
31.53000 1600.408
31.54000 1512.336
31.55000 1426.724
31.56000 1341.658
31.57000 1268.995
31.58000 1184.946
31.59000 1112.783
31.60000 1043.492
31.61000 983.928
31.62000 925.161
31.63000 865.964
31.64000 805.780
31.65000 745.557
31.66000 708.890
31.67000 685.045
31.68000 668.113
31.69000 643.087
31.70000 609.945
31.71000 576.964
31.72000 558.865
31.73000 550.484
31.74000 542.323
31.75000 527.231
31.76000 509.943
31.77000 493.800
31.78000 491.704
31.79000 493.777
31.80000 493.838
31.81000 479.569
31.82000 462.493
31.83000 448.224
31.84000 443.286
31.85000 440.135
31.86000 438.139
31.87000 439.635
31.88000 441.368
31.89000 441.115
31.90000 436.807
31.91000 432.380
31.92000 429.817
31.93000 423.040
31.94000 418.274
31.95000 417.174
31.96000 419.304
31.97000 421.406
31.98000 421.962
31.99000 421.620
32.00000 421.290
32.01000 418.445
32.02000 414.835
32.03000 411.596
32.04000 412.201
32.05000 413.820
32.06000 414.507
32.07000 409.409
32.08000 403.316
32.09000 398.344
32.10000 405.990
32.11000 413.326
32.12000 417.657
32.13000 413.895
32.14000 409.685
32.15000 406.508
32.16000 405.212
32.17000 403.956
32.18000 403.268
32.19000 395.710
32.20000 390.512
32.21000 387.739
32.22000 386.851
32.23000 386.063
32.24000 389.269
32.25000 394.543
32.26000 399.588
32.27000 397.476
32.28000 393.175
32.29000 388.836
32.30000 384.156
32.31000 379.395
32.32000 374.964
32.33000 372.324
32.34000 369.953
32.35000 368.068
32.36000 374.223
32.37000 379.757
32.38000 385.145
32.39000 390.183
32.40000 395.206
32.41000 396.691
32.42000 392.436
32.43000 388.102
32.44000 385.868
32.45000 384.071
32.46000 382.885
32.47000 384.659
32.48000 388.470
32.49000 392.072
32.50000 389.596
32.51000 384.309
32.52000 379.309
32.53000 373.501
32.54000 367.931
32.55000 362.842
32.56000 361.410
32.57000 360.735
32.58000 361.316
32.59000 367.910
32.60000 375.288
32.61000 380.993
32.62000 377.782
32.63000 374.709
32.64000 373.735
32.65000 377.268
32.66000 380.952
32.67000 381.918
32.68000 378.965
32.69000 375.980
32.70000 373.707
32.71000 372.096
32.72000 370.495
32.73000 369.545
32.74000 368.993
32.75000 368.269
32.76000 363.670
32.77000 357.473
32.78000 351.681
32.79000 353.704
32.80000 357.512
32.81000 361.067
32.82000 362.950
32.83000 364.529
32.84000 364.846
32.85000 359.821
32.86000 354.195
32.87000 349.973
32.88000 357.167
32.89000 363.330
32.90000 367.993
32.91000 369.783
32.92000 371.501
32.93000 375.749
32.94000 383.225
32.95000 390.704
32.96000 393.323
32.97000 391.956
32.98000 390.524
32.99000 386.004
33.00000 379.803
33.01000 374.135
33.02000 377.994
33.03000 385.363
33.04000 392.156
33.05000 389.328
33.06000 384.666
33.07000 380.037
33.08000 375.604
33.09000 371.202
33.10000 367.557
33.11000 366.759
33.12000 366.234
33.13000 365.853
33.14000 362.455
33.15000 359.729
33.16000 357.675
33.17000 356.767
33.18000 355.880
33.19000 355.633
33.20000 356.108
33.21000 356.582
33.22000 353.665
33.23000 348.332
33.24000 343.123
33.25000 342.019
33.26000 342.912
33.27000 343.753
33.28000 343.837
33.29000 343.672
33.30000 343.523
33.31000 344.471
33.32000 345.522
33.33000 345.751
33.34000 341.819
33.35000 337.308
33.36000 334.269
33.37000 336.150
33.38000 338.428
33.39000 340.025
33.40000 346.210
33.41000 351.022
33.42000 352.989
33.43000 350.630
33.44000 348.227
33.45000 345.549
33.46000 342.601
33.47000 339.673
33.48000 338.556
33.49000 338.605
33.50000 338.622
33.51000 337.850
33.52000 336.736
33.53000 335.940
33.54000 338.984
33.55000 343.152
33.56000 346.876
33.57000 338.602
33.58000 329.375
33.59000 322.737
33.60000 327.669
33.61000 333.994
33.62000 339.653
33.63000 343.328
33.64000 346.872
33.65000 349.263
33.66000 351.470
33.67000 353.109
33.68000 353.042
33.69000 350.674
33.70000 348.294
33.71000 346.329
33.72000 344.724
33.73000 343.137
33.74000 343.139
33.75000 344.029
33.76000 345.017
33.77000 347.917
33.78000 351.559
33.79000 354.585
33.80000 351.355
33.81000 346.495
33.82000 342.231
33.83000 337.689
33.84000 333.747
33.85000 332.541
33.86000 342.170
33.87000 352.916
33.88000 359.183
33.89000 353.537
33.90000 347.246
33.91000 343.174
33.92000 356.960
33.93000 367.309
33.94000 366.194
33.95000 351.413
33.96000 336.650
33.97000 332.451
33.98000 336.351
33.99000 340.185
34.00000 342.841
34.01000 344.827
34.02000 346.732
34.03000 347.364
34.04000 347.556
34.05000 347.634
34.06000 346.728
34.07000 345.594
34.08000 344.618
34.09000 351.566
34.10000 358.443
34.11000 363.898
34.12000 364.350
34.13000 364.366
34.14000 366.484
34.15000 373.600
34.16000 380.929
34.17000 385.464
34.18000 379.654
34.19000 375.381
34.20000 371.022
34.21000 366.573
34.22000 362.120
34.23000 357.253
34.24000 352.104
34.25000 347.077
34.26000 349.013
34.27000 353.906
34.28000 358.271
34.29000 355.725
34.30000 351.045
34.31000 347.454
34.32000 351.995
34.33000 358.199
34.34000 363.423
34.35000 357.433
34.36000 351.233
34.37000 346.873
34.38000 348.286
34.39000 350.119
34.40000 352.659
34.41000 356.697
34.42000 360.785
34.43000 363.193
34.44000 366.880
34.45000 369.487
34.46000 368.765
34.47000 364.981
34.48000 361.194
34.49000 357.197
34.50000 353.073
34.51000 349.078
34.52000 344.720
34.53000 340.456
34.54000 336.625
34.55000 337.520
34.56000 339.713
34.57000 342.404
34.58000 348.325
34.59000 354.827
34.60000 360.177
34.61000 354.381
34.62000 348.604
34.63000 343.613
34.64000 340.824
34.65000 338.167
34.66000 335.464
34.67000 332.675
34.68000 329.885
34.69000 328.327
34.70000 337.281
34.71000 343.498
34.72000 347.640
34.73000 350.102
34.74000 352.432
34.75000 348.839
34.76000 342.057
34.77000 335.549
34.78000 343.471
34.79000 355.786
34.80000 366.434
34.81000 361.587
34.82000 352.958
34.83000 345.284
34.84000 343.035
34.85000 341.641
34.86000 340.522
34.87000 337.019
34.88000 334.001
34.89000 332.639
34.90000 335.417
34.91000 338.392
34.92000 340.555
34.93000 341.349
34.94000 342.121
34.95000 342.528
34.96000 338.307
34.97000 335.442
34.98000 332.672
34.99000 329.969
35.00000 327.375
35.01000 328.318
35.02000 330.959
35.03000 333.468
35.04000 334.465
35.05000 334.933
35.06000 335.220
35.07000 334.060
35.08000 332.587
35.09000 330.532
35.10000 325.567
35.11000 320.203
35.12000 316.015
35.13000 321.321
35.14000 326.150
35.15000 327.519
35.16000 321.164
35.17000 314.523
35.18000 310.683
35.19000 311.048
35.20000 311.454
35.21000 315.205
35.22000 322.217
35.23000 329.154
35.24000 329.941
35.25000 326.812
35.26000 323.716
35.27000 321.387
35.28000 319.387
35.29000 317.510
35.30000 318.926
35.31000 321.086
35.32000 322.357
35.33000 317.487
35.34000 311.447
35.35000 307.199
35.36000 310.859
35.37000 315.455
35.38000 318.941
35.39000 306.647
35.40000 296.184
35.41000 291.526
35.42000 298.435
35.43000 305.664
35.44000 309.107
35.45000 307.512
35.46000 305.894
35.47000 306.987
35.48000 310.396
35.49000 313.761
35.50000 314.845
35.51000 314.637
35.52000 314.207
35.53000 309.540
35.54000 303.250
35.55000 297.423
35.56000 296.515
35.57000 296.838
35.58000 298.066
35.59000 304.757
35.60000 312.361
35.61000 317.757
35.62000 314.511
35.63000 310.391
35.64000 307.365
35.65000 297.068
35.66000 288.811
35.67000 288.589
35.68000 302.641
35.69000 316.970
35.70000 321.390
35.71000 314.157
35.72000 306.924
35.73000 306.269
35.74000 310.563
35.75000 314.752
35.76000 315.067
35.77000 313.425
35.78000 311.862
35.79000 311.526
35.80000 311.609
35.81000 311.685
35.82000 306.386
35.83000 300.596
35.84000 296.719
35.85000 302.958
35.86000 310.673
35.87000 316.107
35.88000 313.605
35.89000 310.426
35.90000 308.169
35.91000 309.607
35.92000 310.818
35.93000 310.962
35.94000 309.418
35.95000 307.852
35.96000 308.683
35.97000 311.992
35.98000 315.283
35.99000 317.920
36.00000 320.091
36.01000 321.901
36.02000 313.823
36.03000 301.285
36.04000 289.427
36.05000 286.286
36.06000 285.802
36.07000 285.368
36.08000 286.096
36.09000 286.940
36.10000 288.552
36.11000 293.753
36.12000 299.407
36.13000 302.469
36.14000 297.499
36.15000 291.958
36.16000 288.170
36.17000 293.790
36.18000 298.219
36.19000 301.218
36.20000 302.206
36.21000 303.179
36.22000 302.004
36.23000 298.883
36.24000 295.791
36.25000 294.935
36.26000 295.401
36.27000 295.832
36.28000 295.508
36.29000 294.880
36.30000 294.396
36.31000 295.459
36.32000 296.941
36.33000 298.250
36.34000 302.249
36.35000 306.113
36.36000 308.332
36.37000 303.771
36.38000 298.472
36.39000 295.512
36.40000 299.019
36.41000 302.902
36.42000 305.451
36.43000 304.164
36.44000 303.153
36.45000 304.068
36.46000 307.381
36.47000 310.687
36.48000 309.496
36.49000 304.711
36.50000 299.998
36.51000 297.973
36.52000 297.394
36.53000 296.753
36.54000 295.071
36.55000 293.014
36.56000 291.183
36.57000 291.410
36.58000 292.134
36.59000 292.761
36.60000 296.421
36.61000 299.934
36.62000 302.736
36.63000 302.929
36.64000 302.881
36.65000 305.707
36.66000 315.628
36.67000 325.878
36.68000 332.321
36.69000 322.530
36.70000 315.269
36.71000 310.551
36.72000 308.621
36.73000 306.695
36.74000 305.196
36.75000 303.999
36.76000 302.828
36.77000 302.916
36.78000 303.573
36.79000 304.391
36.80000 307.438
36.81000 311.201
36.82000 314.531
36.83000 314.465
36.84000 313.674
36.85000 313.004
36.86000 309.750
36.87000 306.730
36.88000 304.726
36.89000 306.040
36.90000 307.610
36.91000 309.959
36.92000 314.024
36.93000 318.151
36.94000 320.624
36.95000 319.555
36.96000 318.773
36.97000 319.901
36.98000 322.864
36.99000 325.766
37.00000 323.869
37.01000 318.955
37.02000 314.183
37.03000 307.688
37.04000 300.827
37.05000 294.817
37.06000 298.676
37.07000 305.356
37.08000 310.986
37.09000 309.473
37.10000 306.616
37.11000 304.247
37.12000 311.227
37.13000 317.894
37.14000 322.570
37.15000 321.454
37.16000 319.969
37.17000 317.358
37.18000 312.531
37.19000 307.646
37.20000 304.866
37.21000 300.236
37.22000 297.012
37.23000 297.936
37.24000 302.368
37.25000 306.683
37.26000 305.129
37.27000 300.289
37.28000 295.630
37.29000 296.282
37.30000 298.779
37.31000 300.999
37.32000 300.501
37.33000 299.313
37.34000 299.193
37.35000 305.416
37.36000 312.685
37.37000 318.568
37.38000 318.993
37.39000 318.897
37.40000 316.579
37.41000 308.488
37.42000 300.100
37.43000 296.432
37.44000 301.046
37.45000 305.813
37.46000 308.375
37.47000 301.621
37.48000 297.012
37.49000 294.894
37.50000 294.637
37.51000 294.458
37.52000 297.105
37.53000 301.161
37.54000 305.027
37.55000 298.452
37.56000 289.088
37.57000 280.654
37.58000 280.032
37.59000 281.170
37.60000 283.258
37.61000 290.303
37.62000 298.061
37.63000 304.177
37.64000 305.229
37.65000 305.732
37.66000 305.039
37.67000 301.573
37.68000 297.995
37.69000 294.446
37.70000 290.943
37.71000 287.441
37.72000 285.673
37.73000 292.048
37.74000 296.292
37.75000 298.462
37.76000 299.259
37.77000 299.935
37.78000 297.410
37.79000 293.458
37.80000 289.733
37.81000 289.988
37.82000 291.319
37.83000 292.217
37.84000 289.983
37.85000 287.127
37.86000 285.856
37.87000 291.878
37.88000 298.808
37.89000 304.116
37.90000 303.514
37.91000 302.714
37.92000 301.616
37.93000 299.901
37.94000 298.167
37.95000 295.235
37.96000 290.639
37.97000 286.034
37.98000 284.692
37.99000 286.266
38.00000 287.810
38.01000 287.517
38.02000 286.142
38.03000 285.045
38.04000 289.707
38.05000 296.662
38.06000 303.133
38.07000 302.559
38.08000 300.336
38.09000 298.405
38.10000 298.309
38.11000 298.535
38.12000 298.427
38.13000 296.959
38.14000 295.345
38.15000 294.147
38.16000 304.515
38.17000 313.084
38.18000 316.986
38.19000 312.267
38.20000 307.359
38.21000 302.837
38.22000 298.790
38.23000 294.752
38.24000 297.858
38.25000 306.558
38.26000 315.134
38.27000 318.622
38.28000 319.439
38.29000 320.284
38.30000 321.605
38.31000 323.095
38.32000 324.463
38.33000 326.236
38.34000 327.903
38.35000 330.641
38.36000 339.286
38.37000 348.836
38.38000 357.030
38.39000 360.320
38.40000 363.164
38.41000 365.207
38.42000 367.190
38.43000 368.705
38.44000 375.938
38.45000 392.582
38.46000 409.364
38.47000 426.085
38.48000 442.740
38.49000 459.320
38.50000 485.863
38.51000 519.007
38.52000 551.869
38.53000 576.200
38.54000 596.534
38.55000 617.189
38.56000 642.221
38.57000 668.641
38.58000 692.508
38.59000 739.629
38.60000 785.366
38.61000 828.694
38.62000 860.314
38.63000 890.377
38.64000 921.425
38.65000 955.642
38.66000 990.100
38.67000 1013.968
38.68000 1061.792
38.69000 1098.411
38.70000 1132.852
38.71000 1164.106
38.72000 1195.327
38.73000 1202.095
38.74000 1185.695
38.75000 1169.430
38.76000 1161.739
38.77000 1159.411
38.78000 1156.295
38.79000 1134.936
38.80000 1105.943
38.81000 1077.804
38.82000 1059.398
38.83000 1043.738
38.84000 1029.829
38.85000 982.790
38.86000 936.676
38.87000 891.710
38.88000 851.682
38.89000 812.220
38.90000 772.217
38.91000 730.661
38.92000 689.008
38.93000 661.268
38.94000 614.966
38.95000 580.346
38.96000 550.302
38.97000 526.193
38.98000 502.115
38.99000 481.755
39.00000 464.495
39.01000 447.460
39.02000 427.789
39.03000 407.227
39.04000 386.951
39.05000 371.907
39.06000 358.818
39.07000 345.875
39.08000 334.344
39.09000 323.167
39.10000 313.422
39.11000 310.410
39.12000 308.771
39.13000 306.957
39.14000 304.481
39.15000 301.940
39.16000 300.569
39.17000 302.201
39.18000 303.984
39.19000 305.122
39.20000 299.903
39.21000 296.024
39.22000 295.167
39.23000 297.769
39.24000 300.345
39.25000 297.840
39.26000 291.590
39.27000 285.459
39.28000 285.265
39.29000 287.900
39.30000 290.388
39.31000 290.689
39.32000 290.260
39.33000 290.044
39.34000 291.594
39.35000 293.536
39.36000 295.196
39.37000 289.842
39.38000 284.494
39.39000 281.646
39.40000 287.281
39.41000 293.613
39.42000 296.969
39.43000 293.509
39.44000 289.780
39.45000 287.508
39.46000 280.840
39.47000 276.040
39.48000 276.789
39.49000 283.115
39.50000 289.356
39.51000 287.760
39.52000 281.038
39.53000 274.492
39.54000 273.750
39.55000 275.480
39.56000 277.066
39.57000 276.896
39.58000 276.203
39.59000 275.104
39.60000 271.109
39.61000 266.545
39.62000 262.730
39.63000 263.786
39.64000 265.157
39.65000 268.261
39.66000 276.600
39.67000 285.297
39.68000 287.322
39.69000 275.700
39.70000 263.674
39.71000 256.708
39.72000 262.492
39.73000 266.598
39.74000 266.581
39.75000 262.928
39.76000 259.423
39.77000 264.521
39.78000 274.626
39.79000 284.385
39.80000 281.221
39.81000 273.452
39.82000 266.191
39.83000 264.197
39.84000 263.597
39.85000 263.458
39.86000 266.193
39.87000 269.423
39.88000 272.060
39.89000 275.583
39.90000 278.542
39.91000 278.738
39.92000 271.484
39.93000 263.816
39.94000 259.679
39.95000 261.983
39.96000 264.423
39.97000 265.761
39.98000 269.114
39.99000 271.417
40.00000 272.131
40.01000 271.609
40.02000 271.097
40.03000 271.021
40.04000 271.170
40.05000 271.312
40.06000 265.565
40.07000 258.289
40.08000 251.969
40.09000 254.091
40.10000 258.196
40.11000 261.053
40.12000 257.116
40.13000 252.156
40.14000 248.209
40.15000 251.119
40.16000 253.956
40.17000 255.557
40.18000 254.182
40.19000 252.675
40.20000 253.381
40.21000 257.681
40.22000 262.032
40.23000 264.276
40.24000 260.960
40.25000 258.745
40.26000 258.892
40.27000 260.668
40.28000 262.408
40.29000 263.088
40.30000 263.276
40.31000 263.455
40.32000 263.505
40.33000 263.515
40.34000 263.641
40.35000 264.645
40.36000 265.832
40.37000 267.008
40.38000 268.128
40.39000 269.242
40.40000 270.103
40.41000 263.047
40.42000 256.980
40.43000 253.628
40.44000 256.119
40.45000 258.807
40.46000 257.783
40.47000 251.397
40.48000 244.968
40.49000 245.298
40.50000 251.938
40.51000 258.501
40.52000 259.684
40.53000 257.570
40.54000 255.676
40.55000 258.736
40.56000 263.844
40.57000 268.618
40.58000 260.895
40.59000 250.724
40.60000 242.516
40.61000 247.266
40.62000 254.385
40.63000 259.556
40.64000 256.462
40.65000 252.437
40.66000 249.415
40.67000 251.360
40.68000 253.117
40.69000 255.010
40.70000 257.162
40.71000 259.321
40.72000 257.176
40.73000 249.525
40.74000 241.864
40.75000 242.816
40.76000 250.825
40.77000 258.756
40.78000 263.023
40.79000 265.290
40.80000 267.090
40.81000 260.556
40.82000 250.945
40.83000 242.084
40.84000 244.165
40.85000 248.456
40.86000 251.725
40.87000 249.099
40.88000 245.528
40.89000 242.565
40.90000 241.890
40.91000 241.435
40.92000 241.104
40.93000 251.113
40.94000 259.202
40.95000 260.332
40.96000 249.550
40.97000 238.565
40.98000 236.072
40.99000 243.163
41.00000 250.239
41.01000 252.756
41.02000 251.962
41.03000 251.152
41.04000 249.787
41.05000 248.150
41.06000 246.657
41.07000 247.254
41.08000 248.539
41.09000 249.706
41.10000 244.287
41.11000 238.222
41.12000 233.166
41.13000 233.231
41.14000 234.010
41.15000 235.411
41.16000 238.898
41.17000 242.553
41.18000 245.117
41.19000 248.533
41.20000 251.142
41.21000 250.299
41.22000 244.196
41.23000 238.039
41.24000 236.482
41.25000 239.483
41.26000 242.464
41.27000 245.732
41.28000 249.131
41.29000 252.309
41.30000 249.894
41.31000 245.048
41.32000 240.314
41.33000 236.943
41.34000 233.972
41.35000 231.317
41.36000 236.372
41.37000 242.077
41.38000 247.110
41.39000 249.138
41.40000 250.803
41.41000 251.617
41.42000 249.888
41.43000 247.988
41.44000 246.706
41.45000 248.092
41.46000 249.181
41.47000 250.589
41.48000 252.430
41.49000 254.272
41.50000 254.535
41.51000 253.424
41.52000 252.326
41.53000 250.467
41.54000 248.224
41.55000 246.145
41.56000 247.287
41.57000 249.681
41.58000 251.399
41.59000 246.232
41.60000 239.267
41.61000 233.155
41.62000 238.104
41.63000 243.972
41.64000 249.156
41.65000 251.626
41.66000 253.817
41.67000 253.479
41.68000 246.402
41.69000 238.960
41.70000 234.140
41.71000 233.631
41.72000 233.323
41.73000 235.064
41.74000 239.252
41.75000 243.414
41.76000 240.109
41.77000 231.070
41.78000 222.184
41.79000 223.478
41.80000 229.773
41.81000 236.129
41.82000 243.444
41.83000 251.092
41.84000 257.423
41.85000 252.317
41.86000 244.560
41.87000 237.885
41.88000 236.295
41.89000 235.589
41.90000 235.623
41.91000 238.270
41.92000 241.146
41.93000 244.273
41.94000 248.000
41.95000 251.753
41.96000 254.077
41.97000 247.566
41.98000 242.800
41.99000 241.272
42.00000 243.146
42.01000 244.972
42.02000 241.308
42.03000 233.905
42.04000 226.677
42.05000 233.167
42.06000 245.382
42.07000 256.576
42.08000 254.399
42.09000 248.088
42.10000 242.558
42.11000 242.866
42.12000 244.371
42.13000 245.639
42.14000 246.962
42.15000 248.072
42.16000 247.991
42.17000 244.168
42.18000 240.073
42.19000 238.246
42.20000 241.237
42.21000 244.387
42.22000 246.244
42.23000 248.515
42.24000 250.118
42.25000 248.118
42.26000 242.797
42.27000 237.501
42.28000 233.857
42.29000 231.212
42.30000 228.650
42.31000 227.676
42.32000 227.368
42.33000 226.933
42.34000 225.102
42.35000 222.888
42.36000 221.275
42.37000 223.576
42.38000 226.584
42.39000 229.059
42.40000 233.146
42.41000 236.653
42.42000 239.571
42.43000 240.838
42.44000 242.007
42.45000 243.595
42.46000 245.980
42.47000 248.384
42.48000 249.728
42.49000 241.241
42.50000 235.354
42.51000 234.003
42.52000 236.334
42.53000 238.670
42.54000 241.257
42.55000 243.978
42.56000 246.590
42.57000 250.781
42.58000 255.237
42.59000 258.766
42.60000 253.658
42.61000 246.438
42.62000 240.542
42.63000 242.176
42.64000 245.000
42.65000 247.266
42.66000 237.301
42.67000 228.295
42.68000 221.930
42.69000 222.176
42.70000 222.738
42.71000 224.966
42.72000 230.010
42.73000 235.100
42.74000 237.782
42.75000 242.270
42.76000 245.291
42.77000 244.622
42.78000 241.302
42.79000 237.988
42.80000 234.850
42.81000 231.798
42.82000 228.899
42.83000 227.850
42.84000 227.438
42.85000 227.127
42.86000 227.631
42.87000 228.312
42.88000 229.028
42.89000 229.923
42.90000 230.843
42.91000 231.561
42.92000 232.004
42.93000 232.340
42.94000 233.085
42.95000 234.746
42.96000 236.440
42.97000 235.284
42.98000 229.840
42.99000 224.355
43.00000 223.973
43.01000 228.576
43.02000 233.174
43.03000 237.450
43.04000 241.520
43.05000 245.294
43.06000 241.823
43.07000 235.238
43.08000 229.058
43.09000 227.180
43.10000 226.604
43.11000 226.061
43.12000 225.745
43.13000 225.471
43.14000 225.655
43.15000 227.859
43.16000 230.302
43.17000 232.155
43.18000 237.732
43.19000 242.304
43.20000 243.024
43.21000 236.058
43.22000 228.879
43.23000 226.886
43.24000 231.809
43.25000 236.762
43.26000 235.252
43.27000 228.208
43.28000 221.302
43.29000 221.695
43.30000 226.231
43.31000 230.544
43.32000 230.545
43.33000 228.892
43.34000 227.361
43.35000 225.544
43.36000 223.842
43.37000 222.234
43.38000 221.181
43.39000 220.222
43.40000 219.028
43.41000 216.911
43.42000 214.702
43.43000 213.077
43.44000 218.496
43.45000 222.975
43.46000 226.230
43.47000 227.307
43.48000 228.341
43.49000 228.055
43.50000 226.216
43.51000 224.378
43.52000 225.872
43.53000 229.864
43.54000 233.681
43.55000 230.970
43.56000 224.956
43.57000 219.288
43.58000 219.000
43.59000 220.555
43.60000 221.974
43.61000 223.641
43.62000 225.170
43.63000 225.743
43.64000 221.250
43.65000 216.015
43.66000 213.174
43.67000 218.676
43.68000 224.892
43.69000 229.306
43.70000 223.574
43.71000 218.889
43.72000 217.062
43.73000 219.764
43.74000 222.523
43.75000 222.391
43.76000 219.262
43.77000 216.151
43.78000 214.986
43.79000 215.126
43.80000 215.319
43.81000 216.984
43.82000 219.313
43.83000 221.773
43.84000 225.924
43.85000 230.592
43.86000 234.786
43.87000 231.400
43.88000 227.095
43.89000 222.895
43.90000 219.182
43.91000 215.531
43.92000 212.901
43.93000 213.441
43.94000 214.206
43.95000 214.730
43.96000 221.245
43.97000 226.264
43.98000 227.589
43.99000 223.716
44.00000 219.808
44.01000 220.075
44.02000 224.135
44.03000 228.155
44.04000 229.935
44.05000 230.367
44.06000 230.732
44.07000 229.682
44.08000 228.060
44.09000 226.041
44.10000 219.740
44.11000 212.274
44.12000 205.682
44.13000 211.901
44.14000 219.234
44.15000 224.421
44.16000 220.734
44.17000 216.080
44.18000 213.866
44.19000 218.409
44.20000 223.345
44.21000 226.589
44.22000 224.480
44.23000 222.836
44.24000 220.471
44.25000 217.205
44.26000 213.954
44.27000 216.457
44.28000 223.569
44.29000 230.574
44.30000 229.038
44.31000 223.135
44.32000 217.322
44.33000 213.060
44.34000 209.358
44.35000 206.171
44.36000 207.703
44.37000 210.375
44.38000 212.689
44.39000 218.198
44.40000 223.309
44.41000 227.673
44.42000 229.296
44.43000 230.664
44.44000 231.496
44.45000 231.000
44.46000 230.443
44.47000 230.092
44.48000 226.344
44.49000 223.594
44.50000 220.588
44.51000 217.300
44.52000 214.043
44.53000 215.165
44.54000 219.391
44.55000 223.527
44.56000 226.304
44.57000 228.350
44.58000 230.250
44.59000 230.122
44.60000 229.342
44.61000 228.233
44.62000 224.535
44.63000 220.283
44.64000 216.676
44.65000 225.659
44.66000 234.621
44.67000 242.049
44.68000 244.465
44.69000 246.491
44.70000 247.165
44.71000 244.850
44.72000 242.427
44.73000 240.973
44.74000 248.890
44.75000 254.575
44.76000 258.092
44.77000 259.522
44.78000 260.885
44.79000 257.057
44.80000 249.959
44.81000 243.065
44.82000 240.282
44.83000 239.295
44.84000 238.296
44.85000 237.149
44.86000 235.959
44.87000 235.641
44.88000 241.269
44.89000 248.017
44.90000 253.617
44.91000 262.388
44.92000 269.942
44.93000 274.703
44.94000 271.326
44.95000 267.427
44.96000 268.402
44.97000 278.984
44.98000 289.824
44.99000 295.995
45.00000 286.102
45.01000 279.169
45.02000 280.409
45.03000 288.568
45.04000 296.568
45.05000 296.455
45.06000 291.794
45.07000 287.306
45.08000 294.858
45.09000 306.231
45.10000 316.174
45.11000 312.054
45.12000 304.354
45.13000 297.912
45.14000 298.958
45.15000 301.242
45.16000 303.091
45.17000 294.614
45.18000 286.875
45.19000 280.638
45.20000 278.305
45.21000 276.175
45.22000 276.197
45.23000 280.005
45.24000 283.884
45.25000 285.971
45.26000 278.929
45.27000 274.134
45.28000 274.457
45.29000 278.609
45.30000 282.561
45.31000 279.348
45.32000 272.552
45.33000 266.075
45.34000 264.216
45.35000 263.940
45.36000 263.270
45.37000 259.282
45.38000 254.544
45.39000 249.920
45.40000 245.889
45.41000 241.943
45.42000 238.831
45.43000 236.390
45.44000 234.478
45.45000 233.340
45.46000 234.000
45.47000 234.733
45.48000 233.042
45.49000 227.559
45.50000 222.031
45.51000 219.238
45.52000 233.731
45.53000 243.309
45.54000 241.127
45.55000 231.141
45.56000 221.547
45.57000 222.464
45.58000 228.072
45.59000 233.358
45.60000 229.423
45.61000 223.275
45.62000 218.506
45.63000 223.748
45.64000 230.987
45.65000 236.016
45.66000 230.866
45.67000 224.446
45.68000 219.526
45.69000 216.667
45.70000 214.522
45.71000 214.044
45.72000 217.023
45.73000 220.108
45.74000 220.499
45.75000 217.146
45.76000 213.770
45.77000 214.990
45.78000 220.323
45.79000 225.535
45.80000 223.335
45.81000 216.761
45.82000 210.672
45.83000 214.686
45.84000 222.727
45.85000 230.211
45.86000 225.717
45.87000 218.752
45.88000 212.393
45.89000 209.864
45.90000 208.006
45.91000 207.076
45.92000 209.937
45.93000 213.203
45.94000 215.630
45.95000 209.168
45.96000 203.750
45.97000 201.247
45.98000 204.134
45.99000 207.142
46.00000 208.559
46.01000 208.022
46.02000 207.481
46.03000 208.347
46.04000 210.315
46.05000 212.185
46.06000 209.927
46.07000 205.499
46.08000 201.246
46.09000 199.931
46.10000 199.661
46.11000 199.413
46.12000 201.779
46.13000 204.443
46.14000 206.393
46.15000 204.388
46.16000 201.777
46.17000 200.370
46.18000 203.331
46.19000 206.689
46.20000 209.102
46.21000 205.706
46.22000 202.907
46.23000 202.837
46.24000 207.269
46.25000 211.767
46.26000 212.515
46.27000 209.204
46.28000 205.905
46.29000 209.438
46.30000 217.664
46.31000 225.554
46.32000 223.306
46.33000 216.297
46.34000 209.633
46.35000 207.689
46.36000 207.243
46.37000 206.840
46.38000 209.608
46.39000 212.630
46.40000 214.954
46.41000 213.877
46.42000 212.347
46.43000 210.513
46.44000 207.701
46.45000 204.813
46.46000 202.812
46.47000 197.899
46.48000 194.124
46.49000 192.495
46.50000 194.011
46.51000 195.554
46.52000 197.903
46.53000 201.015
46.54000 204.101
46.55000 206.578
46.56000 208.638
46.57000 210.511
46.58000 208.063
46.59000 203.802
46.60000 199.998
46.61000 201.403
46.62000 204.281
46.63000 206.838
46.64000 202.310
46.65000 197.241
46.66000 193.564
46.67000 195.884
46.68000 198.892
46.69000 202.077
46.70000 205.771
46.71000 209.497
46.72000 211.980
46.73000 211.656
46.74000 211.361
46.75000 208.577
46.76000 202.559
46.77000 196.539
46.78000 196.622
46.79000 201.803
46.80000 206.916
46.81000 207.164
46.82000 204.784
46.83000 202.476
46.84000 201.491
46.85000 201.003
46.86000 200.466
46.87000 199.470
46.88000 198.357
46.89000 197.387
46.90000 200.195
46.91000 203.122
46.92000 204.950
46.93000 202.584
46.94000 199.807
46.95000 198.451
46.96000 200.743
46.97000 203.219
46.98000 204.801
46.99000 201.690
47.00000 199.365
47.01000 197.268
47.02000 195.434
47.03000 193.615
47.04000 194.590
47.05000 197.628
47.06000 200.609
47.07000 197.684
47.08000 192.056
47.09000 187.091
47.10000 192.027
47.11000 200.272
47.12000 207.695
47.13000 208.325
47.14000 207.441
47.15000 206.686
47.16000 199.214
47.17000 192.113
47.18000 186.726
47.19000 187.164
47.20000 188.083
47.21000 188.879
47.22000 189.393
47.23000 189.896
47.24000 190.203
47.25000 194.668
47.26000 197.892
47.27000 196.889
47.28000 191.630
47.29000 186.415
47.30000 185.238
47.31000 186.707
47.32000 188.138
47.33000 191.579
47.34000 195.705
47.35000 199.490
47.36000 199.066
47.37000 197.389
47.38000 195.277
47.39000 190.058
47.40000 184.228
47.41000 179.353
47.42000 189.095
47.43000 198.677
47.44000 204.021
47.45000 196.535
47.46000 188.170
47.47000 185.177
47.48000 193.191
47.49000 201.532
47.50000 206.368
47.51000 198.948
47.52000 193.694
47.53000 191.078
47.54000 190.795
47.55000 190.470
47.56000 187.777
47.57000 183.703
47.58000 179.768
47.59000 184.952
47.60000 193.223
47.61000 200.329
47.62000 195.326
47.63000 187.115
47.64000 180.497
47.65000 183.805
47.66000 188.827
47.67000 192.929
47.68000 193.007
47.69000 192.725
47.70000 191.948
47.71000 189.838
47.72000 187.652
47.73000 187.171
47.74000 189.805
47.75000 192.504
47.76000 193.986
47.77000 199.627
47.78000 203.498
47.79000 202.961
47.80000 198.986
47.81000 195.004
47.82000 190.750
47.83000 186.355
47.84000 182.151
47.85000 177.940
47.86000 174.017
47.87000 170.989
47.88000 175.892
47.89000 182.660
47.90000 188.262
47.91000 187.506
47.92000 185.789
47.93000 184.423
47.94000 183.452
47.95000 182.696
47.96000 182.689
47.97000 184.486
47.98000 186.363
47.99000 188.025
48.00000 189.339
48.01000 190.647
48.02000 191.323
48.03000 189.204
48.04000 187.783
48.05000 187.162
48.06000 187.093
48.07000 187.033
48.08000 187.187
48.09000 187.442
48.10000 187.683
48.11000 186.044
48.12000 183.996
48.13000 182.329
48.14000 183.575
48.15000 185.426
48.16000 187.038
48.17000 187.496
48.18000 187.804
48.19000 188.042
48.20000 185.715
48.21000 183.716
48.22000 183.203
48.23000 185.893
48.24000 188.691
48.25000 188.291
48.26000 183.264
48.27000 178.200
48.28000 176.430
48.29000 177.742
48.30000 179.065
48.31000 181.138
48.32000 183.672
48.33000 186.211
48.34000 188.858
48.35000 191.550
48.36000 194.066
48.37000 188.740
48.38000 181.917
48.39000 176.341
48.40000 179.017
48.41000 183.205
48.42000 186.787
48.43000 187.797
48.44000 188.517
48.45000 189.058
48.46000 182.235
48.47000 176.549
48.48000 172.627
48.49000 172.096
48.50000 171.650
48.51000 174.416
48.52000 181.299
48.53000 188.188
48.54000 188.010
48.55000 182.029
48.56000 176.196
48.57000 177.352
48.58000 182.330
48.59000 186.881
48.60000 183.790
48.61000 177.871
48.62000 172.413
48.63000 175.299
48.64000 179.738
48.65000 183.921
48.66000 186.620
48.67000 189.081
48.68000 189.558
48.69000 182.552
48.70000 174.828
48.71000 169.212
48.72000 176.560
48.73000 182.703
48.74000 186.060
48.75000 184.641
48.76000 183.141
48.77000 181.080
48.78000 178.386
48.79000 175.701
48.80000 178.884
48.81000 186.280
48.82000 193.450
48.83000 193.050
48.84000 188.956
48.85000 185.063
48.86000 184.087
48.87000 184.075
48.88000 184.064
48.89000 186.500
48.90000 189.127
48.91000 191.096
48.92000 189.723
48.93000 187.883
48.94000 185.890
48.95000 183.380
48.96000 180.829
48.97000 179.039
48.98000 176.747
48.99000 174.997
49.00000 176.856
49.01000 184.220
49.02000 191.642
49.03000 194.393
49.04000 192.506
49.05000 190.633
49.06000 188.111
49.07000 185.216
49.08000 182.332
49.09000 179.724
49.10000 177.235
49.11000 174.868
49.12000 173.963
49.13000 173.489
49.14000 173.065
49.15000 172.190
49.16000 171.351
49.17000 171.581
49.18000 176.606
49.19000 182.210
49.20000 185.078
49.21000 179.760
49.22000 173.893
49.23000 169.931
49.24000 177.363
49.25000 183.141
49.26000 182.934
49.27000 174.628
49.28000 166.283
49.29000 163.242
49.30000 164.826
49.31000 166.391
49.32000 166.860
49.33000 166.702
49.34000 166.736
49.35000 170.581
49.36000 175.908
49.37000 180.881
49.38000 182.232
49.39000 182.636
49.40000 182.990
49.41000 184.210
49.42000 185.385
49.43000 184.868
49.44000 177.628
49.45000 169.693
49.46000 164.628
49.47000 167.226
49.48000 170.242
49.49000 172.196
49.50000 167.186
49.51000 163.415
49.52000 164.788
49.53000 172.316
49.54000 179.826
49.55000 180.143
49.56000 174.925
49.57000 169.794
49.58000 169.453
49.59000 171.501
49.60000 173.420
49.61000 173.276
49.62000 172.415
49.63000 171.595
49.64000 171.126
49.65000 170.739
49.66000 170.407
49.67000 171.186
49.68000 171.986
49.69000 174.080
49.70000 180.744
49.71000 187.807
49.72000 192.255
49.73000 190.468
49.74000 188.412
49.75000 187.138
49.76000 184.565
49.77000 182.702
49.78000 179.130
49.79000 173.757
49.80000 168.426
49.81000 167.998
49.82000 170.912
49.83000 173.758
49.84000 171.561
49.85000 167.248
49.86000 163.542
49.87000 167.819
49.88000 174.569
49.89000 180.547
49.90000 180.740
49.91000 179.746
49.92000 178.908
49.93000 175.689
49.94000 172.746
49.95000 170.717
49.96000 171.570
49.97000 172.633
49.98000 174.410
49.99000 177.708
50.00000 181.055
50.01000 183.031
50.02000 179.708
50.03000 177.334
50.04000 174.536
50.05000 171.349
50.06000 168.277
50.07000 173.016
50.08000 182.492
50.09000 191.672
50.10000 191.169
50.11000 186.945
50.12000 182.680
50.13000 177.963
50.14000 173.121
50.15000 169.281
50.16000 171.967
50.17000 175.832
50.18000 179.015
50.19000 178.241
50.20000 177.243
50.21000 176.282
50.22000 175.421
50.23000 174.566
50.24000 176.070
50.25000 182.055
50.26000 188.148
50.27000 191.556
50.28000 189.548
50.29000 188.145
50.30000 187.155
50.31000 186.501
50.32000 185.819
50.33000 183.880
50.34000 181.263
50.35000 178.751
50.36000 182.006
50.37000 187.019
50.38000 191.914
50.39000 195.712
50.40000 199.241
50.41000 200.629
50.42000 189.811
50.43000 177.061
50.44000 166.823
50.45000 175.387
50.46000 183.764
50.47000 189.926
50.48000 190.531
50.49000 190.871
50.50000 191.877
50.51000 194.014
50.52000 196.169
50.53000 197.305
50.54000 195.754
50.55000 194.735
50.56000 199.076
50.57000 207.274
50.58000 215.374
50.59000 220.255
50.60000 223.586
50.61000 226.750
50.62000 222.459
50.63000 216.252
50.64000 210.983
50.65000 213.234
50.66000 217.116
50.67000 220.537
50.68000 221.651
50.69000 222.447
50.70000 223.069
50.71000 217.984
50.72000 213.566
50.73000 211.804
50.74000 215.991
50.75000 220.399
50.76000 221.980
50.77000 219.301
50.78000 216.580
50.79000 213.469
50.80000 209.976
50.81000 206.549
50.82000 208.662
50.83000 214.313
50.84000 219.699
50.85000 218.581
50.86000 214.663
50.87000 210.984
50.88000 207.634
50.89000 204.665
50.90000 202.342
50.91000 204.488
50.92000 207.490
50.93000 210.285
50.94000 212.164
50.95000 213.935
50.96000 215.279
50.97000 202.557
50.98000 191.836
50.99000 182.630
51.00000 176.450
51.01000 170.355
51.02000 170.130
51.03000 177.747
51.04000 185.398
51.05000 185.701
51.06000 179.699
51.07000 173.851
51.08000 176.310
51.09000 183.491
51.10000 190.332
51.11000 190.613
51.12000 188.371
51.13000 186.295
51.14000 184.586
51.15000 183.133
51.16000 181.368
51.17000 177.709
51.18000 173.732
51.19000 170.462
51.20000 169.969
51.21000 169.759
51.22000 169.604
51.23000 172.182
51.24000 174.288
51.25000 175.601
51.26000 175.499
51.27000 175.370
51.28000 172.735
51.29000 167.144
51.30000 161.562
51.31000 161.642
51.32000 165.994
51.33000 170.274
51.34000 171.881
51.35000 172.134
51.36000 172.343
51.37000 171.863
51.38000 171.146
51.39000 170.492
51.40000 170.923
51.41000 171.526
51.42000 171.906
51.43000 171.099
51.44000 170.118
51.45000 169.126
51.46000 168.099
51.47000 167.068
51.48000 166.336
51.49000 170.329
51.50000 173.519
51.51000 174.926
51.52000 173.503
51.53000 172.044
51.54000 169.453
51.55000 165.687
51.56000 161.941
51.57000 163.778
51.58000 169.300
51.59000 174.541
51.60000 171.999
51.61000 165.933
51.62000 160.380
51.63000 161.425
51.64000 164.487
51.65000 167.240
51.66000 168.162
51.67000 168.644
51.68000 169.090
51.69000 169.364
51.70000 169.617
51.71000 169.228
51.72000 166.846
51.73000 164.322
51.74000 162.594
51.75000 168.058
51.76000 172.322
51.77000 172.467
51.78000 166.807
51.79000 161.107
51.80000 158.170
51.81000 157.749
51.82000 157.332
51.83000 159.448
51.84000 163.006
51.85000 166.349
51.86000 165.080
51.87000 161.947
51.88000 159.247
51.89000 161.227
51.90000 164.481
51.91000 167.355
51.92000 168.095
51.93000 168.406
51.94000 168.123
51.95000 165.382
51.96000 162.372
51.97000 159.711
51.98000 158.018
51.99000 156.382
52.00000 155.306
52.01000 161.773
52.02000 166.663
52.03000 170.204
52.04000 172.062
52.05000 173.899
52.06000 170.260
52.07000 162.228
52.08000 154.314
52.09000 149.676
52.10000 146.870
52.11000 144.426
52.12000 148.169
52.13000 154.145
52.14000 159.885
52.15000 163.460
52.16000 166.511
52.17000 169.156
52.18000 167.740
52.19000 165.996
52.20000 165.106
52.21000 167.355
52.22000 169.895
52.23000 171.771
52.24000 171.999
52.25000 172.150
52.26000 172.246
52.27000 164.103
52.28000 158.119
52.29000 156.124
52.30000 158.519
52.31000 160.896
52.32000 160.387
52.33000 157.830
52.34000 155.326
52.35000 159.731
52.36000 167.121
52.37000 174.009
52.38000 173.871
52.39000 171.470
52.40000 169.218
52.41000 168.127
52.42000 167.286
52.43000 166.571
52.44000 166.078
52.45000 165.689
52.46000 165.409
52.47000 165.486
52.48000 165.590
52.49000 164.746
52.50000 161.804
52.51000 158.786
52.52000 156.975
52.53000 156.748
52.54000 156.597
52.55000 155.495
52.56000 153.477
52.57000 151.483
52.58000 151.315
52.59000 152.300
52.60000 153.257
52.61000 155.094
52.62000 157.195
52.63000 159.317
52.64000 161.677
52.65000 164.107
52.66000 166.132
52.67000 165.398
52.68000 164.143
52.69000 163.102
52.70000 163.578
52.71000 164.118
52.72000 162.807
52.73000 156.094
52.74000 149.033
52.75000 145.521
52.76000 149.017
52.77000 152.701
52.78000 154.800
52.79000 155.007
52.80000 155.144
52.81000 154.474
52.82000 153.119
52.83000 151.847
52.84000 154.812
52.85000 160.155
52.86000 165.301
52.87000 162.961
52.88000 158.095
52.89000 154.037
52.90000 157.944
52.91000 163.882
52.92000 168.819
52.93000 167.786
52.94000 165.764
52.95000 164.127
52.96000 162.840
52.97000 161.821
52.98000 160.127
52.99000 156.678
53.00000 153.137
53.01000 151.439
53.02000 152.984
53.03000 154.590
53.04000 155.454
53.05000 160.792
53.06000 164.431
53.07000 165.343
53.08000 164.211
53.09000 163.057
53.10000 161.122
53.11000 158.795
53.12000 156.576
53.13000 160.685
53.14000 166.485
53.15000 171.389
53.16000 168.751
53.17000 164.408
53.18000 160.297
53.19000 157.398
53.20000 154.673
53.21000 152.524
53.22000 156.718
53.23000 160.511
53.24000 163.783
53.25000 165.844
53.26000 167.856
53.27000 167.730
53.28000 164.255
53.29000 160.739
53.30000 158.961
53.31000 163.078
53.32000 165.800
53.33000 165.212
53.34000 162.423
53.35000 159.830
53.36000 162.520
53.37000 167.572
53.38000 172.335
53.39000 169.178
53.40000 164.097
53.41000 159.708
53.42000 160.350
53.43000 161.997
53.44000 162.968
53.45000 160.816
53.46000 158.274
53.47000 156.324
53.48000 155.181
53.49000 154.323
53.50000 152.981
53.51000 150.637
53.52000 148.261
53.53000 149.539
53.54000 155.903
53.55000 162.297
53.56000 164.340
53.57000 162.478
53.58000 160.663
53.59000 161.743
53.60000 164.535
53.61000 167.269
53.62000 168.816
53.63000 169.889
53.64000 170.887
53.65000 165.635
53.66000 159.369
53.67000 153.877
53.68000 153.287
53.69000 153.558
53.70000 153.743
53.71000 153.577
53.72000 153.373
53.73000 153.221
53.74000 154.438
53.75000 155.445
53.76000 157.024
53.77000 159.666
53.78000 162.331
53.79000 165.376
53.80000 168.887
53.81000 172.394
53.82000 170.753
53.83000 165.065
53.84000 159.488
53.85000 158.533
53.86000 160.015
53.87000 161.479
53.88000 162.649
53.89000 163.715
53.90000 164.693
53.91000 160.521
53.92000 155.704
53.93000 151.885
53.94000 153.596
53.95000 156.156
53.96000 158.094
53.97000 157.770
53.98000 157.240
53.99000 156.860
54.00000 162.200
54.01000 166.487
54.02000 166.562
54.03000 159.681
54.04000 152.696
54.05000 151.988
54.06000 158.089
54.07000 164.165
54.08000 165.197
54.09000 162.720
54.10000 160.297
54.11000 159.520
54.12000 159.518
54.13000 159.544
54.14000 159.964
54.15000 160.509
54.16000 161.001
54.17000 166.055
54.18000 171.348
54.19000 174.175
54.20000 164.975
54.21000 154.169
54.22000 146.316
54.23000 148.011
54.24000 150.434
54.25000 152.114
54.26000 158.055
54.27000 162.641
54.28000 165.348
54.29000 165.297
54.30000 165.221
54.31000 161.584
54.32000 154.561
54.33000 147.594
54.34000 147.683
54.35000 152.086
54.36000 156.316
54.37000 156.524
54.38000 155.043
54.39000 153.756
54.40000 154.689
54.41000 156.250
54.42000 157.638
54.43000 160.002
54.44000 162.209
54.45000 163.494
54.46000 160.799
54.47000 157.645
54.48000 155.419
54.49000 155.865
54.50000 156.479
54.51000 156.888
54.52000 155.188
54.53000 153.888
54.54000 151.100
54.55000 146.377
54.56000 141.657
54.57000 143.404
54.58000 150.562
54.59000 157.627
54.60000 159.403
54.61000 158.276
54.62000 157.411
54.63000 161.364
54.64000 167.124
54.65000 171.852
54.66000 166.574
54.67000 158.778
54.68000 151.977
54.69000 151.321
54.70000 151.618
54.71000 151.753
54.72000 151.266
54.73000 150.718
54.74000 150.236
54.75000 149.923
54.76000 149.618
54.77000 149.423
54.78000 151.609
54.79000 153.231
54.80000 154.702
54.81000 156.001
54.82000 157.294
54.83000 157.682
54.84000 157.400
54.85000 157.124
54.86000 154.701
54.87000 151.342
54.88000 148.224
54.89000 148.718
54.90000 150.422
54.91000 152.090
54.92000 153.468
54.93000 154.782
54.94000 155.905
54.95000 159.309
54.96000 162.453
54.97000 164.997
54.98000 165.499
54.99000 165.832
55.00000 164.082
55.01000 157.545
55.02000 150.818
55.03000 146.713
55.04000 149.848
55.05000 152.148
55.06000 153.833
55.07000 154.898
55.08000 155.977
55.09000 158.396
55.10000 161.695
55.11000 164.909
55.12000 167.274
55.13000 169.171
55.14000 170.841
55.15000 169.689
55.16000 167.695
55.17000 166.393
55.18000 170.046
55.19000 174.676
55.20000 178.549
55.21000 171.032
55.22000 163.622
55.23000 159.076
55.24000 163.214
55.25000 167.948
55.26000 169.973
55.27000 166.438
55.28000 162.736
55.29000 160.588
55.30000 165.800
55.31000 169.486
55.32000 170.044
55.33000 167.832
55.34000 165.628
55.35000 163.942
55.36000 162.559
55.37000 161.222
55.38000 165.546
55.39000 171.727
55.40000 177.151
55.41000 174.698
55.42000 170.155
55.43000 167.454
55.44000 176.245
55.45000 187.027
55.46000 195.834
55.47000 193.730
55.48000 191.065
55.49000 188.079
55.50000 184.226
55.51000 180.325
55.52000 181.436
55.53000 191.723
55.54000 202.206
55.55000 207.962
55.56000 210.791
55.57000 212.728
55.58000 213.120
55.59000 212.305
55.60000 211.595
55.61000 215.127
55.62000 220.867
55.63000 226.358
55.64000 242.149
55.65000 260.235
55.66000 276.747
55.67000 279.286
55.68000 278.533
55.69000 280.087
55.70000 294.251
55.71000 310.324
55.72000 323.120
55.73000 340.693
55.74000 355.206
55.75000 368.612
55.76000 379.338
55.77000 389.946
55.78000 402.345
55.79000 417.663
55.80000 433.023
55.81000 440.963
55.82000 466.680
55.83000 484.059
55.84000 506.170
55.85000 531.554
55.86000 556.345
55.87000 563.571
55.88000 562.637
55.89000 561.753
55.90000 575.841
55.91000 593.123
55.92000 608.279
55.93000 607.193
55.94000 602.722
55.95000 599.651
55.96000 603.322
55.97000 607.878
55.98000 611.406
55.99000 608.708
56.00000 606.196
56.01000 601.351
56.02000 591.467
56.03000 581.412
56.04000 571.034
56.05000 560.187
56.06000 549.337
56.07000 537.325
56.08000 524.228
56.09000 511.166
56.10000 500.551
56.11000 491.442
56.12000 482.101
56.13000 467.488
56.14000 450.687
56.15000 434.980
56.16000 422.299
56.17000 411.554
56.18000 400.564
56.19000 387.950
56.20000 375.037
56.21000 361.561
56.22000 345.687
56.23000 329.541
56.24000 317.409
56.25000 305.042
56.26000 295.362
56.27000 288.077
56.28000 285.406
56.29000 282.850
56.30000 273.776
56.31000 256.331
56.32000 238.876
56.33000 233.317
56.34000 237.565
56.35000 241.483
56.36000 229.835
56.37000 209.658
56.38000 190.318
56.39000 186.010
56.40000 187.271
56.41000 188.434
56.42000 193.781
56.43000 199.503
56.44000 203.038
56.45000 193.906
56.46000 182.735
56.47000 173.470
56.48000 171.402
56.49000 170.029
56.50000 169.030
56.51000 169.361
56.52000 169.666
56.53000 168.557
56.54000 165.018
56.55000 161.438
56.56000 160.562
56.57000 162.752
56.58000 164.938
56.59000 165.227
56.60000 164.141
56.61000 163.068
56.62000 162.449
56.63000 162.051
56.64000 161.722
56.65000 162.401
56.66000 163.415
56.67000 164.336
56.68000 162.305
56.69000 159.935
56.70000 157.345
56.71000 153.626
56.72000 149.750
56.73000 146.576
56.74000 145.761
56.75000 145.139
56.76000 144.702
56.77000 149.857
56.78000 153.923
56.79000 156.271
56.80000 155.990
56.81000 155.681
56.82000 155.412
56.83000 155.182
56.84000 154.954
56.85000 155.304
56.86000 156.019
56.87000 156.640
56.88000 154.913
56.89000 152.161
56.90000 149.834
56.91000 152.671
56.92000 157.029
56.93000 160.925
56.94000 155.921
56.95000 150.051
56.96000 144.859
56.97000 142.712
56.98000 140.934
56.99000 139.940
57.00000 141.295
57.01000 142.808
57.02000 143.830
57.03000 145.779
57.04000 147.250
57.05000 146.874
57.06000 143.993
57.07000 141.101
57.08000 140.558
57.09000 142.067
57.10000 143.559
57.11000 144.546
57.12000 145.225
57.13000 145.773
57.14000 143.704
57.15000 140.616
57.16000 137.958
57.17000 139.700
57.18000 142.595
57.19000 145.137
57.20000 148.705
57.21000 151.921
57.22000 154.213
57.23000 152.823
57.24000 151.052
57.25000 148.629
57.26000 144.461
57.27000 140.199
57.28000 137.435
57.29000 141.977
57.30000 145.413
57.31000 147.909
57.32000 149.278
57.33000 150.640
57.34000 150.771
57.35000 149.953
57.36000 149.149
57.37000 146.311
57.38000 142.555
57.39000 138.999
57.40000 138.650
57.41000 139.415
57.42000 140.478
57.43000 144.132
57.44000 148.388
57.45000 152.053
57.46000 151.241
57.47000 149.988
57.48000 148.988
57.49000 148.882
57.50000 148.855
57.51000 147.500
57.52000 142.971
57.53000 138.305
57.54000 135.411
57.55000 135.867
57.56000 136.227
57.57000 138.468
57.58000 142.693
57.59000 146.864
57.60000 144.775
57.61000 138.409
57.62000 132.193
57.63000 135.512
57.64000 142.877
57.65000 149.675
57.66000 149.006
57.67000 146.020
57.68000 143.342
57.69000 142.969
57.70000 143.071
57.71000 143.157
57.72000 146.424
57.73000 149.495
57.74000 152.435
57.75000 154.964
57.76000 157.463
57.77000 157.482
57.78000 152.212
57.79000 146.766
57.80000 143.551
57.81000 141.871
57.82000 140.693
57.83000 141.309
57.84000 143.584
57.85000 145.811
57.86000 144.777
57.87000 141.763
57.88000 138.843
57.89000 138.933
57.90000 140.184
57.91000 141.362
57.92000 141.723
57.93000 141.858
57.94000 141.760
57.95000 140.144
57.96000 138.253
57.97000 136.695
57.98000 131.704
57.99000 127.284
58.00000 125.309
58.01000 130.212
58.02000 135.527
58.03000 139.562
58.04000 141.158
58.05000 142.695
58.06000 143.555
58.07000 137.710
58.08000 133.653
58.09000 133.131
58.10000 135.489
58.11000 137.805
58.12000 138.252
58.13000 137.687
58.14000 137.145
58.15000 136.354
58.16000 135.528
58.17000 134.582
58.18000 132.514
58.19000 130.170
58.20000 128.311
58.21000 129.229
58.22000 130.586
58.23000 131.677
58.24000 134.809
58.25000 137.505
58.26000 138.392
58.27000 134.738
58.28000 130.865
58.29000 130.258
58.30000 135.191
58.31000 140.215
58.32000 142.868
58.33000 143.118
58.34000 143.296
58.35000 145.003
58.36000 147.813
58.37000 150.482
58.38000 148.580
58.39000 144.472
58.40000 140.569
58.41000 142.286
58.42000 145.566
58.43000 148.361
58.44000 147.257
58.45000 145.306
58.46000 142.794
58.47000 137.473
58.48000 131.764
58.49000 127.300
58.50000 132.127
58.51000 136.569
58.52000 139.725
58.53000 139.996
58.54000 140.158
58.55000 140.262
58.56000 140.279
58.57000 140.295
58.58000 139.888
58.59000 139.067
58.60000 138.223
58.61000 135.400
58.62000 131.311
58.63000 127.549
58.64000 131.854
58.65000 139.637
58.66000 146.945
58.67000 149.589
58.68000 150.762
58.69000 151.586
58.70000 149.980
58.71000 147.907
58.72000 145.380
58.73000 140.837
58.74000 136.053
58.75000 132.421
58.76000 130.794
58.77000 129.618
58.78000 130.331
58.79000 134.824
58.80000 139.422
58.81000 141.938
58.82000 141.668
58.83000 141.383
58.84000 139.835
58.85000 137.203
58.86000 134.577
58.87000 132.275
58.88000 130.158
58.89000 128.135
58.90000 127.927
58.91000 128.417
58.92000 128.872
58.93000 131.218
58.94000 133.769
58.95000 136.072
58.96000 136.877
58.97000 137.429
58.98000 138.242
58.99000 140.077
59.00000 142.017
59.01000 143.443
59.02000 136.113
59.03000 130.080
59.04000 126.770
59.05000 128.324
59.06000 129.973
59.07000 131.898
59.08000 134.149
59.09000 136.394
59.10000 137.082
59.11000 136.590
59.12000 136.128
59.13000 136.805
59.14000 138.058
59.15000 139.080
59.16000 136.470
59.17000 132.611
59.18000 129.086
59.19000 130.576
59.20000 132.921
59.21000 134.843
59.22000 134.512
59.23000 133.850
59.24000 133.080
59.25000 131.933
59.26000 130.753
59.27000 129.915
59.28000 131.993
59.29000 133.669
59.30000 134.538
59.31000 134.125
59.32000 133.695
59.33000 132.322
59.34000 129.967
59.35000 127.625
59.36000 125.825
59.37000 124.410
59.38000 123.052
59.39000 123.283
59.40000 124.235
59.41000 125.461
59.42000 130.215
59.43000 136.052
59.44000 141.299
59.45000 141.506
59.46000 140.793
59.47000 139.571
59.48000 135.960
59.49000 132.046
59.50000 129.600
59.51000 131.727
59.52000 134.182
59.53000 135.863
59.54000 136.916
59.55000 137.689
59.56000 136.921
59.57000 133.978
59.58000 131.020
59.59000 131.020
59.60000 133.716
59.61000 136.387
59.62000 135.124
59.63000 131.575
59.64000 128.178
59.65000 128.025
59.66000 129.185
59.67000 130.467
59.68000 133.058
59.69000 136.006
59.70000 138.611
59.71000 136.315
59.72000 133.577
59.73000 132.079
59.74000 135.723
59.75000 139.929
59.76000 142.805
59.77000 141.985
59.78000 140.948
59.79000 140.266
59.80000 142.551
59.81000 144.285
59.82000 142.991
59.83000 137.912
59.84000 132.824
59.85000 128.215
59.86000 123.993
59.87000 119.833
59.88000 120.666
59.89000 124.064
59.90000 127.418
59.91000 130.006
59.92000 132.317
59.93000 134.545
59.94000 136.008
59.95000 137.286
59.96000 138.394
59.97000 136.563
59.98000 134.613
59.99000 133.550
60.00000 135.755
60.01000 138.263
60.02000 140.542
60.03000 142.253
60.04000 143.936
60.05000 144.997
60.06000 141.515
60.07000 138.944
60.08000 135.739
60.09000 131.834
60.10000 127.957
60.11000 128.255
60.12000 131.523
60.13000 134.721
60.14000 135.679
60.15000 135.572
60.16000 135.181
60.17000 130.793
60.18000 125.116
60.19000 120.585
60.20000 125.107
60.21000 131.570
60.22000 137.058
60.23000 139.843
60.24000 141.871
60.25000 142.850
60.26000 140.387
60.27000 137.655
60.28000 135.916
60.29000 136.377
60.30000 136.917
60.31000 137.242
60.32000 130.300
60.33000 125.317
60.34000 123.724
60.35000 125.407
60.36000 127.087
60.37000 128.500
60.38000 129.743
60.39000 130.952
60.40000 130.206
60.41000 128.706
60.42000 127.652
60.43000 131.801
60.44000 137.446
60.45000 141.597
60.46000 135.524
60.47000 127.518
60.48000 120.871
60.49000 124.456
60.50000 128.412
60.51000 131.875
60.52000 133.897
60.53000 135.826
60.54000 135.658
60.55000 131.340
60.56000 126.910
60.57000 124.384
60.58000 131.137
60.59000 135.869
60.60000 135.424
60.61000 130.581
60.62000 125.880
60.63000 128.492
60.64000 135.218
60.65000 141.696
60.66000 139.983
60.67000 135.449
60.68000 131.305
60.69000 131.020
60.70000 131.720
60.71000 132.354
60.72000 132.591
60.73000 132.762
60.74000 132.900
60.75000 130.345
60.76000 128.043
60.77000 125.469
60.78000 122.185
60.79000 118.864
60.80000 119.787
60.81000 128.198
60.82000 136.750
60.83000 141.358
60.84000 136.021
60.85000 132.368
60.86000 129.968
60.87000 128.509
60.88000 127.108
60.89000 127.788
60.90000 129.511
60.91000 131.155
60.92000 136.109
60.93000 141.747
60.94000 146.452
60.95000 143.273
60.96000 138.308
60.97000 134.207
60.98000 134.638
60.99000 135.724
61.00000 136.581
61.01000 136.657
61.02000 136.665
61.03000 135.233
61.04000 130.443
61.05000 125.516
61.06000 123.862
61.07000 127.350
61.08000 130.900
61.09000 132.697
61.10000 136.074
61.11000 138.309
61.12000 137.935
61.13000 135.824
61.14000 133.749
61.15000 132.614
61.16000 131.901
61.17000 131.228
61.18000 132.420
61.19000 134.029
61.20000 135.795
61.21000 138.713
61.22000 141.862
61.23000 143.430
61.24000 137.693
61.25000 131.040
61.26000 125.937
61.27000 131.480
61.28000 136.451
61.29000 140.276
61.30000 141.716
61.31000 143.083
61.32000 143.623
61.33000 143.010
61.34000 142.391
61.35000 140.768
61.36000 138.246
61.37000 135.800
61.38000 138.017
61.39000 142.996
61.40000 147.842
61.41000 149.877
61.42000 150.789
61.43000 151.638
61.44000 149.480
61.45000 146.798
61.46000 144.220
61.47000 142.302
61.48000 140.500
61.49000 139.957
61.50000 144.572
61.51000 149.741
61.52000 153.585
61.53000 162.110
61.54000 168.949
61.55000 176.718
61.56000 186.213
61.57000 195.746
61.58000 204.595
61.59000 212.599
61.60000 220.586
61.61000 225.709
61.62000 228.546
61.63000 231.416
61.64000 235.672
61.65000 240.660
61.66000 245.375
61.67000 245.514
61.68000 244.020
61.69000 242.648
61.70000 241.590
61.71000 240.713
61.72000 240.685
61.73000 245.367
61.74000 250.775
61.75000 252.716
61.76000 242.053
61.77000 230.239
61.78000 221.740
61.79000 209.871
61.80000 200.667
61.81000 191.927
61.82000 183.956
61.83000 175.996
61.84000 170.193
61.85000 166.733
61.86000 163.290
61.87000 156.756
61.88000 148.142
61.89000 139.717
61.90000 137.085
61.91000 137.183
61.92000 137.317
61.93000 137.963
61.94000 138.772
61.95000 139.503
61.96000 138.300
61.97000 136.882
61.98000 136.356
61.99000 140.195
62.00000 144.618
62.01000 146.895
62.02000 142.220
62.03000 137.015
62.04000 133.403
62.05000 134.506
62.06000 135.462
62.07000 135.683
62.08000 134.823
62.09000 133.954
62.10000 134.745
62.11000 137.119
62.12000 139.474
62.13000 139.570
62.14000 138.280
62.15000 136.986
62.16000 135.631
62.17000 134.251
62.18000 133.099
62.19000 134.582
62.20000 136.812
62.21000 138.794
62.22000 143.923
62.23000 148.883
62.24000 152.542
62.25000 150.575
62.26000 147.960
62.27000 145.936
62.28000 145.617
62.29000 145.406
62.30000 145.265
62.31000 138.511
62.32000 133.380
62.33000 129.520
62.34000 127.316
62.35000 125.125
62.36000 125.769
62.37000 128.789
62.38000 131.771
62.39000 138.070
62.40000 145.997
62.41000 153.325
62.42000 149.586
62.43000 141.689
62.44000 134.706
62.45000 136.596
62.46000 140.723
62.47000 144.325
62.48000 141.954
62.49000 139.090
62.50000 137.148
62.51000 138.740
62.52000 140.681
62.53000 140.673
62.54000 135.646
62.55000 130.363
62.56000 126.985
62.57000 133.089
62.58000 137.658
62.59000 140.633
62.60000 141.775
62.61000 142.906
62.62000 142.339
62.63000 140.514
62.64000 138.723
62.65000 140.543
62.66000 144.022
62.67000 147.091
62.68000 144.015
62.69000 138.878
62.70000 134.610
62.71000 137.552
62.72000 142.106
62.73000 146.001
62.74000 146.317
62.75000 146.154
62.76000 145.974
62.77000 145.738
62.78000 145.498
62.79000 145.078
62.80000 144.243
62.81000 143.391
62.82000 142.871
62.83000 142.048
62.84000 141.456
62.85000 141.123
62.86000 141.050
62.87000 140.999
62.88000 143.023
62.89000 146.412
62.90000 149.714
62.91000 150.413
62.92000 149.981
62.93000 149.479
62.94000 148.098
62.95000 146.454
62.96000 144.611
62.97000 141.340
62.98000 137.787
62.99000 134.813
63.00000 134.332
63.01000 134.188
63.02000 134.556
63.03000 136.479
63.04000 138.509
63.05000 141.147
63.06000 145.037
63.07000 148.964
63.08000 151.244
63.09000 145.585
63.10000 141.580
63.11000 139.620
63.12000 139.474
63.13000 139.334
63.14000 139.539
63.15000 139.946
63.16000 140.339
63.17000 142.764
63.18000 145.806
63.19000 148.498
63.20000 147.520
63.21000 145.566
63.22000 144.242
63.23000 146.855
63.24000 150.152
63.25000 152.847
63.26000 151.330
63.27000 149.724
63.28000 148.428
63.29000 147.973
63.30000 147.565
63.31000 146.982
63.32000 146.075
63.33000 145.161
63.34000 144.658
63.35000 138.631
63.36000 134.495
63.37000 136.683
63.38000 143.819
63.39000 150.776
63.40000 150.489
63.41000 146.426
63.42000 142.537
63.43000 144.365
63.44000 147.946
63.45000 151.534
63.46000 155.190
63.47000 158.862
63.48000 161.191
63.49000 156.164
63.50000 150.021
63.51000 145.129
63.52000 143.703
63.53000 142.804
63.54000 143.320
63.55000 147.263
63.56000 151.358
63.57000 152.195
63.58000 147.708
63.59000 143.145
63.60000 140.785
63.61000 149.001
63.62000 154.518
63.63000 156.781
63.64000 156.790
63.65000 156.777
63.66000 156.123
63.67000 155.172
63.68000 154.271
63.69000 153.435
63.70000 152.685
63.71000 151.823
63.72000 150.103
63.73000 148.203
63.74000 146.278
63.75000 144.236
63.76000 142.177
63.77000 140.583
63.78000 145.809
63.79000 150.365
63.80000 152.878
63.81000 150.974
63.82000 148.918
63.83000 148.382
63.84000 150.053
63.85000 151.741
63.86000 151.569
63.87000 149.650
63.88000 147.754
63.89000 147.564
63.90000 148.425
63.91000 149.443
63.92000 154.023
63.93000 160.083
63.94000 165.749
63.95000 164.021
63.96000 160.571
63.97000 157.275
63.98000 155.011
63.99000 152.937
64.00000 151.427
64.01000 152.324
64.02000 153.493
64.03000 154.372
64.04000 156.709
64.05000 158.607
64.06000 159.579
64.07000 158.765
64.08000 157.907
64.09000 157.960
64.10000 159.185
64.11000 160.414
64.12000 162.633
64.13000 165.663
64.14000 168.591
64.15000 166.759
64.16000 162.313
64.17000 157.944
64.18000 154.966
64.19000 152.503
64.20000 150.231
64.21000 150.027
64.22000 150.305
64.23000 150.223
64.24000 148.044
64.25000 145.527
64.26000 144.070
64.27000 146.622
64.28000 149.561
64.29000 151.700
64.30000 155.646
64.31000 158.752
64.32000 161.638
64.33000 164.146
64.34000 166.647
64.35000 164.810
64.36000 158.049
64.37000 151.306
64.38000 152.420
64.39000 159.224
64.40000 165.908
64.41000 168.568
64.42000 169.257
64.43000 169.806
64.44000 168.301
64.45000 166.116
64.46000 164.130
64.47000 161.280
64.48000 158.593
64.49000 156.626
64.50000 158.336
64.51000 160.562
64.52000 163.239
64.53000 167.438
64.54000 171.760
64.55000 174.797
64.56000 171.074
64.57000 168.057
64.58000 167.872
64.59000 172.024
64.60000 176.222
64.61000 177.050
64.62000 174.519
64.63000 172.005
64.64000 171.850
64.65000 173.205
64.66000 174.518
64.67000 174.768
64.68000 174.553
64.69000 174.159
64.70000 171.576
64.71000 168.348
64.72000 165.461
64.73000 163.914
64.74000 162.792
64.75000 162.640
64.76000 166.856
64.77000 171.602
64.78000 175.181
64.79000 175.254
64.80000 175.091
64.81000 174.980
64.82000 169.236
64.83000 164.835
64.84000 163.759
64.85000 167.198
64.86000 170.664
64.87000 174.423
64.88000 178.440
64.89000 182.413
64.90000 181.957
64.91000 179.015
64.92000 176.317
64.93000 178.507
64.94000 182.606
64.95000 186.450
64.96000 187.684
64.97000 188.233
64.98000 188.716
64.99000 182.579
65.00000 176.331
65.01000 172.614
65.02000 178.998
65.03000 186.431
65.04000 193.802
65.05000 201.002
65.06000 208.193
65.07000 212.860
65.08000 204.987
65.09000 199.032
65.10000 194.019
65.11000 190.139
65.12000 186.283
65.13000 188.132
65.14000 194.386
65.15000 200.535
65.16000 201.878
65.17000 200.781
65.18000 200.064
65.19000 205.441
65.20000 212.941
65.21000 219.749
65.22000 220.495
65.23000 219.829
65.24000 219.256
65.25000 223.609
65.26000 227.922
65.27000 232.704
65.28000 239.149
65.29000 245.742
65.30000 250.693
65.31000 251.722
65.32000 252.580
65.33000 253.113
65.34000 254.651
65.35000 255.768
65.36000 256.907
65.37000 258.072
65.38000 259.266
65.39000 263.875
65.40000 270.821
65.41000 277.605
65.42000 283.591
65.43000 288.969
65.44000 294.650
65.45000 304.329
65.46000 315.250
65.47000 324.945
65.48000 325.392
65.49000 323.936
65.50000 322.708
65.51000 324.299
65.52000 325.932
65.53000 326.663
65.54000 324.539
65.55000 322.206
65.56000 324.924
65.57000 338.432
65.58000 352.299
65.59000 360.493
65.60000 354.373
65.61000 349.973
65.62000 351.734
65.63000 359.204
65.64000 366.748
65.65000 379.417
65.66000 395.202
65.67000 410.498
65.68000 432.914
65.69000 456.900
65.70000 480.865
65.71000 504.606
65.72000 528.285
65.73000 553.275
65.74000 586.849
65.75000 621.979
65.76000 650.923
65.77000 701.313
65.78000 744.743
65.79000 785.677
65.80000 819.581
65.81000 853.061
65.82000 875.464
65.83000 876.752
65.84000 877.528
65.85000 877.962
65.86000 915.576
65.87000 941.671
65.88000 942.222
65.89000 921.928
65.90000 901.593
65.91000 879.402
65.92000 856.206
65.93000 833.934
65.94000 802.622
65.95000 770.231
65.96000 737.246
65.97000 698.675
65.98000 658.731
65.99000 615.765
66.00000 555.505
66.01000 492.499
66.02000 441.866
66.03000 415.851
66.04000 396.658
66.05000 376.823
66.06000 355.375
66.07000 333.848
66.08000 318.126
66.09000 312.268
66.10000 306.573
66.11000 303.563
66.12000 293.890
66.13000 287.343
66.14000 284.980
66.15000 285.639
66.16000 286.165
66.17000 282.357
66.18000 276.455
66.19000 270.846
66.20000 269.391
66.21000 269.302
66.22000 270.185
66.23000 278.893
66.24000 289.305
66.25000 298.940
66.26000 304.671
66.27000 309.862
66.28000 313.922
66.29000 323.081
66.30000 330.718
66.31000 337.195
66.32000 341.066
66.33000 344.840
66.34000 353.651
66.35000 370.077
66.36000 386.579
66.37000 393.135
66.38000 389.919
66.39000 386.761
66.40000 388.468
66.41000 393.294
66.42000 397.799
66.43000 394.344
66.44000 387.454
66.45000 380.982
66.46000 382.741
66.47000 386.534
66.48000 389.336
66.49000 385.242
66.50000 379.824
66.51000 374.173
66.52000 367.487
66.53000 360.678
66.54000 355.505
66.55000 339.628
66.56000 326.591
66.57000 315.612
66.58000 308.762
66.59000 302.027
66.60000 299.215
66.61000 301.661
66.62000 304.132
66.63000 302.733
66.64000 298.002
66.65000 293.330
66.66000 291.824
66.67000 292.126
66.68000 292.098
66.69000 285.649
66.70000 276.724
66.71000 268.451
66.72000 272.516
66.73000 279.054
66.74000 285.319
66.75000 289.925
66.76000 294.251
66.77000 298.488
66.78000 302.371
66.79000 306.218
66.80000 309.049
66.81000 304.566
66.82000 300.795
66.83000 299.775
66.84000 303.678
66.85000 307.679
66.86000 310.264
66.87000 311.170
66.88000 312.071
66.89000 315.683
66.90000 321.327
66.91000 326.830
66.92000 327.000
66.93000 324.459
66.94000 321.995
66.95000 320.759
66.96000 319.946
66.97000 319.203
66.98000 319.126
66.99000 319.193
67.00000 320.257
67.01000 326.630
67.02000 333.783
67.03000 338.578
67.04000 335.109
67.05000 330.927
67.06000 327.952
67.07000 330.996
67.08000 333.507
67.09000 333.379
67.10000 329.046
67.11000 324.659
67.12000 324.910
67.13000 329.993
67.14000 335.049
67.15000 339.210
67.16000 342.723
67.17000 346.132
67.18000 346.641
67.19000 345.835
67.20000 345.300
67.21000 348.286
67.22000 352.354
67.23000 356.011
67.24000 354.646
67.25000 352.557
67.26000 350.504
67.27000 348.619
67.28000 346.756
67.29000 347.637
67.30000 357.075
67.31000 367.129
67.32000 374.020
67.33000 371.461
67.34000 369.317
67.35000 370.723
67.36000 377.151
67.37000 383.611
67.38000 382.613
67.39000 374.800
67.40000 367.061
67.41000 368.618
67.42000 375.613
67.43000 382.430
67.44000 385.413
67.45000 386.842
67.46000 388.064
67.47000 387.046
67.48000 385.416
67.49000 383.976
67.50000 382.147
67.51000 380.508
67.52000 380.829
67.53000 389.297
67.54000 398.658
67.55000 406.699
67.56000 411.066
67.57000 415.216
67.58000 417.948
67.59000 417.240
67.60000 416.660
67.61000 416.870
67.62000 418.071
67.63000 419.283
67.64000 423.778
67.65000 430.916
67.66000 437.949
67.67000 437.119
67.68000 432.227
67.69000 427.673
67.70000 428.943
67.71000 432.322
67.72000 434.923
67.73000 430.359
67.74000 424.056
67.75000 418.591
67.76000 432.113
67.77000 446.156
67.78000 455.757
67.79000 448.965
67.80000 440.645
67.81000 437.997
67.82000 449.444
67.83000 461.554
67.84000 469.187
67.85000 465.292
67.86000 462.341
67.87000 460.998
67.88000 461.431
67.89000 461.857
67.90000 461.163
67.91000 459.670
67.92000 458.209
67.93000 459.590
67.94000 462.221
67.95000 465.208
67.96000 473.206
67.97000 482.822
67.98000 490.877
67.99000 486.576
68.00000 479.619
68.01000 473.711
68.02000 486.002
68.03000 498.396
68.04000 507.067
68.05000 503.511
68.06000 498.999
68.07000 497.087
68.08000 500.946
68.09000 505.015
68.10000 507.461
68.11000 520.859
68.12000 530.458
68.13000 534.505
68.14000 533.173
68.15000 531.873
68.16000 533.168
68.17000 536.105
68.18000 538.959
68.19000 539.591
68.20000 539.290
68.21000 540.003
68.22000 552.584
68.23000 568.582
68.24000 581.928
68.25000 577.082
68.26000 568.791
68.27000 561.904
68.28000 570.442
68.29000 579.000
68.30000 586.327
68.31000 590.047
68.32000 593.535
68.33000 601.304
68.34000 617.558
68.35000 634.042
68.36000 643.450
68.37000 630.482
68.38000 621.387
68.39000 628.570
68.40000 649.613
68.41000 670.408
68.42000 678.367
68.43000 679.092
68.44000 679.791
68.45000 676.174
68.46000 671.232
68.47000 667.458
68.48000 675.243
68.49000 685.986
68.50000 698.426
68.51000 721.025
68.52000 745.313
68.53000 765.001
68.54000 773.181
68.55000 778.905
68.56000 787.351
68.57000 802.913
68.58000 818.846
68.59000 837.097
68.60000 859.441
68.61000 881.863
68.62000 893.955
68.63000 954.089
68.64000 995.293
68.65000 1041.824
68.66000 1092.361
68.67000 1142.498
68.68000 1178.067
68.69000 1206.315
68.70000 1233.255
68.71000 1288.017
68.72000 1347.602
68.73000 1406.876
68.74000 1463.519
68.75000 1519.564
68.76000 1570.980
68.77000 1598.080
68.78000 1621.654
68.79000 1640.266
68.80000 1691.743
68.81000 1735.288
68.82000 1786.099
68.83000 1853.870
68.84000 1922.338
68.85000 2017.264
68.86000 2153.807
68.87000 2290.856
68.88000 2360.308
68.89000 2687.339
68.90000 2908.888
68.91000 3389.895
68.92000 4043.980
68.93000 4726.126
68.94000 6169.092
68.95000 7953.364
68.96000 9635.925
68.97000 12888.108
68.98000 16303.372
68.99000 19790.893
69.00000 23806.236
69.01000 27927.393
69.02000 31914.686
69.03000 35281.789
69.04000 38571.000
69.05000 41095.063
69.06000 43336.934
69.07000 45092.852
69.08000 46401.414
69.09000 46777.508
69.10000 47124.543
69.11000 47397.152
69.12000 47565.809
69.13000 47733.707
69.14000 48112.355
69.15000 48680.355
69.16000 49246.582
69.17000 49702.520
69.18000 50093.027
69.19000 50429.117
69.20000 49619.887
69.21000 48351.801
69.22000 47170.969
69.23000 44391.953
69.24000 41489.277
69.25000 38648.262
69.26000 36199.078
69.27000 33818.988
69.28000 31565.773
69.29000 29833.033
69.30000 28156.402
69.31000 26908.828
69.32000 25868.963
69.33000 25069.256
69.34000 24385.205
69.35000 23916.254
69.36000 23452.139
69.37000 22783.041
69.38000 21860.576
69.39000 20939.070
69.40000 19526.451
69.41000 17731.971
69.42000 15932.801
69.43000 13935.646
69.44000 11833.808
69.45000 9759.595
69.46000 8150.713
69.47000 6708.283
69.48000 5383.732
69.49000 4422.146
69.50000 3641.814
69.51000 2917.795
69.52000 2507.097
69.53000 2144.730
69.54000 1831.042
69.55000 1694.720
69.56000 1574.633
69.57000 1488.206
69.58000 1405.225
69.59000 1341.808
69.60000 1280.746
69.61000 1223.588
69.62000 1166.489
69.63000 1125.234
69.64000 1101.235
69.65000 1077.348
69.66000 1048.120
69.67000 1015.474
69.68000 983.033
69.69000 956.858
69.70000 933.640
69.71000 911.266
69.72000 900.526
69.73000 893.498
69.74000 887.143
69.75000 871.028
69.76000 855.026
69.77000 839.397
69.78000 825.596
69.79000 812.040
69.80000 798.141
69.81000 783.129
69.82000 768.033
69.83000 757.553
69.84000 751.620
69.85000 747.272
69.86000 740.746
69.87000 731.008
69.88000 721.243
69.89000 712.451
69.90000 704.590
69.91000 696.792
69.92000 685.794
69.93000 673.024
69.94000 660.452
69.95000 652.497
69.96000 646.487
69.97000 641.140
69.98000 643.408
69.99000 647.840
70.00000 651.782
