20.00000 567.986
20.01000 575.843
20.02000 584.823
20.03000 590.919
20.04000 585.776
20.05000 579.501
20.06000 574.897
20.07000 565.583
20.08000 558.195
20.09000 554.060
20.10000 555.685
20.11000 557.420
20.12000 563.154
20.13000 573.574
20.14000 583.973
20.15000 588.713
20.16000 589.183
20.17000 589.496
20.18000 584.029
20.19000 575.651
20.20000 567.463
20.21000 562.218
20.22000 557.975
20.23000 554.103
20.24000 550.485
20.25000 547.326
20.26000 545.691
20.27000 552.082
20.28000 559.640
20.29000 564.534
20.30000 560.191
20.31000 555.063
20.32000 551.427
20.33000 561.426
20.34000 569.457
20.35000 575.686
20.36000 579.072
20.37000 582.423
20.38000 588.136
20.39000 596.282
20.40000 604.382
20.41000 593.774
20.42000 570.965
20.43000 549.118
20.44000 553.507
20.45000 569.690
20.46000 584.321
20.47000 579.179
20.48000 568.030
20.49000 558.019
20.50000 560.316
20.51000 564.489
20.52000 567.491
20.53000 565.053
20.54000 561.930
20.55000 560.410
20.56000 563.840
20.57000 567.619
20.58000 570.201
20.59000 574.431
20.60000 577.634
20.61000 574.737
20.62000 563.299
20.63000 551.810
20.64000 551.583
20.65000 561.528
20.66000 571.375
20.67000 568.843
20.68000 559.160
20.69000 550.104
20.70000 554.321
20.71000 563.866
20.72000 572.855
20.73000 575.892
20.74000 577.319
20.75000 578.579
20.76000 569.978
20.77000 561.056
20.78000 554.282
20.79000 556.343
20.80000 559.359
20.81000 562.284
20.82000 564.957
20.83000 567.616
20.84000 569.360
20.85000 562.762
20.86000 557.771
20.87000 553.481
20.88000 550.061
20.89000 546.657
20.90000 547.576
20.91000 551.938
20.92000 556.233
20.93000 554.804
20.94000 550.475
20.95000 546.357
20.96000 545.815
20.97000 546.555
20.98000 547.120
20.99000 546.105
21.00000 544.711
21.01000 543.504
21.02000 547.756
21.03000 552.090
21.04000 556.504
21.05000 561.206
21.06000 565.936
21.07000 570.229
21.08000 573.451
21.09000 576.623
21.10000 578.615
21.11000 572.224
21.12000 567.513
21.13000 565.302
21.14000 565.821
21.15000 566.338
21.16000 566.351
21.17000 566.010
21.18000 565.675
21.19000 566.166
21.20000 567.012
21.21000 567.550
21.22000 563.814
21.23000 558.711
21.24000 553.771
21.25000 550.102
21.26000 546.703
21.27000 543.822
21.28000 538.839
21.29000 534.427
21.30000 532.381
21.31000 538.029
21.32000 544.269
21.33000 549.389
21.34000 552.048
21.35000 554.618
21.36000 556.157
21.37000 552.825
21.38000 550.429
21.39000 550.401
21.40000 552.641
21.41000 554.826
21.42000 552.738
21.43000 547.974
21.44000 543.348
21.45000 543.468
21.46000 545.483
21.47000 546.968
21.48000 542.331
21.49000 535.949
21.50000 531.327
21.51000 538.632
21.52000 548.171
21.53000 556.078
21.54000 556.581
21.55000 556.289
21.56000 557.214
21.57000 561.667
21.58000 566.344
21.59000 567.083
21.60000 560.100
21.61000 552.912
21.62000 548.830
21.63000 556.524
21.64000 561.920
21.65000 567.758
21.66000 573.968
21.67000 580.124
21.68000 583.497
21.69000 585.319
21.70000 587.072
21.71000 587.047
21.72000 586.395
21.73000 586.716
21.74000 596.528
21.75000 608.744
21.76000 619.171
21.77000 619.017
21.78000 617.126
21.79000 615.597
21.80000 617.886
21.81000 620.055
21.82000 624.707
21.83000 635.780
21.84000 647.182
21.85000 657.475
21.86000 665.829
21.87000 674.148
21.88000 678.610
21.89000 689.225
21.90000 696.488
21.91000 705.988
21.92000 717.153
21.93000 728.476
21.94000 745.428
21.95000 765.181
21.96000 784.001
21.97000 798.158
21.98000 809.824
21.99000 819.032
22.00000 807.709
22.01000 791.778
22.02000 780.114
22.03000 790.616
22.04000 804.293
22.05000 815.065
22.06000 807.689
22.07000 800.565
22.08000 795.324
22.09000 794.436
22.10000 793.722
22.11000 784.799
22.12000 763.101
22.13000 741.254
22.14000 730.246
22.15000 743.199
22.16000 751.619
22.17000 736.960
22.18000 707.067
22.19000 677.738
22.20000 663.342
22.21000 655.577
22.22000 648.263
22.23000 637.947
22.24000 627.682
22.25000 617.594
22.26000 608.781
22.27000 600.222
22.28000 592.449
22.29000 588.281
22.30000 584.560
22.31000 581.712
22.32000 572.098
22.33000 564.140
22.34000 560.560
22.35000 566.015
22.36000 571.744
22.37000 570.859
22.38000 560.834
22.39000 550.756
22.40000 548.577
22.41000 553.430
22.42000 558.140
22.43000 554.301
22.44000 545.443
22.45000 536.942
22.46000 535.815
22.47000 537.613
22.48000 539.285
22.49000 537.772
22.50000 535.637
22.51000 534.099
22.52000 536.309
22.53000 539.173
22.54000 541.598
22.55000 542.237
22.56000 542.688
22.57000 543.021
22.58000 540.813
22.59000 538.986
22.60000 534.292
22.61000 524.322
22.62000 514.237
22.63000 511.726
22.64000 518.473
22.65000 525.230
22.66000 532.023
22.67000 538.810
22.68000 545.382
22.69000 543.114
22.70000 536.219
22.71000 529.821
22.72000 531.634
22.73000 536.354
22.74000 540.682
22.75000 537.583
22.76000 533.253
22.77000 529.839
22.78000 531.469
22.79000 533.867
22.80000 534.979
22.81000 531.454
22.82000 527.512
22.83000 524.683
22.84000 526.118
22.85000 527.363
22.86000 526.735
22.87000 523.038
22.88000 519.296
22.89000 516.670
22.90000 515.247
22.91000 513.830
22.92000 516.784
22.93000 522.717
22.94000 528.542
22.95000 531.178
22.96000 532.323
22.97000 532.777
22.98000 523.872
22.99000 512.009
23.00000 501.298
23.01000 513.206
23.02000 527.840
23.03000 538.991
23.04000 533.274
23.05000 525.324
23.06000 518.211
23.07000 513.785
23.08000 509.562
23.09000 506.640
23.10000 500.612
23.11000 495.997
23.12000 495.279
23.13000 500.242
23.14000 505.253
23.15000 505.673
23.16000 501.759
23.17000 497.878
23.18000 503.045
23.19000 513.609
23.20000 523.804
23.21000 525.538
23.22000 523.742
23.23000 521.615
23.24000 515.750
23.25000 508.832
23.26000 502.691
23.27000 516.537
23.28000 531.738
23.29000 542.005
23.30000 531.143
23.31000 517.872
23.32000 509.252
23.33000 513.951
23.34000 519.475
23.35000 523.150
23.36000 526.120
23.37000 528.303
23.38000 527.317
23.39000 522.239
23.40000 517.142
23.41000 511.230
23.42000 504.642
23.43000 498.140
23.44000 498.981
23.45000 503.733
23.46000 508.437
23.47000 512.276
23.48000 515.792
23.49000 518.121
23.50000 509.070
23.51000 497.174
23.52000 486.808
23.53000 492.696
23.54000 499.975
23.55000 505.633
23.56000 505.126
23.57000 504.019
23.58000 502.686
23.59000 500.773
23.60000 498.831
23.61000 497.594
23.62000 508.286
23.63000 516.212
23.64000 515.051
23.65000 503.530
23.66000 492.051
23.67000 489.736
23.68000 494.151
23.69000 498.482
23.70000 501.254
23.71000 503.188
23.72000 505.074
23.73000 506.255
23.74000 507.202
23.75000 507.643
23.76000 503.928
23.77000 499.293
23.78000 495.335
23.79000 504.763
23.80000 514.295
23.81000 519.926
23.82000 512.371
23.83000 503.737
23.84000 498.290
23.85000 500.118
23.86000 502.230
23.87000 503.515
23.88000 501.032
23.89000 499.229
23.90000 498.459
23.91000 498.723
23.92000 498.929
23.93000 493.809
23.94000 485.216
23.95000 476.850
23.96000 479.769
23.97000 487.270
23.98000 494.657
23.99000 500.653
24.00000 506.238
24.01000 511.417
24.02000 513.723
24.03000 515.466
24.04000 516.922
24.05000 508.287
24.06000 500.099
24.07000 492.261
24.08000 485.482
24.09000 478.774
24.10000 475.291
24.11000 478.383
24.12000 481.668
24.13000 483.568
24.14000 502.424
24.15000 515.702
24.16000 519.961
24.17000 516.294
24.18000 512.690
24.19000 512.615
24.20000 514.587
24.21000 516.491
24.22000 514.842
24.23000 511.977
24.24000 508.480
24.25000 498.459
24.26000 486.717
24.27000 477.194
24.28000 481.397
24.29000 487.958
24.30000 493.310
24.31000 494.699
24.32000 495.496
24.33000 495.578
24.34000 493.735
24.35000 491.786
24.36000 491.365
24.37000 493.722
24.38000 496.137
24.39000 497.459
24.40000 501.469
24.41000 504.211
24.42000 502.122
24.43000 496.285
24.44000 490.596
24.45000 490.701
24.46000 493.802
24.47000 496.767
24.48000 494.370
24.49000 490.394
24.50000 486.383
24.51000 482.071
24.52000 477.687
24.53000 475.017
24.54000 481.644
24.55000 489.666
24.56000 496.043
24.57000 486.812
24.58000 478.263
24.59000 472.695
24.60000 474.285
24.61000 476.189
24.62000 479.333
24.63000 484.487
24.64000 489.669
24.65000 492.338
24.66000 481.829
24.67000 474.814
24.68000 475.162
24.69000 480.571
24.70000 485.879
24.71000 488.255
24.72000 489.278
24.73000 490.246
24.74000 485.645
24.75000 479.819
24.76000 474.564
24.77000 473.624
24.78000 473.576
24.79000 473.948
24.80000 476.327
24.81000 478.968
24.82000 481.009
24.83000 476.753
24.84000 473.009
24.85000 470.239
24.86000 469.563
24.87000 468.956
24.88000 468.505
24.89000 468.280
24.90000 468.056
24.91000 474.115
24.92000 486.015
24.93000 497.801
24.94000 501.652
24.95000 500.655
24.96000 499.546
24.97000 495.918
24.98000 491.252
24.99000 486.892
25.00000 477.591
25.01000 467.908
25.02000 460.645
25.03000 469.296
25.04000 480.846
25.05000 488.926
25.06000 482.336
25.07000 474.101
25.08000 467.925
25.09000 470.765
25.10000 473.411
25.11000 475.377
25.12000 476.040
25.13000 476.672
25.14000 474.717
25.15000 469.465
25.16000 464.208
25.17000 466.266
25.18000 474.291
25.19000 482.210
25.20000 485.257
25.21000 485.654
25.22000 486.230
25.23000 489.988
25.24000 494.916
25.25000 499.458
25.26000 497.765
25.27000 494.873
25.28000 491.437
25.29000 484.881
25.30000 477.827
25.31000 472.880
25.32000 475.840
25.33000 479.556
25.34000 482.252
25.35000 478.083
25.36000 474.621
25.37000 474.434
25.38000 479.831
25.39000 485.323
25.40000 484.015
25.41000 475.062
25.42000 466.135
25.43000 464.824
25.44000 468.998
25.45000 473.117
25.46000 475.421
25.47000 476.843
25.48000 477.909
25.49000 473.814
25.50000 468.024
25.51000 462.768
25.52000 464.229
25.53000 466.817
25.54000 468.871
25.55000 468.230
25.56000 467.215
25.57000 466.498
25.58000 466.778
25.59000 467.138
25.60000 467.390
25.61000 478.401
25.62000 487.038
25.63000 490.483
25.64000 486.048
25.65000 481.530
25.66000 477.616
25.67000 474.298
25.68000 471.003
25.69000 472.735
25.70000 477.625
25.71000 482.204
25.72000 479.009
25.73000 472.445
25.74000 466.181
25.75000 463.515
25.76000 461.902
25.77000 460.461
25.78000 462.144
25.79000 464.133
25.80000 466.393
25.81000 469.862
25.82000 473.475
25.83000 476.174
25.84000 476.155
25.85000 475.955
25.86000 475.820
25.87000 463.051
25.88000 453.284
25.89000 450.445
25.90000 456.933
25.91000 463.462
25.92000 464.183
25.93000 459.869
25.94000 455.604
25.95000 455.689
25.96000 458.203
25.97000 460.783
25.98000 464.650
25.99000 469.016
26.00000 473.391
26.01000 477.861
26.02000 482.356
26.03000 486.298
26.04000 481.684
26.05000 476.478
26.06000 472.224
26.07000 471.737
26.08000 471.638
26.09000 470.959
26.10000 468.740
26.11000 466.438
26.12000 464.949
26.13000 461.038
26.14000 458.141
26.15000 456.856
26.16000 457.487
26.17000 458.118
26.18000 457.743
26.19000 456.598
26.20000 455.472
26.21000 457.109
26.22000 460.054
26.23000 463.281
26.24000 470.966
26.25000 480.192
26.26000 487.241
26.27000 475.461
26.28000 459.334
26.29000 445.465
26.30000 452.195
26.31000 460.470
26.32000 466.422
26.33000 464.203
26.34000 461.275
26.35000 460.238
26.36000 463.686
26.37000 467.325
26.38000 469.575
26.39000 465.863
26.40000 463.139
26.41000 462.458
26.42000 463.914
26.43000 465.330
26.44000 462.171
26.45000 455.910
26.46000 449.797
26.47000 444.749
26.48000 440.384
26.49000 436.516
26.50000 439.120
26.51000 443.719
26.52000 447.605
26.53000 446.170
26.54000 443.650
26.55000 441.528
26.56000 446.160
26.57000 450.746
26.58000 454.738
26.59000 456.874
26.60000 458.874
26.61000 460.892
26.62000 462.946
26.63000 465.002
26.64000 466.212
26.65000 451.306
26.66000 440.710
26.67000 439.935
26.68000 448.172
26.69000 456.381
26.70000 462.696
26.71000 467.869
26.72000 472.879
26.73000 467.959
26.74000 459.483
26.75000 451.613
26.76000 450.372
26.77000 450.950
26.78000 450.663
26.79000 444.782
26.80000 437.896
26.81000 432.232
26.82000 443.246
26.83000 453.809
26.84000 460.663
26.85000 457.153
26.86000 453.029
26.87000 452.210
26.88000 457.638
26.89000 463.213
26.90000 466.324
26.91000 448.742
26.92000 436.547
26.93000 431.180
26.94000 431.333
26.95000 431.453
26.96000 430.122
26.97000 428.012
26.98000 425.987
26.99000 435.825
27.00000 449.049
27.01000 460.322
27.02000 453.498
27.03000 442.265
27.04000 433.656
27.05000 439.916
27.06000 448.514
27.07000 455.410
27.08000 450.255
27.09000 445.167
27.10000 444.758
27.11000 456.024
27.12000 467.844
27.13000 473.876
27.14000 470.158
27.15000 466.283
27.16000 464.245
27.17000 462.779
27.18000 461.747
27.19000 454.986
27.20000 444.127
27.21000 433.616
27.22000 434.265
27.23000 440.266
27.24000 445.963
27.25000 443.621
27.26000 439.053
27.27000 435.289
27.28000 437.927
27.29000 441.947
27.30000 444.943
27.31000 442.838
27.32000 440.034
27.33000 437.845
27.34000 450.511
27.35000 461.543
27.36000 466.377
27.37000 457.401
27.38000 447.917
27.39000 443.511
27.40000 446.715
27.41000 449.993
27.42000 452.424
27.43000 454.029
27.44000 455.628
27.45000 456.656
27.46000 457.321
27.47000 457.639
27.48000 449.504
27.49000 437.749
27.50000 426.721
27.51000 432.791
27.52000 442.826
27.53000 451.275
27.54000 448.799
27.55000 444.245
27.56000 440.347
27.57000 439.343
27.58000 438.679
27.59000 438.177
27.60000 447.819
27.61000 455.908
27.62000 459.027
27.63000 452.263
27.64000 445.228
27.65000 440.922
27.66000 440.244
27.67000 439.585
27.68000 443.383
27.69000 450.976
27.70000 458.348
27.71000 454.142
27.72000 443.386
27.73000 433.455
27.74000 439.293
27.75000 451.161
27.76000 462.152
27.77000 448.841
27.78000 431.255
27.79000 416.601
27.80000 419.575
27.81000 425.493
27.82000 431.607
27.83000 438.484
27.84000 445.438
27.85000 450.543
27.86000 447.660
27.87000 445.107
27.88000 444.999
27.89000 449.228
27.90000 453.540
27.91000 455.231
27.92000 453.845
27.93000 452.457
27.94000 446.157
27.95000 436.215
27.96000 426.585
27.97000 428.484
27.98000 436.198
27.99000 443.230
28.00000 439.722
28.01000 432.615
28.02000 426.129
28.03000 433.695
28.04000 443.247
28.05000 451.446
28.06000 452.507
28.07000 452.528
28.08000 451.057
28.09000 444.407
28.10000 437.315
28.11000 432.285
28.12000 437.095
28.13000 441.064
28.14000 443.619
28.15000 443.941
28.16000 444.235
28.17000 446.791
28.18000 451.681
28.19000 456.543
28.20000 452.368
28.21000 442.277
28.22000 432.595
28.23000 434.140
28.24000 440.742
28.25000 446.913
28.26000 447.594
28.27000 446.605
28.28000 445.716
28.29000 450.655
28.30000 456.004
28.31000 459.495
28.32000 454.345
28.33000 448.105
28.34000 443.245
28.35000 442.656
28.36000 442.370
28.37000 442.175
28.38000 438.838
28.39000 436.267
28.40000 433.822
28.41000 431.554
28.42000 429.286
28.43000 426.054
28.44000 421.950
28.45000 417.885
28.46000 419.206
28.47000 423.637
28.48000 427.999
28.49000 430.863
28.50000 433.126
28.51000 435.010
28.52000 432.843
28.53000 429.577
28.54000 426.696
28.55000 430.591
28.56000 434.987
28.57000 438.516
28.58000 438.469
28.59000 438.036
28.60000 436.361
28.61000 431.261
28.62000 425.962
28.63000 422.484
28.64000 424.699
28.65000 426.425
28.66000 427.172
28.67000 426.707
28.68000 426.228
28.69000 422.749
28.70000 416.875
28.71000 411.090
28.72000 412.083
28.73000 416.535
28.74000 420.665
28.75000 419.331
28.76000 416.035
28.77000 413.049
28.78000 412.889
28.79000 413.408
28.80000 413.858
28.81000 414.862
28.82000 415.790
28.83000 417.035
28.84000 419.438
28.85000 421.949
28.86000 422.337
28.87000 417.498
28.88000 412.416
28.89000 409.224
28.90000 413.767
28.91000 417.138
28.92000 415.695
28.93000 408.988
28.94000 402.305
28.95000 399.348
28.96000 399.023
28.97000 398.705
28.98000 410.533
28.99000 427.413
29.00000 443.313
29.01000 445.628
29.02000 443.590
29.03000 440.388
29.04000 428.067
29.05000 413.805
29.06000 401.710
29.07000 400.995
29.08000 401.681
29.09000 403.452
29.10000 408.760
29.11000 414.340
29.12000 419.489
29.13000 423.686
29.14000 427.850
29.15000 430.343
29.16000 419.711
29.17000 412.078
29.18000 409.417
29.19000 411.523
29.20000 413.664
29.21000 418.571
29.22000 425.213
29.23000 431.664
29.24000 429.628
29.25000 424.287
29.26000 418.893
29.27000 412.883
29.28000 406.697
29.29000 402.519
29.30000 411.978
29.31000 423.996
29.32000 433.960
29.33000 433.096
29.34000 431.344
29.35000 429.644
29.36000 428.099
29.37000 426.564
29.38000 423.826
29.39000 418.724
29.40000 413.560
29.41000 410.625
29.42000 410.088
29.43000 409.728
29.44000 412.860
29.45000 418.938
29.46000 424.922
29.47000 426.234
29.48000 424.935
29.49000 423.684
29.50000 420.841
29.51000 417.610
29.52000 414.979
29.53000 418.219
29.54000 422.948
29.55000 426.829
29.56000 425.681
29.57000 423.705
29.58000 422.106
29.59000 418.131
29.60000 414.704
29.61000 411.183
29.62000 407.418
29.63000 403.641
29.64000 403.000
29.65000 407.854
29.66000 412.809
29.67000 415.470
29.68000 413.226
29.69000 411.702
29.70000 412.603
29.71000 415.311
29.72000 417.946
29.73000 417.961
29.74000 416.670
29.75000 415.439
29.76000 421.995
29.77000 430.505
29.78000 438.132
29.79000 438.374
29.80000 436.956
29.81000 436.115
29.82000 438.277
29.83000 440.871
29.84000 442.915
29.85000 439.359
29.86000 436.133
29.87000 434.727
29.88000 437.535
29.89000 440.512
29.90000 444.355
29.91000 449.548
29.92000 454.756
29.93000 457.382
29.94000 454.101
29.95000 451.923
29.96000 451.364
29.97000 451.875
29.98000 452.560
29.99000 457.884
30.00000 465.272
30.01000 472.232
30.02000 465.084
30.03000 454.661
30.04000 445.653
30.05000 446.864
30.06000 450.106
30.07000 454.948
30.08000 467.137
30.09000 480.239
30.10000 490.271
30.11000 467.314
30.12000 447.383
30.13000 438.943
30.14000 454.255
30.15000 470.290
30.16000 475.195
30.17000 464.692
30.18000 454.095
30.19000 444.944
30.20000 437.092
30.21000 429.301
30.22000 425.231
30.23000 423.348
30.24000 421.637
30.25000 423.469
30.26000 426.709
30.27000 429.723
30.28000 431.223
30.29000 432.211
30.30000 433.870
30.31000 439.750
30.32000 446.366
30.33000 451.992
30.34000 453.594
30.35000 454.766
30.36000 455.637
30.37000 449.468
30.38000 444.364
30.39000 438.426
30.40000 430.949
30.41000 423.439
30.42000 422.649
30.43000 430.089
30.44000 437.536
30.45000 439.560
30.46000 437.325
30.47000 435.231
30.48000 438.942
30.49000 445.696
30.50000 452.053
30.51000 451.833
30.52000 449.279
30.53000 446.937
30.54000 450.585
30.55000 455.103
30.56000 457.546
30.57000 448.555
30.58000 437.818
30.59000 429.932
30.60000 432.348
30.61000 435.694
30.62000 438.097
30.63000 442.903
30.64000 446.661
30.65000 448.785
30.66000 448.224
30.67000 447.624
30.68000 447.586
30.69000 448.153
30.70000 448.718
30.71000 451.974
30.72000 457.052
30.73000 462.072
30.74000 465.376
30.75000 467.876
30.76000 470.351
30.77000 472.476
30.78000 474.490
30.79000 476.309
30.80000 476.464
30.81000 476.292
30.82000 476.803
30.83000 480.621
30.84000 484.878
30.85000 489.543
30.86000 495.517
30.87000 501.590
30.88000 505.794
30.89000 517.809
30.90000 527.052
30.91000 535.485
30.92000 542.735
30.93000 549.974
30.94000 557.154
30.95000 564.277
30.96000 571.340
30.97000 581.826
30.98000 594.202
30.99000 607.183
31.00000 634.094
31.01000 666.827
31.02000 698.779
31.03000 721.866
31.04000 742.455
31.05000 760.736
31.06000 809.496
31.07000 856.656
31.08000 907.092
31.09000 971.585
31.10000 1037.684
31.11000 1105.982
31.12000 1180.588
31.13000 1255.587
31.14000 1305.505
31.15000 1448.395
31.16000 1555.880
31.17000 1682.372
31.18000 1833.461
31.19000 1984.664
31.20000 2143.333
31.21000 2308.214
31.22000 2470.925
31.23000 2636.906
31.24000 2800.172
31.25000 2964.550
31.26000 3149.220
31.27000 3341.463
31.28000 3528.085
31.29000 3660.666
31.30000 3779.714
31.31000 3883.479
31.32000 3979.708
31.33000 4060.907
31.34000 4136.597
31.35000 4191.313
31.36000 4243.985
31.37000 4268.134
31.38000 4219.244
31.39000 4166.696
31.40000 4133.182
31.41000 4026.418
31.42000 3947.832
31.43000 3843.024
31.44000 3708.265
31.45000 3573.419
31.46000 3429.011
31.47000 3277.567
31.48000 3129.019
31.49000 2962.197
31.50000 2792.810
31.51000 2622.893
31.52000 2445.120
31.53000 2264.731
31.54000 2086.258
31.55000 1923.560
31.56000 1764.363
31.57000 1628.377
31.58000 1499.215
31.59000 1391.217
31.60000 1284.703
31.61000 1183.213
31.62000 1082.135
31.63000 987.030
31.64000 905.583
31.65000 824.671
31.66000 775.406
31.67000 730.840
31.68000 699.039
31.69000 671.699
31.70000 648.833
31.71000 625.963
31.72000 602.682
31.73000 579.133
31.74000 556.201
31.75000 538.786
31.76000 524.500
31.77000 510.811
31.78000 504.464
31.79000 500.295
31.80000 495.076
31.81000 482.376
31.82000 468.210
31.83000 456.372
31.84000 458.116
31.85000 460.943
31.86000 462.172
31.87000 458.582
31.88000 454.664
31.89000 450.481
31.90000 445.756
31.91000 441.015
31.92000 438.271
31.93000 446.909
31.94000 453.004
31.95000 449.572
31.96000 437.754
31.97000 426.115
31.98000 424.831
31.99000 429.561
32.00000 434.129
32.01000 428.911
32.02000 420.376
32.03000 412.327
32.04000 409.303
32.05000 407.605
32.06000 406.586
32.07000 409.767
32.08000 413.671
32.09000 416.857
32.10000 413.688
32.11000 410.551
32.12000 408.815
32.13000 410.853
32.14000 413.099
32.15000 412.316
32.16000 406.013
32.17000 399.594
32.18000 396.079
32.19000 415.382
32.20000 428.644
32.21000 429.884
32.22000 421.784
32.23000 413.723
32.24000 407.185
32.25000 401.436
32.26000 395.938
32.27000 393.524
32.28000 392.284
32.29000 391.626
32.30000 396.104
32.31000 401.786
32.32000 406.859
32.33000 408.619
32.34000 409.880
32.35000 410.884
32.36000 404.797
32.37000 399.387
32.38000 395.151
32.39000 393.743
32.40000 392.459
32.41000 392.094
32.42000 393.220
32.43000 394.367
32.44000 394.958
32.45000 401.955
32.46000 406.603
32.47000 403.336
32.48000 394.621
32.49000 386.114
32.50000 383.638
32.51000 383.951
32.52000 384.247
32.53000 386.433
32.54000 388.986
32.55000 390.919
32.56000 388.152
32.57000 384.412
32.58000 380.930
32.59000 378.682
32.60000 376.595
32.61000 374.980
32.62000 373.940
32.63000 373.149
32.64000 373.029
32.65000 374.353
32.66000 375.726
32.67000 376.612
32.68000 376.797
32.69000 376.976
32.70000 377.799
32.71000 379.223
32.72000 380.655
32.73000 382.706
32.74000 385.136
32.75000 387.262
32.76000 382.592
32.77000 375.117
32.78000 368.131
32.79000 373.113
32.80000 380.655
32.81000 387.196
32.82000 387.146
32.83000 385.893
32.84000 386.467
32.85000 394.779
32.86000 403.961
32.87000 410.851
32.88000 416.517
32.89000 420.885
32.90000 427.827
32.91000 439.700
32.92000 451.696
32.93000 457.509
32.94000 455.425
32.95000 453.316
32.96000 455.345
32.97000 460.753
32.98000 466.228
32.99000 474.813
33.00000 485.094
33.01000 494.355
33.02000 485.451
33.03000 469.850
33.04000 455.469
33.05000 446.727
33.06000 440.148
33.07000 433.597
33.08000 427.207
33.09000 420.844
33.10000 416.288
33.11000 418.525
33.12000 421.413
33.13000 423.511
33.14000 410.866
33.15000 400.588
33.16000 390.025
33.17000 378.972
33.18000 367.911
33.19000 361.914
33.20000 361.621
33.21000 361.335
33.22000 362.971
33.23000 365.979
33.24000 368.797
33.25000 365.325
33.26000 358.795
33.27000 352.507
33.28000 349.731
33.29000 348.111
33.30000 346.639
33.31000 349.833
33.32000 353.557
33.33000 356.846
33.34000 357.940
33.35000 358.727
33.36000 359.448
33.37000 359.950
33.38000 360.435
33.39000 360.774
33.40000 358.586
33.41000 356.859
33.42000 356.778
33.43000 359.203
33.44000 361.653
33.45000 362.197
33.46000 360.854
33.47000 359.521
33.48000 355.098
33.49000 348.783
33.50000 342.652
33.51000 341.148
33.52000 341.652
33.53000 342.658
33.54000 349.712
33.55000 358.539
33.56000 366.424
33.57000 363.774
33.58000 359.692
33.59000 356.098
33.60000 354.686
33.61000 353.536
33.62000 350.896
33.63000 343.815
33.64000 336.438
33.65000 331.460
33.66000 332.819
33.67000 333.964
33.68000 335.717
33.69000 338.289
33.70000 340.868
33.71000 344.972
33.72000 350.400
33.73000 355.767
33.74000 352.689
33.75000 344.955
33.76000 337.775
33.77000 341.483
33.78000 349.413
33.79000 356.274
33.80000 352.271
33.81000 345.436
33.82000 339.440
33.83000 342.988
33.84000 347.427
33.85000 351.168
33.86000 352.146
33.87000 352.839
33.88000 351.117
33.89000 342.971
33.90000 334.477
33.91000 328.979
33.92000 330.830
33.93000 332.292
33.94000 337.062
33.95000 345.774
33.96000 354.458
33.97000 354.544
33.98000 348.040
33.99000 341.647
34.00000 338.830
34.01000 337.875
34.02000 336.952
34.03000 336.547
34.04000 336.320
34.05000 336.358
34.06000 338.686
34.07000 341.544
34.08000 344.003
34.09000 340.015
34.10000 335.830
34.11000 333.092
34.12000 335.455
34.13000 338.262
34.14000 338.287
34.15000 331.703
34.16000 324.836
34.17000 320.587
34.18000 326.654
34.19000 331.113
34.20000 331.060
34.21000 326.275
34.22000 321.537
34.23000 322.060
34.24000 326.159
34.25000 330.162
34.26000 330.027
34.27000 328.091
34.28000 326.377
34.29000 327.570
34.30000 329.660
34.31000 331.197
34.32000 328.598
34.33000 325.154
34.34000 322.253
34.35000 320.927
34.36000 319.988
34.37000 321.410
34.38000 330.234
34.39000 339.596
34.40000 344.865
34.41000 341.448
34.42000 337.747
34.43000 335.567
34.44000 337.082
34.45000 338.169
34.46000 338.646
34.47000 338.561
34.48000 338.403
34.49000 333.388
34.50000 325.439
34.51000 317.740
34.52000 319.359
34.53000 324.485
34.54000 329.240
34.55000 329.935
34.56000 329.515
34.57000 328.722
34.58000 325.512
34.59000 321.866
34.60000 318.867
34.61000 321.612
34.62000 324.390
34.63000 326.050
34.64000 324.578
34.65000 322.921
34.66000 322.254
34.67000 323.462
34.68000 324.714
34.69000 325.414
34.70000 324.724
34.71000 324.250
34.72000 326.269
34.73000 330.308
34.74000 334.205
34.75000 331.744
34.76000 325.862
34.77000 320.217
34.78000 316.996
34.79000 314.810
34.80000 312.925
34.81000 313.834
34.82000 315.425
34.83000 317.078
34.84000 319.086
34.85000 321.150
34.86000 322.806
34.87000 324.691
34.88000 326.235
34.89000 326.286
34.90000 322.607
34.91000 318.751
34.92000 317.562
34.93000 320.874
34.94000 324.258
34.95000 326.040
34.96000 329.196
34.97000 331.332
34.98000 332.537
34.99000 333.074
35.00000 333.472
35.01000 329.361
35.02000 323.085
35.03000 317.126
35.04000 318.612
35.05000 322.218
35.06000 325.297
35.07000 324.171
35.08000 322.137
35.09000 320.606
35.10000 321.584
35.11000 322.907
35.12000 323.939
35.13000 315.746
35.14000 308.630
35.15000 305.229
35.16000 310.117
35.17000 315.313
35.18000 317.183
35.19000 314.063
35.20000 310.893
35.21000 311.300
35.22000 315.191
35.23000 319.032
35.24000 318.709
35.25000 315.736
35.26000 312.829
35.27000 311.524
35.28000 310.905
35.29000 310.325
35.30000 312.313
35.31000 314.803
35.32000 316.893
35.33000 316.223
35.34000 315.027
35.35000 313.782
35.36000 312.322
35.37000 310.837
35.38000 309.711
35.39000 309.877
35.40000 310.073
35.41000 308.495
35.42000 303.383
35.43000 298.174
35.44000 298.968
35.45000 307.754
35.46000 316.572
35.47000 320.642
35.48000 320.645
35.49000 320.682
35.50000 322.523
35.51000 325.386
35.52000 327.863
35.53000 322.908
35.54000 315.107
35.55000 307.882
35.56000 310.170
35.57000 314.431
35.58000 317.476
35.59000 313.200
35.60000 307.700
35.61000 304.662
35.62000 311.260
35.63000 318.832
35.64000 324.395
35.65000 318.536
35.66000 313.541
35.67000 311.624
35.68000 315.179
35.69000 318.840
35.70000 319.106
35.71000 315.379
35.72000 311.656
35.73000 311.922
35.74000 315.186
35.75000 318.278
35.76000 315.059
35.77000 308.650
35.78000 302.882
35.79000 307.055
35.80000 314.628
35.81000 321.540
35.82000 315.653
35.83000 307.836
35.84000 301.617
35.85000 303.839
35.86000 307.294
35.87000 311.021
35.88000 315.697
35.89000 320.453
35.90000 323.829
35.91000 317.973
35.92000 313.226
35.93000 309.438
35.94000 307.165
35.95000 304.912
35.96000 302.722
35.97000 300.597
35.98000 298.484
35.99000 303.206
36.00000 312.392
36.01000 321.276
36.02000 321.872
36.03000 318.731
36.04000 315.697
36.05000 314.047
36.06000 312.818
36.07000 311.714
36.08000 302.764
36.09000 293.546
36.10000 287.234
36.11000 294.471
36.12000 303.421
36.13000 309.640
36.14000 307.393
36.15000 304.544
36.16000 302.596
36.17000 301.138
36.18000 300.058
36.19000 301.733
36.20000 307.279
36.21000 312.850
36.22000 314.462
36.23000 312.484
36.24000 310.525
36.25000 305.804
36.26000 299.569
36.27000 293.776
36.28000 297.415
36.29000 304.854
36.30000 311.603
36.31000 310.930
36.32000 308.244
36.33000 305.873
36.34000 310.259
36.35000 315.080
36.36000 317.581
36.37000 310.515
36.38000 302.409
36.39000 296.632
36.40000 297.298
36.41000 298.338
36.42000 299.021
36.43000 294.212
36.44000 290.581
36.45000 287.358
36.46000 284.641
36.47000 281.946
36.48000 286.009
36.49000 295.474
36.50000 304.797
36.51000 305.015
36.52000 300.529
36.53000 296.267
36.54000 295.830
36.55000 296.768
36.56000 297.560
36.57000 297.012
36.58000 296.141
36.59000 295.387
36.60000 302.804
36.61000 310.193
36.62000 314.679
36.63000 308.528
36.64000 301.395
36.65000 296.827
36.66000 298.592
36.67000 300.652
36.68000 301.947
36.69000 305.136
36.70000 307.463
36.71000 307.127
36.72000 303.872
36.73000 300.652
36.74000 302.591
36.75000 308.180
36.76000 313.649
36.77000 307.712
36.78000 296.815
36.79000 286.846
36.80000 289.805
36.81000 296.912
36.82000 303.304
36.83000 304.081
36.84000 303.660
36.85000 303.303
36.86000 302.035
36.87000 300.869
36.88000 300.515
36.89000 302.812
36.90000 305.314
36.91000 305.958
36.92000 302.506
36.93000 298.907
36.94000 296.750
36.95000 299.352
36.96000 301.231
36.97000 302.720
36.98000 303.835
36.99000 304.948
37.00000 305.855
37.01000 306.633
37.02000 307.388
37.03000 306.486
37.04000 304.962
37.05000 303.600
37.06000 304.108
37.07000 305.150
37.08000 305.541
37.09000 301.496
37.10000 296.617
37.11000 292.570
37.12000 294.241
37.13000 296.172
37.14000 297.995
37.15000 299.503
37.16000 300.991
37.17000 303.513
37.18000 308.074
37.19000 312.688
37.20000 315.314
37.21000 310.242
37.22000 306.685
37.23000 303.886
37.24000 301.727
37.25000 299.542
37.26000 296.076
37.27000 291.892
37.28000 287.864
37.29000 291.920
37.30000 298.597
37.31000 304.743
37.32000 305.671
37.33000 305.273
37.34000 305.545
37.35000 309.792
37.36000 314.695
37.37000 318.663
37.38000 305.778
37.39000 293.926
37.40000 286.881
37.41000 292.312
37.42000 298.387
37.43000 301.151
37.44000 298.107
37.45000 294.955
37.46000 293.261
37.47000 295.830
37.48000 297.570
37.49000 295.625
37.50000 290.927
37.51000 286.245
37.52000 282.124
37.53000 278.283
37.54000 274.622
37.55000 278.068
37.56000 283.489
37.57000 288.155
37.58000 286.492
37.59000 283.403
37.60000 280.998
37.61000 282.157
37.62000 283.830
37.63000 285.148
37.64000 289.215
37.65000 292.659
37.66000 296.253
37.67000 300.192
37.68000 304.145
37.69000 305.349
37.70000 302.261
37.71000 299.123
37.72000 297.538
37.73000 290.199
37.74000 285.372
37.75000 288.544
37.76000 297.016
37.77000 305.030
37.78000 300.838
37.79000 291.207
37.80000 282.132
37.81000 288.216
37.82000 297.964
37.83000 305.602
37.84000 297.961
37.85000 287.279
37.86000 279.594
37.87000 285.687
37.88000 293.497
37.89000 299.479
37.90000 299.889
37.91000 299.907
37.92000 300.497
37.93000 302.272
37.94000 304.083
37.95000 302.133
37.96000 294.967
37.97000 287.770
37.98000 290.921
37.99000 303.311
38.00000 315.518
38.01000 316.680
38.02000 311.332
38.03000 306.027
38.04000 301.608
38.05000 297.540
38.06000 293.755
38.07000 296.931
38.08000 301.484
38.09000 305.312
38.10000 304.564
38.11000 303.014
38.12000 301.240
38.13000 298.551
38.14000 295.765
38.15000 293.695
38.16000 292.578
38.17000 291.753
38.18000 292.732
38.19000 297.044
38.20000 301.430
38.21000 305.511
38.22000 309.217
38.23000 312.916
38.24000 314.171
38.25000 313.503
38.26000 312.703
38.27000 306.460
38.28000 297.358
38.29000 288.867
38.30000 290.535
38.31000 295.813
38.32000 300.655
38.33000 310.198
38.34000 319.703
38.35000 328.639
38.36000 334.436
38.37000 339.752
38.38000 344.501
38.39000 347.197
38.40000 349.707
38.41000 351.509
38.42000 358.568
38.43000 364.149
38.44000 376.931
38.45000 401.561
38.46000 426.366
38.47000 436.872
38.48000 431.925
38.49000 426.995
38.50000 435.416
38.51000 452.973
38.52000 470.893
38.53000 499.768
38.54000 533.777
38.55000 566.789
38.56000 586.193
38.57000 601.284
38.58000 614.917
38.59000 635.459
38.60000 654.800
38.61000 674.734
38.62000 697.550
38.63000 720.748
38.64000 738.445
38.65000 738.415
38.66000 737.041
38.67000 736.089
38.68000 766.568
38.69000 790.330
38.70000 801.533
38.71000 794.362
38.72000 787.032
38.73000 786.642
38.74000 792.826
38.75000 798.960
38.76000 793.824
38.77000 781.914
38.78000 770.114
38.79000 760.858
38.80000 752.668
38.81000 742.277
38.82000 706.846
38.83000 664.345
38.84000 626.596
38.85000 606.837
38.86000 592.596
38.87000 576.198
38.88000 550.530
38.89000 523.799
38.90000 499.261
38.91000 481.023
38.92000 463.179
38.93000 451.294
38.94000 436.355
38.95000 425.240
38.96000 413.536
38.97000 401.067
38.98000 388.593
38.99000 374.956
39.00000 360.348
39.01000 345.932
39.02000 337.200
39.03000 331.759
39.04000 326.412
39.05000 322.781
39.06000 319.791
39.07000 316.357
39.08000 308.642
39.09000 299.854
39.10000 292.191
39.11000 292.283
39.12000 293.439
39.13000 293.468
39.14000 289.201
39.15000 284.513
39.16000 283.920
39.17000 293.828
39.18000 304.263
39.19000 310.922
39.20000 297.419
39.21000 287.336
39.22000 284.044
39.23000 288.525
39.24000 292.982
39.25000 291.545
39.26000 285.764
39.27000 280.092
39.28000 279.460
39.29000 281.245
39.30000 282.820
39.31000 281.273
39.32000 278.684
39.33000 276.343
39.34000 276.048
39.35000 276.208
39.36000 276.344
39.37000 278.361
39.38000 280.285
39.39000 280.847
39.40000 276.788
39.41000 272.348
39.42000 270.440
39.43000 274.333
39.44000 278.454
39.45000 280.966
39.46000 283.556
39.47000 285.407
39.48000 284.227
39.49000 280.001
39.50000 275.831
39.51000 276.844
39.52000 281.248
39.53000 285.537
39.54000 281.431
39.55000 273.993
39.56000 267.189
39.57000 268.188
39.58000 271.505
39.59000 274.291
39.60000 273.282
39.61000 271.528
39.62000 270.061
39.63000 267.986
39.64000 266.201
39.65000 264.882
39.66000 264.973
39.67000 265.160
39.68000 267.132
39.69000 272.758
39.70000 278.492
39.71000 281.814
39.72000 280.929
39.73000 280.293
39.74000 282.036
39.75000 285.876
39.76000 289.624
39.77000 288.007
39.78000 283.268
39.79000 278.691
39.80000 273.782
39.81000 269.032
39.82000 264.313
39.83000 259.917
39.84000 255.606
39.85000 252.747
39.86000 258.903
39.87000 266.615
39.88000 272.909
39.89000 270.788
39.90000 268.329
39.91000 264.433
39.92000 256.662
39.93000 248.676
39.94000 244.958
39.95000 249.028
39.96000 253.263
39.97000 255.584
39.98000 255.475
39.99000 255.407
40.00000 257.967
40.01000 262.574
40.02000 267.046
40.03000 266.107
40.04000 262.362
40.05000 258.779
40.06000 264.047
40.07000 271.843
40.08000 278.793
40.09000 278.262
40.10000 275.976
40.11000 274.168
40.12000 274.970
40.13000 276.164
40.14000 277.115
40.15000 268.893
40.16000 261.610
40.17000 255.538
40.18000 252.382
40.19000 249.355
40.20000 248.401
40.21000 250.816
40.22000 253.278
40.23000 254.548
40.24000 260.571
40.25000 264.601
40.26000 265.108
40.27000 263.185
40.28000 261.253
40.29000 259.064
40.30000 256.756
40.31000 254.573
40.32000 258.249
40.33000 263.315
40.34000 267.756
40.35000 267.439
40.36000 266.134
40.37000 264.742
40.38000 262.927
40.39000 261.057
40.40000 259.610
40.41000 257.857
40.42000 256.448
40.43000 256.701
40.44000 260.531
40.45000 264.482
40.46000 266.731
40.47000 266.520
40.48000 266.290
40.49000 263.146
40.50000 257.284
40.51000 251.453
40.52000 247.919
40.53000 245.792
40.54000 243.935
40.55000 248.175
40.56000 254.935
40.57000 261.253
40.58000 259.103
40.59000 255.010
40.60000 252.026
40.61000 256.370
40.62000 262.053
40.63000 265.877
40.64000 261.811
40.65000 256.857
40.66000 253.138
40.67000 256.080
40.68000 258.696
40.69000 260.108
40.70000 259.208
40.71000 258.250
40.72000 257.344
40.73000 256.506
40.74000 255.669
40.75000 254.195
40.76000 252.204
40.77000 250.206
40.78000 247.906
40.79000 245.442
40.80000 243.246
40.81000 245.845
40.82000 250.214
40.83000 254.242
40.84000 252.072
40.85000 248.754
40.86000 245.782
40.87000 244.807
40.88000 244.151
40.89000 244.430
40.90000 248.224
40.91000 252.356
40.92000 255.359
40.93000 252.061
40.94000 249.287
40.95000 246.338
40.96000 243.089
40.97000 239.835
40.98000 239.753
40.99000 243.252
41.00000 246.742
41.01000 247.758
41.02000 246.981
41.03000 246.260
41.04000 247.389
41.05000 249.419
41.06000 251.422
41.07000 253.035
41.08000 254.520
41.09000 255.868
41.10000 253.676
41.11000 251.053
41.12000 249.354
41.13000 252.337
41.14000 255.973
41.15000 257.962
41.16000 254.433
41.17000 250.458
41.18000 247.669
41.19000 247.130
41.20000 246.786
41.21000 246.640
41.22000 246.796
41.23000 246.954
41.24000 250.086
41.25000 256.163
41.26000 262.198
41.27000 258.283
41.28000 248.103
41.29000 238.308
41.30000 238.226
41.31000 242.368
41.32000 246.305
41.33000 247.778
41.34000 248.527
41.35000 249.196
41.36000 250.118
41.37000 250.964
41.38000 251.188
41.39000 248.627
41.40000 245.730
41.41000 244.163
41.42000 246.566
41.43000 249.235
41.44000 251.037
41.45000 253.293
41.46000 254.983
41.47000 255.116
41.48000 253.148
41.49000 251.168
41.50000 248.406
41.51000 244.964
41.52000 241.562
41.53000 241.264
41.54000 242.716
41.55000 244.044
41.56000 242.939
41.57000 240.888
41.58000 238.977
41.59000 238.479
41.60000 238.351
41.61000 238.238
41.62000 238.699
41.63000 239.179
41.64000 239.392
41.65000 238.542
41.66000 237.582
41.67000 238.194
41.68000 242.996
41.69000 248.025
41.70000 251.283
41.71000 245.224
41.72000 240.652
41.73000 238.248
41.74000 238.433
41.75000 238.616
41.76000 237.118
41.77000 234.329
41.78000 231.587
41.79000 233.390
41.80000 237.386
41.81000 241.122
41.82000 240.717
41.83000 238.876
41.84000 237.314
41.85000 238.183
41.86000 239.616
41.87000 240.848
41.88000 240.648
41.89000 240.299
41.90000 240.766
41.91000 244.113
41.92000 247.712
41.93000 250.390
41.94000 250.880
41.95000 251.275
41.96000 251.520
41.97000 242.904
41.98000 236.625
41.99000 235.100
42.00000 238.572
42.01000 242.010
42.02000 241.409
42.03000 238.059
42.04000 234.789
42.05000 234.561
42.06000 235.675
42.07000 236.471
42.08000 233.102
42.09000 228.444
42.10000 224.874
42.11000 229.446
42.12000 235.685
42.13000 240.941
42.14000 235.690
42.15000 230.178
42.16000 227.207
42.17000 232.222
42.18000 237.818
42.19000 239.690
42.20000 233.648
42.21000 227.346
42.22000 223.631
42.23000 230.204
42.24000 234.897
42.25000 236.467
42.26000 235.159
42.27000 233.855
42.28000 232.755
42.29000 231.780
42.30000 230.836
42.31000 231.615
42.32000 233.020
42.33000 234.086
42.34000 231.442
42.35000 227.778
42.36000 225.072
42.37000 228.603
42.38000 233.258
42.39000 237.090
42.40000 236.189
42.41000 235.017
42.42000 233.348
42.43000 230.286
42.44000 227.142
42.45000 226.146
42.46000 229.228
42.47000 232.408
42.48000 234.184
42.49000 232.653
42.50000 231.588
42.51000 231.734
42.52000 232.864
42.53000 234.044
42.54000 237.487
42.55000 242.150
42.56000 246.625
42.57000 247.012
42.58000 245.978
42.59000 244.258
42.60000 236.150
42.61000 226.479
42.62000 218.874
42.63000 223.023
42.64000 229.027
42.65000 233.847
42.66000 228.891
42.67000 224.131
42.68000 221.884
42.69000 225.928
42.70000 230.272
42.71000 235.041
42.72000 240.526
42.73000 246.023
42.74000 248.920
42.75000 242.121
42.76000 237.524
42.77000 236.257
42.78000 237.382
42.79000 238.417
42.80000 236.564
42.81000 233.321
42.82000 230.242
42.83000 227.011
42.84000 223.982
42.85000 221.583
42.86000 224.210
42.87000 227.927
42.88000 230.263
42.89000 225.695
42.90000 220.178
42.91000 215.869
42.92000 216.598
42.93000 217.498
42.94000 219.430
42.95000 223.669
42.96000 227.994
42.97000 228.867
42.98000 224.551
42.99000 220.183
43.00000 219.463
43.01000 222.307
43.02000 225.169
43.03000 229.558
43.04000 234.919
43.05000 240.037
43.06000 239.192
43.07000 235.786
43.08000 232.589
43.09000 226.140
43.10000 219.400
43.11000 213.525
43.12000 213.631
43.13000 214.880
43.14000 216.445
43.15000 219.413
43.16000 222.546
43.17000 224.923
43.18000 235.876
43.19000 244.920
43.20000 249.056
43.21000 243.396
43.22000 237.464
43.23000 232.154
43.24000 227.674
43.25000 223.202
43.26000 223.425
43.27000 227.670
43.28000 231.895
43.29000 235.048
43.30000 237.592
43.31000 239.837
43.32000 236.313
43.33000 230.575
43.34000 225.260
43.35000 224.842
43.36000 225.601
43.37000 225.713
43.38000 221.916
43.39000 217.464
43.40000 214.801
43.41000 219.150
43.42000 224.209
43.43000 227.928
43.44000 225.081
43.45000 222.611
43.46000 221.774
43.47000 223.843
43.48000 225.968
43.49000 226.696
43.50000 225.776
43.51000 224.856
43.52000 222.711
43.53000 219.658
43.54000 216.843
43.55000 222.877
43.56000 233.390
43.57000 243.250
43.58000 242.944
43.59000 239.158
43.60000 235.701
43.61000 233.042
43.62000 230.845
43.63000 228.064
43.64000 222.192
43.65000 215.867
43.66000 210.620
43.67000 209.126
43.68000 207.954
43.69000 207.122
43.70000 211.027
43.71000 214.149
43.72000 218.902
43.73000 226.240
43.74000 233.611
43.75000 236.211
43.76000 233.869
43.77000 231.539
43.78000 225.709
43.79000 217.632
43.80000 209.908
43.81000 211.900
43.82000 218.283
43.83000 224.418
43.84000 227.379
43.85000 229.370
43.86000 231.159
43.87000 229.704
43.88000 227.857
43.89000 225.685
43.90000 221.994
43.91000 218.110
43.92000 216.308
43.93000 220.970
43.94000 226.093
43.95000 229.599
43.96000 229.340
43.97000 229.058
43.98000 226.586
43.99000 221.035
44.00000 215.464
44.01000 213.883
44.02000 215.928
44.03000 217.953
44.04000 219.796
44.05000 221.496
44.06000 223.042
44.07000 221.324
44.08000 218.287
44.09000 215.644
44.10000 217.237
44.11000 219.981
44.12000 222.404
44.13000 224.172
44.14000 225.599
44.15000 226.291
44.16000 223.952
44.17000 221.283
44.18000 219.353
44.19000 219.473
44.20000 219.712
44.21000 219.869
44.22000 227.904
44.23000 233.951
44.24000 234.872
44.25000 229.407
44.26000 223.936
44.27000 222.653
44.28000 224.724
44.29000 226.764
44.30000 228.069
44.31000 228.954
44.32000 229.753
44.33000 229.074
44.34000 227.863
44.35000 227.087
44.36000 230.293
44.37000 234.461
44.38000 238.071
44.39000 235.473
44.40000 232.440
44.41000 229.848
44.42000 228.879
44.43000 228.059
44.44000 228.612
44.45000 232.559
44.46000 236.664
44.47000 239.247
44.48000 228.292
44.49000 220.216
44.50000 216.135
44.51000 216.440
44.52000 216.752
44.53000 217.705
44.54000 219.112
44.55000 220.489
44.56000 222.636
44.57000 225.050
44.58000 227.314
44.59000 227.503
44.60000 227.024
44.61000 227.053
44.62000 231.083
44.63000 235.968
44.64000 240.113
44.65000 239.200
44.66000 237.861
44.67000 238.169
44.68000 243.859
44.69000 249.968
44.70000 256.074
44.71000 262.173
44.72000 268.273
44.73000 271.931
44.74000 265.694
44.75000 261.198
44.76000 263.180
44.77000 271.398
44.78000 279.563
44.79000 283.478
44.80000 284.717
44.81000 285.920
44.82000 294.207
44.83000 304.934
44.84000 315.054
44.85000 318.127
44.86000 319.182
44.87000 321.614
44.88000 333.430
44.89000 347.013
44.90000 358.283
44.91000 365.603
44.92000 371.272
44.93000 376.106
44.94000 378.507
44.95000 380.753
44.96000 384.853
44.97000 392.606
44.98000 400.456
44.99000 404.926
45.00000 414.770
45.01000 421.646
45.02000 427.140
45.03000 431.463
45.04000 435.776
45.05000 439.587
45.06000 443.116
45.07000 446.515
45.08000 445.174
45.09000 442.228
45.10000 439.203
45.11000 435.392
45.12000 431.382
45.13000 426.041
45.14000 412.784
45.15000 398.218
45.16000 386.425
45.17000 381.654
45.18000 378.340
45.19000 373.952
45.20000 366.772
45.21000 359.447
45.22000 353.853
45.23000 351.305
45.24000 348.813
45.25000 347.473
45.26000 336.110
45.27000 328.349
45.28000 323.199
45.29000 320.002
45.30000 316.724
45.31000 310.540
45.32000 302.902
45.33000 295.621
45.34000 291.820
45.35000 289.388
45.36000 286.550
45.37000 280.309
45.38000 273.298
45.39000 266.913
45.40000 263.786
45.41000 261.130
45.42000 259.035
45.43000 255.273
45.44000 252.143
45.45000 249.189
45.46000 246.642
45.47000 244.112
45.48000 242.147
45.49000 241.068
45.50000 240.000
45.51000 239.460
45.52000 239.431
45.53000 239.415
45.54000 239.720
45.55000 240.237
45.56000 240.849
45.57000 244.018
45.58000 248.327
45.59000 252.389
45.60000 243.925
45.61000 232.716
45.62000 223.028
45.63000 224.383
45.64000 227.939
45.65000 229.435
45.66000 221.440
45.67000 212.261
45.68000 205.226
45.69000 206.903
45.70000 208.708
45.71000 209.606
45.72000 208.619
45.73000 207.574
45.74000 208.051
45.75000 210.640
45.76000 213.242
45.77000 212.707
45.78000 209.364
45.79000 206.096
45.80000 207.420
45.81000 211.455
45.82000 215.437
45.83000 218.330
45.84000 220.789
45.85000 223.078
45.86000 222.098
45.87000 220.420
45.88000 218.764
45.89000 217.251
45.90000 215.762
45.91000 214.388
45.92000 213.479
45.93000 212.621
45.94000 211.983
45.95000 211.901
45.96000 211.862
45.97000 212.677
45.98000 215.069
45.99000 217.496
46.00000 217.790
46.01000 215.462
46.02000 213.130
46.03000 214.133
46.04000 217.753
46.05000 221.291
46.06000 221.444
46.07000 219.816
46.08000 218.174
46.09000 216.301
46.10000 214.346
46.11000 212.552
46.12000 213.310
46.13000 214.528
46.14000 215.668
46.15000 216.373
46.16000 217.011
46.17000 216.942
46.18000 214.311
46.19000 211.447
46.20000 209.389
46.21000 213.262
46.22000 216.431
46.23000 216.154
46.24000 210.194
46.25000 204.150
46.26000 201.186
46.27000 201.557
46.28000 201.928
46.29000 206.548
46.30000 214.060
46.31000 221.239
46.32000 218.279
46.33000 210.559
46.34000 203.545
46.35000 206.182
46.36000 211.884
46.37000 217.036
46.38000 215.128
46.39000 212.141
46.40000 208.540
46.41000 201.943
46.42000 194.948
46.43000 190.751
46.44000 195.587
46.45000 201.110
46.46000 204.938
46.47000 202.679
46.48000 200.818
46.49000 201.824
46.50000 207.029
46.51000 212.271
46.52000 215.138
46.53000 215.751
46.54000 216.359
46.55000 214.258
46.56000 210.541
46.57000 207.095
46.58000 209.953
46.59000 215.454
46.60000 220.290
46.61000 217.539
46.62000 212.644
46.63000 208.294
46.64000 210.696
46.65000 213.867
46.66000 215.578
46.67000 211.001
46.68000 205.703
46.69000 201.658
46.70000 201.217
46.71000 201.002
46.72000 200.859
46.73000 201.763
46.74000 202.452
46.75000 203.340
46.76000 204.486
46.77000 205.622
46.78000 201.088
46.79000 191.818
46.80000 182.669
46.81000 186.375
46.82000 196.910
46.83000 206.929
46.84000 207.485
46.85000 204.498
46.86000 201.266
46.87000 195.669
46.88000 189.478
46.89000 184.078
46.90000 185.760
46.91000 188.185
46.92000 190.321
46.93000 191.357
46.94000 192.285
46.95000 193.725
46.96000 196.480
46.97000 199.301
46.98000 201.103
46.99000 196.423
47.00000 192.932
47.01000 194.214
47.02000 200.967
47.03000 207.718
47.04000 213.100
47.05000 217.472
47.06000 221.760
47.07000 216.458
47.08000 206.782
47.09000 197.438
47.10000 193.049
47.11000 190.315
47.12000 188.062
47.13000 189.790
47.14000 192.405
47.15000 194.639
47.16000 191.246
47.17000 187.712
47.18000 185.147
47.19000 185.874
47.20000 186.873
47.21000 187.243
47.22000 186.169
47.23000 185.037
47.24000 184.347
47.25000 187.307
47.26000 189.452
47.27000 192.052
47.28000 195.111
47.29000 198.111
47.30000 195.705
47.31000 189.755
47.32000 183.960
47.33000 181.755
47.34000 181.162
47.35000 180.923
47.36000 185.063
47.37000 190.507
47.38000 195.507
47.39000 197.333
47.40000 198.534
47.41000 199.538
47.42000 198.717
47.43000 197.849
47.44000 196.185
47.45000 192.114
47.46000 187.877
47.47000 186.064
47.48000 189.214
47.49000 192.511
47.50000 194.423
47.51000 192.290
47.52000 190.778
47.53000 191.256
47.54000 193.492
47.55000 195.640
47.56000 192.594
47.57000 186.521
47.58000 180.655
47.59000 178.702
47.60000 178.313
47.61000 178.285
47.62000 182.008
47.63000 186.727
47.64000 191.130
47.65000 193.577
47.66000 195.686
47.67000 197.409
47.68000 201.127
47.69000 204.342
47.70000 204.576
47.71000 196.753
47.72000 188.481
47.73000 184.385
47.74000 187.921
47.75000 191.620
47.76000 193.649
47.77000 194.170
47.78000 194.514
47.79000 191.486
47.80000 185.830
47.81000 180.264
47.82000 178.303
47.83000 178.215
47.84000 178.131
47.85000 179.781
47.86000 181.884
47.87000 183.785
47.88000 183.889
47.89000 183.572
47.90000 183.290
47.91000 183.207
47.92000 183.155
47.93000 183.113
47.94000 183.072
47.95000 183.039
47.96000 181.739
47.97000 177.378
47.98000 172.883
47.99000 171.379
48.00000 174.746
48.01000 178.182
48.02000 179.957
48.03000 186.043
48.04000 190.111
48.05000 190.076
48.06000 187.207
48.07000 184.450
48.08000 185.007
48.09000 187.102
48.10000 189.085
48.11000 193.394
48.12000 198.028
48.13000 201.745
48.14000 198.471
48.15000 193.744
48.16000 189.677
48.17000 188.781
48.18000 188.301
48.19000 187.929
48.20000 190.969
48.21000 193.584
48.22000 194.870
48.23000 193.293
48.24000 191.618
48.25000 188.740
48.26000 184.122
48.27000 179.490
48.28000 179.684
48.29000 184.392
48.30000 188.999
48.31000 186.458
48.32000 179.528
48.33000 172.887
48.34000 172.794
48.35000 175.412
48.36000 177.860
48.37000 178.716
48.38000 179.090
48.39000 180.013
48.40000 184.565
48.41000 189.783
48.42000 193.653
48.43000 191.800
48.44000 189.302
48.45000 187.425
48.46000 194.183
48.47000 199.879
48.48000 199.605
48.49000 187.847
48.50000 175.803
48.51000 171.036
48.52000 175.594
48.53000 180.182
48.54000 182.861
48.55000 183.964
48.56000 185.059
48.57000 185.799
48.58000 186.344
48.59000 186.857
48.60000 186.781
48.61000 186.487
48.62000 186.215
48.63000 189.245
48.64000 192.692
48.65000 194.457
48.66000 186.497
48.67000 176.975
48.68000 170.471
48.69000 175.348
48.70000 181.319
48.71000 185.660
48.72000 181.451
48.73000 177.888
48.74000 179.237
48.75000 189.005
48.76000 198.918
48.77000 200.189
48.78000 191.689
48.79000 183.208
48.80000 179.681
48.81000 179.764
48.82000 179.886
48.83000 181.355
48.84000 183.480
48.85000 185.341
48.86000 183.331
48.87000 180.044
48.88000 177.059
48.89000 178.496
48.90000 180.624
48.91000 182.145
48.92000 180.575
48.93000 178.572
48.94000 177.893
48.95000 181.652
48.96000 185.771
48.97000 188.661
48.98000 188.397
48.99000 188.106
49.00000 186.793
49.01000 183.922
49.02000 181.035
49.03000 181.770
49.04000 186.099
49.05000 190.398
49.06000 188.002
49.07000 181.379
49.08000 175.049
49.09000 176.150
49.10000 180.489
49.11000 184.258
49.12000 181.142
49.13000 176.001
49.14000 171.406
49.15000 171.094
49.16000 171.545
49.17000 172.785
49.18000 177.560
49.19000 182.763
49.20000 185.883
49.21000 182.776
49.22000 179.250
49.23000 176.869
49.24000 176.906
49.25000 176.985
49.26000 175.104
49.27000 170.572
49.28000 166.029
49.29000 165.026
49.30000 167.107
49.31000 169.165
49.32000 170.589
49.33000 171.622
49.34000 172.625
49.35000 173.033
49.36000 173.210
49.37000 173.863
49.38000 179.372
49.39000 186.150
49.40000 192.101
49.41000 183.350
49.42000 173.680
49.43000 166.909
49.44000 171.668
49.45000 177.620
49.46000 183.131
49.47000 187.464
49.48000 191.734
49.49000 194.501
49.50000 187.314
49.51000 181.905
49.52000 178.754
49.53000 178.307
49.54000 177.871
49.55000 178.752
49.56000 180.648
49.57000 182.512
49.58000 179.839
49.59000 175.003
49.60000 170.553
49.61000 172.269
49.62000 176.126
49.63000 179.719
49.64000 181.016
49.65000 181.781
49.66000 182.439
49.67000 180.197
49.68000 177.934
49.69000 177.193
49.70000 181.836
49.71000 186.950
49.72000 188.273
49.73000 180.559
49.74000 172.455
49.75000 167.434
49.76000 169.027
49.77000 170.236
49.78000 173.009
49.79000 177.430
49.80000 181.812
49.81000 181.914
49.82000 179.096
49.83000 176.344
49.84000 174.348
49.85000 172.770
49.86000 171.455
49.87000 173.602
49.88000 176.822
49.89000 179.622
49.90000 179.265
49.91000 178.260
49.92000 177.413
49.93000 178.571
49.94000 179.755
49.95000 180.566
49.96000 180.208
49.97000 179.765
49.98000 179.906
49.99000 181.294
50.00000 182.722
50.01000 183.565
50.02000 185.550
50.03000 186.958
50.04000 186.489
50.05000 184.287
50.06000 182.098
50.07000 180.734
50.08000 179.869
50.09000 179.032
50.10000 181.992
50.11000 186.264
50.12000 190.199
50.13000 190.440
50.14000 189.661
50.15000 188.331
50.16000 183.403
50.17000 177.824
50.18000 173.230
50.19000 179.918
50.20000 186.449
50.21000 190.888
50.22000 189.457
50.23000 187.675
50.24000 188.087
50.25000 192.666
50.26000 197.345
50.27000 199.963
50.28000 202.993
50.29000 205.083
50.30000 203.479
50.31000 198.872
50.32000 194.311
50.33000 191.838
50.34000 190.493
50.35000 189.201
50.36000 196.126
50.37000 205.408
50.38000 213.693
50.39000 212.669
50.40000 209.364
50.41000 206.016
50.42000 202.418
50.43000 198.781
50.44000 195.860
50.45000 202.359
50.46000 208.345
50.47000 215.782
50.48000 226.856
50.49000 238.105
50.50000 243.815
50.51000 240.143
50.52000 236.319
50.53000 234.301
50.54000 241.157
50.55000 245.826
50.56000 252.115
50.57000 259.569
50.58000 266.879
50.59000 269.523
50.60000 269.919
50.61000 270.296
50.62000 278.265
50.63000 287.910
50.64000 296.508
50.65000 296.707
50.66000 295.085
50.67000 293.066
50.68000 289.050
50.69000 284.759
50.70000 281.405
50.71000 281.186
50.72000 281.209
50.73000 281.683
50.74000 283.165
50.75000 284.685
50.76000 282.973
50.77000 276.394
50.78000 269.766
50.79000 268.529
50.80000 272.567
50.81000 276.543
50.82000 275.314
50.83000 270.761
50.84000 266.036
50.85000 257.100
50.86000 246.350
50.87000 236.259
50.88000 230.576
50.89000 226.563
50.90000 223.385
50.91000 226.007
50.92000 229.738
50.93000 231.569
50.94000 224.987
50.95000 217.404
50.96000 211.650
50.97000 206.338
50.98000 202.188
50.99000 200.723
51.00000 204.628
51.01000 208.681
51.02000 208.717
51.03000 203.386
51.04000 198.032
51.05000 195.074
51.06000 194.178
51.07000 193.257
51.08000 190.981
51.09000 187.935
51.10000 184.993
51.11000 184.064
51.12000 183.908
51.13000 183.763
51.14000 182.147
51.15000 180.352
51.16000 178.272
51.17000 174.469
51.18000 170.377
51.19000 167.638
51.20000 170.212
51.21000 173.326
51.22000 175.616
51.23000 175.825
51.24000 175.901
51.25000 175.992
51.26000 176.111
51.27000 176.230
51.28000 177.541
51.29000 180.256
51.30000 182.967
51.31000 180.208
51.32000 173.338
51.33000 166.627
51.34000 165.824
51.35000 168.015
51.36000 170.000
51.37000 168.758
51.38000 166.410
51.39000 164.265
51.40000 164.974
51.41000 166.184
51.42000 167.715
51.43000 170.950
51.44000 174.436
51.45000 176.710
51.46000 174.756
51.47000 172.438
51.48000 170.792
51.49000 170.171
51.50000 169.730
51.51000 170.104
51.52000 171.769
51.53000 173.451
51.54000 172.580
51.55000 169.059
51.56000 165.558
51.57000 162.774
51.58000 160.503
51.59000 158.222
51.60000 155.669
51.61000 152.992
51.62000 150.719
51.63000 153.652
51.64000 158.178
51.65000 162.245
51.66000 163.162
51.67000 163.407
51.68000 163.654
51.69000 163.910
51.70000 164.167
51.71000 164.115
51.72000 163.101
51.73000 162.017
51.74000 161.276
51.75000 159.018
51.76000 157.292
51.77000 156.791
51.78000 158.018
51.79000 159.257
51.80000 160.712
51.81000 162.365
51.82000 164.001
51.83000 166.979
51.84000 170.681
51.85000 174.173
51.86000 173.174
51.87000 170.359
51.88000 167.640
51.89000 165.960
51.90000 164.562
51.91000 163.328
51.92000 162.192
51.93000 161.227
51.94000 160.445
51.95000 160.419
51.96000 160.475
51.97000 161.718
51.98000 166.255
51.99000 170.985
52.00000 174.095
52.01000 169.597
52.02000 166.156
52.03000 166.123
52.04000 170.346
52.05000 174.568
52.06000 174.287
52.07000 170.393
52.08000 166.557
52.09000 162.129
52.10000 157.526
52.11000 153.319
52.12000 155.911
52.13000 160.955
52.14000 165.414
52.15000 164.495
52.16000 162.275
52.17000 160.352
52.18000 160.676
52.19000 161.250
52.20000 162.506
52.21000 166.267
52.22000 170.260
52.23000 171.872
52.24000 167.586
52.25000 163.024
52.26000 160.153
52.27000 162.553
52.28000 164.349
52.29000 163.104
52.30000 158.514
52.31000 153.964
52.32000 155.418
52.33000 161.135
52.34000 166.731
52.35000 166.698
52.36000 164.093
52.37000 161.671
52.38000 161.798
52.39000 162.746
52.40000 163.743
52.41000 165.118
52.42000 166.574
52.43000 167.811
52.44000 167.374
52.45000 166.818
52.46000 166.851
52.47000 168.816
52.48000 170.931
52.49000 170.626
52.50000 164.965
52.51000 159.111
52.52000 155.598
52.53000 153.069
52.54000 151.278
52.55000 151.165
52.56000 152.668
52.57000 154.180
52.58000 156.353
52.59000 158.942
52.60000 161.458
52.61000 160.906
52.62000 159.143
52.63000 157.466
52.64000 156.793
52.65000 156.409
52.66000 156.299
52.67000 158.059
52.68000 160.171
52.69000 161.925
52.70000 161.317
52.71000 160.586
52.72000 159.676
52.73000 158.242
52.74000 156.774
52.75000 157.704
52.76000 163.367
52.77000 169.158
52.78000 172.458
52.79000 165.695
52.80000 160.953
52.81000 159.495
52.82000 160.821
52.83000 162.147
52.84000 163.399
52.85000 164.611
52.86000 165.778
52.87000 161.633
52.88000 155.847
52.89000 151.007
52.90000 155.479
52.91000 162.327
52.92000 167.442
52.93000 162.230
52.94000 155.309
52.95000 149.703
52.96000 149.429
52.97000 149.640
52.98000 151.584
52.99000 158.041
53.00000 164.732
53.01000 167.879
53.02000 164.785
53.03000 161.573
53.04000 159.844
53.05000 165.297
53.06000 169.005
53.07000 167.655
53.08000 162.513
53.09000 157.504
53.10000 157.331
53.11000 159.578
53.12000 161.720
53.13000 162.230
53.14000 162.189
53.15000 161.909
53.16000 159.604
53.17000 156.843
53.18000 154.366
53.19000 153.385
53.20000 152.619
53.21000 152.014
53.22000 150.651
53.23000 149.507
53.24000 151.462
53.25000 160.630
53.26000 170.092
53.27000 173.168
53.28000 166.233
53.29000 159.178
53.30000 155.609
53.31000 166.069
53.32000 172.994
53.33000 172.384
53.34000 166.766
53.35000 161.359
53.36000 161.646
53.37000 164.478
53.38000 167.148
53.39000 166.254
53.40000 164.448
53.41000 163.091
53.42000 164.992
53.43000 167.545
53.44000 169.713
53.45000 170.104
53.46000 170.273
53.47000 170.402
53.48000 167.479
53.49000 165.001
53.50000 163.202
53.51000 162.814
53.52000 162.470
53.53000 161.312
53.54000 159.021
53.55000 156.723
53.56000 156.129
53.57000 157.061
53.58000 157.969
53.59000 157.341
53.60000 155.805
53.61000 154.355
53.62000 154.705
53.63000 155.773
53.64000 156.767
53.65000 157.664
53.66000 158.451
53.67000 158.887
53.68000 157.095
53.69000 154.912
53.70000 152.747
53.71000 150.654
53.72000 148.569
53.73000 147.019
53.74000 151.278
53.75000 154.848
53.76000 155.545
53.77000 150.919
53.78000 146.174
53.79000 144.916
53.80000 147.949
53.81000 150.989
53.82000 154.729
53.83000 159.004
53.84000 163.174
53.85000 163.015
53.86000 160.572
53.87000 158.015
53.88000 153.527
53.89000 148.350
53.90000 143.599
53.91000 149.230
53.92000 156.461
53.93000 162.853
53.94000 164.589
53.95000 165.609
53.96000 166.208
53.97000 165.272
53.98000 164.196
53.99000 163.423
54.00000 160.316
54.01000 157.856
54.02000 155.285
54.03000 152.527
54.04000 149.768
54.05000 151.083
54.06000 156.820
54.07000 162.533
54.08000 165.237
54.09000 165.825
54.10000 166.278
54.11000 162.595
54.12000 156.966
54.13000 151.681
54.14000 151.123
54.15000 152.068
54.16000 152.922
54.17000 155.934
54.18000 158.984
54.19000 161.663
54.20000 162.529
54.21000 163.154
54.22000 162.105
54.23000 155.648
54.24000 148.779
54.25000 144.016
54.26000 143.873
54.27000 143.887
54.28000 144.820
54.29000 147.103
54.30000 149.397
54.31000 151.874
54.32000 154.524
54.33000 157.153
54.34000 158.097
54.35000 157.992
54.36000 158.026
54.37000 161.270
54.38000 165.862
54.39000 169.694
54.40000 164.822
54.41000 157.484
54.42000 150.964
54.43000 150.047
54.44000 150.156
54.45000 151.113
54.46000 155.726
54.47000 160.760
54.48000 164.288
54.49000 163.475
54.50000 162.390
54.51000 161.667
54.52000 166.678
54.53000 170.499
54.54000 169.640
54.55000 162.691
54.56000 155.728
54.57000 154.529
54.58000 158.153
54.59000 161.730
54.60000 160.636
54.61000 157.050
54.62000 153.654
54.63000 153.760
54.64000 155.180
54.65000 156.611
54.66000 158.145
54.67000 159.704
54.68000 161.064
54.69000 160.793
54.70000 160.334
54.71000 159.827
54.72000 159.132
54.73000 158.418
54.74000 157.432
54.75000 155.744
54.76000 154.020
54.77000 152.918
54.78000 153.964
54.79000 154.754
54.80000 154.713
54.81000 153.719
54.82000 152.730
54.83000 152.826
54.84000 153.723
54.85000 154.603
54.86000 154.496
54.87000 153.922
54.88000 153.623
54.89000 157.435
54.90000 162.624
54.91000 166.965
54.92000 164.283
54.93000 160.034
54.94000 156.401
54.95000 154.731
54.96000 153.559
54.97000 152.194
54.98000 150.172
54.99000 148.095
55.00000 147.190
55.01000 148.978
55.02000 150.872
55.03000 152.028
55.04000 154.683
55.05000 156.593
55.06000 156.059
55.07000 153.060
55.08000 150.091
55.09000 150.101
55.10000 152.066
55.11000 153.980
55.12000 158.196
55.13000 163.186
55.14000 167.604
55.15000 164.928
55.16000 160.135
55.17000 156.149
55.18000 157.941
55.19000 160.871
55.20000 163.322
55.21000 161.571
55.22000 159.687
55.23000 159.334
55.24000 163.629
55.25000 168.242
55.26000 170.946
55.27000 169.733
55.28000 168.402
55.29000 167.629
55.30000 170.901
55.31000 173.212
55.32000 174.101
55.33000 173.728
55.34000 173.346
55.35000 172.363
55.36000 171.029
55.37000 169.740
55.38000 175.546
55.39000 183.658
55.40000 190.565
55.41000 184.916
55.42000 175.935
55.43000 169.636
55.44000 180.064
55.45000 193.388
55.46000 204.272
55.47000 206.224
55.48000 207.050
55.49000 206.707
55.50000 203.203
55.51000 199.521
55.52000 198.566
55.53000 202.602
55.54000 206.745
55.55000 209.020
55.56000 214.866
55.57000 218.899
55.58000 223.883
55.59000 229.609
55.60000 235.424
55.61000 244.800
55.62000 256.030
55.63000 266.774
55.64000 276.294
55.65000 284.759
55.66000 293.606
55.67000 305.842
55.68000 318.877
55.69000 333.071
55.70000 353.598
55.71000 375.083
55.72000 392.190
55.73000 413.181
55.74000 430.385
55.75000 448.078
55.76000 466.953
55.77000 485.881
55.78000 502.059
55.79000 513.752
55.80000 525.382
55.81000 531.394
55.82000 559.315
55.83000 578.121
55.84000 594.349
55.85000 608.794
55.86000 623.217
55.87000 637.011
55.88000 650.514
55.89000 663.293
55.90000 666.370
55.91000 666.397
55.92000 666.647
55.93000 668.604
55.94000 670.916
55.95000 672.997
55.96000 673.964
55.97000 674.786
55.98000 675.422
55.99000 665.382
56.00000 656.777
56.01000 646.431
56.02000 632.328
56.03000 618.097
56.04000 600.283
56.05000 577.276
56.06000 554.229
56.07000 539.960
56.08000 533.927
56.09000 527.788
56.10000 514.132
56.11000 495.852
56.12000 477.508
56.13000 457.694
56.14000 437.269
56.15000 418.173
56.16000 391.656
56.17000 365.696
56.18000 342.247
56.19000 335.438
56.20000 331.684
56.21000 325.922
56.22000 311.612
56.23000 296.335
56.24000 284.856
56.25000 278.735
56.26000 274.207
56.27000 264.877
56.28000 246.295
56.29000 227.482
56.30000 218.636
56.31000 222.592
56.32000 226.590
56.33000 224.316
56.34000 216.887
56.35000 209.469
56.36000 202.601
56.37000 196.035
56.38000 189.711
56.39000 187.744
56.40000 187.392
56.41000 187.066
56.42000 184.366
56.43000 181.419
56.44000 178.995
56.45000 179.610
56.46000 180.713
56.47000 179.947
56.48000 172.118
56.49000 163.608
56.50000 157.418
56.51000 158.599
56.52000 159.788
56.53000 159.486
56.54000 156.624
56.55000 153.717
56.56000 153.641
56.57000 156.771
56.58000 159.893
56.59000 160.900
56.60000 160.367
56.61000 159.872
56.62000 160.627
56.63000 161.994
56.64000 163.351
56.65000 164.558
56.66000 165.715
56.67000 166.767
56.68000 164.188
56.69000 161.202
56.70000 158.707
56.71000 158.714
56.72000 159.072
56.73000 158.301
56.74000 153.735
56.75000 148.861
56.76000 145.438
56.77000 144.765
56.78000 144.335
56.79000 145.494
56.80000 149.079
56.81000 152.691
56.82000 154.393
56.83000 154.197
56.84000 154.002
56.85000 151.712
56.86000 148.120
56.87000 144.792
56.88000 148.163
56.89000 154.459
56.90000 160.017
56.91000 156.629
56.92000 150.604
56.93000 145.219
56.94000 144.814
56.95000 145.306
56.96000 146.013
56.97000 147.689
56.98000 149.483
56.99000 150.707
57.00000 150.224
57.01000 149.626
57.02000 149.222
57.03000 142.583
57.04000 137.505
57.05000 135.245
57.06000 136.807
57.07000 138.391
57.08000 140.194
57.09000 142.189
57.10000 144.162
57.11000 144.206
57.12000 143.164
57.13000 142.224
57.14000 143.321
57.15000 145.213
57.16000 146.830
57.17000 145.644
57.18000 143.722
57.19000 142.035
57.20000 145.091
57.21000 148.413
57.22000 151.175
57.23000 151.705
57.24000 152.004
57.25000 151.368
57.26000 148.232
57.27000 144.960
57.28000 142.838
57.29000 145.875
57.30000 148.176
57.31000 149.168
57.32000 148.590
57.33000 148.013
57.34000 148.468
57.35000 149.720
57.36000 150.950
57.37000 149.573
57.38000 146.944
57.39000 144.379
57.40000 142.838
57.41000 141.654
57.42000 140.627
57.43000 140.966
57.44000 141.622
57.45000 142.188
57.46000 142.081
57.47000 141.905
57.48000 141.525
57.49000 140.418
57.50000 139.248
57.51000 139.319
57.52000 142.354
57.53000 145.517
57.54000 147.478
57.55000 150.807
57.56000 153.215
57.57000 152.156
57.58000 147.441
57.59000 142.779
57.60000 144.200
57.61000 149.778
57.62000 155.226
57.63000 151.835
57.64000 144.708
57.65000 138.097
57.66000 138.300
57.67000 140.617
57.68000 142.811
57.69000 144.086
57.70000 145.172
57.71000 146.088
57.72000 143.965
57.73000 141.865
57.74000 141.081
57.75000 144.450
57.76000 148.123
57.77000 149.533
57.78000 146.120
57.79000 142.547
57.80000 140.438
57.81000 141.022
57.82000 141.450
57.83000 141.772
57.84000 141.998
57.85000 142.236
57.86000 143.326
57.87000 144.932
57.88000 146.488
57.89000 147.406
57.90000 148.026
57.91000 148.472
57.92000 146.994
57.93000 144.986
57.94000 143.416
57.95000 144.710
57.96000 146.523
57.97000 148.016
57.98000 151.532
57.99000 154.610
58.00000 157.191
58.01000 158.374
58.02000 159.473
58.03000 157.491
58.04000 149.645
58.05000 141.658
58.06000 137.187
58.07000 141.085
58.08000 143.804
58.09000 146.082
58.10000 148.001
58.11000 149.889
58.12000 150.408
58.13000 150.185
58.14000 149.972
58.15000 148.802
58.16000 147.380
58.17000 146.029
58.18000 145.348
58.19000 144.830
58.20000 144.772
58.21000 147.336
58.22000 150.315
58.23000 152.709
58.24000 151.412
58.25000 150.077
58.26000 148.814
58.27000 147.731
58.28000 146.657
58.29000 145.354
58.30000 143.663
58.31000 141.965
58.32000 141.069
58.33000 143.626
58.34000 145.353
58.35000 145.348
58.36000 144.097
58.37000 142.796
58.38000 139.874
58.39000 136.170
58.40000 132.652
58.41000 133.912
58.42000 136.516
58.43000 138.647
58.44000 136.968
58.45000 134.461
58.46000 132.210
58.47000 131.236
58.48000 130.440
58.49000 129.817
58.50000 135.085
58.51000 139.663
58.52000 142.421
58.53000 141.094
58.54000 139.615
58.55000 138.517
58.56000 137.993
58.57000 137.476
58.58000 138.224
58.59000 140.212
58.60000 142.202
58.61000 144.332
58.62000 146.551
58.63000 148.501
58.64000 143.811
58.65000 136.258
58.66000 129.167
58.67000 129.110
58.68000 130.923
58.69000 132.751
58.70000 134.672
58.71000 136.611
58.72000 138.292
58.73000 138.828
58.74000 139.227
58.75000 139.529
58.76000 137.624
58.77000 136.011
58.78000 133.417
58.79000 128.857
58.80000 124.241
58.81000 123.376
58.82000 127.529
58.83000 131.706
58.84000 133.627
58.85000 133.607
58.86000 133.550
58.87000 131.534
58.88000 128.402
58.89000 125.627
58.90000 129.754
58.91000 136.539
58.92000 142.827
58.93000 143.536
58.94000 142.873
58.95000 141.676
58.96000 137.236
58.97000 132.251
58.98000 128.523
58.99000 129.738
59.00000 131.457
59.01000 132.721
59.02000 130.954
59.03000 129.461
59.04000 127.247
59.05000 123.744
59.06000 120.215
59.07000 122.008
59.08000 130.094
59.09000 138.169
59.10000 139.467
59.11000 135.633
59.12000 131.936
59.13000 133.366
59.14000 137.399
59.15000 141.055
59.16000 138.801
59.17000 134.516
59.18000 130.602
59.19000 130.286
59.20000 130.739
59.21000 131.511
59.22000 133.984
59.23000 136.705
59.24000 138.307
59.25000 135.991
59.26000 133.337
59.27000 131.451
59.28000 132.564
59.29000 133.508
59.30000 134.988
59.31000 137.318
59.32000 139.660
59.33000 138.072
59.34000 132.398
59.35000 126.754
59.36000 127.553
59.37000 132.632
59.38000 137.462
59.39000 135.383
59.40000 130.170
59.41000 125.374
59.42000 125.961
59.43000 128.196
59.44000 130.205
59.45000 129.822
59.46000 129.062
59.47000 128.332
59.48000 127.738
59.49000 127.161
59.50000 128.384
59.51000 135.212
59.52000 142.443
59.53000 147.395
59.54000 140.843
59.55000 135.660
59.56000 131.943
59.57000 130.295
59.58000 128.665
59.59000 130.964
59.60000 136.848
59.61000 142.676
59.62000 141.957
59.63000 137.408
59.64000 132.985
59.65000 131.271
59.66000 130.654
59.67000 130.163
59.68000 131.042
59.69000 132.295
59.70000 133.402
59.71000 133.122
59.72000 132.666
59.73000 132.552
59.74000 133.851
59.75000 135.306
59.76000 137.319
59.77000 140.885
59.78000 144.542
59.79000 146.948
59.80000 143.042
59.81000 140.057
59.82000 136.581
59.83000 132.492
59.84000 128.415
59.85000 129.291
59.86000 134.148
59.87000 138.933
59.88000 137.670
59.89000 133.306
59.90000 129.325
59.91000 131.905
59.92000 136.858
59.93000 141.138
59.94000 139.224
59.95000 135.810
59.96000 132.850
59.97000 132.590
59.98000 132.727
59.99000 132.767
60.00000 132.452
60.01000 132.103
60.02000 132.064
60.03000 132.793
60.04000 133.558
60.05000 134.040
60.06000 131.955
60.07000 130.418
60.08000 130.226
60.09000 131.517
60.10000 132.801
60.11000 133.109
60.12000 132.722
60.13000 132.342
60.14000 131.836
60.15000 131.292
60.16000 130.672
60.17000 128.985
60.18000 126.952
60.19000 125.461
60.20000 128.243
60.21000 131.941
60.22000 135.081
60.23000 134.576
60.24000 133.736
60.25000 133.246
60.26000 133.901
60.27000 134.645
60.28000 134.618
60.29000 132.879
60.30000 131.079
60.31000 129.997
60.32000 128.377
60.33000 127.222
60.34000 128.448
60.35000 131.974
60.36000 135.488
60.37000 138.083
60.38000 140.097
60.39000 142.055
60.40000 138.652
60.41000 133.251
60.42000 128.497
60.43000 131.308
60.44000 136.293
60.45000 140.443
60.46000 138.876
60.47000 136.228
60.48000 134.030
60.49000 134.453
60.50000 135.058
60.51000 135.197
60.52000 133.976
60.53000 132.667
60.54000 131.399
60.55000 130.214
60.56000 129.030
60.57000 128.355
60.58000 133.107
60.59000 136.436
60.60000 137.620
60.61000 136.983
60.62000 136.315
60.63000 134.113
60.64000 131.047
60.65000 128.095
60.66000 129.342
60.67000 132.014
60.68000 134.329
60.69000 133.121
60.70000 131.014
60.71000 129.206
60.72000 129.186
60.73000 129.463
60.74000 129.687
60.75000 137.806
60.76000 145.063
60.77000 149.856
60.78000 148.218
60.79000 146.245
60.80000 143.872
60.81000 140.793
60.82000 137.700
60.83000 136.034
60.84000 132.404
60.85000 129.944
60.86000 132.234
60.87000 138.091
60.88000 143.766
60.89000 142.846
60.90000 138.618
60.91000 134.586
60.92000 132.994
60.93000 132.285
60.94000 131.670
60.95000 131.842
60.96000 132.193
60.97000 132.993
60.98000 136.145
60.99000 139.638
61.00000 142.395
61.01000 140.342
61.02000 138.369
61.03000 136.665
61.04000 135.590
61.05000 134.539
61.06000 134.116
61.07000 134.675
61.08000 135.247
61.09000 135.537
61.10000 141.653
61.11000 145.722
61.12000 147.189
61.13000 146.924
61.14000 146.494
61.15000 141.598
61.16000 134.702
61.17000 128.200
61.18000 131.726
61.19000 137.734
61.20000 143.314
61.21000 145.779
61.22000 147.619
61.23000 148.572
61.24000 145.420
61.25000 141.754
61.26000 138.942
61.27000 136.530
61.28000 134.647
61.29000 134.753
61.30000 138.995
61.31000 143.366
61.32000 144.001
61.33000 139.427
61.34000 134.820
61.35000 136.438
61.36000 143.647
61.37000 150.747
61.38000 151.078
61.39000 147.400
61.40000 143.863
61.41000 143.291
61.42000 143.904
61.43000 144.476
61.44000 144.593
61.45000 144.589
61.46000 144.661
61.47000 145.209
61.48000 145.842
61.49000 148.511
61.50000 159.518
61.51000 171.421
61.52000 180.273
61.53000 195.542
61.54000 207.704
61.55000 222.157
61.56000 240.864
61.57000 259.665
61.58000 276.310
61.59000 290.295
61.60000 304.247
61.61000 309.919
61.62000 309.030
61.63000 308.114
61.64000 306.053
61.65000 303.387
61.66000 301.231
61.67000 307.633
61.68000 317.090
61.69000 325.773
61.70000 326.638
61.71000 325.742
61.72000 323.858
61.73000 316.484
61.74000 308.266
61.75000 299.255
61.76000 287.365
61.77000 275.211
61.78000 266.468
61.79000 249.634
61.80000 236.465
61.81000 221.138
61.82000 202.243
61.83000 183.295
61.84000 172.773
61.85000 171.411
61.86000 170.059
61.87000 166.878
61.88000 162.460
61.89000 158.070
61.90000 154.544
61.91000 151.425
61.92000 148.579
61.93000 149.487
61.94000 151.590
61.95000 153.491
61.96000 148.358
61.97000 142.531
61.98000 138.273
61.99000 141.677
62.00000 146.106
62.01000 148.562
62.02000 144.628
62.03000 140.205
62.04000 137.136
62.05000 147.650
62.06000 155.930
62.07000 158.482
62.08000 152.611
62.09000 146.665
62.10000 142.688
62.11000 140.587
62.12000 138.504
62.13000 136.839
62.14000 135.460
62.15000 134.305
62.16000 138.360
62.17000 144.607
62.18000 150.154
62.19000 147.661
62.20000 142.886
62.21000 138.642
62.22000 139.166
62.23000 140.392
62.24000 141.991
62.25000 145.202
62.26000 148.599
62.27000 150.248
62.28000 146.851
62.29000 143.135
62.30000 140.657
62.31000 134.307
62.32000 129.529
62.33000 129.773
62.34000 136.564
62.35000 143.376
62.36000 146.487
62.37000 146.496
62.38000 146.504
62.39000 147.263
62.40000 148.407
62.41000 149.344
62.42000 146.455
62.43000 142.128
62.44000 138.432
62.45000 140.861
62.46000 144.835
62.47000 148.302
62.48000 149.911
62.49000 151.027
62.50000 151.928
62.51000 152.004
62.52000 151.999
62.53000 150.446
62.54000 144.905
62.55000 139.161
62.56000 135.488
62.57000 135.055
62.58000 134.782
62.59000 137.378
62.60000 143.275
62.61000 149.149
62.62000 149.895
62.63000 146.843
62.64000 143.847
62.65000 142.681
62.66000 142.432
62.67000 142.302
62.68000 143.963
62.69000 146.225
62.70000 147.758
62.71000 143.239
62.72000 137.369
62.73000 132.347
62.74000 138.652
62.75000 145.328
62.76000 148.891
62.77000 141.840
62.78000 133.908
62.79000 131.012
62.80000 139.710
62.81000 148.868
62.82000 154.461
62.83000 150.533
62.84000 147.646
62.85000 146.690
62.86000 147.685
62.87000 148.665
62.88000 148.251
62.89000 146.920
62.90000 145.622
62.91000 143.229
62.92000 140.484
62.93000 138.302
62.94000 143.109
62.95000 150.005
62.96000 155.038
62.97000 146.704
62.98000 135.731
62.99000 126.549
63.00000 135.192
63.01000 144.200
63.02000 150.699
63.03000 149.574
63.04000 147.924
63.05000 145.971
63.06000 143.392
63.07000 140.795
63.08000 139.287
63.09000 142.888
63.10000 145.437
63.11000 146.909
63.12000 147.425
63.13000 147.974
63.14000 150.525
63.15000 154.247
63.16000 157.843
63.17000 156.543
63.18000 153.493
63.19000 150.816
63.20000 152.038
63.21000 154.296
63.22000 156.077
63.23000 154.873
63.24000 153.151
63.25000 151.744
63.26000 146.101
63.27000 141.114
63.28000 138.296
63.29000 141.355
63.30000 144.745
63.31000 147.067
63.32000 147.430
63.33000 147.751
63.34000 147.927
63.35000 142.592
63.36000 138.931
63.37000 141.112
63.38000 147.863
63.39000 154.484
63.40000 155.859
63.41000 154.498
63.42000 153.197
63.43000 149.467
63.44000 145.195
63.45000 141.402
63.46000 141.863
63.47000 143.328
63.48000 144.942
63.49000 147.375
63.50000 149.931
63.51000 151.967
63.52000 146.962
63.53000 142.417
63.54000 140.215
63.55000 143.686
63.56000 147.410
63.57000 151.535
63.58000 156.313
63.59000 161.101
63.60000 163.578
63.61000 151.514
63.62000 143.428
63.63000 141.941
63.64000 145.027
63.65000 148.122
63.66000 151.451
63.67000 154.890
63.68000 158.145
63.69000 154.596
63.70000 149.362
63.71000 145.142
63.72000 148.692
63.73000 153.864
63.74000 157.575
63.75000 154.246
63.76000 149.990
63.77000 146.693
63.78000 149.609
63.79000 152.294
63.80000 153.531
63.81000 151.636
63.82000 149.634
63.83000 148.634
63.84000 149.090
63.85000 149.558
63.86000 150.482
63.87000 151.835
63.88000 153.169
63.89000 153.099
63.90000 152.163
63.91000 151.302
63.92000 152.130
63.93000 153.660
63.94000 155.091
63.95000 157.629
63.96000 160.215
63.97000 162.147
63.98000 159.725
63.99000 156.504
64.00000 154.920
64.01000 160.324
64.02000 166.519
64.03000 171.177
64.04000 169.540
64.05000 167.957
64.06000 167.973
64.07000 171.077
64.08000 174.258
64.09000 172.495
64.10000 164.371
64.11000 156.232
64.12000 153.020
64.13000 153.880
64.14000 154.799
64.15000 158.492
64.16000 163.707
64.17000 168.615
64.18000 167.993
64.19000 165.319
64.20000 162.851
64.21000 163.629
64.22000 165.050
64.23000 166.440
64.24000 167.649
64.25000 168.829
64.26000 169.877
64.27000 170.424
64.28000 170.923
64.29000 171.286
64.30000 171.433
64.31000 171.538
64.32000 171.596
64.33000 171.571
64.34000 171.545
64.35000 171.676
64.36000 171.985
64.37000 172.294
64.38000 170.236
64.39000 166.480
64.40000 162.851
64.41000 163.563
64.42000 166.400
64.43000 169.077
64.44000 169.419
64.45000 168.988
64.46000 168.596
64.47000 166.294
64.48000 163.888
64.49000 162.119
64.50000 163.608
64.51000 165.555
64.52000 167.088
64.53000 167.232
64.54000 167.262
64.55000 167.283
64.56000 173.866
64.57000 179.043
64.58000 180.796
64.59000 177.308
64.60000 173.763
64.61000 173.360
64.62000 176.087
64.63000 178.797
64.64000 179.039
64.65000 177.701
64.66000 176.393
64.67000 175.855
64.68000 175.655
64.69000 175.534
64.70000 176.389
64.71000 177.531
64.72000 178.553
64.73000 179.215
64.74000 179.732
64.75000 179.868
64.76000 178.292
64.77000 176.508
64.78000 175.260
64.79000 175.620
64.80000 176.088
64.81000 176.405
64.82000 175.123
64.83000 174.134
64.84000 174.946
64.85000 178.205
64.86000 181.478
64.87000 184.089
64.88000 186.121
64.89000 188.131
64.90000 192.468
64.91000 198.015
64.92000 203.240
64.93000 202.045
64.94000 198.344
64.95000 194.882
64.96000 193.860
64.97000 193.478
64.98000 193.143
64.99000 192.330
65.00000 191.561
65.01000 192.030
65.02000 197.440
65.03000 203.364
65.04000 209.294
65.05000 215.243
65.06000 221.192
65.07000 225.053
65.08000 217.318
65.09000 211.478
65.10000 209.902
65.11000 213.450
65.12000 217.005
65.13000 219.899
65.14000 222.284
65.15000 224.628
65.16000 231.258
65.17000 239.807
65.18000 248.233
65.19000 254.695
65.20000 260.472
65.21000 265.730
65.22000 266.453
65.23000 266.120
65.24000 265.832
65.25000 272.385
65.26000 278.802
65.27000 284.838
65.28000 289.515
65.29000 294.074
65.30000 300.153
65.31000 309.868
65.32000 319.741
65.33000 325.867
65.34000 333.676
65.35000 339.312
65.36000 344.725
65.37000 349.903
65.38000 355.078
65.39000 359.922
65.40000 364.540
65.41000 369.051
65.42000 375.373
65.43000 382.223
65.44000 389.844
65.45000 407.647
65.46000 428.615
65.47000 447.929
65.48000 454.786
65.49000 459.078
65.50000 462.696
65.51000 471.760
65.52000 479.918
65.53000 484.951
65.54000 480.111
65.55000 474.545
65.56000 471.633
65.57000 474.387
65.58000 477.329
65.59000 479.067
65.60000 498.005
65.61000 511.478
65.62000 521.799
65.63000 529.201
65.64000 536.795
65.65000 557.527
65.66000 586.250
65.67000 614.084
65.68000 657.720
65.69000 705.167
65.70000 753.677
65.71000 813.946
65.72000 877.469
65.73000 940.510
65.74000 1000.394
65.75000 1059.705
65.76000 1108.574
65.77000 1155.513
65.78000 1193.959
65.79000 1235.308
65.80000 1284.838
65.81000 1334.860
65.82000 1367.831
65.83000 1368.296
65.84000 1367.972
65.85000 1367.791
65.86000 1365.234
65.87000 1363.437
65.88000 1353.683
65.89000 1337.438
65.90000 1320.780
65.91000 1285.352
65.92000 1239.751
65.93000 1195.966
65.94000 1139.333
65.95000 1081.952
65.96000 1021.511
65.97000 932.378
65.98000 836.194
65.99000 744.029
66.00000 674.872
66.01000 609.370
66.02000 556.731
66.03000 498.895
66.04000 451.614
66.05000 414.856
66.06000 404.571
66.07000 395.563
66.08000 384.167
66.09000 368.711
66.10000 353.189
66.11000 344.986
66.12000 333.435
66.13000 325.641
66.14000 326.280
66.15000 333.007
66.16000 339.605
66.17000 341.986
66.18000 342.329
66.19000 342.654
66.20000 342.451
66.21000 342.103
66.22000 342.220
66.23000 346.078
66.24000 350.750
66.25000 355.879
66.26000 363.308
66.27000 371.055
66.28000 377.114
66.29000 397.421
66.30000 414.540
66.31000 428.058
66.32000 433.484
66.33000 438.607
66.34000 451.668
66.35000 476.726
66.36000 501.907
66.37000 513.797
66.38000 512.632
66.39000 511.459
66.40000 509.640
66.41000 507.407
66.42000 505.088
66.43000 500.654
66.44000 495.306
66.45000 490.284
66.46000 485.303
66.47000 480.771
66.48000 476.349
66.49000 472.695
66.50000 469.188
66.51000 463.047
66.52000 445.198
66.53000 425.951
66.54000 411.330
66.55000 392.997
66.56000 378.392
66.57000 366.536
66.58000 360.193
66.59000 354.004
66.60000 345.636
66.61000 334.344
66.62000 323.045
66.63000 320.819
66.64000 326.413
66.65000 331.995
66.66000 336.908
66.67000 341.438
66.68000 345.730
66.69000 345.386
66.70000 343.254
66.71000 341.277
66.72000 334.803
66.73000 327.926
66.74000 322.868
66.75000 328.853
66.76000 336.700
66.77000 342.829
66.78000 342.190
66.79000 340.859
66.80000 339.880
66.81000 341.246
66.82000 342.400
66.83000 344.139
66.84000 346.924
66.85000 349.731
66.86000 353.912
66.87000 359.723
66.88000 365.522
66.89000 365.406
66.90000 360.811
66.91000 356.390
66.92000 358.485
66.93000 363.895
66.94000 369.070
66.95000 370.562
66.96000 370.787
66.97000 370.993
66.98000 370.698
66.99000 370.334
67.00000 370.491
67.01000 373.419
67.02000 376.755
67.03000 379.476
67.04000 380.045
67.05000 380.428
67.06000 380.700
67.07000 385.635
67.08000 389.543
67.09000 392.777
67.10000 394.939
67.11000 397.086
67.12000 394.733
67.13000 387.691
67.14000 380.686
67.15000 380.168
67.16000 383.983
67.17000 387.801
67.18000 391.704
67.19000 395.646
67.20000 399.190
67.21000 397.564
67.22000 394.352
67.23000 391.464
67.24000 395.723
67.25000 400.727
67.26000 404.248
67.27000 400.811
67.28000 396.486
67.29000 395.209
67.30000 403.437
67.31000 412.349
67.32000 418.457
67.33000 402.391
67.34000 389.821
67.35000 391.179
67.36000 412.243
67.37000 433.445
67.38000 444.259
67.39000 445.582
67.40000 446.893
67.41000 450.264
67.42000 454.778
67.43000 458.819
67.44000 452.643
67.45000 442.323
67.46000 432.718
67.47000 430.863
67.48000 431.126
67.49000 431.358
67.50000 437.972
67.51000 444.671
67.52000 453.031
67.53000 468.296
67.54000 484.318
67.55000 493.626
67.56000 484.246
67.57000 473.766
67.58000 466.866
67.59000 474.380
67.60000 480.163
67.61000 482.532
67.62000 480.625
67.63000 478.717
67.64000 481.079
67.65000 486.879
67.66000 492.593
67.67000 495.123
67.68000 495.924
67.69000 496.794
67.70000 498.841
67.71000 501.315
67.72000 503.592
67.73000 504.051
67.74000 504.069
67.75000 504.085
67.76000 508.638
67.77000 513.119
67.78000 517.667
67.79000 522.458
67.80000 527.271
67.81000 531.053
67.82000 532.274
67.83000 533.374
67.84000 534.067
67.85000 530.859
67.86000 528.493
67.87000 531.470
67.88000 540.347
67.89000 549.195
67.90000 553.276
67.91000 553.959
67.92000 554.628
67.93000 557.264
67.94000 560.700
67.95000 564.578
67.96000 574.688
67.97000 586.811
67.98000 596.957
67.99000 591.448
68.00000 582.576
68.01000 575.040
68.02000 582.374
68.03000 590.227
68.04000 597.173
68.05000 601.142
68.06000 604.878
68.07000 607.802
68.08000 608.925
68.09000 609.982
68.10000 610.617
68.11000 609.053
68.12000 607.926
68.13000 611.929
68.14000 620.899
68.15000 629.780
68.16000 631.572
68.17000 628.877
68.18000 626.258
68.19000 638.652
68.20000 656.514
68.21000 673.820
68.22000 684.623
68.23000 693.555
68.24000 700.448
68.25000 693.365
68.26000 683.635
68.27000 675.553
68.28000 687.628
68.29000 699.571
68.30000 710.347
68.31000 717.706
68.32000 724.844
68.33000 726.583
68.34000 717.626
68.35000 708.378
68.36000 703.100
68.37000 723.587
68.38000 737.971
68.39000 755.429
68.40000 775.505
68.41000 795.431
68.42000 807.584
68.43000 815.358
68.44000 822.847
68.45000 825.749
68.46000 826.834
68.47000 829.573
68.48000 848.687
68.49000 871.992
68.50000 894.032
68.51000 908.506
68.52000 921.721
68.53000 932.433
68.54000 966.488
68.55000 996.142
68.56000 1025.502
68.57000 1054.096
68.58000 1082.649
68.59000 1123.689
68.60000 1186.791
68.61000 1250.312
68.62000 1284.569
68.63000 1345.210
68.64000 1386.757
68.65000 1437.426
68.66000 1494.955
68.67000 1552.972
68.68000 1628.733
68.69000 1713.411
68.70000 1794.168
68.71000 1869.831
68.72000 1938.426
68.73000 2007.280
68.74000 2078.321
68.75000 2149.857
68.76000 2220.010
68.77000 2282.893
68.78000 2344.721
68.79000 2393.537
68.80000 2511.213
68.81000 2610.330
68.82000 2732.959
68.83000 2910.473
68.84000 3090.241
68.85000 3332.427
68.86000 3672.789
68.87000 4014.348
68.88000 4187.438
68.89000 5383.250
68.90000 6191.149
68.91000 7721.962
68.92000 9735.009
68.93000 11802.764
68.94000 15353.873
68.95000 19570.420
68.96000 23546.605
68.97000 29487.602
68.98000 35475.875
68.99000 41462.191
69.00000 47434.180
69.01000 53403.293
69.02000 59082.121
69.03000 63416.023
69.04000 67581.008
69.05000 70777.125
69.06000 72910.469
69.07000 74537.141
69.08000 75764.148
69.09000 76158.125
69.10000 76526.133
69.11000 76990.109
69.12000 77588.109
69.13000 78186.805
69.14000 78906.289
69.15000 79733.813
69.16000 80544.844
69.17000 80330.172
69.18000 79506.969
69.19000 78609.539
69.20000 76149.836
69.21000 73064.234
69.22000 70190.953
69.23000 65796.289
69.24000 61451.461
69.25000 57228.457
69.26000 53779.633
69.27000 50467.320
69.28000 47401.156
69.29000 45344.770
69.30000 43397.242
69.31000 41948.090
69.32000 40519.992
69.33000 39409.883
69.34000 38248.301
69.35000 36990.980
69.36000 35731.512
69.37000 34068.324
69.38000 31906.127
69.39000 29746.439
69.40000 27061.840
69.41000 23974.520
69.42000 20889.711
69.43000 17911.109
69.44000 14988.661
69.45000 12112.061
69.46000 10007.679
69.47000 8179.525
69.48000 6500.773
69.49000 5375.033
69.50000 4488.858
69.51000 3668.168
69.52000 3211.834
69.53000 2811.703
69.54000 2457.401
69.55000 2270.084
69.56000 2098.052
69.57000 1974.239
69.58000 1829.464
69.59000 1717.874
69.60000 1625.646
69.61000 1565.501
69.62000 1505.840
69.63000 1451.266
69.64000 1402.234
69.65000 1353.417
69.66000 1311.102
69.67000 1273.751
69.68000 1236.807
69.69000 1212.342
69.70000 1193.765
69.71000 1174.179
69.72000 1140.673
69.73000 1102.725
69.74000 1068.410
69.75000 1050.676
69.76000 1038.162
69.77000 1023.389
69.78000 997.551
69.79000 970.230
69.80000 947.189
69.81000 938.035
69.82000 929.946
69.83000 924.330
69.84000 906.586
69.85000 892.895
69.86000 875.097
69.87000 851.247
69.88000 827.345
69.89000 814.047
69.90000 810.872
69.91000 807.724
69.92000 803.838
69.93000 799.568
69.94000 795.395
69.95000 793.490
69.96000 792.539
69.97000 790.959
69.98000 782.140
69.99000 771.262
70.00000 761.590
