20.00000 569.407
20.01000 556.588
20.02000 541.938
20.03000 532.446
20.04000 543.063
20.05000 555.704
20.06000 564.980
20.07000 564.781
20.08000 564.243
20.09000 568.867
20.10000 582.631
20.11000 596.570
20.12000 595.416
20.13000 576.576
20.14000 557.761
20.15000 552.551
20.16000 557.562
20.17000 562.490
20.18000 564.370
20.19000 564.714
20.20000 564.652
20.21000 558.311
20.22000 549.831
20.23000 542.094
20.24000 536.899
20.25000 532.804
20.26000 531.151
20.27000 542.357
20.28000 555.433
20.29000 565.175
20.30000 563.361
20.31000 560.564
20.32000 558.582
20.33000 559.295
20.34000 559.923
20.35000 558.063
20.36000 552.283
20.37000 546.455
20.38000 548.607
20.39000 558.980
20.40000 569.294
20.41000 573.262
20.42000 572.990
20.43000 572.606
20.44000 569.182
20.45000 564.390
20.46000 559.897
20.47000 559.207
20.48000 559.672
20.49000 560.090
20.50000 552.849
20.51000 545.169
20.52000 540.257
20.53000 548.206
20.54000 557.774
20.55000 563.461
20.56000 557.162
20.57000 550.015
20.58000 545.133
20.59000 549.549
20.60000 553.070
20.61000 555.712
20.62000 557.122
20.63000 558.524
20.64000 559.286
20.65000 559.470
20.66000 559.652
20.67000 557.005
20.68000 552.767
20.69000 548.722
20.70000 548.757
20.71000 550.432
20.72000 552.510
20.73000 558.916
20.74000 566.491
20.75000 573.175
20.76000 560.067
20.77000 545.742
20.78000 534.817
20.79000 537.868
20.80000 542.431
20.81000 545.076
20.82000 542.439
20.83000 539.496
20.84000 537.566
20.85000 553.447
20.86000 565.424
20.87000 569.672
20.88000 564.345
20.89000 559.008
20.90000 559.031
20.91000 563.322
20.92000 567.549
20.93000 564.094
20.94000 556.797
20.95000 550.059
20.96000 552.766
20.97000 558.860
20.98000 563.765
20.99000 557.859
21.00000 549.357
21.01000 541.998
21.02000 544.810
21.03000 548.539
21.04000 552.220
21.05000 555.726
21.06000 559.216
21.07000 560.298
21.08000 555.454
21.09000 550.338
21.10000 547.126
21.11000 560.942
21.12000 571.115
21.13000 568.774
21.14000 552.771
21.15000 536.885
21.16000 537.723
21.17000 550.352
21.18000 562.710
21.19000 559.873
21.20000 550.254
21.21000 541.545
21.22000 545.424
21.23000 553.330
21.24000 560.957
21.25000 566.396
21.26000 571.371
21.27000 575.589
21.28000 572.806
21.29000 569.685
21.30000 567.172
21.31000 566.636
21.32000 566.251
21.33000 562.414
21.34000 550.990
21.35000 539.296
21.36000 532.298
21.37000 544.849
21.38000 553.882
21.39000 553.820
21.40000 545.051
21.41000 536.349
21.42000 532.853
21.43000 532.616
21.44000 532.387
21.45000 540.672
21.46000 551.951
21.47000 562.034
21.48000 558.306
21.49000 550.644
21.50000 543.845
21.51000 542.888
21.52000 543.026
21.53000 543.140
21.54000 544.096
21.55000 544.966
21.56000 545.530
21.57000 545.207
21.58000 544.828
21.59000 545.045
21.60000 546.435
21.61000 547.854
21.62000 548.661
21.63000 532.697
21.64000 521.548
21.65000 522.095
21.66000 532.491
21.67000 542.767
21.68000 547.054
21.69000 548.003
21.70000 548.915
21.71000 552.693
21.72000 557.251
21.73000 562.098
21.74000 569.763
21.75000 578.143
21.76000 584.920
21.77000 582.222
21.78000 577.968
21.79000 574.527
21.80000 573.575
21.81000 573.001
21.82000 570.911
21.83000 564.898
21.84000 558.683
21.85000 557.909
21.86000 566.649
21.87000 575.564
21.88000 580.346
21.89000 586.913
21.90000 591.375
21.91000 591.428
21.92000 588.201
21.93000 585.163
21.94000 588.816
21.95000 595.799
21.96000 602.452
21.97000 609.178
21.98000 615.434
21.99000 621.332
22.00000 624.240
22.01000 626.478
22.02000 628.054
22.03000 626.191
22.04000 623.835
22.05000 621.980
22.06000 624.789
22.07000 627.352
22.08000 630.757
22.09000 636.108
22.10000 641.537
22.11000 643.975
22.12000 641.757
22.13000 639.484
22.14000 638.340
22.15000 618.020
22.16000 604.531
22.17000 600.111
22.18000 601.678
22.19000 603.544
22.20000 613.364
22.21000 626.716
22.22000 639.294
22.23000 635.779
22.24000 628.145
22.25000 620.139
22.26000 609.451
22.27000 598.232
22.28000 588.147
22.29000 583.258
22.30000 579.012
22.31000 575.763
22.32000 575.263
22.33000 575.019
22.34000 574.304
22.35000 572.618
22.36000 570.902
22.37000 566.063
22.38000 556.908
22.39000 547.730
22.40000 539.867
22.41000 533.184
22.42000 526.606
22.43000 526.289
22.44000 529.650
22.45000 532.866
22.46000 533.079
22.47000 532.101
22.48000 531.192
22.49000 525.342
22.50000 518.868
22.51000 513.129
22.52000 512.009
22.53000 511.695
22.54000 513.276
22.55000 522.552
22.56000 532.646
22.57000 540.136
22.58000 542.987
22.59000 544.999
22.60000 546.870
22.61000 548.483
22.62000 550.090
22.63000 546.539
22.64000 536.682
22.65000 526.830
22.66000 526.710
22.67000 534.201
22.68000 541.424
22.69000 537.669
22.70000 528.168
22.71000 519.046
22.72000 516.176
22.73000 515.521
22.74000 514.921
22.75000 522.395
22.76000 530.760
22.77000 537.432
22.78000 534.789
22.79000 530.727
22.80000 527.592
22.81000 527.801
22.82000 528.311
22.83000 528.677
22.84000 528.103
22.85000 527.631
22.86000 523.175
22.87000 512.184
22.88000 501.098
22.89000 500.491
22.90000 511.167
22.91000 521.797
22.92000 529.121
22.93000 534.089
22.94000 538.701
22.95000 532.626
22.96000 521.559
22.97000 511.552
22.98000 515.926
22.99000 524.842
23.00000 532.892
23.01000 530.899
23.02000 527.296
23.03000 523.901
23.04000 521.512
23.05000 519.255
23.06000 517.959
23.07000 519.743
23.08000 521.760
23.09000 523.155
23.10000 516.959
23.11000 512.101
23.12000 510.928
23.13000 515.126
23.14000 519.369
23.15000 519.865
23.16000 516.824
23.17000 513.809
23.18000 508.801
23.19000 502.675
23.20000 496.734
23.21000 495.052
23.22000 495.146
23.23000 495.776
23.24000 502.477
23.25000 510.887
23.26000 518.352
23.27000 513.301
23.28000 506.920
23.29000 502.425
23.30000 506.005
23.31000 510.506
23.32000 513.789
23.33000 513.584
23.34000 513.164
23.35000 512.884
23.36000 516.273
23.37000 518.849
23.38000 518.741
23.39000 515.165
23.40000 511.588
23.41000 513.899
23.42000 521.102
23.43000 528.210
23.44000 525.442
23.45000 517.456
23.46000 509.727
23.47000 506.670
23.48000 505.353
23.49000 504.523
23.50000 508.368
23.51000 513.381
23.52000 517.749
23.53000 507.466
23.54000 496.651
23.55000 489.604
23.56000 496.871
23.57000 505.530
23.58000 511.502
23.59000 510.606
23.60000 509.368
23.61000 508.578
23.62000 514.704
23.63000 519.246
23.64000 518.145
23.65000 510.611
23.66000 503.105
23.67000 501.836
23.68000 505.146
23.69000 508.393
23.70000 505.773
23.71000 500.471
23.72000 496.095
23.73000 505.409
23.74000 519.273
23.75000 530.752
23.76000 522.629
23.77000 510.164
23.78000 499.519
23.79000 508.115
23.80000 517.642
23.81000 524.750
23.82000 523.681
23.83000 521.943
23.84000 520.543
23.85000 519.914
23.86000 519.316
23.87000 518.952
23.88000 522.189
23.89000 524.528
23.90000 525.338
23.91000 524.615
23.92000 523.918
23.93000 525.518
23.94000 528.614
23.95000 531.630
23.96000 522.951
23.97000 509.791
23.98000 497.792
23.99000 500.003
24.00000 506.425
24.01000 513.174
24.02000 522.251
24.03000 531.782
24.04000 539.744
24.05000 542.258
24.06000 543.793
24.07000 544.433
24.08000 542.377
24.09000 540.137
24.10000 537.744
24.11000 535.037
24.12000 532.322
24.13000 530.751
24.14000 531.727
24.15000 532.420
24.16000 530.539
24.17000 526.398
24.18000 522.220
24.19000 515.941
24.20000 508.442
24.21000 501.203
24.22000 499.715
24.23000 500.438
24.24000 501.224
24.25000 502.663
24.26000 504.274
24.27000 505.296
24.28000 502.672
24.29000 499.422
24.30000 496.771
24.31000 502.382
24.32000 507.676
24.33000 510.141
24.34000 504.998
24.35000 499.436
24.36000 496.482
24.37000 498.272
24.38000 500.161
24.39000 501.195
24.40000 497.212
24.41000 494.484
24.42000 496.213
24.43000 501.398
24.44000 506.366
24.45000 502.810
24.46000 494.845
24.47000 487.229
24.48000 483.526
24.49000 481.354
24.50000 480.172
24.51000 487.695
24.52000 497.255
24.53000 504.308
24.54000 497.768
24.55000 489.187
24.56000 482.365
24.57000 482.110
24.58000 482.373
24.59000 480.480
24.60000 473.413
24.61000 466.119
24.62000 463.137
24.63000 467.138
24.64000 471.235
24.65000 473.345
24.66000 483.076
24.67000 489.568
24.68000 488.809
24.69000 483.066
24.70000 477.499
24.71000 477.028
24.72000 478.908
24.73000 480.686
24.74000 480.194
24.75000 479.091
24.76000 479.042
24.77000 486.979
24.78000 496.567
24.79000 503.517
24.80000 497.855
24.81000 490.550
24.82000 484.904
24.83000 496.492
24.84000 506.695
24.85000 509.948
24.86000 498.294
24.87000 486.141
24.88000 477.151
24.89000 472.715
24.90000 468.316
24.91000 471.412
24.92000 481.479
24.93000 491.362
24.94000 488.470
24.95000 477.775
24.96000 467.440
24.97000 465.137
24.98000 466.143
24.99000 467.083
25.00000 467.395
25.01000 467.521
25.02000 466.575
25.03000 458.585
25.04000 449.312
25.05000 445.421
25.06000 464.284
25.07000 485.696
25.08000 501.756
25.09000 490.091
25.10000 479.666
25.11000 472.999
25.12000 473.526
25.13000 474.230
25.14000 473.061
25.15000 469.506
25.16000 465.947
25.17000 465.770
25.18000 468.354
25.19000 470.986
25.20000 475.870
25.21000 481.979
25.22000 487.467
25.23000 481.949
25.24000 472.379
25.25000 463.559
25.26000 461.008
25.27000 460.109
25.28000 459.972
25.29000 464.214
25.30000 469.156
25.31000 473.011
25.32000 472.786
25.33000 472.172
25.34000 471.726
25.35000 477.018
25.36000 481.301
25.37000 482.932
25.38000 480.040
25.39000 477.073
25.40000 472.434
25.41000 465.916
25.42000 459.420
25.43000 457.000
25.44000 457.531
25.45000 458.158
25.46000 461.978
25.47000 467.348
25.48000 472.564
25.49000 475.562
25.50000 477.831
25.51000 479.891
25.52000 470.615
25.53000 460.234
25.54000 452.013
25.55000 454.704
25.56000 458.911
25.57000 461.734
25.58000 459.933
25.59000 457.761
25.60000 456.239
25.61000 457.106
25.62000 457.830
25.63000 457.063
25.64000 454.031
25.65000 450.977
25.66000 453.822
25.67000 462.488
25.68000 471.094
25.69000 472.707
25.70000 469.867
25.71000 467.441
25.72000 475.396
25.73000 487.850
25.74000 498.953
25.75000 493.811
25.76000 483.917
25.77000 475.081
25.78000 467.523
25.79000 461.155
25.80000 455.080
25.81000 450.312
25.82000 445.700
25.83000 444.097
25.84000 451.446
25.85000 459.389
25.86000 464.746
25.87000 460.916
25.88000 457.872
25.89000 458.839
25.90000 465.204
25.91000 471.598
25.92000 477.260
25.93000 482.288
25.94000 487.258
25.95000 479.613
25.96000 465.100
25.97000 451.718
25.98000 460.527
25.99000 477.927
26.00000 493.530
26.01000 490.924
26.02000 483.579
26.03000 477.138
26.04000 470.205
26.05000 464.182
26.06000 458.640
26.07000 455.005
26.08000 451.565
26.09000 450.818
26.10000 457.221
26.11000 464.010
26.12000 468.402
26.13000 462.962
26.14000 458.839
26.15000 455.048
26.16000 451.652
26.17000 448.274
26.18000 448.830
26.19000 452.396
26.20000 455.901
26.21000 456.606
26.22000 455.904
26.23000 455.265
26.24000 455.612
26.25000 456.300
26.26000 456.910
26.27000 456.844
26.28000 456.622
26.29000 456.430
26.30000 453.498
26.31000 450.673
26.32000 448.570
26.33000 449.005
26.34000 449.659
26.35000 451.829
26.36000 457.590
26.37000 463.505
26.38000 467.162
26.39000 454.087
26.40000 444.534
26.41000 442.434
26.42000 448.133
26.43000 453.816
26.44000 457.539
26.45000 459.933
26.46000 462.270
26.47000 457.157
26.48000 449.019
26.49000 441.546
26.50000 442.741
26.51000 446.607
26.52000 449.970
26.53000 449.576
26.54000 448.416
26.55000 447.440
26.56000 443.864
26.57000 440.603
26.58000 438.883
26.59000 441.988
26.60000 445.443
26.61000 449.360
26.62000 454.259
26.63000 459.188
26.64000 462.091
26.65000 452.116
26.66000 445.014
26.67000 444.894
26.68000 451.180
26.69000 457.297
26.70000 452.199
26.71000 440.338
26.72000 428.852
26.73000 431.440
26.74000 439.307
26.75000 446.417
26.76000 445.261
26.77000 441.838
26.78000 439.681
26.79000 445.721
26.80000 453.233
26.81000 459.412
26.82000 461.699
26.83000 463.226
26.84000 462.219
26.85000 454.130
26.86000 445.620
26.87000 441.087
26.88000 444.071
26.89000 447.232
26.90000 448.996
26.91000 447.032
26.92000 445.661
26.93000 442.923
26.94000 439.080
26.95000 435.319
26.96000 435.203
26.97000 437.045
26.98000 438.813
26.99000 441.879
27.00000 445.186
27.01000 448.140
27.02000 447.826
27.03000 446.716
27.04000 445.108
27.05000 440.674
27.06000 435.796
27.07000 431.883
27.08000 432.078
27.09000 432.548
27.10000 434.072
27.11000 438.227
27.12000 442.508
27.13000 441.929
27.14000 433.166
27.15000 424.272
27.16000 419.593
27.17000 424.018
27.18000 427.031
27.19000 431.088
27.20000 435.894
27.21000 440.521
27.22000 439.428
27.23000 435.592
27.24000 431.951
27.25000 435.824
27.26000 441.648
27.27000 447.187
27.28000 450.457
27.29000 453.238
27.30000 453.460
27.31000 440.929
27.32000 426.652
27.33000 415.509
27.34000 419.748
27.35000 424.094
27.36000 430.748
27.37000 442.547
27.38000 454.535
27.39000 458.639
27.40000 450.930
27.41000 443.106
27.42000 434.295
27.43000 424.524
27.44000 414.886
27.45000 416.153
27.46000 424.348
27.47000 432.294
27.48000 434.163
27.49000 433.431
27.50000 432.745
27.51000 437.540
27.52000 443.354
27.53000 448.252
27.54000 446.837
27.55000 444.220
27.56000 443.111
27.57000 448.640
27.58000 454.953
27.59000 459.738
27.60000 463.822
27.61000 466.994
27.62000 467.115
27.63000 461.171
27.64000 455.061
27.65000 450.721
27.66000 448.735
27.67000 446.762
27.68000 440.558
27.69000 430.757
27.70000 421.169
27.71000 422.682
27.72000 430.475
27.73000 437.862
27.74000 437.477
27.75000 434.121
27.76000 431.013
27.77000 437.660
27.78000 445.891
27.79000 451.619
27.80000 442.294
27.81000 430.455
27.82000 421.711
27.83000 425.057
27.84000 429.623
27.85000 432.975
27.86000 435.536
27.87000 437.484
27.88000 438.901
27.89000 439.377
27.90000 439.835
27.91000 436.528
27.92000 428.800
27.93000 421.086
27.94000 420.863
27.95000 426.261
27.96000 431.598
27.97000 434.683
27.98000 436.632
27.99000 438.733
28.00000 443.200
28.01000 448.475
28.02000 453.289
28.03000 446.637
28.04000 438.417
28.05000 431.937
28.06000 434.638
28.07000 438.675
28.08000 441.585
28.09000 440.577
28.10000 439.236
28.11000 438.284
28.12000 436.347
28.13000 434.843
28.14000 435.629
28.15000 440.030
28.16000 444.475
28.17000 443.403
28.18000 436.638
28.19000 429.911
28.20000 433.337
28.21000 443.429
28.22000 452.966
28.23000 447.312
28.24000 434.818
28.25000 423.590
28.26000 428.528
28.27000 438.386
28.28000 447.240
28.29000 448.739
28.30000 448.755
28.31000 447.202
28.32000 438.349
28.33000 428.575
28.34000 422.693
28.35000 428.853
28.36000 435.868
28.37000 440.662
28.38000 433.946
28.39000 428.650
28.40000 426.630
28.41000 429.205
28.42000 431.809
28.43000 430.956
28.44000 426.972
28.45000 423.028
28.46000 421.540
28.47000 421.515
28.48000 421.177
28.49000 414.208
28.50000 404.572
28.51000 396.429
28.52000 404.300
28.53000 416.509
28.54000 427.284
28.55000 429.946
28.56000 431.002
28.57000 430.050
28.58000 420.828
28.59000 410.709
28.60000 404.599
28.61000 409.552
28.62000 415.147
28.63000 418.818
28.64000 420.516
28.65000 421.732
28.66000 422.735
28.67000 423.472
28.68000 424.203
28.69000 423.312
28.70000 421.127
28.71000 418.974
28.72000 421.451
28.73000 426.236
28.74000 430.428
28.75000 424.557
28.76000 415.073
28.77000 407.583
28.78000 418.281
28.79000 433.352
28.80000 446.401
28.81000 443.731
28.82000 439.388
28.83000 434.041
28.84000 425.025
28.85000 415.671
28.86000 410.114
28.87000 413.916
28.88000 418.150
28.89000 420.809
28.90000 419.395
28.91000 418.327
28.92000 419.000
28.93000 421.577
28.94000 424.140
28.95000 424.640
28.96000 423.681
28.97000 422.743
28.98000 420.263
28.99000 417.181
29.00000 414.094
29.01000 410.944
29.02000 407.774
29.03000 405.164
29.04000 406.934
29.05000 409.637
29.06000 411.929
29.07000 420.034
29.08000 427.484
29.09000 431.339
29.10000 423.483
29.11000 414.724
29.12000 408.983
29.13000 409.885
29.14000 411.025
29.15000 411.708
29.16000 412.981
29.17000 413.888
29.18000 413.646
29.19000 412.302
29.20000 410.962
29.21000 410.032
29.22000 409.359
29.23000 408.706
29.24000 412.901
29.25000 418.831
29.26000 424.322
29.27000 424.735
29.28000 423.700
29.29000 423.226
29.30000 426.570
29.31000 430.629
29.32000 433.995
29.33000 423.856
29.34000 414.185
29.35000 407.999
29.36000 411.934
29.37000 416.512
29.38000 419.159
29.39000 418.009
29.40000 416.758
29.41000 416.048
29.42000 413.086
29.43000 411.014
29.44000 407.726
29.45000 403.412
29.46000 399.185
29.47000 399.297
29.48000 401.834
29.49000 404.276
29.50000 402.780
29.51000 399.979
29.52000 397.385
29.53000 396.812
29.54000 396.751
29.55000 396.788
29.56000 397.405
29.57000 398.117
29.58000 398.693
29.59000 400.016
29.60000 401.153
29.61000 401.231
29.62000 398.565
29.63000 395.758
29.64000 397.951
29.65000 408.902
29.66000 420.016
29.67000 425.983
29.68000 416.170
29.69000 409.460
29.70000 403.692
29.71000 398.627
29.72000 393.799
29.73000 397.367
29.74000 405.120
29.75000 412.509
29.76000 418.690
29.77000 424.043
29.78000 428.240
29.79000 422.759
29.80000 415.102
29.81000 409.374
29.82000 413.686
29.83000 419.439
29.84000 423.972
29.85000 427.215
29.86000 429.729
29.87000 431.116
29.88000 429.898
29.89000 428.575
29.90000 426.856
29.91000 424.517
29.92000 422.171
29.93000 420.988
29.94000 429.201
29.95000 434.614
29.96000 432.358
29.97000 425.031
29.98000 418.032
29.99000 419.745
30.00000 425.334
30.01000 430.599
30.02000 429.901
30.03000 427.621
30.04000 425.626
30.05000 425.694
30.06000 426.172
30.07000 426.216
30.08000 424.267
30.09000 422.069
30.10000 420.387
30.11000 415.391
30.12000 411.266
30.13000 407.909
30.14000 406.140
30.15000 404.419
30.16000 407.853
30.17000 418.421
30.18000 429.031
30.19000 430.323
30.20000 423.305
30.21000 416.426
30.22000 417.871
30.23000 424.212
30.24000 430.219
30.25000 429.308
30.26000 425.648
30.27000 422.243
30.28000 422.044
30.29000 422.639
30.30000 422.053
30.31000 414.042
30.32000 404.734
30.33000 399.629
30.34000 411.613
30.35000 425.418
30.36000 435.666
30.37000 425.587
30.38000 416.860
30.39000 410.005
30.40000 406.603
30.41000 403.275
30.42000 399.846
30.43000 396.292
30.44000 392.744
30.45000 398.870
30.46000 412.542
30.47000 425.898
30.48000 426.191
30.49000 419.635
30.50000 413.656
30.51000 417.244
30.52000 424.225
30.53000 430.629
30.54000 424.905
30.55000 417.238
30.56000 410.990
30.57000 412.566
30.58000 415.336
30.59000 415.888
30.60000 408.429
30.61000 400.246
30.62000 394.372
30.63000 402.004
30.64000 408.307
30.65000 412.949
30.66000 414.863
30.67000 416.737
30.68000 417.759
30.69000 417.862
30.70000 417.965
30.71000 424.253
30.72000 434.738
30.73000 444.877
30.74000 444.565
30.75000 439.365
30.76000 434.536
30.77000 434.768
30.78000 436.602
30.79000 438.258
30.80000 436.335
30.81000 433.985
30.82000 432.507
30.83000 435.264
30.84000 438.583
30.85000 442.077
30.86000 446.134
30.87000 450.234
30.88000 453.072
30.89000 461.157
30.90000 467.378
30.91000 472.957
30.92000 477.600
30.93000 482.233
30.94000 481.460
30.95000 475.573
30.96000 469.736
30.97000 473.497
30.98000 483.027
30.99000 492.574
31.00000 502.506
31.01000 512.597
31.02000 522.807
31.03000 534.360
31.04000 546.292
31.05000 556.886
31.06000 573.492
31.07000 588.851
31.08000 608.256
31.09000 645.014
31.10000 683.756
31.11000 722.859
31.12000 762.999
31.13000 803.204
31.14000 829.964
31.15000 899.908
31.16000 952.477
31.17000 1009.659
31.18000 1072.811
31.19000 1135.995
31.20000 1202.839
31.21000 1272.727
31.22000 1341.696
31.23000 1434.996
31.24000 1538.847
31.25000 1642.788
31.26000 1748.365
31.27000 1854.552
31.28000 1959.006
31.29000 2046.792
31.30000 2130.402
31.31000 2203.280
31.32000 2284.895
31.33000 2355.862
31.34000 2420.486
31.35000 2460.966
31.36000 2499.094
31.37000 2530.159
31.38000 2543.136
31.39000 2555.207
31.40000 2562.906
31.41000 2536.013
31.42000 2516.010
31.43000 2471.091
31.44000 2397.711
31.45000 2324.326
31.46000 2255.401
31.47000 2189.760
31.48000 2125.373
31.49000 2044.397
31.50000 1958.514
31.51000 1872.227
31.52000 1779.951
31.53000 1685.680
31.54000 1592.265
31.55000 1505.886
31.56000 1421.069
31.57000 1348.619
31.58000 1258.549
31.59000 1180.571
31.60000 1105.057
31.61000 1037.885
31.62000 971.397
31.63000 906.186
31.64000 843.896
31.65000 781.719
31.66000 743.862
31.67000 702.894
31.68000 673.603
31.69000 648.592
31.70000 627.873
31.71000 607.134
31.72000 584.449
31.73000 560.495
31.74000 537.168
31.75000 523.654
31.76000 514.884
31.77000 505.908
31.78000 494.386
31.79000 482.108
31.80000 470.849
31.81000 466.837
31.82000 464.245
31.83000 462.079
31.84000 456.394
31.85000 451.317
31.86000 446.212
31.87000 441.025
31.88000 435.831
31.89000 430.028
31.90000 422.981
31.91000 415.898
31.92000 411.798
31.93000 412.403
31.94000 412.847
31.95000 413.392
31.96000 414.027
31.97000 414.627
31.98000 413.222
31.99000 410.653
32.00000 408.172
32.01000 404.060
32.02000 399.583
32.03000 396.166
32.04000 403.715
32.05000 414.160
32.06000 421.529
32.07000 409.827
32.08000 394.840
32.09000 382.611
32.10000 388.186
32.11000 394.270
32.12000 399.112
32.13000 400.604
32.14000 401.911
32.15000 403.260
32.16000 404.686
32.17000 406.114
32.18000 406.896
32.19000 399.474
32.20000 394.357
32.21000 389.066
32.22000 383.640
32.23000 378.445
32.24000 382.433
32.25000 391.177
32.26000 399.539
32.27000 403.739
32.28000 406.291
32.29000 407.973
32.30000 401.991
32.31000 394.214
32.32000 388.519
32.33000 394.143
32.34000 401.470
32.35000 407.296
32.36000 399.443
32.37000 392.138
32.38000 386.515
32.39000 384.936
32.40000 383.535
32.41000 383.286
32.42000 384.905
32.43000 386.549
32.44000 387.397
32.45000 387.235
32.46000 387.110
32.47000 385.177
32.48000 381.997
32.49000 378.893
32.50000 377.989
32.51000 378.101
32.52000 378.207
32.53000 376.269
32.54000 373.900
32.55000 372.129
32.56000 374.905
32.57000 378.623
32.58000 381.349
32.59000 379.327
32.60000 376.685
32.61000 374.641
32.62000 381.307
32.63000 387.108
32.64000 390.524
32.65000 388.819
32.66000 386.942
32.67000 382.590
32.68000 374.671
32.69000 366.725
32.70000 362.968
32.71000 363.118
32.72000 363.268
32.73000 363.438
32.74000 363.620
32.75000 363.877
32.76000 365.817
32.77000 368.453
32.78000 370.916
32.79000 372.826
32.80000 374.419
32.81000 376.154
32.82000 378.822
32.83000 381.660
32.84000 383.815
32.85000 383.078
32.86000 382.016
32.87000 381.219
32.88000 381.957
32.89000 382.606
32.90000 380.743
32.91000 374.064
32.92000 367.266
32.93000 370.485
32.94000 386.500
32.95000 402.540
32.96000 406.052
32.97000 399.301
32.98000 392.606
32.99000 388.529
33.00000 385.879
33.01000 383.461
33.02000 385.180
33.03000 388.424
33.04000 391.414
33.05000 388.252
33.06000 384.059
33.07000 380.170
33.08000 378.026
33.09000 376.162
33.10000 376.185
33.11000 383.301
33.12000 391.096
33.13000 396.758
33.14000 384.532
33.15000 374.460
33.16000 363.569
33.17000 351.280
33.18000 338.968
33.19000 334.692
33.20000 339.471
33.21000 344.240
33.22000 346.169
33.23000 346.036
33.24000 345.947
33.25000 347.338
33.26000 349.448
33.27000 351.163
33.28000 347.135
33.29000 341.218
33.30000 335.846
33.31000 336.126
33.32000 337.466
33.33000 339.174
33.34000 342.741
33.35000 346.566
33.36000 350.763
33.37000 356.201
33.38000 361.740
33.39000 365.623
33.40000 357.109
33.41000 350.310
33.42000 346.068
33.43000 345.713
33.44000 345.399
33.45000 343.082
33.46000 338.786
33.47000 334.520
33.48000 330.033
33.49000 325.476
33.50000 321.159
33.51000 322.885
33.52000 327.234
33.53000 331.360
33.54000 332.789
33.55000 333.429
33.56000 334.001
33.57000 338.510
33.58000 343.102
33.59000 347.041
33.60000 348.062
33.61000 348.733
33.62000 349.281
33.63000 349.462
33.64000 349.619
33.65000 349.725
33.66000 335.447
33.67000 324.518
33.68000 321.325
33.69000 328.566
33.70000 335.861
33.71000 340.638
33.72000 343.228
33.73000 345.789
33.74000 346.359
33.75000 345.799
33.76000 345.251
33.77000 344.930
33.78000 344.696
33.79000 344.477
33.80000 344.402
33.81000 344.366
33.82000 344.333
33.83000 339.203
33.84000 334.054
33.85000 331.478
33.86000 339.096
33.87000 347.764
33.88000 352.661
33.89000 347.526
33.90000 341.847
33.91000 338.172
33.92000 351.087
33.93000 360.780
33.94000 363.005
33.95000 356.326
33.96000 349.641
33.97000 345.391
33.98000 343.009
33.99000 340.666
34.00000 343.346
34.01000 348.421
34.02000 352.991
34.03000 349.560
34.04000 343.360
34.05000 338.005
34.06000 339.969
34.07000 343.626
34.08000 346.772
34.09000 345.739
34.10000 344.341
34.11000 344.172
34.12000 348.336
34.13000 352.876
34.14000 357.073
34.15000 360.452
34.16000 363.797
34.17000 365.866
34.18000 364.649
34.19000 363.743
34.20000 363.817
34.21000 364.918
34.22000 366.007
34.23000 365.743
34.24000 364.559
34.25000 363.403
34.26000 362.778
34.27000 362.412
34.28000 361.564
34.29000 354.423
34.30000 345.338
34.31000 337.132
34.32000 335.483
34.33000 335.174
34.34000 334.914
34.35000 346.642
34.36000 357.713
34.37000 365.902
34.38000 365.054
34.39000 363.549
34.40000 363.275
34.41000 365.612
34.42000 368.035
34.43000 369.462
34.44000 366.400
34.45000 364.216
34.46000 364.446
34.47000 366.897
34.48000 369.260
34.49000 365.781
34.50000 358.774
34.51000 351.987
34.52000 353.509
34.53000 358.153
34.54000 362.481
34.55000 363.341
34.56000 363.249
34.57000 363.166
34.58000 363.148
34.59000 363.142
34.60000 363.136
34.61000 356.867
34.62000 351.145
34.63000 346.055
34.64000 342.738
34.65000 339.526
34.66000 339.054
34.67000 343.771
34.68000 348.611
34.69000 351.314
34.70000 349.025
34.71000 347.425
34.72000 343.941
34.73000 338.930
34.74000 333.952
34.75000 330.394
34.76000 327.601
34.77000 324.921
34.78000 327.657
34.79000 332.056
34.80000 335.890
34.81000 334.464
34.82000 331.753
34.83000 330.295
34.84000 335.945
34.85000 342.716
34.86000 348.149
34.87000 344.583
34.88000 341.010
34.89000 338.201
34.90000 337.302
34.91000 336.494
34.92000 335.440
34.93000 333.971
34.94000 332.495
34.95000 331.718
34.96000 323.279
34.97000 317.602
34.98000 319.587
34.99000 327.064
35.00000 334.265
35.01000 332.574
35.02000 326.613
35.03000 320.952
35.04000 319.707
35.05000 319.882
35.06000 320.146
35.07000 321.116
35.08000 322.240
35.09000 323.164
35.10000 323.092
35.11000 322.884
35.12000 322.721
35.13000 324.825
35.14000 326.646
35.15000 327.499
35.16000 326.196
35.17000 324.812
35.18000 323.162
35.19000 321.112
35.20000 319.058
35.21000 319.704
35.22000 322.982
35.23000 326.196
35.24000 324.156
35.25000 318.771
35.26000 313.430
35.27000 309.151
35.28000 305.329
35.29000 301.741
35.30000 302.950
35.31000 305.318
35.32000 306.869
35.33000 302.784
35.34000 297.625
35.35000 294.846
35.36000 302.568
35.37000 311.532
35.38000 318.329
35.39000 316.180
35.40000 314.033
35.41000 312.498
35.42000 312.179
35.43000 311.894
35.44000 313.012
35.45000 315.999
35.46000 318.993
35.47000 320.934
35.48000 321.973
35.49000 322.964
35.50000 321.447
35.51000 318.509
35.52000 315.785
35.53000 317.174
35.54000 320.138
35.55000 322.884
35.56000 323.168
35.57000 322.854
35.58000 321.958
35.59000 317.558
35.60000 312.573
35.61000 307.794
35.62000 303.826
35.63000 299.940
35.64000 297.085
35.65000 300.815
35.66000 303.967
35.67000 308.127
35.68000 314.079
35.69000 320.066
35.70000 319.513
35.71000 311.267
35.72000 303.031
35.73000 303.333
35.74000 310.048
35.75000 316.627
35.76000 318.136
35.77000 317.085
35.78000 315.810
35.79000 311.074
35.80000 305.155
35.81000 299.752
35.82000 302.385
35.83000 306.349
35.84000 309.786
35.85000 310.439
35.86000 310.685
35.87000 309.837
35.88000 305.183
35.89000 300.205
35.90000 296.672
35.91000 306.056
35.92000 313.604
35.93000 319.169
35.94000 321.599
35.95000 323.990
35.96000 322.855
35.97000 318.075
35.98000 313.322
35.99000 308.730
36.00000 304.305
36.01000 300.078
36.02000 301.264
36.03000 304.892
36.04000 308.271
36.05000 308.457
36.06000 307.669
36.07000 306.962
36.08000 314.228
36.09000 321.995
36.10000 326.651
36.11000 316.808
36.12000 305.131
36.13000 296.398
36.14000 296.790
36.15000 297.831
36.16000 298.543
36.17000 295.093
36.18000 292.413
36.19000 294.799
36.20000 304.302
36.21000 313.850
36.22000 317.830
36.23000 316.761
36.24000 315.702
36.25000 313.190
36.26000 309.883
36.27000 306.636
36.28000 304.691
36.29000 303.271
36.30000 301.937
36.31000 301.535
36.32000 301.387
36.33000 301.255
36.34000 306.902
36.35000 312.661
36.36000 315.683
36.37000 307.415
36.38000 297.920
36.39000 290.969
36.40000 291.054
36.41000 291.547
36.42000 291.872
36.43000 297.732
36.44000 302.137
36.45000 301.012
36.46000 293.009
36.47000 285.005
36.48000 282.971
36.49000 285.708
36.50000 288.404
36.51000 292.030
36.52000 296.027
36.53000 299.985
36.54000 303.282
36.55000 306.342
36.56000 308.762
36.57000 305.332
36.58000 300.494
36.59000 296.303
36.60000 297.226
36.61000 298.687
36.62000 300.407
36.63000 303.080
36.64000 305.840
36.65000 307.130
36.66000 304.791
36.67000 302.284
36.68000 300.708
36.69000 299.679
36.70000 298.941
36.71000 296.514
36.72000 292.235
36.73000 288.003
36.74000 290.459
36.75000 297.648
36.76000 304.684
36.77000 309.924
36.78000 314.136
36.79000 317.714
36.80000 312.461
36.81000 304.373
36.82000 296.835
36.83000 293.604
36.84000 291.293
36.85000 289.332
36.86000 292.090
36.87000 294.936
36.88000 297.532
36.89000 299.313
36.90000 301.030
36.91000 302.046
36.92000 301.514
36.93000 300.926
36.94000 300.574
36.95000 306.945
36.96000 311.513
36.97000 314.970
36.98000 317.358
36.99000 319.713
37.00000 319.433
37.01000 317.497
37.02000 315.618
37.03000 313.815
37.04000 312.133
37.05000 310.775
37.06000 313.165
37.07000 316.626
37.08000 318.764
37.09000 311.901
37.10000 303.345
37.11000 296.249
37.12000 298.509
37.13000 301.276
37.14000 303.510
37.15000 304.189
37.16000 304.770
37.17000 304.361
37.18000 302.005
37.19000 299.596
37.20000 298.225
37.21000 299.984
37.22000 301.218
37.23000 302.021
37.24000 302.460
37.25000 302.797
37.26000 297.967
37.27000 290.245
37.28000 282.812
37.29000 285.361
37.30000 291.299
37.31000 296.627
37.32000 295.970
37.33000 293.792
37.34000 292.187
37.35000 293.988
37.36000 296.350
37.37000 298.263
37.38000 299.119
37.39000 299.732
37.40000 298.972
37.41000 294.651
37.42000 290.147
37.43000 288.314
37.44000 291.169
37.45000 294.111
37.46000 295.692
37.47000 304.787
37.48000 310.965
37.49000 308.984
37.50000 300.909
37.51000 292.968
37.52000 289.815
37.53000 289.051
37.54000 288.323
37.55000 294.817
37.56000 303.100
37.57000 310.321
37.58000 308.637
37.59000 304.947
37.60000 302.714
37.61000 308.070
37.62000 314.519
37.63000 319.602
37.64000 315.203
37.65000 311.039
37.66000 308.025
37.67000 307.675
37.68000 307.434
37.69000 304.323
37.70000 296.727
37.71000 289.078
37.72000 285.217
37.73000 288.422
37.74000 290.576
37.75000 293.760
37.76000 297.626
37.77000 301.420
37.78000 303.288
37.79000 304.297
37.80000 305.247
37.81000 304.323
37.82000 302.961
37.83000 301.143
37.84000 296.025
37.85000 290.251
37.86000 285.073
37.87000 282.635
37.88000 280.538
37.89000 278.932
37.90000 287.871
37.91000 295.508
37.92000 299.184
37.93000 294.659
37.94000 289.883
37.95000 287.858
37.96000 289.647
37.97000 291.461
37.98000 290.657
37.99000 287.516
38.00000 284.468
38.01000 287.015
38.02000 292.858
38.03000 298.411
38.04000 297.932
38.05000 295.053
38.06000 292.375
38.07000 288.563
38.08000 284.844
38.09000 282.522
38.10000 289.003
38.11000 297.025
38.12000 304.546
38.13000 310.032
38.14000 315.299
38.15000 319.211
38.16000 302.533
38.17000 288.660
38.18000 284.340
38.19000 297.667
38.20000 311.382
38.21000 316.196
38.22000 310.089
38.23000 303.965
38.24000 302.444
38.25000 304.542
38.26000 306.611
38.27000 307.470
38.28000 307.693
38.29000 308.029
38.30000 310.238
38.31000 313.112
38.32000 315.749
38.33000 319.561
38.34000 323.209
38.35000 325.847
38.36000 322.917
38.37000 319.135
38.38000 318.003
38.39000 326.457
38.40000 335.779
38.41000 342.475
38.42000 361.527
38.43000 376.529
38.44000 389.683
38.45000 399.796
38.46000 409.865
38.47000 424.305
38.48000 443.471
38.49000 462.551
38.50000 479.827
38.51000 495.671
38.52000 511.811
38.53000 536.912
38.54000 566.213
38.55000 595.057
38.56000 617.668
38.57000 638.305
38.58000 656.947
38.59000 679.937
38.60000 700.955
38.61000 725.577
38.62000 767.711
38.63000 812.174
38.64000 854.479
38.65000 889.836
38.66000 924.665
38.67000 948.791
38.68000 985.655
38.69000 1013.732
38.70000 1034.286
38.71000 1043.833
38.72000 1053.284
38.73000 1061.336
38.74000 1068.060
38.75000 1074.729
38.76000 1077.564
38.77000 1078.012
38.78000 1077.685
38.79000 1059.464
38.80000 1033.753
38.81000 1007.322
38.82000 972.702
38.83000 935.771
38.84000 902.969
38.85000 877.954
38.86000 857.515
38.87000 833.450
38.88000 793.797
38.89000 752.360
38.90000 713.205
38.91000 680.609
38.92000 648.421
38.93000 626.985
38.94000 582.310
38.95000 548.804
38.96000 519.922
38.97000 497.035
38.98000 474.177
38.99000 453.875
39.00000 435.703
39.01000 417.769
39.02000 400.314
39.03000 383.584
39.04000 367.054
39.05000 354.183
39.06000 342.680
39.07000 331.704
39.08000 325.807
39.09000 321.183
39.10000 317.152
39.11000 317.026
39.12000 317.461
39.13000 316.307
39.14000 309.093
39.15000 301.287
39.16000 294.352
39.17000 289.653
39.18000 285.066
39.19000 282.139
39.20000 289.447
39.21000 294.895
39.22000 296.511
39.23000 293.740
39.24000 290.969
39.25000 289.101
39.26000 287.900
39.27000 286.722
39.28000 286.260
39.29000 286.155
39.30000 285.853
39.31000 282.615
39.32000 278.397
39.33000 274.664
39.34000 274.938
39.35000 276.102
39.36000 277.098
39.37000 274.022
39.38000 270.945
39.39000 268.640
39.40000 268.955
39.41000 269.486
39.42000 272.017
39.43000 279.130
39.44000 286.424
39.45000 290.868
39.46000 276.848
39.47000 266.681
39.48000 263.585
39.49000 267.594
39.50000 271.624
39.51000 277.675
39.52000 285.046
39.53000 292.224
39.54000 289.352
39.55000 282.395
39.56000 275.828
39.57000 274.054
39.58000 273.706
39.59000 273.402
39.60000 273.417
39.61000 273.496
39.62000 273.561
39.63000 278.611
39.64000 283.311
39.65000 286.886
39.66000 287.058
39.67000 286.998
39.68000 284.483
39.69000 276.947
39.70000 269.262
39.71000 264.810
39.72000 267.218
39.73000 268.936
39.74000 269.942
39.75000 270.323
39.76000 270.735
39.77000 273.040
39.78000 276.446
39.79000 279.735
39.80000 274.670
39.81000 266.802
39.82000 260.350
39.83000 268.581
39.84000 280.696
39.85000 290.321
39.86000 284.474
39.87000 275.957
39.88000 269.005
39.89000 271.215
39.90000 273.810
39.91000 275.488
39.92000 274.695
39.93000 273.765
39.94000 272.171
39.95000 269.366
39.96000 266.536
39.97000 264.984
39.98000 267.450
39.99000 269.141
40.00000 267.848
40.01000 264.231
40.02000 260.687
40.03000 260.047
40.04000 260.914
40.05000 261.742
40.06000 262.917
40.07000 264.123
40.08000 265.388
40.09000 267.176
40.10000 269.086
40.11000 270.170
40.12000 266.750
40.13000 262.652
40.14000 259.391
40.15000 255.745
40.16000 252.778
40.17000 252.001
40.18000 256.502
40.19000 261.234
40.20000 262.432
40.21000 257.885
40.22000 253.258
40.23000 250.870
40.24000 250.671
40.25000 250.578
40.26000 255.387
40.27000 263.578
40.28000 271.496
40.29000 271.395
40.30000 267.583
40.31000 263.976
40.32000 262.323
40.33000 261.365
40.34000 260.631
40.35000 261.593
40.36000 262.909
40.37000 263.799
40.38000 262.649
40.39000 261.233
40.40000 260.137
40.41000 256.540
40.42000 253.538
40.43000 251.734
40.44000 252.507
40.45000 253.367
40.46000 253.310
40.47000 251.931
40.48000 250.541
40.49000 253.502
40.50000 260.523
40.51000 267.492
40.52000 270.735
40.53000 271.696
40.54000 272.329
40.55000 265.577
40.56000 255.772
40.57000 246.609
40.58000 245.527
40.59000 246.590
40.60000 247.146
40.61000 244.349
40.62000 240.940
40.63000 238.986
40.64000 243.208
40.65000 248.125
40.66000 251.816
40.67000 254.051
40.68000 255.728
40.69000 255.485
40.70000 251.554
40.71000 247.531
40.72000 245.781
40.73000 246.938
40.74000 248.104
40.75000 250.254
40.76000 253.203
40.77000 256.129
40.78000 258.002
40.79000 259.300
40.80000 260.323
40.81000 256.449
40.82000 250.765
40.83000 245.525
40.84000 244.621
40.85000 244.773
40.86000 244.900
40.87000 244.883
40.88000 244.844
40.89000 244.991
40.90000 245.840
40.91000 246.758
40.92000 247.424
40.93000 241.940
40.94000 237.491
40.95000 235.788
40.96000 238.786
40.97000 241.864
40.98000 241.701
40.99000 237.882
41.00000 234.072
41.01000 237.570
41.02000 246.308
41.03000 254.785
41.04000 254.543
41.05000 250.054
41.06000 245.824
41.07000 245.367
41.08000 246.153
41.09000 246.867
41.10000 246.856
41.11000 246.707
41.12000 246.811
41.13000 248.200
41.14000 249.768
41.15000 251.025
41.16000 251.237
41.17000 251.365
41.18000 251.454
41.19000 244.922
41.20000 239.787
41.21000 238.630
41.22000 243.532
41.23000 248.498
41.24000 247.613
41.25000 240.934
41.26000 234.300
41.27000 236.546
41.28000 244.404
41.29000 251.989
41.30000 252.703
41.31000 250.430
41.32000 247.920
41.33000 242.553
41.34000 236.348
41.35000 230.804
41.36000 236.666
41.37000 243.697
41.38000 249.309
41.39000 248.566
41.40000 247.056
41.41000 245.779
41.42000 245.197
41.43000 244.661
41.44000 244.299
41.45000 243.587
41.46000 243.050
41.47000 241.444
41.48000 238.393
41.49000 235.337
41.50000 234.559
41.51000 235.764
41.52000 236.954
41.53000 238.379
41.54000 239.901
41.55000 241.314
41.56000 240.581
41.57000 239.014
41.58000 237.555
41.59000 237.204
41.60000 237.142
41.61000 237.087
41.62000 237.758
41.63000 238.441
41.64000 238.966
41.65000 238.866
41.66000 238.701
41.67000 238.310
41.68000 237.316
41.69000 236.290
41.70000 235.625
41.71000 234.083
41.72000 232.942
41.73000 232.527
41.74000 232.980
41.75000 233.442
41.76000 235.662
41.77000 239.232
41.78000 242.742
41.79000 242.286
41.80000 239.881
41.81000 237.507
41.82000 235.640
41.83000 233.950
41.84000 232.785
41.85000 236.188
41.86000 240.650
41.87000 244.489
41.88000 244.720
41.89000 244.461
41.90000 244.255
41.91000 244.233
41.92000 244.227
41.93000 243.725
41.94000 242.042
41.95000 240.309
41.96000 239.236
41.97000 241.978
41.98000 243.985
41.99000 245.467
42.00000 246.396
42.01000 247.321
42.02000 247.840
42.03000 248.083
42.04000 248.320
42.05000 244.456
42.06000 238.964
42.07000 234.058
42.08000 236.829
42.09000 241.975
42.10000 246.127
42.11000 242.843
42.12000 238.036
42.13000 233.987
42.14000 237.548
42.15000 241.337
42.16000 243.849
42.17000 242.345
42.18000 240.550
42.19000 239.761
42.20000 241.111
42.21000 242.532
42.22000 243.369
42.23000 242.892
42.24000 242.549
42.25000 245.088
42.26000 250.280
42.27000 255.388
42.28000 254.849
42.29000 250.891
42.30000 247.058
42.31000 242.279
42.32000 237.392
42.33000 233.076
42.34000 235.017
42.35000 238.681
42.36000 242.014
42.37000 243.192
42.38000 243.981
42.39000 244.630
42.40000 243.363
42.41000 242.146
42.42000 239.569
42.43000 233.178
42.44000 226.559
42.45000 223.184
42.46000 225.960
42.47000 228.884
42.48000 230.518
42.49000 233.708
42.50000 235.914
42.51000 235.414
42.52000 232.719
42.53000 230.112
42.54000 231.454
42.55000 234.926
42.56000 238.258
42.57000 238.331
42.58000 237.287
42.59000 236.509
42.60000 238.207
42.61000 240.510
42.62000 241.856
42.63000 237.758
42.64000 232.801
42.65000 228.821
42.66000 225.431
42.67000 222.730
42.68000 223.283
42.69000 231.982
42.70000 241.069
42.71000 244.789
42.72000 239.434
42.73000 233.931
42.74000 231.031
42.75000 235.354
42.76000 238.286
42.77000 240.444
42.78000 242.045
42.79000 243.530
42.80000 241.218
42.81000 237.080
42.82000 233.149
42.83000 230.388
42.84000 228.189
42.85000 226.255
42.86000 226.433
42.87000 227.068
42.88000 227.264
42.89000 225.260
42.90000 222.953
42.91000 221.152
42.92000 224.087
42.93000 226.729
42.94000 228.603
42.95000 228.762
42.96000 228.857
42.97000 230.916
42.98000 235.926
42.99000 240.965
43.00000 245.766
43.01000 250.334
43.02000 254.794
43.03000 250.270
43.04000 240.018
43.05000 230.169
43.06000 230.186
43.07000 234.442
43.08000 238.437
43.09000 242.037
43.10000 245.215
43.11000 247.511
43.12000 243.699
43.13000 238.720
43.14000 234.443
43.15000 233.268
43.16000 232.461
43.17000 231.848
43.18000 235.081
43.19000 237.817
43.20000 238.327
43.21000 234.393
43.22000 230.336
43.23000 226.619
43.24000 223.357
43.25000 220.099
43.26000 220.585
43.27000 224.277
43.28000 227.963
43.29000 231.337
43.30000 234.534
43.31000 237.272
43.32000 231.173
43.33000 221.682
43.34000 212.890
43.35000 216.578
43.36000 222.791
43.37000 228.800
43.38000 233.572
43.39000 238.136
43.40000 241.565
43.41000 240.539
43.42000 239.061
43.43000 237.975
43.44000 239.027
43.45000 239.929
43.46000 238.305
43.47000 232.185
43.48000 225.978
43.49000 222.861
43.50000 223.387
43.51000 223.917
43.52000 224.452
43.53000 224.988
43.54000 225.622
43.55000 229.937
43.56000 236.115
43.57000 241.861
43.58000 240.890
43.59000 237.619
43.60000 234.633
43.61000 230.570
43.62000 226.746
43.63000 223.119
43.64000 220.537
43.65000 218.107
43.66000 216.789
43.67000 219.339
43.68000 222.221
43.69000 224.268
43.70000 216.178
43.71000 209.701
43.72000 209.502
43.73000 219.254
43.74000 229.132
43.75000 233.320
43.76000 231.614
43.77000 229.918
43.78000 228.227
43.79000 226.561
43.80000 224.929
43.81000 224.233
43.82000 223.960
43.83000 223.714
43.84000 223.817
43.85000 224.028
43.86000 224.216
43.87000 220.787
43.88000 217.146
43.89000 214.061
43.90000 213.576
43.91000 213.421
43.92000 213.482
43.93000 214.215
43.94000 214.997
43.95000 215.531
43.96000 221.951
43.97000 226.897
43.98000 229.201
43.99000 227.788
44.00000 226.348
44.01000 224.397
44.02000 221.981
44.03000 219.588
44.04000 215.610
44.05000 210.788
44.06000 206.138
44.07000 205.165
44.08000 205.676
44.09000 206.489
44.10000 210.559
44.11000 215.514
44.12000 219.890
44.13000 224.252
44.14000 228.015
44.15000 231.864
44.16000 236.068
44.17000 240.311
44.18000 242.686
44.19000 239.889
44.20000 236.790
44.21000 234.754
44.22000 229.219
44.23000 225.086
44.24000 220.993
44.25000 216.948
44.26000 212.913
44.27000 212.028
44.28000 213.664
44.29000 215.276
44.30000 211.575
44.31000 205.240
44.32000 199.413
44.33000 202.255
44.34000 208.219
44.35000 214.138
44.36000 219.632
44.37000 225.024
44.38000 229.696
44.39000 233.777
44.40000 237.172
44.41000 239.164
44.42000 236.007
44.43000 232.373
44.44000 229.200
44.45000 227.165
44.46000 225.184
44.47000 223.938
44.48000 231.671
44.49000 237.365
44.50000 236.364
44.51000 228.012
44.52000 219.704
44.53000 218.017
44.54000 221.023
44.55000 223.965
44.56000 227.813
44.57000 231.922
44.58000 235.678
44.59000 234.503
44.60000 231.742
44.61000 229.728
44.62000 233.597
44.63000 238.723
44.64000 243.072
44.65000 242.187
44.66000 240.850
44.67000 240.813
44.68000 245.021
44.69000 249.558
44.70000 250.862
44.71000 245.028
44.72000 238.937
44.73000 235.284
44.74000 238.615
44.75000 241.028
44.76000 243.785
44.77000 246.874
44.78000 249.903
44.79000 248.176
44.80000 243.455
44.81000 238.869
44.82000 240.794
44.83000 245.247
44.84000 249.678
44.85000 253.848
44.86000 257.942
44.87000 261.324
44.88000 259.845
44.89000 257.450
44.90000 255.463
44.91000 260.132
44.92000 264.632
44.93000 268.476
44.94000 270.405
44.95000 272.212
44.96000 272.274
44.97000 268.897
44.98000 265.427
44.99000 263.451
45.00000 271.051
45.01000 276.378
45.02000 280.431
45.03000 283.407
45.04000 286.368
45.05000 288.554
45.06000 290.307
45.07000 291.994
45.08000 296.541
45.09000 301.826
45.10000 306.354
45.11000 303.436
45.12000 298.623
45.13000 294.356
45.14000 293.336
45.15000 292.852
45.16000 292.461
45.17000 285.717
45.18000 279.711
45.19000 277.732
45.20000 286.226
45.21000 295.262
45.22000 302.511
45.23000 306.620
45.24000 310.670
45.25000 312.848
45.26000 291.109
45.27000 276.273
45.28000 269.549
45.29000 268.895
45.30000 268.174
45.31000 265.074
45.32000 260.785
45.33000 256.696
45.34000 254.204
45.35000 252.395
45.36000 250.967
45.37000 252.748
45.38000 255.253
45.39000 256.745
45.40000 252.944
45.41000 248.381
45.42000 244.782
45.43000 238.156
45.44000 232.638
45.45000 228.371
45.46000 227.010
45.47000 225.766
45.48000 227.006
45.49000 232.129
45.50000 237.299
45.51000 239.911
45.52000 232.944
45.53000 228.311
45.54000 226.449
45.55000 226.428
45.56000 226.403
45.57000 226.302
45.58000 226.167
45.59000 226.040
45.60000 220.366
45.61000 213.640
45.62000 208.394
45.63000 213.891
45.64000 221.530
45.65000 227.313
45.66000 224.545
45.67000 220.710
45.68000 217.771
45.69000 221.579
45.70000 224.959
45.71000 224.613
45.72000 216.541
45.73000 208.231
45.74000 201.747
45.75000 197.801
45.76000 193.873
45.77000 197.945
45.78000 209.172
45.79000 220.213
45.80000 219.859
45.81000 212.780
45.82000 206.020
45.83000 205.907
45.84000 208.444
45.85000 210.805
45.86000 212.237
45.87000 213.305
45.88000 213.874
45.89000 211.288
45.90000 208.148
45.91000 206.456
45.92000 210.674
45.93000 215.524
45.94000 219.127
45.95000 208.657
45.96000 199.894
45.97000 195.873
45.98000 200.629
45.99000 205.579
46.00000 210.541
46.01000 215.517
46.02000 220.484
46.03000 221.415
46.04000 219.168
46.05000 216.898
46.06000 213.669
46.07000 209.934
46.08000 206.459
46.09000 207.309
46.10000 209.698
46.11000 211.890
46.12000 206.502
46.13000 200.088
46.14000 194.934
46.15000 196.755
46.16000 199.645
46.17000 202.947
46.18000 207.745
46.19000 212.678
46.20000 216.223
46.21000 203.690
46.22000 193.542
46.23000 190.662
46.24000 199.761
46.25000 209.038
46.26000 211.619
46.27000 206.952
46.28000 202.302
46.29000 200.583
46.30000 200.910
46.31000 201.260
46.32000 202.296
46.33000 203.652
46.34000 205.173
46.35000 208.931
46.36000 213.399
46.37000 217.437
46.38000 214.751
46.39000 211.143
46.40000 207.994
46.41000 207.080
46.42000 206.463
46.43000 207.000
46.44000 211.261
46.45000 215.804
46.46000 218.953
46.47000 207.857
46.48000 199.129
46.49000 198.757
46.50000 210.632
46.51000 222.612
46.52000 223.584
46.53000 214.108
46.54000 204.709
46.55000 201.757
46.56000 202.794
46.57000 203.917
46.58000 207.037
46.59000 210.993
46.60000 214.413
46.61000 211.698
46.62000 207.249
46.63000 203.296
46.64000 208.380
46.65000 214.246
46.66000 218.740
46.67000 217.333
46.68000 215.248
46.69000 213.041
46.70000 210.487
46.71000 207.911
46.72000 206.194
46.73000 200.846
46.74000 196.817
46.75000 193.747
46.76000 191.924
46.77000 190.110
46.78000 190.658
46.79000 193.179
46.80000 195.666
46.81000 197.543
46.82000 199.040
46.83000 200.426
46.84000 199.777
46.85000 198.365
46.86000 197.064
46.87000 196.824
46.88000 196.850
46.89000 196.873
46.90000 189.974
46.91000 183.110
46.92000 178.221
46.93000 180.878
46.94000 184.272
46.95000 188.476
46.96000 194.758
46.97000 201.145
46.98000 205.223
46.99000 202.820
47.00000 200.986
47.01000 199.674
47.02000 198.960
47.03000 198.245
47.04000 197.291
47.05000 196.162
47.06000 195.053
47.07000 195.593
47.08000 196.897
47.09000 197.927
47.10000 194.871
47.11000 190.450
47.12000 186.556
47.13000 187.023
47.14000 188.462
47.15000 189.692
47.16000 191.394
47.17000 192.885
47.18000 194.621
47.19000 197.185
47.20000 199.818
47.21000 202.028
47.22000 203.267
47.23000 204.467
47.24000 205.199
47.25000 201.948
47.26000 199.593
47.27000 195.293
47.28000 189.034
47.29000 182.841
47.30000 182.697
47.31000 186.516
47.32000 190.237
47.33000 191.513
47.34000 191.702
47.35000 192.006
47.36000 193.742
47.37000 195.904
47.38000 197.502
47.39000 195.075
47.40000 191.856
47.41000 189.164
47.42000 187.178
47.43000 185.600
47.44000 184.139
47.45000 183.031
47.46000 181.947
47.47000 181.624
47.48000 182.860
47.49000 184.142
47.50000 184.886
47.51000 186.215
47.52000 187.151
47.53000 188.909
47.54000 191.392
47.55000 193.857
47.56000 195.266
47.57000 196.058
47.58000 196.824
47.59000 194.610
47.60000 191.417
47.61000 188.657
47.62000 190.390
47.63000 193.313
47.64000 195.843
47.65000 195.922
47.66000 195.577
47.67000 195.295
47.68000 188.441
47.69000 182.265
47.70000 178.383
47.71000 180.697
47.72000 183.357
47.73000 185.783
47.74000 187.784
47.75000 189.776
47.76000 190.869
47.77000 194.269
47.78000 196.604
47.79000 196.889
47.80000 195.575
47.81000 194.256
47.82000 192.764
47.83000 191.180
47.84000 189.666
47.85000 191.177
47.86000 193.576
47.87000 195.527
47.88000 193.522
47.89000 190.587
47.90000 187.958
47.91000 187.001
47.92000 186.298
47.93000 185.738
47.94000 187.956
47.95000 189.944
47.96000 191.042
47.97000 189.992
47.98000 188.848
47.99000 187.483
48.00000 185.762
48.01000 184.035
48.02000 183.144
48.03000 189.726
48.04000 194.128
48.05000 194.257
48.06000 191.436
48.07000 188.661
48.08000 187.247
48.09000 186.464
48.10000 185.723
48.11000 179.674
48.12000 172.581
48.13000 166.462
48.14000 167.768
48.15000 170.620
48.16000 173.975
48.17000 179.752
48.18000 185.847
48.19000 190.564
48.20000 188.762
48.21000 186.946
48.22000 184.848
48.23000 182.144
48.24000 179.419
48.25000 178.683
48.26000 180.827
48.27000 182.994
48.28000 185.038
48.29000 186.967
48.30000 188.843
48.31000 187.001
48.32000 182.876
48.33000 179.043
48.34000 181.802
48.35000 187.291
48.36000 192.421
48.37000 196.100
48.38000 199.072
48.39000 200.914
48.40000 195.280
48.41000 188.278
48.42000 182.227
48.43000 180.221
48.44000 178.672
48.45000 177.508
48.46000 178.584
48.47000 179.531
48.48000 179.573
48.49000 177.875
48.50000 176.133
48.51000 175.651
48.52000 176.783
48.53000 177.919
48.54000 177.091
48.55000 174.651
48.56000 172.329
48.57000 175.581
48.58000 181.881
48.59000 187.773
48.60000 186.346
48.61000 182.212
48.62000 178.400
48.63000 179.070
48.64000 180.665
48.65000 182.743
48.66000 187.605
48.67000 192.914
48.68000 195.972
48.69000 190.538
48.70000 184.287
48.71000 179.742
48.72000 180.422
48.73000 181.143
48.74000 182.090
48.75000 183.423
48.76000 184.762
48.77000 184.172
48.78000 181.398
48.79000 178.632
48.80000 176.398
48.81000 174.569
48.82000 172.887
48.83000 176.155
48.84000 181.837
48.85000 186.997
48.86000 184.522
48.87000 179.527
48.88000 174.989
48.89000 177.375
48.90000 180.828
48.91000 183.709
48.92000 183.682
48.93000 183.249
48.94000 182.639
48.95000 181.439
48.96000 180.192
48.97000 179.316
48.98000 178.311
48.99000 177.546
49.00000 178.218
49.01000 181.082
49.02000 183.969
49.03000 181.631
49.04000 174.107
49.05000 166.634
49.06000 169.568
49.07000 179.084
49.08000 188.208
49.09000 187.392
49.10000 182.247
49.11000 177.385
49.12000 175.954
49.13000 175.532
49.14000 175.155
49.15000 178.153
49.16000 181.336
49.17000 184.410
49.18000 186.994
49.19000 189.520
49.20000 189.074
49.21000 179.742
49.22000 169.814
49.23000 163.107
49.24000 169.643
49.25000 174.794
49.26000 177.622
49.27000 177.306
49.28000 176.974
49.29000 176.474
49.30000 175.830
49.31000 175.193
49.32000 177.148
49.33000 180.514
49.34000 183.841
49.35000 186.417
49.36000 188.701
49.37000 190.606
49.38000 188.654
49.39000 185.692
49.40000 183.093
49.41000 178.189
49.42000 173.637
49.43000 170.278
49.44000 171.660
49.45000 173.532
49.46000 175.435
49.47000 177.424
49.48000 179.417
49.49000 180.709
49.50000 173.284
49.51000 167.720
49.52000 166.807
49.53000 171.460
49.54000 176.119
49.55000 179.589
49.56000 182.143
49.57000 184.654
49.58000 182.448
49.59000 177.973
49.60000 173.754
49.61000 173.623
49.62000 174.913
49.63000 176.101
49.64000 176.410
49.65000 176.515
49.66000 176.606
49.67000 174.440
49.68000 172.321
49.69000 170.967
49.70000 172.318
49.71000 173.906
49.72000 175.703
49.73000 177.996
49.74000 180.310
49.75000 181.745
49.76000 177.331
49.77000 174.101
49.78000 174.638
49.79000 179.142
49.80000 183.595
49.81000 182.161
49.82000 176.714
49.83000 171.394
49.84000 173.661
49.85000 179.156
49.86000 184.224
49.87000 183.684
49.88000 181.408
49.89000 179.407
49.90000 179.478
49.91000 179.973
49.92000 180.390
49.93000 183.546
49.94000 186.475
49.95000 188.038
49.96000 185.303
49.97000 182.254
49.98000 180.228
49.99000 180.379
50.00000 180.601
50.01000 180.732
50.02000 179.021
50.03000 177.804
50.04000 177.834
50.05000 179.014
50.06000 180.215
50.07000 182.752
50.08000 186.099
50.09000 189.342
50.10000 185.855
50.11000 179.950
50.12000 174.551
50.13000 174.709
50.14000 176.401
50.15000 177.974
50.16000 178.775
50.17000 179.436
50.18000 179.981
50.19000 181.115
50.20000 182.101
50.21000 182.983
50.22000 183.572
50.23000 184.143
50.24000 183.689
50.25000 181.284
50.26000 178.833
50.27000 177.463
50.28000 179.109
50.29000 180.258
50.30000 182.165
50.31000 184.688
50.32000 187.100
50.33000 184.477
50.34000 179.134
50.35000 174.006
50.36000 180.634
50.37000 190.849
50.38000 199.947
50.39000 198.626
50.40000 194.753
50.41000 191.580
50.42000 192.404
50.43000 193.861
50.44000 195.030
50.45000 190.217
50.46000 185.859
50.47000 184.758
50.48000 191.821
50.49000 199.275
50.50000 204.430
50.51000 205.692
50.52000 206.890
50.53000 207.522
50.54000 203.847
50.55000 201.378
50.56000 203.012
50.57000 207.598
50.58000 212.153
50.59000 215.677
50.60000 218.705
50.61000 221.581
50.62000 220.979
50.63000 219.376
50.64000 217.952
50.65000 217.961
50.66000 218.280
50.67000 219.753
50.68000 227.014
50.69000 235.071
50.70000 241.367
50.71000 233.114
50.72000 225.606
50.73000 221.765
50.74000 226.132
50.75000 230.806
50.76000 231.865
50.77000 227.478
50.78000 223.038
50.79000 221.086
50.80000 221.569
50.81000 222.016
50.82000 219.396
50.83000 214.817
50.84000 210.337
50.85000 208.308
50.86000 207.333
50.87000 206.418
50.88000 209.502
50.89000 213.374
50.90000 216.782
50.91000 216.975
50.92000 216.553
50.93000 215.695
50.94000 212.905
50.95000 209.885
50.96000 207.593
50.97000 203.948
50.98000 201.015
50.99000 197.174
51.00000 191.517
51.01000 185.809
51.02000 184.431
51.03000 188.836
51.04000 193.267
51.05000 190.478
51.06000 181.500
51.07000 172.627
51.08000 169.391
51.09000 169.361
51.10000 169.464
51.11000 172.148
51.12000 175.823
51.13000 179.228
51.14000 179.269
51.15000 178.524
51.16000 177.655
51.17000 176.031
51.18000 174.280
51.19000 172.807
51.20000 172.423
51.21000 172.150
51.22000 171.949
51.23000 173.379
51.24000 174.552
51.25000 173.407
51.26000 168.129
51.27000 162.769
51.28000 162.212
51.29000 167.324
51.30000 172.432
51.31000 172.053
51.32000 167.537
51.33000 163.235
51.34000 166.912
51.35000 174.634
51.36000 182.004
51.37000 183.899
51.38000 183.915
51.39000 183.930
51.40000 177.829
51.41000 171.170
51.42000 166.026
51.43000 168.915
51.44000 172.982
51.45000 175.691
51.46000 173.660
51.47000 171.222
51.48000 169.490
51.49000 168.619
51.50000 167.984
51.51000 166.348
51.52000 163.123
51.53000 159.879
51.54000 160.568
51.55000 165.341
51.56000 170.087
51.57000 170.475
51.58000 167.961
51.59000 165.437
51.60000 162.657
51.61000 159.761
51.62000 157.308
51.63000 160.563
51.64000 165.563
51.65000 170.057
51.66000 170.407
51.67000 169.978
51.68000 169.745
51.69000 170.432
51.70000 171.236
51.71000 171.736
51.72000 171.292
51.73000 170.780
51.74000 170.430
51.75000 161.330
51.76000 154.307
51.77000 154.378
51.78000 164.451
51.79000 174.591
51.80000 177.292
51.81000 173.224
51.82000 169.194
51.83000 166.310
51.84000 164.157
51.85000 162.087
51.86000 161.788
51.87000 162.205
51.88000 162.504
51.89000 161.525
51.90000 160.199
51.91000 159.028
51.92000 161.869
51.93000 164.939
51.94000 168.005
51.95000 171.056
51.96000 174.106
51.97000 174.035
51.98000 165.307
51.99000 156.072
52.00000 150.001
52.01000 156.726
52.02000 161.895
52.03000 164.060
52.04000 162.473
52.05000 160.883
52.06000 161.655
52.07000 164.322
52.08000 166.950
52.09000 165.092
52.10000 160.968
52.11000 157.160
52.12000 158.756
52.13000 162.303
52.14000 165.642
52.15000 167.068
52.16000 168.030
52.17000 168.865
52.18000 171.903
52.19000 174.781
52.20000 176.393
52.21000 173.351
52.22000 169.877
52.23000 166.040
52.24000 161.302
52.25000 156.523
52.26000 153.514
52.27000 159.646
52.28000 164.186
52.29000 164.310
52.30000 159.577
52.31000 154.866
52.32000 153.601
52.33000 154.782
52.34000 155.938
52.35000 155.220
52.36000 153.673
52.37000 152.316
52.38000 153.628
52.39000 155.799
52.40000 157.704
52.41000 157.519
52.42000 156.886
52.43000 156.349
52.44000 155.041
52.45000 153.857
52.46000 152.340
52.47000 149.738
52.48000 147.051
52.49000 147.404
52.50000 154.484
52.51000 161.807
52.52000 166.202
52.53000 160.370
52.54000 156.158
52.55000 153.690
52.56000 152.905
52.57000 152.151
52.58000 153.841
52.59000 157.073
52.60000 160.212
52.61000 160.329
52.62000 159.218
52.63000 158.106
52.64000 156.984
52.65000 155.858
52.66000 155.865
52.67000 163.616
52.68000 172.828
52.69000 180.473
52.70000 170.752
52.71000 161.038
52.72000 154.015
52.73000 154.846
52.74000 156.181
52.75000 157.654
52.76000 159.401
52.77000 161.155
52.78000 162.155
52.79000 162.423
52.80000 162.601
52.81000 158.122
52.82000 149.693
52.83000 141.464
52.84000 143.420
52.85000 151.095
52.86000 158.487
52.87000 165.268
52.88000 171.418
52.89000 176.318
52.90000 168.900
52.91000 158.341
52.92000 149.562
52.93000 151.394
52.94000 154.982
52.95000 157.889
52.96000 155.359
52.97000 152.857
52.98000 151.585
52.99000 153.521
53.00000 155.623
53.01000 156.418
53.02000 154.911
53.03000 153.361
53.04000 152.527
53.05000 155.353
53.06000 157.277
53.07000 156.869
53.08000 154.714
53.09000 152.661
53.10000 154.282
53.11000 157.745
53.12000 161.045
53.13000 160.261
53.14000 158.251
53.15000 156.629
53.16000 158.291
53.17000 160.695
53.18000 162.870
53.19000 163.849
53.20000 164.655
53.21000 165.291
53.22000 166.425
53.23000 167.369
53.24000 166.283
53.25000 160.476
53.26000 154.476
53.27000 152.309
53.28000 156.149
53.29000 160.062
53.30000 162.041
53.31000 169.228
53.32000 173.978
53.33000 172.645
53.34000 167.270
53.35000 162.031
53.36000 160.456
53.37000 160.519
53.38000 160.579
53.39000 163.323
53.40000 166.578
53.41000 169.254
53.42000 167.715
53.43000 165.334
53.44000 163.537
53.45000 164.431
53.46000 165.663
53.47000 166.607
53.48000 165.929
53.49000 165.303
53.50000 165.313
53.51000 166.641
53.52000 168.009
53.53000 165.997
53.54000 159.278
53.55000 152.532
53.56000 152.252
53.57000 157.772
53.58000 163.221
53.59000 164.238
53.60000 162.636
53.61000 161.078
53.62000 160.455
53.63000 160.205
53.64000 159.973
53.65000 158.694
53.66000 157.283
53.67000 156.130
53.68000 156.604
53.69000 157.365
53.70000 158.215
53.71000 159.432
53.72000 160.688
53.73000 161.622
53.74000 163.436
53.75000 164.885
53.76000 164.643
53.77000 161.265
53.78000 157.818
53.79000 156.474
53.80000 157.722
53.81000 158.974
53.82000 159.381
53.83000 159.120
53.84000 158.919
53.85000 161.247
53.86000 164.906
53.87000 168.203
53.88000 165.433
53.89000 160.501
53.90000 155.974
53.91000 158.600
53.92000 162.465
53.93000 165.096
53.94000 160.894
53.95000 155.641
53.96000 151.972
53.97000 154.053
53.98000 156.658
53.99000 158.531
54.00000 162.708
54.01000 165.985
54.02000 167.614
54.03000 166.518
54.04000 165.383
54.05000 163.830
54.06000 161.825
54.07000 159.829
54.08000 161.913
54.09000 166.806
54.10000 171.560
54.11000 172.090
54.12000 170.633
54.13000 168.930
54.14000 163.849
54.15000 157.693
54.16000 152.129
54.17000 150.329
54.18000 149.444
54.19000 149.515
54.20000 154.247
54.21000 159.601
54.22000 163.729
54.23000 163.897
54.24000 163.763
54.25000 163.671
54.26000 160.949
54.27000 158.830
54.28000 158.339
54.29000 160.238
54.30000 162.158
54.31000 160.708
54.32000 156.051
54.33000 151.432
54.34000 149.924
54.35000 150.345
54.36000 150.798
54.37000 152.008
54.38000 153.535
54.39000 155.198
54.40000 158.408
54.41000 162.057
54.42000 165.300
54.43000 162.680
54.44000 159.460
54.45000 156.817
54.46000 156.662
54.47000 156.792
54.48000 156.678
54.49000 155.857
54.50000 154.991
54.51000 154.413
54.52000 153.972
54.53000 153.648
54.54000 152.950
54.55000 151.764
54.56000 150.579
54.57000 150.975
54.58000 152.694
54.59000 154.391
54.60000 156.545
54.61000 158.890
54.62000 161.097
54.63000 160.763
54.64000 159.477
54.65000 158.076
54.66000 155.559
54.67000 152.761
54.68000 150.321
54.69000 150.332
54.70000 150.684
54.71000 152.800
54.72000 161.664
54.73000 171.190
54.74000 176.864
54.75000 172.623
54.76000 167.881
54.77000 164.851
54.78000 157.787
54.79000 152.593
54.80000 150.028
54.81000 150.485
54.82000 150.960
54.83000 154.142
54.84000 159.327
54.85000 164.414
54.86000 161.379
54.87000 154.580
54.88000 148.335
54.89000 150.384
54.90000 155.209
54.91000 159.578
54.92000 160.165
54.93000 159.907
54.94000 159.688
54.95000 157.425
54.96000 155.272
54.97000 153.594
54.98000 153.535
54.99000 153.610
55.00000 154.285
55.01000 156.343
55.02000 158.455
55.03000 159.744
55.04000 157.023
55.05000 155.045
55.06000 155.492
55.07000 158.385
55.08000 161.254
55.09000 161.928
55.10000 161.162
55.11000 160.415
55.12000 163.289
55.13000 167.555
55.14000 170.963
55.15000 163.750
55.16000 153.369
55.17000 144.673
55.18000 148.053
55.19000 153.812
55.20000 158.629
55.21000 154.607
55.22000 150.361
55.23000 147.822
55.24000 150.457
55.25000 153.447
55.26000 158.069
55.27000 166.043
55.28000 174.116
55.29000 178.801
55.30000 171.018
55.31000 165.508
55.32000 164.786
55.33000 168.303
55.34000 171.774
55.35000 172.546
55.36000 171.742
55.37000 170.964
55.38000 169.821
55.39000 168.608
55.40000 167.906
55.41000 172.535
55.42000 178.579
55.43000 184.115
55.44000 186.480
55.45000 188.296
55.46000 189.780
55.47000 190.493
55.48000 191.010
55.49000 189.951
55.50000 184.628
55.51000 179.066
55.52000 179.595
55.53000 191.277
55.54000 203.197
55.55000 209.743
55.56000 212.760
55.57000 214.840
55.58000 219.372
55.59000 225.819
55.60000 232.189
55.61000 235.435
55.62000 237.055
55.63000 238.605
55.64000 245.270
55.65000 253.155
55.66000 261.199
55.67000 270.649
55.68000 280.431
55.69000 289.919
55.70000 297.795
55.71000 305.428
55.72000 311.505
55.73000 335.274
55.74000 355.714
55.75000 370.472
55.76000 371.498
55.77000 371.914
55.78000 383.557
55.79000 413.511
55.80000 443.723
55.81000 459.341
55.82000 485.909
55.83000 503.794
55.84000 518.123
55.85000 529.992
55.86000 541.751
55.87000 550.272
55.88000 557.290
55.89000 563.931
55.90000 571.793
55.91000 579.376
55.92000 587.044
55.93000 595.352
55.94000 603.793
55.95000 611.748
55.96000 617.364
55.97000 622.673
55.98000 626.783
55.99000 612.402
56.00000 599.886
56.01000 591.317
56.02000 591.271
56.03000 591.516
56.04000 589.844
56.05000 585.392
56.06000 580.919
56.07000 570.245
56.08000 553.762
56.09000 537.271
56.10000 520.224
56.11000 502.834
56.12000 485.508
56.13000 469.629
56.14000 454.350
56.15000 440.065
56.16000 425.159
56.17000 411.468
56.18000 397.002
56.19000 377.401
56.20000 356.858
56.21000 338.236
56.22000 327.800
56.23000 318.290
56.24000 311.143
56.25000 297.425
56.26000 286.385
56.27000 277.185
56.28000 271.529
56.29000 265.961
56.30000 258.284
56.31000 247.898
56.32000 237.515
56.33000 229.196
56.34000 222.604
56.35000 216.104
56.36000 213.958
56.37000 214.196
56.38000 214.112
56.39000 208.227
56.40000 200.192
56.41000 192.780
56.42000 190.721
56.43000 190.068
56.44000 188.853
56.45000 184.389
56.46000 179.402
56.47000 175.202
56.48000 173.976
56.49000 173.037
56.50000 172.353
56.51000 166.552
56.52000 161.893
56.53000 159.555
56.54000 161.202
56.55000 162.918
56.56000 163.786
56.57000 163.693
56.58000 163.599
56.59000 159.527
56.60000 152.607
56.61000 145.899
56.62000 146.294
56.63000 150.161
56.64000 154.020
56.65000 157.757
56.66000 161.454
56.67000 164.813
56.68000 163.599
56.69000 161.636
56.70000 159.462
56.71000 156.214
56.72000 152.815
56.73000 149.553
56.74000 146.751
56.75000 143.986
56.76000 142.044
56.77000 151.154
56.78000 158.374
56.79000 161.222
56.80000 157.389
56.81000 153.483
56.82000 151.486
56.83000 151.387
56.84000 151.288
56.85000 149.976
56.86000 147.910
56.87000 145.951
56.88000 146.718
56.89000 148.674
56.90000 150.446
56.91000 149.981
56.92000 148.856
56.93000 147.852
56.94000 148.286
56.95000 148.907
56.96000 149.950
56.97000 152.884
56.98000 156.046
56.99000 158.221
57.00000 157.435
57.01000 156.450
57.02000 155.785
57.03000 147.064
57.04000 140.396
57.05000 137.891
57.06000 141.029
57.07000 144.200
57.08000 147.719
57.09000 151.542
57.10000 155.323
57.11000 153.719
57.12000 149.120
57.13000 144.608
57.14000 141.816
57.15000 139.694
57.16000 137.886
57.17000 139.291
57.18000 141.539
57.19000 143.512
57.20000 142.202
57.21000 140.594
57.22000 139.559
57.23000 140.806
57.24000 142.289
57.25000 142.077
57.26000 137.329
57.27000 132.335
57.28000 129.095
57.29000 137.431
57.30000 143.707
57.31000 146.857
57.32000 146.258
57.33000 145.650
57.34000 144.608
57.35000 143.231
57.36000 141.877
57.37000 142.091
57.38000 143.078
57.39000 143.922
57.40000 142.466
57.41000 140.212
57.42000 138.029
57.43000 136.471
57.44000 135.059
57.45000 133.844
57.46000 135.580
57.47000 137.424
57.48000 139.294
57.49000 141.258
57.50000 143.231
57.51000 144.628
57.52000 144.652
57.53000 144.617
57.54000 144.595
57.55000 143.606
57.56000 142.885
57.57000 143.716
57.58000 146.183
57.59000 148.618
57.60000 147.143
57.61000 142.998
57.62000 138.951
57.63000 137.712
57.64000 137.760
57.65000 137.884
57.66000 139.003
57.67000 140.431
57.68000 141.918
57.69000 143.857
57.70000 145.889
57.71000 147.601
57.72000 145.171
57.73000 142.695
57.74000 140.416
57.75000 138.761
57.76000 137.152
57.77000 135.331
57.78000 133.057
57.79000 130.768
57.80000 129.417
57.81000 133.033
57.82000 135.614
57.83000 137.117
57.84000 137.622
57.85000 138.141
57.86000 139.631
57.87000 141.710
57.88000 143.725
57.89000 144.554
57.90000 144.879
57.91000 145.067
57.92000 143.743
57.93000 142.002
57.94000 141.116
57.95000 145.817
57.96000 151.530
57.97000 156.235
57.98000 151.014
57.99000 145.810
58.00000 142.095
58.01000 142.567
58.02000 143.289
58.03000 144.848
58.04000 147.995
58.05000 151.182
58.06000 152.965
58.07000 140.728
58.08000 132.236
58.09000 131.447
58.10000 136.932
58.11000 142.313
58.12000 142.980
58.13000 141.095
58.14000 139.286
58.15000 136.623
58.16000 133.841
58.17000 131.425
58.18000 132.444
58.19000 134.306
58.20000 135.839
58.21000 135.499
58.22000 134.862
58.23000 134.350
58.24000 137.765
58.25000 140.834
58.26000 143.193
58.27000 143.768
58.28000 144.258
58.29000 146.495
58.30000 151.698
58.31000 156.950
58.32000 159.722
58.33000 148.783
58.34000 141.358
58.35000 135.387
58.36000 130.464
58.37000 125.676
58.38000 125.318
58.39000 127.099
58.40000 128.790
58.41000 129.802
58.42000 130.533
58.43000 131.740
58.44000 136.769
58.45000 142.629
58.46000 147.167
58.47000 145.063
58.48000 142.043
58.49000 139.682
58.50000 137.953
58.51000 136.614
58.52000 137.080
58.53000 141.597
58.54000 146.265
58.55000 148.501
58.56000 147.068
58.57000 145.599
58.58000 142.485
58.59000 137.760
58.60000 133.090
58.61000 133.090
58.62000 136.078
58.63000 138.922
58.64000 138.191
58.65000 135.921
58.66000 133.789
58.67000 136.716
58.68000 140.727
58.69000 144.023
58.70000 142.344
58.71000 139.711
58.72000 138.075
58.73000 140.864
58.74000 144.180
58.75000 146.698
58.76000 147.107
58.77000 147.319
58.78000 145.829
58.79000 140.930
58.80000 135.936
58.81000 134.728
58.82000 138.586
58.83000 142.467
58.84000 142.188
58.85000 138.333
58.86000 134.526
58.87000 133.354
58.88000 133.682
58.89000 133.967
58.90000 133.429
58.91000 132.573
58.92000 131.780
58.93000 132.867
58.94000 134.284
58.95000 135.440
58.96000 135.020
58.97000 134.336
58.98000 133.729
58.99000 133.432
59.00000 133.167
59.01000 132.971
59.02000 129.574
59.03000 126.814
59.04000 126.518
59.05000 130.623
59.06000 134.815
59.07000 137.585
59.08000 138.672
59.09000 139.754
59.10000 137.886
59.11000 133.799
59.12000 129.817
59.13000 129.750
59.14000 131.672
59.15000 133.566
59.16000 135.014
59.17000 136.309
59.18000 137.491
59.19000 133.636
59.20000 129.186
59.21000 125.994
59.22000 129.495
59.23000 133.978
59.24000 137.095
59.25000 135.434
59.26000 133.362
59.27000 131.889
59.28000 132.915
59.29000 133.776
59.30000 135.158
59.31000 137.369
59.32000 139.590
59.33000 140.435
59.34000 139.849
59.35000 139.266
59.36000 140.468
59.37000 142.843
59.38000 145.108
59.39000 144.319
59.40000 142.144
59.41000 140.135
59.42000 140.255
59.43000 141.028
59.44000 141.722
59.45000 140.226
59.46000 138.526
59.47000 136.989
59.48000 136.218
59.49000 135.545
59.50000 134.022
59.51000 129.850
59.52000 125.488
59.53000 122.500
59.54000 127.772
59.55000 131.919
59.56000 134.959
59.57000 136.437
59.58000 137.903
59.59000 138.495
59.60000 138.288
59.61000 138.084
59.62000 137.854
59.63000 137.614
59.64000 137.267
59.65000 134.612
59.66000 131.023
59.67000 127.904
59.68000 129.888
59.69000 133.263
59.70000 136.245
59.71000 136.910
59.72000 137.126
59.73000 136.679
59.74000 133.479
59.75000 129.977
59.76000 127.141
59.77000 126.151
59.78000 125.271
59.79000 124.691
59.80000 126.025
59.81000 127.040
59.82000 127.075
59.83000 125.886
59.84000 124.700
59.85000 125.963
59.86000 129.194
59.87000 132.377
59.88000 133.361
59.89000 133.174
59.90000 132.968
59.91000 132.421
59.92000 131.750
59.93000 131.245
59.94000 132.264
59.95000 133.651
59.96000 134.854
59.97000 134.887
59.98000 134.759
59.99000 134.317
60.00000 132.722
60.01000 131.020
60.02000 130.143
60.03000 131.317
60.04000 132.586
60.05000 133.386
60.06000 127.633
60.07000 123.395
60.08000 124.671
60.09000 132.026
60.10000 139.338
60.11000 140.039
60.12000 136.037
60.13000 132.119
60.14000 134.764
60.15000 140.310
60.16000 145.388
60.17000 143.879
60.18000 140.246
60.19000 136.930
60.20000 136.115
60.21000 135.837
60.22000 135.601
60.23000 138.405
60.24000 141.104
60.25000 141.954
60.26000 136.738
60.27000 131.049
60.28000 127.652
60.29000 129.332
60.30000 131.196
60.31000 132.315
60.32000 128.447
60.33000 125.664
60.34000 124.061
60.35000 123.598
60.36000 123.159
60.37000 124.674
60.38000 127.422
60.39000 130.093
60.40000 135.184
60.41000 140.999
60.42000 146.125
60.43000 143.184
60.44000 137.925
60.45000 133.562
60.46000 135.329
60.47000 138.256
60.48000 140.685
60.49000 136.760
60.50000 132.900
60.51000 130.003
60.52000 129.924
60.53000 130.027
60.54000 130.701
60.55000 132.507
60.56000 134.343
60.57000 135.390
60.58000 136.111
60.59000 136.611
60.60000 135.681
60.61000 133.535
60.62000 131.441
60.63000 132.049
60.64000 134.176
60.65000 136.225
60.66000 135.962
60.67000 134.890
60.68000 134.136
60.69000 136.532
60.70000 139.733
60.71000 141.980
60.72000 138.532
60.73000 134.139
60.74000 130.580
60.75000 134.402
60.76000 138.117
60.77000 140.117
60.78000 137.640
60.79000 134.930
60.80000 133.374
60.81000 133.853
60.82000 134.370
60.83000 134.648
60.84000 136.683
60.85000 138.076
60.86000 139.407
60.87000 140.691
60.88000 141.948
60.89000 142.240
60.90000 142.048
60.91000 141.865
60.92000 136.538
60.93000 129.976
60.94000 124.706
60.95000 130.341
60.96000 138.446
60.97000 145.111
60.98000 144.220
60.99000 142.236
61.00000 140.671
61.01000 141.119
61.02000 141.615
61.03000 140.884
61.04000 137.290
61.05000 133.579
61.06000 131.604
61.07000 132.357
61.08000 133.143
61.09000 133.540
61.10000 130.702
61.11000 128.843
61.12000 131.096
61.13000 136.090
61.14000 140.957
61.15000 142.441
61.16000 142.409
61.17000 142.379
61.18000 140.824
61.19000 138.976
61.20000 137.784
61.21000 141.371
61.22000 145.914
61.23000 149.652
61.24000 149.669
61.25000 149.219
61.26000 148.874
61.27000 145.899
61.28000 143.402
61.29000 141.761
61.30000 141.899
61.31000 142.093
61.32000 141.904
61.33000 141.179
61.34000 140.451
61.35000 140.655
61.36000 141.694
61.37000 142.728
61.38000 143.453
61.39000 143.994
61.40000 144.321
61.41000 140.135
61.42000 134.145
61.43000 128.569
61.44000 129.212
61.45000 131.308
61.46000 134.026
61.47000 140.697
61.48000 148.063
61.49000 154.094
61.50000 154.663
61.51000 154.645
61.52000 154.631
61.53000 167.110
61.54000 177.375
61.55000 186.663
61.56000 194.137
61.57000 201.571
61.58000 209.068
61.59000 216.643
61.60000 224.204
61.61000 229.571
61.62000 233.180
61.63000 236.719
61.64000 237.326
61.65000 236.386
61.66000 235.813
61.67000 241.426
61.68000 249.247
61.69000 256.427
61.70000 257.669
61.71000 257.510
61.72000 256.685
61.73000 252.154
61.74000 247.053
61.75000 241.739
61.76000 235.653
61.77000 229.496
61.78000 225.068
61.79000 214.795
61.80000 206.727
61.81000 198.275
61.82000 189.190
61.83000 180.096
61.84000 171.091
61.85000 162.184
61.86000 153.315
61.87000 148.216
61.88000 145.789
61.89000 143.490
61.90000 145.126
61.91000 148.615
61.92000 151.881
61.93000 152.071
61.94000 151.282
61.95000 150.568
61.96000 145.604
61.97000 140.446
61.98000 136.961
61.99000 141.660
62.00000 147.454
62.01000 151.272
62.02000 148.697
62.03000 145.632
62.04000 143.505
62.05000 147.311
62.06000 150.335
62.07000 149.700
62.08000 143.683
62.09000 137.618
62.10000 134.684
62.11000 134.731
62.12000 134.779
62.13000 136.305
62.14000 138.710
62.15000 140.849
62.16000 136.736
62.17000 129.994
62.18000 124.159
62.19000 128.724
62.20000 136.241
62.21000 142.923
62.22000 141.333
62.23000 138.615
62.24000 136.932
62.25000 139.718
62.26000 143.020
62.27000 144.707
62.28000 141.731
62.29000 138.461
62.30000 136.279
62.31000 134.381
62.32000 132.981
62.33000 133.150
62.34000 135.362
62.35000 137.584
62.36000 139.895
62.37000 142.281
62.38000 144.636
62.39000 143.004
62.40000 139.258
62.41000 135.740
62.42000 136.440
62.43000 138.724
62.44000 141.106
62.45000 144.440
62.46000 148.014
62.47000 151.133
62.48000 146.459
62.49000 141.372
62.50000 138.959
62.51000 146.803
62.52000 155.656
62.53000 160.413
62.54000 154.613
62.55000 148.277
62.56000 144.225
62.57000 144.750
62.58000 145.192
62.59000 144.706
62.60000 143.151
62.61000 141.599
62.62000 140.849
62.63000 140.695
62.64000 140.543
62.65000 139.935
62.66000 139.131
62.67000 138.406
62.68000 138.861
62.69000 139.712
62.70000 140.578
62.71000 141.569
62.72000 142.587
62.73000 143.459
62.74000 141.828
62.75000 140.153
62.76000 139.686
62.77000 143.340
62.78000 147.335
62.79000 149.434
62.80000 147.165
62.81000 144.723
62.82000 143.232
62.83000 138.647
62.84000 135.344
62.85000 133.627
62.86000 133.515
62.87000 133.420
62.88000 134.897
62.89000 137.408
62.90000 139.855
62.91000 141.707
62.92000 143.221
62.93000 144.523
62.94000 143.186
62.95000 141.060
62.96000 139.410
62.97000 141.180
62.98000 143.624
62.99000 145.670
63.00000 149.968
63.01000 153.771
63.02000 155.328
63.03000 150.065
63.04000 144.332
63.05000 142.393
63.06000 148.249
63.07000 154.340
63.08000 157.877
63.09000 151.031
63.10000 146.183
63.11000 144.128
63.12000 144.552
63.13000 145.013
63.14000 147.674
63.15000 151.621
63.16000 155.435
63.17000 155.199
63.18000 153.468
63.19000 151.855
63.20000 151.473
63.21000 151.419
63.22000 150.945
63.23000 147.848
63.24000 144.296
63.25000 141.394
63.26000 139.305
63.27000 137.665
63.28000 138.170
63.29000 144.492
63.30000 151.139
63.31000 154.112
63.32000 150.344
63.33000 146.432
63.34000 144.282
63.35000 145.477
63.36000 146.309
63.37000 148.403
63.38000 151.483
63.39000 154.515
63.40000 155.606
63.41000 155.685
63.42000 155.761
63.43000 152.038
63.44000 147.322
63.45000 143.344
63.46000 145.932
63.47000 150.069
63.48000 153.103
63.49000 150.088
63.50000 146.157
63.51000 143.025
63.52000 145.770
63.53000 148.409
63.54000 149.638
63.55000 147.452
63.56000 145.114
63.57000 145.565
63.58000 150.570
63.59000 155.641
63.60000 158.264
63.61000 152.355
63.62000 148.403
63.63000 148.771
63.64000 152.132
63.65000 155.368
63.66000 154.875
63.67000 152.648
63.68000 150.540
63.69000 151.242
63.70000 152.701
63.71000 153.800
63.72000 152.148
63.73000 149.922
63.74000 148.418
63.75000 150.400
63.76000 152.842
63.77000 154.733
63.78000 154.830
63.79000 154.800
63.80000 154.732
63.81000 154.581
63.82000 154.427
63.83000 153.727
63.84000 152.233
63.85000 150.733
63.86000 149.310
63.87000 147.958
63.88000 146.668
63.89000 149.818
63.90000 155.703
63.91000 161.249
63.92000 159.076
63.93000 153.695
63.94000 148.664
63.95000 147.867
63.96000 148.220
63.97000 148.099
63.98000 144.819
63.99000 140.958
64.00000 139.511
64.01000 148.363
64.02000 158.383
64.03000 165.915
64.04000 157.803
64.05000 150.706
64.06000 148.175
64.07000 154.455
64.08000 160.957
64.09000 163.059
64.10000 159.501
64.11000 155.925
64.12000 153.522
64.13000 152.094
64.14000 150.620
64.15000 146.985
64.16000 142.162
64.17000 137.665
64.18000 139.041
64.19000 142.596
64.20000 145.875
64.21000 148.879
64.22000 151.510
64.23000 153.725
64.24000 153.535
64.25000 152.956
64.26000 152.688
64.27000 153.598
64.28000 154.621
64.29000 155.365
64.30000 155.130
64.31000 154.911
64.32000 155.622
64.33000 157.933
64.34000 160.271
64.35000 160.552
64.36000 158.498
64.37000 156.448
64.38000 156.650
64.39000 158.482
64.40000 160.236
64.41000 159.339
64.42000 157.146
64.43000 155.328
64.44000 159.026
64.45000 164.551
64.46000 169.573
64.47000 166.185
64.48000 161.550
64.49000 157.672
64.50000 157.653
64.51000 158.176
64.52000 159.049
64.53000 161.105
64.54000 163.257
64.55000 164.769
64.56000 164.473
64.57000 164.196
64.58000 164.245
64.59000 164.795
64.60000 165.351
64.61000 165.389
64.62000 164.911
64.63000 164.436
64.64000 165.368
64.65000 167.185
64.66000 168.893
64.67000 167.809
64.68000 165.504
64.69000 163.389
64.70000 163.586
64.71000 164.465
64.72000 165.251
64.73000 174.428
64.74000 183.852
64.75000 190.742
64.76000 186.213
64.77000 180.299
64.78000 175.811
64.79000 175.603
64.80000 175.685
64.81000 175.740
64.82000 177.617
64.83000 179.054
64.84000 178.715
64.85000 175.963
64.86000 173.200
64.87000 172.678
64.88000 174.115
64.89000 175.537
64.90000 179.341
64.91000 184.401
64.92000 189.112
64.93000 186.876
64.94000 181.928
64.95000 177.620
64.96000 179.869
64.97000 183.840
64.98000 187.327
64.99000 189.949
65.00000 192.075
65.01000 193.083
65.02000 189.632
65.03000 185.718
65.04000 183.775
65.05000 187.113
65.06000 190.740
65.07000 193.094
65.08000 192.161
65.09000 191.429
65.10000 191.422
65.11000 192.287
65.12000 193.159
65.13000 195.404
65.14000 198.708
65.15000 201.957
65.16000 206.111
65.17000 210.582
65.18000 214.567
65.19000 210.754
65.20000 204.224
65.21000 199.029
65.22000 205.517
65.23000 214.727
65.24000 222.659
65.25000 220.467
65.26000 217.328
65.27000 215.776
65.28000 219.854
65.29000 224.426
65.30000 229.063
65.31000 233.853
65.32000 238.650
65.33000 241.626
65.34000 242.831
65.35000 243.682
65.36000 250.068
65.37000 262.304
65.38000 274.465
65.39000 277.663
65.40000 274.726
65.41000 271.857
65.42000 273.847
65.43000 277.889
65.44000 282.282
65.45000 291.302
65.46000 301.761
65.47000 310.979
65.48000 310.840
65.49000 308.774
65.50000 307.033
65.51000 317.669
65.52000 327.891
65.53000 337.158
65.54000 343.407
65.55000 349.434
65.56000 355.713
65.57000 362.532
65.58000 369.368
65.59000 373.408
65.60000 375.677
65.61000 377.270
65.62000 379.678
65.63000 382.841
65.64000 386.126
65.65000 397.740
65.66000 414.422
65.67000 430.588
65.68000 453.879
65.69000 478.695
65.70000 504.438
65.71000 540.440
65.72000 579.280
65.73000 618.479
65.74000 660.034
65.75000 702.016
65.76000 736.606
65.77000 763.161
65.78000 784.273
65.79000 808.502
65.80000 841.512
65.81000 875.051
65.82000 899.714
65.83000 907.456
65.84000 914.789
65.85000 918.896
65.86000 924.731
65.87000 928.767
65.88000 928.180
65.89000 923.819
65.90000 919.196
65.91000 902.606
65.92000 879.532
65.93000 857.377
65.94000 817.712
65.95000 774.606
65.96000 730.664
65.97000 678.873
65.98000 625.154
65.99000 573.581
66.00000 534.285
66.01000 496.940
66.02000 466.929
66.03000 421.700
66.04000 383.866
66.05000 351.927
66.06000 334.813
66.07000 318.416
66.08000 306.270
66.09000 301.350
66.10000 296.549
66.11000 294.012
66.12000 289.069
66.13000 285.710
66.14000 282.289
66.15000 278.823
66.16000 275.456
66.17000 275.355
66.18000 276.833
66.19000 278.237
66.20000 284.276
66.21000 291.257
66.22000 297.720
66.23000 300.017
66.24000 301.408
66.25000 303.150
66.26000 306.662
66.27000 310.419
66.28000 313.358
66.29000 326.614
66.30000 337.855
66.31000 347.888
66.32000 355.208
66.33000 362.427
66.34000 369.573
66.35000 376.611
66.36000 383.647
66.37000 390.623
66.38000 397.539
66.39000 404.365
66.40000 403.492
66.41000 397.685
66.42000 392.059
66.43000 390.900
66.44000 391.672
66.45000 392.396
66.46000 385.170
66.47000 376.465
66.48000 369.659
66.49000 376.074
66.50000 385.029
66.51000 390.339
66.52000 379.453
66.53000 366.633
66.54000 356.895
66.55000 335.703
66.56000 318.450
66.57000 305.715
66.58000 302.040
66.59000 298.621
66.60000 297.051
66.61000 297.961
66.62000 298.883
66.63000 299.799
66.64000 300.707
66.65000 301.611
66.66000 302.227
66.67000 302.679
66.68000 302.962
66.69000 299.958
66.70000 295.687
66.71000 291.728
66.72000 294.711
66.73000 299.016
66.74000 302.271
66.75000 299.153
66.76000 294.959
66.77000 292.026
66.78000 294.058
66.79000 296.597
66.80000 298.466
66.81000 303.336
66.82000 307.228
66.83000 310.262
66.84000 311.759
66.85000 313.225
66.86000 312.920
66.87000 310.516
66.88000 308.115
66.89000 310.429
66.90000 316.299
66.91000 321.942
66.92000 319.000
66.93000 311.692
66.94000 305.204
66.95000 311.590
66.96000 322.407
66.97000 332.291
66.98000 327.214
66.99000 319.650
67.00000 312.962
67.01000 310.940
67.02000 309.605
67.03000 310.027
67.04000 316.598
67.05000 323.700
67.06000 328.751
67.07000 329.993
67.08000 330.816
67.09000 332.017
67.10000 333.821
67.11000 335.633
67.12000 335.745
67.13000 334.086
67.14000 332.436
67.15000 335.865
67.16000 342.638
67.17000 349.181
67.18000 349.295
67.19000 346.489
67.20000 344.154
67.21000 347.922
67.22000 353.562
67.23000 358.634
67.24000 361.118
67.25000 362.834
67.26000 364.027
67.27000 362.772
67.28000 361.204
67.29000 360.259
67.30000 361.258
67.31000 362.397
67.32000 363.178
67.33000 359.625
67.34000 356.859
67.35000 356.873
67.36000 360.821
67.37000 364.797
67.38000 367.173
67.39000 368.087
67.40000 368.992
67.41000 373.622
67.42000 380.350
67.43000 386.988
67.44000 391.687
67.45000 395.600
67.46000 399.287
67.47000 400.520
67.48000 401.083
67.49000 401.580
67.50000 401.858
67.51000 402.064
67.52000 402.457
67.53000 403.627
67.54000 404.882
67.55000 406.356
67.56000 408.440
67.57000 410.559
67.58000 411.954
67.59000 410.772
67.60000 409.857
67.61000 410.496
67.62000 413.083
67.63000 415.666
67.64000 414.868
67.65000 411.349
67.66000 407.882
67.67000 413.682
67.68000 424.128
67.69000 434.063
67.70000 435.219
67.71000 433.195
67.72000 431.420
67.73000 431.936
67.74000 433.007
67.75000 433.937
67.76000 443.172
67.77000 452.141
67.78000 457.628
67.79000 450.259
67.80000 441.692
67.81000 437.422
67.82000 443.833
67.83000 450.746
67.84000 455.103
67.85000 462.094
67.86000 467.185
67.87000 472.844
67.88000 479.131
67.89000 485.380
67.90000 486.062
67.91000 482.777
67.92000 479.560
67.93000 476.465
67.94000 473.547
67.95000 471.400
67.96000 480.103
67.97000 492.311
67.98000 503.381
67.99000 505.442
68.00000 505.567
68.01000 505.673
68.02000 504.295
68.03000 502.969
68.04000 503.870
68.05000 512.084
68.06000 520.870
68.07000 525.692
68.08000 521.715
68.09000 517.416
68.10000 514.833
68.11000 515.621
68.12000 516.204
68.13000 523.590
68.14000 537.563
68.15000 551.445
68.16000 558.010
68.17000 559.944
68.18000 561.824
68.19000 562.503
68.20000 562.663
68.21000 562.597
68.22000 559.894
68.23000 556.432
68.24000 554.321
68.25000 561.476
68.26000 570.386
68.27000 577.786
68.28000 580.281
68.29000 581.868
68.30000 584.363
68.31000 589.519
68.32000 594.847
68.33000 603.864
68.34000 620.187
68.35000 636.709
68.36000 646.139
68.37000 634.810
68.38000 626.852
68.39000 627.731
68.40000 636.134
68.41000 644.474
68.42000 649.512
68.43000 652.690
68.44000 655.751
68.45000 669.479
68.46000 686.189
68.47000 701.726
68.48000 705.645
68.49000 706.591
68.50000 708.841
68.51000 718.890
68.52000 730.236
68.53000 739.433
68.54000 756.810
68.55000 771.637
68.56000 790.503
68.57000 819.929
68.58000 849.906
68.59000 878.383
68.60000 904.209
68.61000 929.985
68.62000 943.886
68.63000 994.636
68.64000 1029.430
68.65000 1073.427
68.66000 1124.345
68.67000 1174.897
68.68000 1212.083
68.69000 1242.553
68.70000 1271.612
68.71000 1327.404
68.72000 1387.601
68.73000 1444.502
68.74000 1473.511
68.75000 1496.190
68.76000 1525.061
68.77000 1586.450
68.78000 1652.555
68.79000 1704.748
68.80000 1783.211
68.81000 1847.964
68.82000 1912.513
68.83000 1976.585
68.84000 2040.638
68.85000 2130.479
68.86000 2260.883
68.87000 2391.780
68.88000 2458.115
68.89000 2878.502
68.90000 3163.452
68.91000 3798.003
68.92000 4665.762
68.93000 5567.265
68.94000 7383.698
68.95000 9610.571
68.96000 11710.504
68.97000 15276.729
68.98000 18951.000
68.99000 22682.539
69.00000 26832.438
69.01000 31066.201
69.02000 35121.066
69.03000 38347.078
69.04000 41468.988
69.05000 43864.672
69.06000 45525.918
69.07000 46797.805
69.08000 47741.664
69.09000 48001.789
69.10000 48240.605
69.11000 48427.996
69.12000 48543.547
69.13000 48658.578
69.14000 49137.484
69.15000 49943.484
69.16000 50741.117
69.17000 51018.281
69.18000 50986.660
69.19000 50907.754
69.20000 49833.492
69.21000 48360.457
69.22000 46988.781
69.23000 43996.207
69.24000 40894.883
69.25000 37882.508
69.26000 35435.355
69.27000 33087.871
69.28000 30901.500
69.29000 29376.086
69.30000 27921.926
69.31000 26839.891
69.32000 25927.549
69.33000 25225.352
69.34000 24574.852
69.35000 24020.494
69.36000 23468.299
69.37000 22688.770
69.38000 21628.248
69.39000 20568.857
69.40000 18990.500
69.41000 17009.018
69.42000 15025.961
69.43000 12976.474
69.44000 10891.860
69.45000 8839.231
69.46000 7325.319
69.47000 6004.108
69.48000 4790.871
69.49000 3947.544
69.50000 3274.203
69.51000 2653.159
69.52000 2323.097
69.53000 2037.920
69.54000 1785.966
69.55000 1655.059
69.56000 1535.232
69.57000 1448.992
69.58000 1367.507
69.59000 1305.283
69.60000 1249.908
69.61000 1205.884
69.62000 1162.031
69.63000 1120.769
69.64000 1082.328
69.65000 1044.056
69.66000 1011.812
69.67000 984.098
69.68000 956.639
69.69000 936.986
69.70000 921.017
69.71000 905.024
69.72000 888.697
69.73000 872.263
69.74000 857.403
69.75000 844.038
69.76000 832.556
69.77000 820.226
69.78000 803.742
69.79000 786.701
69.80000 771.799
69.81000 763.833
69.82000 756.399
69.83000 751.238
69.84000 743.622
69.85000 737.818
69.86000 730.873
69.87000 722.245
69.88000 713.602
69.89000 704.977
69.90000 696.370
69.91000 687.831
69.92000 677.568
69.93000 666.427
69.94000 655.604
69.95000 652.239
69.96000 652.017
69.97000 651.252
69.98000 644.240
69.99000 635.453
70.00000 627.641
