20.00000 570.001
20.01000 566.872
20.02000 563.297
20.03000 560.260
20.04000 559.322
20.05000 558.596
20.06000 558.063
20.07000 561.480
20.08000 564.280
20.09000 567.036
20.10000 569.712
20.11000 572.387
20.12000 570.275
20.13000 562.551
20.14000 554.841
20.15000 557.021
20.16000 566.593
20.17000 575.817
20.18000 572.286
20.19000 562.332
20.20000 553.326
20.21000 558.937
20.22000 569.530
20.23000 579.195
20.24000 581.523
20.25000 582.108
20.26000 582.129
20.27000 579.183
20.28000 575.806
20.29000 574.908
20.30000 582.605
20.31000 591.033
20.32000 597.008
20.33000 585.588
20.34000 576.358
20.35000 569.987
20.36000 568.124
20.37000 566.317
20.38000 564.566
20.39000 562.874
20.40000 561.190
20.41000 563.863
20.42000 569.373
20.43000 574.507
20.44000 569.394
20.45000 559.674
20.46000 550.489
20.47000 548.127
20.48000 547.837
20.49000 547.576
20.50000 553.932
20.51000 560.655
20.52000 566.869
20.53000 570.717
20.54000 574.268
20.55000 577.739
20.56000 580.964
20.57000 584.171
20.58000 586.362
20.59000 571.566
20.60000 560.101
20.61000 555.388
20.62000 560.129
20.63000 564.931
20.64000 566.145
20.65000 564.116
20.66000 562.107
20.67000 560.109
20.68000 558.161
20.69000 556.333
20.70000 557.067
20.71000 558.829
20.72000 560.801
20.73000 565.014
20.74000 569.833
20.75000 574.086
20.76000 571.233
20.77000 567.690
20.78000 564.774
20.79000 564.443
20.80000 564.391
20.81000 564.743
20.82000 566.209
20.83000 567.740
20.84000 568.743
20.85000 570.899
20.86000 572.504
20.87000 569.637
20.88000 561.230
20.89000 552.838
20.90000 554.310
20.91000 563.637
20.92000 572.822
20.93000 573.167
20.94000 568.959
20.95000 564.923
20.96000 563.811
20.97000 563.747
20.98000 563.447
20.99000 561.003
21.00000 558.044
21.01000 555.482
21.02000 567.846
21.03000 580.322
21.04000 587.990
21.05000 578.098
21.06000 566.593
21.07000 561.491
21.08000 572.144
21.09000 583.523
21.10000 590.666
21.11000 579.641
21.12000 571.474
21.13000 564.069
21.14000 557.498
21.15000 550.982
21.16000 551.887
21.17000 558.024
21.18000 564.029
21.19000 567.061
21.20000 568.622
21.21000 569.692
21.22000 563.968
21.23000 556.071
21.24000 548.943
21.25000 547.830
21.26000 547.994
21.27000 548.134
21.28000 552.257
21.29000 556.162
21.30000 558.762
21.31000 557.122
21.32000 555.157
21.33000 553.912
21.34000 554.253
21.35000 554.649
21.36000 554.887
21.37000 547.108
21.38000 541.536
21.39000 545.240
21.40000 557.823
21.41000 570.250
21.42000 570.669
21.43000 563.565
21.44000 556.667
21.45000 555.661
21.46000 557.068
21.47000 558.437
21.48000 559.357
21.49000 560.149
21.50000 561.212
21.51000 564.113
21.52000 567.357
21.53000 570.047
21.54000 562.489
21.55000 555.266
21.56000 549.095
21.57000 545.970
21.58000 543.038
21.59000 545.308
21.60000 557.778
21.61000 570.518
21.62000 577.753
21.63000 586.836
21.64000 593.152
21.65000 591.379
21.66000 582.794
21.67000 574.441
21.68000 577.680
21.69000 587.385
21.70000 596.725
21.71000 608.448
21.72000 620.291
21.73000 632.122
21.74000 643.843
21.75000 655.536
21.76000 666.393
21.77000 672.304
21.78000 677.402
21.79000 681.526
21.80000 700.968
21.81000 718.020
21.82000 732.893
21.83000 742.126
21.84000 751.071
21.85000 764.096
21.86000 784.255
21.87000 804.545
21.88000 815.430
21.89000 833.820
21.90000 846.385
21.91000 859.495
21.92000 873.010
21.93000 886.420
21.94000 896.130
21.95000 903.999
21.96000 911.497
21.97000 921.448
21.98000 931.435
21.99000 940.134
22.00000 938.079
22.01000 933.609
22.02000 928.880
22.03000 922.799
22.04000 916.526
22.05000 911.584
22.06000 894.589
22.07000 880.164
22.08000 865.526
22.09000 850.398
22.10000 835.250
22.11000 817.750
22.12000 796.590
22.13000 775.386
22.14000 764.704
22.15000 738.321
22.16000 720.758
22.17000 710.080
22.18000 703.946
22.19000 697.821
22.20000 691.908
22.21000 686.091
22.22000 680.611
22.23000 666.967
22.24000 652.240
22.25000 637.822
22.26000 625.634
22.27000 613.889
22.28000 602.762
22.29000 594.473
22.30000 586.535
22.31000 580.460
22.32000 575.756
22.33000 572.118
22.34000 568.414
22.35000 564.569
22.36000 560.720
22.37000 563.317
22.38000 574.821
22.39000 586.376
22.40000 586.649
22.41000 576.882
22.42000 567.178
22.43000 561.294
22.44000 557.652
22.45000 553.936
22.46000 548.700
22.47000 542.860
22.48000 537.428
22.49000 547.332
22.50000 559.975
22.51000 570.477
22.52000 567.543
22.53000 562.267
22.54000 557.445
22.55000 554.468
22.56000 551.687
22.57000 549.623
22.58000 548.650
22.59000 547.942
22.60000 546.673
22.61000 544.371
22.62000 542.046
22.63000 542.625
22.64000 546.752
22.65000 550.880
22.66000 549.630
22.67000 544.182
22.68000 538.818
22.69000 536.936
22.70000 536.876
22.71000 536.526
22.72000 531.390
22.73000 524.560
22.74000 518.296
22.75000 526.044
22.76000 535.908
22.77000 543.751
22.78000 540.482
22.79000 535.519
22.80000 532.208
22.81000 534.852
22.82000 538.033
22.83000 540.315
22.84000 537.568
22.85000 535.295
22.86000 531.853
22.87000 526.495
22.88000 521.108
22.89000 521.073
22.90000 526.800
22.91000 532.502
22.92000 529.965
22.93000 521.783
22.94000 513.792
22.95000 511.533
22.96000 511.953
22.97000 512.453
22.98000 514.041
22.99000 515.972
23.00000 517.716
23.01000 521.513
23.02000 525.229
23.03000 528.471
23.04000 529.418
23.05000 530.061
23.06000 528.390
23.07000 519.285
23.08000 509.619
23.09000 502.932
23.10000 507.988
23.11000 512.097
23.12000 517.449
23.13000 524.616
23.14000 531.796
23.15000 533.040
23.16000 528.679
23.17000 524.356
23.18000 521.372
23.19000 519.256
23.20000 517.396
23.21000 521.399
23.22000 527.848
23.23000 533.533
23.24000 530.568
23.25000 525.169
23.26000 520.376
23.27000 519.952
23.28000 520.284
23.29000 520.614
23.30000 520.933
23.31000 521.251
23.32000 520.794
23.33000 518.115
23.34000 515.298
23.35000 513.425
23.36000 525.616
23.37000 534.899
23.38000 534.139
23.39000 520.407
23.40000 506.646
23.41000 504.262
23.42000 511.327
23.43000 518.298
23.44000 521.559
23.45000 522.744
23.46000 524.034
23.47000 527.238
23.48000 531.155
23.49000 534.619
23.50000 533.736
23.51000 531.767
23.52000 530.051
23.53000 532.711
23.54000 535.589
23.55000 536.853
23.56000 531.984
23.57000 526.518
23.58000 520.714
23.59000 514.042
23.60000 507.327
23.61000 503.046
23.62000 517.637
23.63000 528.487
23.64000 533.452
23.65000 531.707
23.66000 529.950
23.67000 527.253
23.68000 523.868
23.69000 520.548
23.70000 511.784
23.71000 500.765
23.72000 490.775
23.73000 496.000
23.74000 506.282
23.75000 514.711
23.76000 507.917
23.77000 497.750
23.78000 489.069
23.79000 495.129
23.80000 501.985
23.81000 508.199
23.82000 512.242
23.83000 516.106
23.84000 518.264
23.85000 516.526
23.86000 514.636
23.87000 513.486
23.88000 509.028
23.89000 505.819
23.90000 506.695
23.91000 511.662
23.92000 516.617
23.93000 520.543
23.94000 523.798
23.95000 526.967
23.96000 524.353
23.97000 519.444
23.98000 514.196
23.99000 504.793
24.00000 494.159
24.01000 486.153
24.02000 496.806
24.03000 511.109
24.04000 523.057
24.05000 516.563
24.06000 509.306
24.07000 502.758
24.08000 498.348
24.09000 494.083
24.10000 493.286
24.11000 499.558
24.12000 506.038
24.13000 509.786
24.14000 497.478
24.15000 488.797
24.16000 491.686
24.17000 504.741
24.18000 517.512
24.19000 513.974
24.20000 500.978
24.21000 488.430
24.22000 487.700
24.23000 491.375
24.24000 495.196
24.25000 500.534
24.26000 506.272
24.27000 510.021
24.28000 501.464
24.29000 490.793
24.30000 482.088
24.31000 496.109
24.32000 509.516
24.33000 517.103
24.34000 509.040
24.35000 500.114
24.36000 495.352
24.37000 498.160
24.38000 501.126
24.39000 502.749
24.40000 503.957
24.41000 504.770
24.42000 501.378
24.43000 494.725
24.44000 488.243
24.45000 488.513
24.46000 492.275
24.47000 495.871
24.48000 491.754
24.49000 485.412
24.50000 480.169
24.51000 484.600
24.52000 491.294
24.53000 496.550
24.54000 494.012
24.55000 490.303
24.56000 487.355
24.57000 490.469
24.58000 493.410
24.59000 494.139
24.60000 489.557
24.61000 484.742
24.62000 481.853
24.63000 482.080
24.64000 482.351
24.65000 482.490
24.66000 482.216
24.67000 482.078
24.68000 487.433
24.69000 496.563
24.70000 505.497
24.71000 508.755
24.72000 509.394
24.73000 509.997
24.74000 508.506
24.75000 506.534
24.76000 503.956
24.77000 496.793
24.78000 488.682
24.79000 482.008
24.80000 482.206
24.81000 483.298
24.82000 484.143
24.83000 482.185
24.84000 480.468
24.85000 481.041
24.86000 486.526
24.87000 492.174
24.88000 493.917
24.89000 490.037
24.90000 486.113
24.91000 481.888
24.92000 477.384
24.93000 473.002
24.94000 477.047
24.95000 486.239
24.96000 494.781
24.97000 488.775
24.98000 476.774
24.99000 465.563
25.00000 467.447
25.01000 472.457
25.02000 478.011
25.03000 487.142
25.04000 496.924
25.05000 502.713
25.06000 491.621
25.07000 478.636
25.08000 468.897
25.09000 470.692
25.10000 472.640
25.11000 478.679
25.12000 492.548
25.13000 506.608
25.14000 512.923
25.15000 509.364
25.16000 505.774
25.17000 502.538
25.18000 499.603
25.19000 496.666
25.20000 493.615
25.21000 490.501
25.22000 487.701
25.23000 490.458
25.24000 495.260
25.25000 499.685
25.26000 491.036
25.27000 480.404
25.28000 471.171
25.29000 469.975
25.30000 470.062
25.31000 470.827
25.32000 474.138
25.33000 477.692
25.34000 480.271
25.35000 477.007
25.36000 474.279
25.37000 472.784
25.38000 473.393
25.39000 474.037
25.40000 474.225
25.41000 473.899
25.42000 473.575
25.43000 475.960
25.44000 480.272
25.45000 484.640
25.46000 490.866
25.47000 497.992
25.48000 504.657
25.49000 504.640
25.50000 502.428
25.51000 500.420
25.52000 492.065
25.53000 483.462
25.54000 475.686
25.55000 472.094
25.56000 469.083
25.57000 467.961
25.58000 473.150
25.59000 478.845
25.60000 482.835
25.61000 482.514
25.62000 482.148
25.63000 480.045
25.64000 475.309
25.65000 470.546
25.66000 471.827
25.67000 479.074
25.68000 486.270
25.69000 489.704
25.70000 490.700
25.71000 491.486
25.72000 487.014
25.73000 480.264
25.74000 473.534
25.75000 467.052
25.76000 460.642
25.77000 454.918
25.78000 456.980
25.79000 460.083
25.80000 462.924
25.81000 464.596
25.82000 466.128
25.83000 465.544
25.84000 458.666
25.85000 451.369
25.86000 446.449
25.87000 466.059
25.88000 481.167
25.89000 484.843
25.90000 473.129
25.91000 461.339
25.92000 455.265
25.93000 454.144
25.94000 453.036
25.95000 458.991
25.96000 468.750
25.97000 477.924
25.98000 475.629
25.99000 468.894
26.00000 462.405
26.01000 458.415
26.02000 455.074
26.03000 452.145
26.04000 460.411
26.05000 469.138
26.06000 475.296
26.07000 471.293
26.08000 466.246
26.09000 464.563
26.10000 471.814
26.11000 479.545
26.12000 484.547
26.13000 471.787
26.14000 462.193
26.15000 458.987
26.16000 463.382
26.17000 467.777
26.18000 469.167
26.19000 468.256
26.20000 467.360
26.21000 468.610
26.22000 470.878
26.23000 473.210
26.24000 476.565
26.25000 480.273
26.26000 483.046
26.27000 477.726
26.28000 470.539
26.29000 464.359
26.30000 460.588
26.31000 457.698
26.32000 456.813
26.33000 462.981
26.34000 469.760
26.35000 471.539
26.36000 461.457
26.37000 450.869
26.38000 444.323
26.39000 451.616
26.40000 456.986
26.41000 460.203
26.42000 461.164
26.43000 462.161
26.44000 467.121
26.45000 474.769
26.46000 482.235
26.47000 485.793
26.48000 487.493
26.49000 488.900
26.50000 486.483
26.51000 482.888
26.52000 478.286
26.53000 466.178
26.54000 452.537
26.55000 441.055
26.56000 445.673
26.57000 451.247
26.58000 457.815
26.59000 467.499
26.60000 477.408
26.61000 482.036
26.62000 475.478
26.63000 468.557
26.64000 464.483
26.65000 459.963
26.66000 456.775
26.67000 457.678
26.68000 462.337
26.69000 466.964
26.70000 469.541
26.71000 470.880
26.72000 472.177
26.73000 466.476
26.74000 458.389
26.75000 451.083
26.76000 452.301
26.77000 455.857
26.78000 458.670
26.79000 456.665
26.80000 453.795
26.81000 451.434
26.82000 451.633
26.83000 452.029
26.84000 450.926
26.85000 445.634
26.86000 440.093
26.87000 439.547
26.88000 448.441
26.89000 457.559
26.90000 462.645
26.91000 456.662
26.92000 452.519
26.93000 456.757
26.94000 467.771
26.95000 478.461
26.96000 474.725
26.97000 463.236
26.98000 452.214
26.99000 454.078
27.00000 460.197
27.01000 465.690
27.02000 465.376
27.03000 463.647
27.04000 462.644
27.05000 465.761
27.06000 469.526
27.07000 472.545
27.08000 465.133
27.09000 458.341
27.10000 454.627
27.11000 458.595
27.12000 462.928
27.13000 466.239
27.14000 467.828
27.15000 469.389
27.16000 470.210
27.17000 465.345
27.18000 462.046
27.19000 459.188
27.20000 456.645
27.21000 454.247
27.22000 456.484
27.23000 460.944
27.24000 465.179
27.25000 465.217
27.26000 463.997
27.27000 462.473
27.28000 458.531
27.29000 454.068
27.30000 450.745
27.31000 453.105
27.32000 456.242
27.33000 458.690
27.34000 457.569
27.35000 456.451
27.36000 455.023
27.37000 452.907
27.38000 450.766
27.39000 450.947
27.40000 454.607
27.41000 458.301
27.42000 461.544
27.43000 464.348
27.44000 467.076
27.45000 463.563
27.46000 456.085
27.47000 448.569
27.48000 440.139
27.49000 431.319
27.50000 423.043
27.51000 423.691
27.52000 426.632
27.53000 429.385
27.54000 430.848
27.55000 432.065
27.56000 434.614
27.57000 443.032
27.58000 452.143
27.59000 459.048
27.60000 457.861
27.61000 456.516
27.62000 456.543
27.63000 459.300
27.64000 462.131
27.65000 457.529
27.66000 443.050
27.67000 428.534
27.68000 426.124
27.69000 434.047
27.70000 441.875
27.71000 444.758
27.72000 444.842
27.73000 444.700
27.74000 440.228
27.75000 434.100
27.76000 428.426
27.77000 430.460
27.78000 434.071
27.79000 436.886
27.80000 434.914
27.81000 432.143
27.82000 431.539
27.83000 439.402
27.84000 448.119
27.85000 454.519
27.86000 452.414
27.87000 450.441
27.88000 447.379
27.89000 442.384
27.90000 437.352
27.91000 434.632
27.92000 434.628
27.93000 434.628
27.94000 435.968
27.95000 438.304
27.96000 440.612
27.97000 441.888
27.98000 442.642
27.99000 443.349
28.00000 443.305
28.01000 443.005
28.02000 442.731
28.03000 449.215
28.04000 456.334
28.05000 461.648
28.06000 457.443
28.07000 451.850
28.08000 447.832
28.09000 449.282
28.10000 451.199
28.11000 452.558
28.12000 452.529
28.13000 452.464
28.14000 452.318
28.15000 452.045
28.16000 451.770
28.17000 450.613
28.18000 448.547
28.19000 446.492
28.20000 445.624
28.21000 445.553
28.22000 445.520
28.23000 446.533
28.24000 448.018
28.25000 449.318
28.26000 448.258
28.27000 446.481
28.28000 444.884
28.29000 453.419
28.30000 462.671
28.31000 468.447
28.32000 458.045
28.33000 445.602
28.34000 436.125
28.35000 435.829
28.36000 436.184
28.37000 436.427
28.38000 440.896
28.39000 444.339
28.40000 443.311
28.41000 436.013
28.42000 428.675
28.43000 427.253
28.44000 431.184
28.45000 435.078
28.46000 440.805
28.47000 447.481
28.48000 453.643
28.49000 448.908
28.50000 439.790
28.51000 431.376
28.52000 430.517
28.53000 431.703
28.54000 432.750
28.55000 431.396
28.56000 429.860
28.57000 429.809
28.58000 435.875
28.59000 442.604
28.60000 446.762
28.61000 443.824
28.62000 440.475
28.63000 438.277
28.64000 434.882
28.65000 432.365
28.66000 432.445
28.67000 435.747
28.68000 439.059
28.69000 442.988
28.70000 447.408
28.71000 451.761
28.72000 447.950
28.73000 440.050
28.74000 432.415
28.75000 429.288
28.76000 427.778
28.77000 427.064
28.78000 433.597
28.79000 441.874
28.80000 449.039
28.81000 443.939
28.82000 437.984
28.83000 433.660
28.84000 435.299
28.85000 437.488
28.86000 437.476
28.87000 432.041
28.88000 426.355
28.89000 422.783
28.90000 430.531
28.91000 436.257
28.92000 436.785
28.93000 431.626
28.94000 426.485
28.95000 424.115
28.96000 423.702
28.97000 423.298
28.98000 426.467
28.99000 431.133
29.00000 435.551
29.01000 436.507
29.02000 436.355
29.03000 436.292
29.04000 436.936
29.05000 437.731
29.06000 438.405
29.07000 439.032
29.08000 439.553
29.09000 438.851
29.10000 434.171
29.11000 429.184
29.12000 427.664
29.13000 433.773
29.14000 440.155
29.15000 443.977
29.16000 432.356
29.17000 424.005
29.18000 420.055
29.19000 420.327
29.20000 420.608
29.21000 421.563
29.22000 422.942
29.23000 424.281
29.24000 421.502
29.25000 417.209
29.26000 413.624
29.27000 418.221
29.28000 425.154
29.29000 431.748
29.30000 436.046
29.31000 439.913
29.32000 443.119
29.33000 431.559
29.34000 420.592
29.35000 412.524
29.36000 412.873
29.37000 413.756
29.38000 415.354
29.39000 418.356
29.40000 421.394
29.41000 423.122
29.42000 425.154
29.43000 426.569
29.44000 427.675
29.45000 428.519
29.46000 429.412
29.47000 432.767
29.48000 437.495
29.49000 442.048
29.50000 436.428
29.51000 427.549
29.52000 419.747
29.53000 422.473
29.54000 427.869
29.55000 432.743
29.56000 434.521
29.57000 435.790
29.58000 436.817
29.59000 440.916
29.60000 444.499
29.61000 445.220
29.62000 438.518
29.63000 431.435
29.64000 430.719
29.65000 441.157
29.66000 451.802
29.67000 457.517
29.68000 449.690
29.69000 444.333
29.70000 439.178
29.71000 434.173
29.72000 429.313
29.73000 429.570
29.74000 432.377
29.75000 435.051
29.76000 445.943
29.77000 458.608
29.78000 469.162
29.79000 462.059
29.80000 450.984
29.81000 441.728
29.82000 441.930
29.83000 443.489
29.84000 444.718
29.85000 451.085
29.86000 456.533
29.87000 460.877
29.88000 462.665
29.89000 464.350
29.90000 463.873
29.91000 460.022
29.92000 456.132
29.93000 454.170
29.94000 466.163
29.95000 474.140
29.96000 478.085
29.97000 479.363
29.98000 480.469
29.99000 477.014
30.00000 471.529
30.01000 466.362
30.02000 467.139
30.03000 469.487
30.04000 471.750
30.05000 473.406
30.06000 474.941
30.07000 475.376
30.08000 470.763
30.09000 465.523
30.10000 461.511
30.11000 458.918
30.12000 456.949
30.13000 456.558
30.14000 459.430
30.15000 462.401
30.16000 460.846
30.17000 453.026
30.18000 445.169
30.19000 445.295
30.20000 452.540
30.21000 459.598
30.22000 455.478
30.23000 444.781
30.24000 434.579
30.25000 434.605
30.26000 438.694
30.27000 442.498
30.28000 446.244
30.29000 449.612
30.30000 452.836
30.31000 455.149
30.32000 457.302
30.33000 459.058
30.34000 459.197
30.35000 459.163
30.36000 459.139
30.37000 441.280
30.38000 426.618
30.39000 420.948
30.40000 431.862
30.41000 443.139
30.42000 446.591
30.43000 440.459
30.44000 434.315
30.45000 432.372
30.46000 433.728
30.47000 435.208
30.48000 441.779
30.49000 451.019
30.50000 459.673
30.51000 458.602
30.52000 454.082
30.53000 449.936
30.54000 450.012
30.55000 450.974
30.56000 451.892
30.57000 452.575
30.58000 453.222
30.59000 452.743
30.60000 448.201
30.61000 443.291
30.62000 439.767
30.63000 457.003
30.64000 470.900
30.65000 475.289
30.66000 464.057
30.67000 452.597
30.68000 451.214
30.69000 460.700
30.70000 470.147
30.71000 469.677
30.72000 462.372
30.73000 455.391
30.74000 458.135
30.75000 465.429
30.76000 472.612
30.77000 478.275
30.78000 483.458
30.79000 488.138
30.80000 486.852
30.81000 484.619
30.82000 484.531
30.83000 494.856
30.84000 506.562
30.85000 516.669
30.86000 521.631
30.87000 526.204
30.88000 529.369
30.89000 537.718
30.90000 544.135
30.91000 553.375
30.92000 566.740
30.93000 580.139
30.94000 592.957
30.95000 605.226
30.96000 617.392
30.97000 634.889
30.98000 655.308
30.99000 675.964
31.00000 702.076
31.01000 730.467
31.02000 761.614
31.03000 824.054
31.04000 895.313
31.05000 958.588
31.06000 1027.101
31.07000 1087.337
31.08000 1155.393
31.09000 1257.005
31.10000 1362.450
31.11000 1469.149
31.12000 1579.443
31.13000 1689.961
31.14000 1763.521
31.15000 1969.480
31.16000 2124.377
31.17000 2287.784
31.18000 2462.202
31.19000 2636.653
31.20000 2805.524
31.21000 2969.752
31.22000 3131.818
31.23000 3307.059
31.24000 3484.653
31.25000 3660.014
31.26000 3794.627
31.27000 3914.035
31.28000 4030.286
31.29000 4116.183
31.30000 4194.477
31.31000 4262.721
31.32000 4273.128
31.33000 4274.004
31.34000 4264.092
31.35000 4213.117
31.36000 4158.141
31.37000 4087.012
31.38000 3974.518
31.39000 3859.953
31.40000 3786.884
31.41000 3603.379
31.42000 3468.502
31.43000 3311.632
31.44000 3129.639
31.45000 2947.620
31.46000 2765.806
31.47000 2584.143
31.48000 2405.954
31.49000 2229.069
31.50000 2059.270
31.51000 1890.442
31.52000 1736.013
31.53000 1586.378
31.54000 1441.160
31.55000 1332.317
31.56000 1231.545
31.57000 1145.467
31.58000 1057.634
31.59000 983.430
31.60000 912.942
31.61000 855.037
31.62000 798.164
31.63000 749.408
31.64000 719.213
31.65000 689.745
31.66000 671.802
31.67000 632.570
31.68000 604.374
31.69000 581.425
31.70000 563.739
31.71000 546.135
31.72000 536.093
31.73000 530.987
31.74000 526.015
31.75000 516.110
31.76000 504.603
31.77000 493.542
31.78000 487.952
31.79000 483.987
31.80000 480.235
31.81000 478.005
31.82000 476.075
31.83000 474.461
31.84000 466.666
31.85000 459.566
31.86000 454.066
31.87000 453.390
31.88000 453.043
31.89000 451.276
31.90000 446.608
31.91000 441.855
31.92000 439.104
31.93000 441.934
31.94000 443.936
31.95000 439.996
31.96000 430.825
31.97000 421.797
31.98000 421.080
31.99000 425.190
32.00000 429.159
32.01000 428.452
32.02000 426.056
32.03000 423.944
32.04000 424.763
32.05000 426.357
32.06000 426.946
32.07000 421.310
32.08000 414.601
32.09000 409.127
32.10000 416.325
32.11000 423.298
32.12000 427.858
32.13000 425.919
32.14000 423.620
32.15000 421.856
32.16000 421.069
32.17000 420.302
32.18000 419.882
32.19000 418.891
32.20000 418.204
32.21000 416.154
32.22000 413.047
32.23000 410.051
32.24000 411.527
32.25000 415.319
32.26000 418.944
32.27000 417.542
32.28000 414.598
32.29000 411.962
32.30000 412.050
32.31000 412.776
32.32000 413.283
32.33000 412.599
32.34000 411.736
32.35000 411.050
32.36000 403.984
32.37000 397.834
32.38000 394.840
32.39000 399.432
32.40000 404.357
32.41000 406.505
32.42000 404.147
32.43000 401.727
32.44000 400.479
32.45000 394.697
32.46000 390.809
32.47000 387.766
32.48000 385.303
32.49000 382.865
32.50000 381.138
32.51000 379.739
32.52000 378.416
32.53000 387.850
32.54000 399.611
32.55000 409.585
32.56000 405.997
32.57000 399.599
32.58000 393.242
32.59000 387.076
32.60000 380.936
32.61000 376.187
32.62000 377.621
32.63000 379.123
32.64000 380.052
32.65000 379.749
32.66000 379.406
32.67000 380.181
32.68000 382.569
32.69000 384.969
32.70000 385.221
32.71000 383.470
32.72000 381.738
32.73000 381.373
32.74000 381.845
32.75000 382.166
32.76000 379.139
32.77000 374.728
32.78000 370.607
32.79000 373.137
32.80000 377.112
32.81000 382.086
32.82000 393.632
32.83000 406.377
32.84000 416.947
32.85000 418.300
32.86000 418.618
32.87000 418.857
32.88000 433.999
32.89000 446.537
32.90000 456.167
32.91000 460.223
32.92000 464.142
32.93000 467.415
32.94000 469.865
32.95000 472.309
32.96000 478.907
32.97000 488.882
32.98000 498.649
32.99000 498.742
33.00000 493.563
33.01000 488.506
33.02000 485.617
33.03000 483.526
33.04000 481.599
33.05000 474.956
33.06000 467.965
33.07000 461.561
33.08000 458.548
33.09000 456.076
33.10000 451.489
33.11000 438.950
33.12000 425.651
33.13000 415.992
33.14000 416.480
33.15000 417.237
33.16000 414.858
33.17000 407.119
33.18000 399.290
33.19000 394.092
33.20000 391.860
33.21000 389.639
33.22000 385.048
33.23000 378.791
33.24000 372.701
33.25000 372.145
33.26000 374.281
33.27000 376.098
33.28000 373.269
33.29000 368.914
33.30000 364.959
33.31000 363.120
33.32000 361.906
33.33000 359.982
33.34000 354.464
33.35000 348.445
33.36000 345.029
33.37000 350.314
33.38000 356.299
33.39000 360.495
33.40000 359.252
33.41000 358.154
33.42000 356.719
33.43000 354.771
33.44000 352.817
33.45000 353.777
33.46000 357.619
33.47000 361.434
33.48000 358.279
33.49000 350.750
33.50000 343.421
33.51000 341.092
33.52000 340.934
33.53000 340.790
33.54000 340.815
33.55000 340.889
33.56000 340.956
33.57000 350.494
33.58000 360.397
33.59000 366.446
33.60000 355.264
33.61000 342.008
33.62000 333.111
33.63000 337.205
33.64000 342.164
33.65000 345.511
33.66000 346.014
33.67000 346.328
33.68000 345.650
33.69000 343.633
33.70000 341.612
33.71000 341.219
33.72000 342.240
33.73000 343.250
33.74000 340.105
33.75000 334.708
33.76000 329.882
33.77000 336.302
33.78000 347.082
33.79000 357.380
33.80000 362.781
33.81000 366.905
33.82000 370.523
33.83000 362.220
33.84000 353.351
33.85000 345.973
33.86000 344.504
33.87000 343.642
33.88000 343.397
33.89000 344.790
33.90000 346.273
33.91000 347.232
33.92000 347.131
33.93000 347.042
33.94000 347.053
33.95000 347.183
33.96000 347.300
33.97000 343.996
33.98000 338.070
33.99000 332.245
34.00000 332.946
34.01000 336.851
34.02000 340.512
34.03000 340.302
34.04000 338.751
34.05000 337.414
34.06000 337.933
34.07000 338.882
34.08000 339.698
34.09000 341.597
34.10000 343.341
34.11000 343.766
34.12000 339.550
34.13000 334.929
34.14000 334.460
34.15000 343.855
34.16000 353.672
34.17000 359.746
34.18000 356.408
34.19000 353.920
34.20000 350.553
34.21000 346.267
34.22000 342.013
34.23000 341.377
34.24000 343.200
34.25000 344.979
34.26000 344.927
34.27000 344.077
34.28000 343.187
34.29000 341.786
34.30000 340.227
34.31000 338.557
34.32000 336.064
34.33000 333.403
34.34000 331.162
34.35000 331.717
34.36000 332.480
34.37000 332.339
34.38000 329.361
34.39000 326.177
34.40000 322.336
34.41000 317.101
34.42000 311.820
34.43000 308.709
34.44000 331.397
34.45000 347.538
34.46000 350.253
34.47000 340.623
34.48000 331.149
34.49000 332.032
34.50000 339.173
34.51000 346.089
34.52000 346.104
34.53000 343.456
34.54000 340.709
34.55000 336.878
34.56000 332.749
34.57000 329.207
34.58000 329.479
34.59000 330.438
34.60000 331.227
34.61000 335.553
34.62000 339.432
34.63000 340.455
34.64000 333.487
34.65000 326.044
34.66000 321.078
34.67000 320.802
34.68000 320.638
34.69000 320.546
34.70000 324.199
34.71000 326.738
34.72000 330.336
34.73000 334.790
34.74000 339.124
34.75000 338.095
34.76000 334.180
34.77000 330.422
34.78000 332.710
34.79000 336.907
34.80000 340.540
34.81000 338.940
34.82000 336.064
34.83000 332.330
34.84000 323.733
34.85000 314.368
34.86000 306.855
34.87000 318.280
34.88000 328.974
34.89000 335.615
34.90000 332.125
34.91000 328.153
34.92000 326.825
34.93000 329.961
34.94000 333.168
34.95000 334.856
34.96000 327.894
34.97000 323.192
34.98000 322.266
34.99000 324.047
35.00000 325.750
35.01000 324.933
35.02000 322.906
35.03000 320.981
35.04000 320.087
35.05000 319.570
35.06000 319.176
35.07000 319.754
35.08000 320.542
35.09000 322.372
35.10000 329.411
35.11000 337.164
35.12000 343.218
35.13000 332.934
35.14000 323.702
35.15000 319.011
35.16000 324.452
35.17000 330.268
35.18000 332.690
35.19000 330.017
35.20000 327.293
35.21000 326.482
35.22000 327.537
35.23000 328.608
35.24000 331.102
35.25000 334.503
35.26000 337.769
35.27000 337.744
35.28000 336.308
35.29000 334.960
35.30000 332.942
35.31000 330.926
35.32000 328.613
35.33000 324.246
35.34000 319.487
35.35000 316.274
35.36000 319.880
35.37000 324.294
35.38000 327.640
35.39000 321.522
35.40000 316.232
35.41000 315.854
35.42000 325.261
35.43000 334.938
35.44000 335.985
35.45000 325.544
35.46000 315.054
35.47000 310.534
35.48000 311.126
35.49000 311.749
35.50000 313.919
35.51000 316.966
35.52000 319.852
35.53000 319.638
35.54000 318.236
35.55000 316.939
35.56000 317.949
35.57000 319.392
35.58000 320.865
35.59000 322.519
35.60000 324.204
35.61000 324.647
35.62000 320.237
35.63000 315.335
35.64000 311.735
35.65000 311.310
35.66000 311.111
35.67000 311.363
35.68000 312.416
35.69000 313.484
35.70000 313.873
35.71000 313.462
35.72000 313.051
35.73000 314.490
35.74000 317.310
35.75000 320.077
35.76000 320.910
35.77000 320.764
35.78000 320.251
35.79000 314.022
35.80000 305.839
35.81000 298.370
35.82000 301.408
35.83000 306.233
35.84000 310.921
35.85000 314.886
35.86000 318.745
35.87000 322.073
35.88000 323.557
35.89000 324.884
35.90000 325.825
35.91000 316.239
35.92000 308.612
35.93000 304.594
35.94000 306.286
35.95000 308.048
35.96000 307.721
35.97000 305.232
35.98000 302.758
35.99000 303.056
36.00000 305.186
36.01000 307.398
36.02000 311.879
36.03000 317.384
36.04000 321.939
36.05000 314.326
36.06000 303.004
36.07000 292.832
36.08000 302.661
36.09000 314.794
36.10000 324.590
36.11000 323.493
36.12000 321.017
36.13000 316.957
36.14000 307.983
36.15000 298.660
36.16000 292.285
36.17000 298.337
36.18000 303.159
36.19000 306.481
36.20000 307.694
36.21000 308.895
36.22000 313.341
36.23000 320.730
36.24000 328.046
36.25000 322.335
36.26000 309.132
36.27000 296.276
36.28000 290.806
36.29000 288.311
36.30000 286.381
36.31000 290.526
36.32000 296.320
36.33000 301.434
36.34000 306.312
36.35000 310.485
36.36000 313.999
36.37000 314.792
36.38000 315.289
36.39000 315.171
36.40000 313.352
36.41000 311.434
36.42000 310.175
36.43000 313.413
36.44000 315.871
36.45000 314.160
36.46000 307.263
36.47000 300.376
36.48000 301.618
36.49000 309.359
36.50000 316.983
36.51000 319.428
36.52000 319.127
36.53000 318.448
36.54000 311.319
36.55000 301.869
36.56000 293.884
36.57000 299.274
36.58000 307.887
36.59000 315.347
36.60000 314.106
36.61000 311.902
36.62000 311.006
36.63000 314.904
36.64000 319.246
36.65000 321.069
36.66000 316.676
36.67000 311.994
36.68000 309.051
36.69000 301.659
36.70000 296.263
36.71000 294.460
36.72000 296.592
36.73000 298.729
36.74000 301.228
36.75000 303.981
36.76000 306.677
36.77000 308.378
36.78000 309.560
36.79000 310.699
36.80000 311.250
36.81000 311.613
36.82000 311.897
36.83000 311.562
36.84000 311.096
36.85000 310.701
36.86000 309.217
36.87000 307.850
36.88000 307.516
36.89000 310.554
36.90000 313.852
36.91000 315.956
36.92000 315.428
36.93000 314.805
36.94000 314.431
36.95000 309.798
36.96000 306.480
36.97000 305.804
36.98000 307.667
36.99000 309.561
37.00000 313.799
37.01000 319.511
37.02000 325.059
37.03000 319.257
37.04000 309.180
37.05000 299.555
37.06000 295.179
37.07000 292.303
37.08000 290.098
37.09000 292.450
37.10000 295.659
37.11000 298.320
37.12000 307.974
37.13000 316.623
37.14000 321.843
37.15000 317.090
37.16000 311.700
37.17000 306.758
37.18000 302.695
37.19000 298.656
37.20000 296.358
37.21000 301.882
37.22000 305.749
37.23000 305.495
37.24000 301.759
37.25000 298.154
37.26000 301.138
37.27000 307.811
37.28000 314.236
37.29000 310.149
37.30000 302.581
37.31000 295.740
37.32000 296.030
37.33000 298.133
37.34000 300.034
37.35000 300.743
37.36000 301.254
37.37000 301.667
37.38000 303.630
37.39000 305.353
37.40000 305.068
37.41000 299.570
37.42000 293.804
37.43000 292.233
37.44000 298.025
37.45000 303.954
37.46000 307.140
37.47000 299.345
37.48000 294.026
37.49000 291.963
37.50000 292.331
37.51000 292.852
37.52000 298.789
37.53000 307.430
37.54000 315.666
37.55000 312.750
37.56000 306.556
37.57000 301.177
37.58000 302.637
37.59000 305.638
37.60000 306.987
37.61000 299.721
37.62000 291.217
37.63000 284.513
37.64000 287.199
37.65000 289.983
37.66000 292.296
37.67000 293.516
37.68000 294.692
37.69000 294.632
37.70000 292.639
37.71000 290.623
37.72000 289.605
37.73000 286.383
37.74000 284.290
37.75000 288.338
37.76000 296.455
37.77000 304.380
37.78000 307.188
37.79000 307.717
37.80000 308.215
37.81000 304.937
37.82000 300.897
37.83000 297.671
37.84000 300.349
37.85000 304.201
37.86000 307.526
37.87000 308.421
37.88000 309.014
37.89000 309.469
37.90000 315.436
37.91000 320.451
37.92000 320.248
37.93000 309.241
37.94000 297.904
37.95000 292.315
37.96000 294.698
37.97000 297.131
37.98000 299.475
37.99000 301.737
38.00000 303.972
38.01000 304.531
38.02000 304.102
38.03000 303.560
38.04000 300.656
38.05000 296.811
38.06000 293.233
38.07000 298.020
38.08000 304.370
38.09000 310.032
38.10000 311.360
38.11000 311.929
38.12000 311.630
38.13000 307.796
38.14000 303.585
38.15000 300.457
38.16000 304.964
38.17000 308.804
38.18000 314.838
38.19000 324.926
38.20000 335.104
38.21000 335.206
38.22000 322.944
38.23000 310.674
38.24000 309.400
38.25000 316.762
38.26000 323.993
38.27000 325.800
38.28000 324.760
38.29000 324.109
38.30000 329.943
38.31000 338.081
38.32000 345.547
38.33000 347.178
38.34000 347.395
38.35000 346.872
38.36000 342.271
38.37000 337.046
38.38000 335.160
38.39000 345.359
38.40000 356.652
38.41000 364.763
38.42000 374.153
38.43000 381.380
38.44000 391.626
38.45000 406.842
38.46000 422.130
38.47000 434.639
38.48000 444.144
38.49000 453.604
38.50000 464.190
38.51000 475.441
38.52000 486.724
38.53000 499.012
38.54000 511.770
38.55000 523.997
38.56000 528.983
38.57000 531.675
38.58000 534.107
38.59000 554.607
38.60000 575.977
38.61000 594.846
38.62000 601.563
38.63000 606.664
38.64000 612.974
38.65000 623.177
38.66000 633.676
38.67000 640.948
38.68000 617.866
38.69000 599.699
38.70000 590.780
38.71000 595.390
38.72000 600.115
38.73000 591.216
38.74000 569.409
38.75000 547.782
38.76000 539.738
38.77000 540.118
38.78000 539.640
38.79000 519.325
38.80000 490.708
38.81000 463.364
38.82000 450.518
38.83000 441.764
38.84000 433.990
38.85000 420.666
38.86000 408.221
38.87000 398.177
38.88000 398.459
38.89000 399.922
38.90000 395.004
38.91000 371.748
38.92000 347.347
38.93000 331.096
38.94000 331.869
38.95000 332.765
38.96000 329.608
38.97000 321.198
38.98000 312.771
38.99000 306.652
39.00000 302.459
39.01000 298.320
39.02000 294.967
39.03000 292.127
39.04000 289.646
39.05000 293.728
39.06000 300.263
39.07000 306.005
39.08000 304.099
39.09000 300.275
39.10000 296.940
39.11000 296.695
39.12000 296.915
39.13000 295.788
39.14000 289.526
39.15000 282.763
39.16000 278.067
39.17000 278.670
39.18000 279.541
39.19000 280.096
39.20000 282.529
39.21000 284.323
39.22000 284.860
39.23000 283.957
39.24000 283.039
39.25000 279.757
39.26000 274.734
39.27000 269.806
39.28000 273.423
39.29000 280.968
39.30000 287.709
39.31000 282.509
39.32000 273.326
39.33000 266.040
39.34000 274.415
39.35000 286.271
39.36000 296.401
39.37000 286.404
39.38000 275.577
39.39000 268.649
39.40000 274.943
39.41000 282.325
39.42000 286.061
39.43000 281.445
39.44000 276.501
39.45000 273.488
39.46000 276.617
39.47000 278.902
39.48000 278.636
39.49000 275.807
39.50000 273.006
39.51000 272.766
39.52000 274.202
39.53000 275.600
39.54000 275.804
39.55000 275.497
39.56000 274.866
39.57000 270.251
39.58000 264.452
39.59000 260.125
39.60000 266.300
39.61000 274.536
39.62000 281.420
39.63000 274.353
39.64000 267.066
39.65000 263.430
39.66000 270.831
39.67000 278.987
39.68000 284.335
39.69000 283.942
39.70000 283.379
39.71000 283.053
39.72000 275.841
39.73000 270.760
39.74000 271.591
39.75000 277.636
39.76000 283.548
39.77000 281.690
39.78000 275.310
39.79000 269.150
39.80000 266.190
39.81000 264.586
39.82000 263.041
39.83000 262.100
39.84000 261.319
39.85000 261.324
39.86000 266.214
39.87000 271.946
39.88000 276.626
39.89000 269.575
39.90000 262.799
39.91000 258.495
39.92000 260.862
39.93000 263.600
39.94000 265.350
39.95000 265.299
39.96000 265.210
39.97000 265.161
39.98000 255.484
39.99000 248.836
40.00000 248.423
40.01000 252.862
40.02000 257.244
40.03000 259.340
40.04000 260.251
40.05000 261.121
40.06000 262.520
40.07000 263.995
40.08000 265.038
40.09000 262.266
40.10000 258.598
40.11000 255.944
40.12000 258.809
40.13000 262.506
40.14000 265.446
40.15000 270.895
40.16000 275.466
40.17000 277.564
40.18000 273.706
40.19000 269.585
40.20000 266.181
40.21000 263.941
40.22000 261.717
40.23000 260.570
40.24000 263.521
40.25000 265.512
40.26000 267.720
40.27000 270.079
40.28000 272.283
40.29000 269.931
40.30000 265.469
40.31000 261.248
40.32000 258.950
40.33000 257.391
40.34000 256.101
40.35000 256.860
40.36000 258.045
40.37000 258.703
40.38000 256.833
40.39000 254.632
40.40000 252.929
40.41000 257.894
40.42000 262.228
40.43000 264.878
40.44000 263.905
40.45000 262.810
40.46000 260.975
40.47000 258.071
40.48000 255.159
40.49000 253.359
40.50000 252.597
40.51000 251.871
40.52000 253.614
40.53000 256.871
40.54000 259.991
40.55000 260.027
40.56000 258.787
40.57000 257.628
40.58000 254.232
40.59000 250.583
40.60000 247.026
40.61000 244.082
40.62000 241.250
40.63000 240.347
40.64000 247.628
40.65000 255.832
40.66000 261.990
40.67000 259.239
40.68000 256.665
40.69000 254.927
40.70000 254.797
40.71000 254.707
40.72000 255.497
40.73000 257.414
40.74000 259.333
40.75000 261.033
40.76000 262.547
40.77000 263.954
40.78000 260.329
40.79000 253.957
40.80000 247.933
40.81000 248.146
40.82000 250.662
40.83000 252.982
40.84000 253.558
40.85000 253.687
40.86000 253.450
40.87000 251.101
40.88000 248.414
40.89000 246.542
40.90000 247.739
40.91000 249.230
40.92000 250.314
40.93000 251.360
40.94000 252.163
40.95000 252.567
40.96000 252.286
40.97000 251.994
40.98000 252.737
40.99000 254.648
41.00000 256.554
41.01000 258.527
41.02000 260.533
41.03000 262.485
41.04000 262.680
41.05000 262.018
41.06000 261.278
41.07000 259.403
41.08000 257.153
41.09000 255.109
41.10000 256.313
41.11000 258.006
41.12000 258.960
41.13000 256.166
41.14000 252.849
41.15000 249.546
41.16000 246.285
41.17000 243.028
41.18000 240.743
41.19000 253.769
41.20000 264.070
41.21000 267.681
41.22000 261.104
41.23000 254.419
41.24000 253.245
41.25000 257.531
41.26000 261.787
41.27000 262.786
41.28000 261.699
41.29000 260.614
41.30000 259.557
41.31000 258.513
41.32000 257.412
41.33000 255.620
41.34000 253.626
41.35000 251.843
41.36000 254.542
41.37000 257.649
41.38000 259.332
41.39000 254.633
41.40000 249.166
41.41000 244.387
41.42000 241.666
41.43000 239.082
41.44000 237.337
41.45000 247.636
41.46000 255.559
41.47000 258.690
41.48000 255.347
41.49000 251.967
41.50000 247.557
41.51000 242.252
41.52000 237.006
41.53000 239.197
41.54000 245.508
41.55000 251.521
41.56000 251.649
41.57000 249.491
41.58000 247.299
41.59000 244.759
41.60000 242.127
41.61000 239.818
41.62000 244.792
41.63000 250.129
41.64000 253.058
41.65000 246.431
41.66000 238.817
41.67000 234.911
41.68000 240.886
41.69000 247.396
41.70000 251.614
41.71000 252.535
41.72000 253.160
41.73000 252.430
41.74000 250.082
41.75000 247.739
41.76000 247.500
41.77000 248.878
41.78000 250.232
41.79000 247.735
41.80000 243.414
41.81000 239.220
41.82000 237.057
41.83000 235.598
41.84000 234.623
41.85000 237.847
41.86000 242.043
41.87000 245.655
41.88000 247.690
41.89000 249.216
41.90000 248.851
41.91000 241.815
41.92000 234.197
41.93000 229.833
41.94000 233.216
41.95000 236.931
41.96000 239.232
41.97000 237.037
41.98000 235.416
41.99000 236.290
42.00000 239.786
42.01000 243.254
42.02000 243.531
42.03000 241.637
42.04000 239.787
42.05000 239.150
42.06000 239.072
42.07000 239.321
42.08000 243.852
42.09000 249.707
42.10000 254.437
42.11000 250.749
42.12000 245.337
42.13000 240.778
42.14000 236.336
42.15000 232.642
42.16000 230.897
42.17000 235.277
42.18000 240.104
42.19000 242.567
42.20000 240.009
42.21000 237.286
42.22000 235.681
42.23000 234.048
42.24000 232.896
42.25000 234.778
42.26000 239.455
42.27000 244.070
42.28000 244.613
42.29000 242.692
42.30000 240.830
42.31000 241.947
42.32000 244.154
42.33000 246.237
42.34000 246.960
42.35000 247.309
42.36000 247.781
42.37000 249.057
42.38000 250.478
42.39000 251.648
42.40000 247.102
42.41000 242.843
42.42000 240.230
42.43000 242.232
42.44000 244.509
42.45000 244.502
42.46000 240.164
42.47000 235.722
42.48000 233.240
42.49000 233.561
42.50000 233.795
42.51000 235.725
42.52000 239.032
42.53000 242.287
42.54000 243.172
42.55000 242.781
42.56000 242.405
42.57000 242.567
42.58000 242.903
42.59000 242.677
42.60000 237.224
42.61000 230.493
42.62000 225.190
42.63000 228.012
42.64000 232.116
42.65000 235.411
42.66000 236.691
42.67000 237.575
42.68000 236.959
42.69000 232.593
42.70000 228.048
42.71000 227.921
42.72000 235.263
42.73000 242.726
42.74000 246.659
42.75000 248.978
42.76000 250.511
42.77000 245.859
42.78000 236.766
42.79000 228.002
42.80000 229.858
42.81000 236.823
42.82000 243.438
42.83000 243.192
42.84000 240.903
42.85000 239.202
42.86000 242.206
42.87000 246.228
42.88000 248.947
42.89000 245.145
42.90000 240.448
42.91000 236.778
42.92000 233.712
42.93000 231.303
42.94000 231.710
42.95000 238.411
42.96000 245.346
42.97000 247.296
42.98000 241.749
42.99000 236.129
43.00000 233.944
43.01000 235.114
43.02000 236.277
43.03000 236.821
43.04000 236.971
43.05000 237.131
43.06000 237.547
43.07000 238.074
43.08000 238.568
43.09000 238.210
43.10000 237.658
43.11000 236.607
43.12000 232.100
43.13000 226.934
43.14000 224.077
43.15000 231.425
43.16000 239.983
43.17000 246.475
43.18000 241.167
43.19000 236.391
43.20000 235.464
43.21000 242.220
43.22000 249.189
43.23000 250.900
43.24000 245.602
43.25000 240.272
43.26000 234.258
43.27000 227.670
43.28000 221.177
43.29000 219.729
43.30000 221.144
43.31000 222.636
43.32000 225.593
43.33000 229.113
43.34000 232.374
43.35000 234.787
43.36000 236.760
43.37000 238.612
43.38000 239.731
43.39000 240.727
43.40000 240.286
43.41000 234.212
43.42000 227.566
43.43000 222.682
43.44000 229.136
43.45000 234.591
43.46000 235.249
43.47000 227.370
43.48000 219.324
43.49000 217.381
43.50000 222.630
43.51000 227.876
43.52000 228.700
43.53000 226.187
43.54000 223.770
43.55000 224.902
43.56000 227.831
43.57000 230.583
43.58000 230.603
43.59000 229.687
43.60000 228.851
43.61000 223.851
43.62000 218.569
43.63000 214.126
43.64000 214.120
43.65000 214.764
43.66000 215.979
43.67000 219.185
43.68000 222.560
43.69000 224.957
43.70000 226.715
43.71000 228.032
43.72000 228.094
43.73000 226.167
43.74000 224.215
43.75000 224.814
43.76000 228.057
43.77000 231.282
43.78000 233.583
43.79000 235.243
43.80000 236.870
43.81000 237.629
43.82000 237.995
43.83000 237.935
43.84000 232.405
43.85000 225.205
43.86000 218.735
43.87000 224.661
43.88000 232.042
43.89000 236.739
43.90000 228.906
43.91000 219.484
43.92000 213.514
43.93000 218.260
43.94000 223.770
43.95000 227.540
43.96000 229.924
43.97000 231.676
43.98000 233.116
43.99000 234.118
44.00000 235.118
44.01000 237.100
44.02000 239.975
44.03000 242.822
44.04000 237.695
44.05000 228.007
44.06000 218.760
44.07000 218.934
44.08000 222.910
44.09000 226.862
44.10000 230.563
44.11000 234.197
44.12000 237.405
44.13000 236.577
44.14000 235.244
44.15000 234.597
44.16000 236.786
44.17000 239.284
44.18000 241.840
44.19000 244.557
44.20000 247.284
44.21000 249.075
44.22000 235.736
44.23000 225.662
44.24000 223.235
44.25000 230.336
44.26000 237.444
44.27000 237.976
44.28000 233.240
44.29000 228.575
44.30000 227.845
44.31000 229.169
44.32000 230.461
44.33000 231.196
44.34000 231.731
44.35000 232.445
44.36000 234.809
44.37000 237.571
44.38000 239.964
44.39000 242.471
44.40000 244.619
44.41000 245.880
44.42000 243.885
44.43000 241.589
44.44000 240.727
44.45000 243.409
44.46000 246.256
44.47000 248.046
44.48000 241.989
44.49000 237.520
44.50000 237.535
44.51000 242.474
44.52000 247.386
44.53000 248.038
44.54000 245.670
44.55000 243.353
44.56000 244.831
44.57000 247.984
44.58000 251.118
44.59000 253.995
44.60000 256.791
44.61000 259.684
44.62000 263.351
44.63000 267.182
44.64000 270.433
44.65000 282.338
44.66000 293.304
44.67000 301.699
44.68000 301.693
44.69000 301.035
44.70000 304.747
44.71000 318.108
44.72000 331.817
44.73000 340.039
44.74000 348.397
44.75000 354.335
44.76000 360.782
44.77000 367.718
44.78000 374.740
44.79000 388.528
44.80000 406.575
44.81000 424.106
44.82000 437.280
44.83000 448.035
44.84000 459.221
44.85000 475.414
44.86000 493.040
44.87000 509.967
44.88000 522.131
44.89000 533.397
44.90000 542.744
44.91000 545.242
44.92000 546.646
44.93000 549.867
44.94000 558.382
44.95000 567.235
44.96000 569.653
44.97000 559.386
44.98000 548.779
44.99000 542.740
45.00000 555.948
45.01000 565.198
45.02000 563.341
45.03000 552.079
45.04000 540.782
45.05000 527.673
45.06000 513.548
45.07000 499.947
45.08000 492.128
45.09000 486.844
45.10000 481.679
45.11000 477.671
45.12000 473.959
45.13000 469.152
45.14000 457.839
45.15000 445.450
45.16000 435.419
45.17000 416.039
45.18000 399.501
45.19000 384.681
45.20000 374.332
45.21000 364.213
45.22000 355.358
45.23000 348.727
45.24000 342.138
45.25000 338.594
45.26000 335.118
45.27000 332.721
45.28000 325.754
45.29000 315.368
45.30000 305.065
45.31000 297.710
45.32000 291.828
45.33000 286.221
45.34000 286.697
45.35000 289.047
45.36000 290.371
45.37000 283.063
45.38000 273.808
45.39000 266.424
45.40000 268.815
45.41000 272.616
45.42000 275.613
45.43000 261.183
45.44000 248.437
45.45000 239.347
45.46000 238.749
45.47000 238.496
45.48000 239.703
45.49000 243.192
45.50000 246.709
45.51000 248.486
45.52000 246.655
45.53000 245.399
45.54000 241.051
45.55000 234.651
45.56000 228.605
45.57000 232.030
45.58000 239.683
45.59000 246.896
45.60000 239.173
45.61000 227.977
45.62000 218.044
45.63000 217.272
45.64000 218.327
45.65000 219.319
45.66000 220.019
45.67000 220.683
45.68000 221.191
45.69000 220.625
45.70000 220.118
45.71000 219.123
45.72000 217.117
45.73000 215.079
45.74000 214.094
45.75000 214.572
45.76000 215.059
45.77000 216.842
45.78000 219.784
45.79000 222.652
45.80000 221.082
45.81000 216.892
45.82000 212.943
45.83000 214.035
45.84000 217.135
45.85000 220.021
45.86000 218.391
45.87000 215.822
45.88000 213.809
45.89000 215.299
45.90000 217.404
45.91000 218.092
45.92000 212.997
45.93000 207.284
45.94000 203.039
45.95000 207.802
45.96000 211.905
45.97000 214.505
45.98000 214.327
45.99000 214.087
46.00000 214.511
46.01000 215.752
46.02000 216.992
46.03000 216.316
46.04000 214.138
46.05000 212.048
46.06000 213.582
46.07000 217.024
46.08000 220.218
46.09000 219.275
46.10000 216.860
46.11000 214.643
46.12000 218.960
46.13000 224.197
46.14000 228.386
46.15000 226.777
46.16000 224.279
46.17000 222.684
46.18000 224.357
46.19000 226.328
46.20000 227.744
46.21000 227.980
46.22000 228.120
46.23000 226.033
46.24000 220.272
46.25000 214.457
46.26000 210.387
46.27000 208.206
46.28000 206.035
46.29000 208.134
46.30000 213.167
46.31000 218.034
46.32000 217.872
46.33000 215.347
46.34000 212.725
46.35000 208.753
46.36000 204.352
46.37000 200.376
46.38000 206.332
46.39000 213.412
46.40000 218.575
46.41000 214.406
46.42000 208.993
46.43000 205.526
46.44000 208.340
46.45000 211.630
46.46000 213.911
46.47000 208.187
46.48000 203.666
46.49000 201.582
46.50000 203.068
46.51000 204.585
46.52000 202.232
46.53000 196.207
46.54000 190.231
46.55000 193.523
46.56000 202.414
46.57000 210.855
46.58000 208.839
46.59000 202.438
46.60000 196.784
46.61000 199.658
46.62000 204.943
46.63000 209.638
46.64000 207.813
46.65000 205.180
46.66000 202.709
46.67000 200.932
46.68000 199.235
46.69000 198.882
46.70000 202.396
46.71000 206.152
46.72000 208.656
46.73000 209.682
46.74000 210.414
46.75000 210.598
46.76000 210.068
46.77000 209.531
46.78000 206.881
46.79000 202.466
46.80000 198.108
46.81000 196.807
46.82000 197.187
46.83000 197.528
46.84000 197.132
46.85000 196.461
46.86000 196.191
46.87000 199.810
46.88000 204.405
46.89000 208.413
46.90000 203.452
46.91000 197.961
46.92000 194.700
46.93000 199.957
46.94000 206.049
46.95000 210.953
46.96000 212.810
46.97000 214.512
46.98000 215.599
46.99000 209.080
47.00000 204.238
47.01000 201.297
47.02000 200.537
47.03000 199.776
47.04000 198.393
47.05000 196.551
47.06000 194.744
47.07000 191.855
47.08000 188.556
47.09000 185.746
47.10000 190.225
47.11000 197.140
47.12000 203.374
47.13000 203.975
47.14000 203.322
47.15000 202.764
47.16000 197.957
47.17000 193.397
47.18000 190.181
47.19000 191.533
47.20000 193.261
47.21000 194.916
47.22000 196.401
47.23000 197.880
47.24000 198.782
47.25000 201.194
47.26000 202.931
47.27000 201.140
47.28000 195.798
47.29000 190.515
47.30000 190.785
47.31000 194.692
47.32000 198.497
47.33000 199.654
47.34000 199.643
47.35000 199.596
47.36000 199.107
47.37000 198.486
47.38000 198.174
47.39000 200.078
47.40000 202.418
47.41000 204.374
47.42000 204.375
47.43000 204.177
47.44000 203.232
47.45000 200.029
47.46000 196.671
47.47000 193.230
47.48000 189.618
47.49000 186.002
47.50000 183.906
47.51000 180.789
47.52000 178.602
47.53000 180.292
47.54000 185.410
47.55000 190.447
47.56000 190.829
47.57000 188.496
47.58000 186.244
47.59000 185.856
47.60000 186.183
47.61000 186.953
47.62000 192.331
47.63000 198.930
47.64000 204.204
47.65000 201.235
47.66000 196.840
47.67000 193.252
47.68000 194.544
47.69000 196.022
47.70000 195.790
47.71000 190.941
47.72000 185.834
47.73000 183.959
47.74000 187.989
47.75000 192.145
47.76000 194.425
47.77000 193.211
47.78000 192.378
47.79000 193.468
47.80000 196.058
47.81000 198.619
47.82000 200.002
47.83000 200.772
47.84000 201.509
47.85000 198.826
47.86000 195.208
47.87000 192.008
47.88000 192.510
47.89000 193.881
47.90000 194.926
47.91000 194.188
47.92000 193.181
47.93000 192.379
47.94000 184.712
47.95000 178.038
47.96000 175.291
47.97000 182.020
47.98000 189.169
47.99000 194.370
48.00000 196.400
48.01000 198.385
48.02000 199.410
48.03000 199.413
48.04000 199.389
48.05000 196.271
48.06000 191.015
48.07000 185.803
48.08000 181.889
48.09000 178.577
48.10000 175.443
48.11000 179.502
48.12000 185.309
48.13000 189.884
48.14000 185.079
48.15000 178.323
48.16000 173.329
48.17000 176.801
48.18000 181.382
48.19000 184.929
48.20000 187.553
48.21000 189.582
48.22000 191.696
48.23000 193.994
48.24000 196.297
48.25000 196.542
48.26000 193.809
48.27000 191.052
48.28000 189.791
48.29000 189.931
48.30000 190.065
48.31000 189.831
48.32000 189.369
48.33000 188.974
48.34000 190.068
48.35000 191.778
48.36000 193.378
48.37000 193.384
48.38000 192.986
48.39000 192.219
48.40000 189.010
48.41000 185.354
48.42000 182.757
48.43000 184.660
48.44000 187.072
48.45000 188.883
48.46000 185.010
48.47000 181.711
48.48000 178.960
48.49000 177.261
48.50000 175.589
48.51000 178.157
48.52000 186.161
48.53000 194.175
48.54000 195.918
48.55000 192.504
48.56000 189.072
48.57000 184.814
48.58000 180.106
48.59000 175.751
48.60000 177.735
48.61000 182.064
48.62000 186.056
48.63000 188.813
48.64000 191.008
48.65000 192.264
48.66000 188.089
48.67000 183.042
48.68000 179.790
48.69000 183.308
48.70000 187.477
48.71000 190.507
48.72000 190.123
48.73000 189.698
48.74000 188.562
48.75000 186.206
48.76000 183.830
48.77000 183.521
48.78000 185.552
48.79000 187.577
48.80000 188.931
48.81000 189.788
48.82000 190.553
48.83000 188.219
48.84000 184.373
48.85000 180.807
48.86000 181.341
48.87000 183.228
48.88000 184.942
48.89000 189.649
48.90000 194.390
48.91000 197.415
48.92000 191.720
48.93000 184.807
48.94000 178.952
48.95000 176.646
48.96000 174.626
48.97000 173.209
48.98000 176.913
48.99000 179.866
49.00000 182.941
49.01000 186.204
49.02000 189.468
49.03000 189.076
49.04000 185.054
49.05000 181.059
49.06000 179.647
49.07000 179.900
49.08000 180.220
49.09000 182.240
49.10000 185.000
49.11000 187.867
49.12000 192.035
49.13000 196.585
49.14000 200.652
49.15000 192.112
49.16000 182.539
49.17000 175.196
49.18000 177.862
49.19000 181.737
49.20000 185.087
49.21000 186.869
49.22000 188.545
49.23000 189.678
49.24000 192.118
49.25000 193.962
49.26000 194.484
49.27000 193.213
49.28000 191.933
49.29000 190.833
49.30000 189.889
49.31000 188.956
49.32000 187.679
49.33000 186.239
49.34000 184.947
49.35000 186.592
49.36000 189.380
49.37000 191.464
49.38000 186.358
49.39000 179.371
49.40000 173.238
49.41000 180.439
49.42000 188.578
49.43000 195.030
49.44000 194.778
49.45000 193.831
49.46000 192.787
49.47000 191.482
49.48000 190.163
49.49000 189.308
49.50000 192.769
49.51000 195.367
49.52000 194.533
49.53000 189.594
49.54000 184.665
49.55000 184.057
49.56000 186.772
49.57000 189.443
49.58000 186.891
49.59000 181.832
49.60000 176.969
49.61000 175.228
49.62000 174.570
49.63000 174.069
49.64000 174.925
49.65000 176.097
49.66000 177.105
49.67000 181.276
49.68000 185.207
49.69000 188.016
49.70000 186.860
49.71000 185.356
49.72000 182.305
49.73000 175.561
49.74000 168.658
49.75000 164.380
49.76000 172.870
49.77000 179.098
49.78000 181.816
49.79000 180.837
49.80000 179.876
49.81000 180.908
49.82000 183.300
49.83000 185.636
49.84000 185.473
49.85000 184.221
49.86000 183.133
49.87000 184.195
49.88000 185.924
49.89000 187.408
49.90000 187.059
49.91000 186.333
49.92000 185.722
49.93000 185.903
49.94000 186.140
49.95000 185.561
49.96000 182.418
49.97000 179.087
49.98000 176.818
49.99000 176.809
50.00000 176.874
50.01000 176.912
50.02000 181.191
50.03000 184.234
50.04000 184.366
50.05000 181.812
50.06000 179.328
50.07000 181.565
50.08000 186.664
50.09000 191.604
50.10000 189.075
50.11000 183.789
50.12000 178.852
50.13000 177.742
50.14000 177.687
50.15000 178.320
50.16000 183.438
50.17000 189.366
50.18000 194.247
50.19000 189.552
50.20000 184.816
50.21000 183.240
50.22000 190.538
50.23000 198.367
50.24000 201.394
50.25000 195.296
50.26000 188.979
50.27000 185.446
50.28000 196.345
50.29000 203.920
50.30000 208.161
50.31000 209.692
50.32000 211.183
50.33000 210.890
50.34000 209.632
50.35000 208.424
50.36000 217.520
50.37000 229.544
50.38000 240.414
50.39000 240.510
50.40000 237.966
50.41000 236.326
50.42000 239.837
50.43000 244.162
50.44000 247.636
50.45000 251.999
50.46000 255.602
50.47000 260.893
50.48000 270.418
50.49000 280.146
50.50000 282.596
50.51000 272.722
50.52000 262.648
50.53000 257.334
50.54000 268.856
50.55000 276.689
50.56000 285.054
50.57000 293.803
50.58000 302.344
50.59000 304.176
50.60000 302.773
50.61000 301.441
50.62000 303.725
50.63000 306.923
50.64000 309.205
50.65000 304.154
50.66000 297.513
50.67000 292.318
50.68000 294.377
50.69000 297.433
50.70000 299.823
50.71000 302.318
50.72000 304.315
50.73000 303.103
50.74000 294.705
50.75000 286.038
50.76000 278.201
50.77000 271.613
50.78000 265.038
50.79000 259.145
50.80000 253.917
50.81000 248.726
50.82000 246.539
50.83000 246.270
50.84000 245.784
50.85000 239.968
50.86000 231.857
50.87000 224.243
50.88000 221.000
50.89000 219.201
50.90000 216.947
50.91000 211.543
50.92000 205.537
50.93000 200.772
50.94000 201.502
50.95000 202.885
50.96000 203.935
50.97000 200.534
50.98000 197.632
50.99000 195.493
51.00000 194.880
51.01000 194.309
51.02000 190.338
51.03000 181.825
51.04000 173.296
51.05000 171.133
51.06000 174.437
51.07000 177.743
51.08000 181.161
51.09000 184.645
51.10000 188.067
51.11000 190.325
51.12000 192.136
51.13000 193.813
51.14000 189.051
51.15000 183.270
51.16000 178.106
51.17000 176.676
51.18000 175.873
51.19000 176.132
51.20000 180.561
51.21000 185.413
51.22000 188.981
51.23000 184.068
51.24000 179.919
51.25000 176.187
51.26000 173.195
51.27000 170.218
51.28000 170.583
51.29000 174.895
51.30000 179.201
51.31000 178.436
51.32000 173.848
51.33000 169.332
51.34000 167.478
51.35000 166.975
51.36000 166.592
51.37000 168.087
51.38000 170.227
51.39000 172.181
51.40000 168.140
51.41000 163.333
51.42000 159.613
51.43000 161.651
51.44000 164.533
51.45000 167.612
51.46000 171.380
51.47000 175.206
51.48000 177.925
51.49000 180.156
51.50000 181.840
51.51000 181.372
51.52000 177.490
51.53000 173.565
51.54000 170.673
51.55000 168.855
51.56000 167.047
51.57000 166.823
51.58000 167.655
51.59000 168.411
51.60000 167.081
51.61000 164.807
51.62000 162.714
51.63000 162.962
51.64000 163.925
51.65000 164.790
51.66000 162.975
51.67000 160.910
51.68000 159.791
51.69000 163.095
51.70000 166.961
51.71000 169.917
51.72000 170.045
51.73000 169.971
51.74000 169.920
51.75000 166.117
51.76000 163.180
51.77000 163.512
51.78000 168.453
51.79000 173.425
51.80000 174.761
51.81000 172.787
51.82000 170.833
51.83000 167.521
51.84000 163.482
51.85000 159.570
51.86000 158.386
51.87000 158.305
51.88000 158.804
51.89000 165.571
51.90000 174.045
51.91000 181.530
51.92000 177.850
51.93000 172.956
51.94000 169.087
51.95000 169.463
51.96000 170.302
51.97000 171.022
51.98000 171.414
51.99000 171.787
52.00000 172.033
52.01000 170.251
52.02000 168.905
52.03000 166.889
52.04000 164.036
52.05000 161.187
52.06000 160.492
52.07000 161.526
52.08000 162.544
52.09000 165.113
52.10000 168.410
52.11000 171.571
52.12000 172.418
52.13000 172.430
52.14000 171.978
52.15000 167.267
52.16000 161.527
52.17000 156.553
52.18000 163.175
52.19000 170.351
52.20000 176.036
52.21000 176.243
52.22000 175.941
52.23000 174.384
52.24000 169.716
52.25000 164.904
52.26000 161.874
52.27000 164.957
52.28000 167.256
52.29000 166.081
52.30000 161.084
52.31000 156.104
52.32000 153.990
52.33000 153.909
52.34000 153.830
52.35000 154.589
52.36000 155.701
52.37000 156.904
52.38000 159.383
52.39000 162.272
52.40000 164.809
52.41000 164.562
52.42000 163.720
52.43000 163.004
52.44000 162.782
52.45000 162.653
52.46000 162.811
52.47000 163.913
52.48000 165.088
52.49000 166.912
52.50000 170.172
52.51000 173.483
52.52000 175.470
52.53000 169.774
52.54000 165.676
52.55000 162.768
52.56000 161.008
52.57000 159.293
52.58000 161.240
52.59000 165.496
52.60000 169.631
52.61000 168.219
52.62000 164.639
52.63000 161.418
52.64000 162.389
52.65000 164.563
52.66000 166.527
52.67000 167.052
52.68000 167.305
52.69000 167.516
52.70000 165.751
52.71000 164.101
52.72000 164.538
52.73000 171.068
52.74000 177.988
52.75000 180.358
52.76000 173.741
52.77000 166.882
52.78000 162.974
52.79000 160.531
52.80000 158.837
52.81000 160.477
52.82000 164.944
52.83000 169.270
52.84000 166.330
52.85000 159.311
52.86000 152.552
52.87000 153.797
52.88000 157.819
52.89000 161.645
52.90000 163.543
52.91000 164.950
52.92000 165.912
52.93000 164.227
52.94000 162.104
52.95000 160.384
52.96000 161.831
52.97000 163.267
52.98000 165.637
52.99000 170.441
53.00000 175.371
53.01000 177.432
53.02000 174.441
53.03000 171.354
53.04000 169.693
53.05000 170.079
53.06000 170.348
53.07000 171.136
53.08000 172.315
53.09000 173.366
53.10000 169.823
53.11000 163.978
53.12000 158.406
53.13000 161.030
53.14000 166.040
53.15000 170.363
53.16000 168.912
53.17000 166.155
53.18000 163.502
53.19000 161.399
53.20000 159.376
53.21000 157.780
53.22000 160.562
53.23000 163.089
53.24000 165.108
53.25000 165.943
53.26000 166.729
53.27000 164.627
53.28000 157.996
53.29000 151.311
53.30000 147.930
53.31000 164.399
53.32000 175.312
53.33000 175.255
53.34000 167.906
53.35000 160.822
53.36000 160.865
53.37000 164.096
53.38000 167.142
53.39000 168.607
53.40000 169.512
53.41000 170.383
53.42000 171.014
53.43000 171.597
53.44000 171.367
53.45000 167.385
53.46000 162.934
53.47000 159.522
53.48000 157.765
53.49000 156.468
53.50000 156.072
53.51000 157.544
53.52000 159.075
53.53000 159.170
53.54000 157.268
53.55000 155.354
53.56000 158.623
53.57000 166.538
53.58000 174.317
53.59000 173.737
53.60000 168.215
53.61000 162.733
53.62000 158.107
53.63000 153.821
53.64000 149.832
53.65000 151.221
53.66000 153.783
53.67000 156.113
53.68000 156.977
53.69000 157.584
53.70000 158.688
53.71000 161.818
53.72000 165.167
53.73000 167.656
53.74000 165.637
53.75000 163.866
53.76000 161.856
53.77000 159.402
53.78000 156.939
53.79000 156.240
53.80000 157.715
53.81000 159.192
53.82000 159.130
53.83000 157.857
53.84000 156.592
53.85000 155.697
53.86000 154.998
53.87000 154.294
53.88000 153.519
53.89000 152.717
53.90000 151.981
53.91000 152.815
53.92000 153.893
53.93000 155.027
53.94000 156.474
53.95000 157.969
53.96000 159.157
53.97000 159.226
53.98000 159.195
53.99000 159.172
54.00000 162.727
54.01000 165.573
54.02000 165.926
54.03000 162.164
54.04000 158.341
54.05000 155.939
54.06000 155.080
54.07000 154.226
54.08000 156.497
54.09000 160.912
54.10000 165.135
54.11000 163.528
54.12000 159.178
54.13000 155.366
54.14000 158.940
54.15000 164.863
54.16000 170.215
54.17000 165.944
54.18000 160.398
54.19000 156.239
54.20000 158.843
54.21000 162.349
54.22000 165.140
54.23000 165.621
54.24000 165.926
54.25000 166.137
54.26000 160.830
54.27000 156.688
54.28000 155.927
54.29000 160.130
54.30000 164.375
54.31000 165.549
54.32000 163.802
54.33000 162.068
54.34000 162.938
54.35000 165.385
54.36000 167.622
54.37000 164.951
54.38000 160.220
54.39000 155.860
54.40000 155.750
54.41000 156.845
54.42000 157.819
54.43000 159.265
54.44000 160.597
54.45000 161.621
54.46000 161.319
54.47000 160.866
54.48000 159.723
54.49000 156.596
54.50000 153.344
54.51000 151.176
54.52000 154.688
54.53000 157.398
54.54000 158.994
54.55000 159.141
54.56000 159.278
54.57000 157.698
54.58000 154.681
54.59000 151.703
54.60000 154.192
54.61000 159.568
54.62000 164.772
54.63000 166.804
54.64000 167.647
54.65000 168.029
54.66000 163.948
54.67000 158.745
54.68000 154.205
54.69000 152.399
54.70000 151.236
54.71000 150.890
54.72000 153.669
54.73000 156.754
54.74000 160.027
54.75000 163.782
54.76000 167.561
54.77000 169.977
54.78000 173.513
54.79000 176.102
54.80000 177.362
54.81000 177.096
54.82000 176.818
54.83000 174.826
54.84000 171.566
54.85000 168.368
54.86000 165.121
54.87000 161.968
54.88000 158.982
54.89000 158.480
54.90000 158.809
54.91000 158.869
54.92000 156.691
54.93000 154.014
54.94000 151.726
54.95000 151.650
54.96000 151.851
54.97000 151.814
54.98000 150.962
54.99000 150.044
55.00000 150.038
55.01000 152.132
55.02000 154.309
55.03000 155.638
55.04000 159.970
55.05000 163.092
55.06000 163.581
55.07000 161.413
55.08000 159.281
55.09000 160.456
55.10000 163.802
55.11000 167.061
55.12000 165.886
55.13000 162.897
55.14000 160.313
55.15000 162.742
55.16000 166.666
55.17000 170.175
55.18000 170.713
55.19000 170.666
55.20000 170.627
55.21000 172.353
55.22000 173.968
55.23000 174.894
55.24000 173.727
55.25000 172.417
55.26000 173.045
55.27000 177.650
55.28000 182.373
55.29000 185.114
55.30000 182.987
55.31000 181.475
55.32000 181.625
55.33000 183.248
55.34000 184.908
55.35000 188.780
55.36000 193.944
55.37000 198.933
55.38000 196.402
55.39000 191.220
55.40000 186.549
55.41000 187.205
55.42000 189.274
55.43000 191.821
55.44000 197.342
55.45000 203.378
55.46000 208.309
55.47000 213.203
55.48000 217.206
55.49000 223.883
55.50000 237.798
55.51000 252.119
55.52000 261.584
55.53000 262.160
55.54000 262.547
55.55000 262.759
55.56000 275.048
55.57000 283.544
55.58000 297.108
55.59000 314.630
55.60000 332.097
55.61000 347.298
55.62000 361.322
55.63000 374.739
55.64000 388.846
55.65000 402.213
55.66000 415.752
55.67000 430.824
55.68000 446.257
55.69000 461.853
55.70000 478.342
55.71000 494.966
55.72000 508.201
55.73000 535.231
55.74000 558.019
55.75000 577.115
55.76000 587.286
55.77000 597.061
55.78000 609.849
55.79000 627.550
55.80000 645.321
55.81000 654.507
55.82000 664.517
55.83000 671.217
55.84000 671.825
55.85000 668.218
55.86000 664.544
55.87000 658.895
55.88000 652.328
55.89000 646.113
55.90000 639.315
55.91000 632.895
55.92000 625.961
55.93000 615.097
55.94000 603.414
55.95000 591.780
55.96000 580.380
55.97000 569.010
55.98000 560.207
55.99000 527.673
56.00000 500.432
56.01000 477.768
56.02000 464.984
56.03000 452.537
56.04000 439.398
56.05000 425.254
56.06000 411.104
56.07000 395.812
56.08000 379.456
56.09000 363.106
56.10000 347.250
56.11000 331.697
56.12000 316.455
56.13000 308.254
56.14000 302.976
56.15000 298.040
56.16000 281.193
56.17000 262.873
56.18000 246.851
56.19000 246.067
56.20000 248.080
56.21000 248.471
56.22000 241.954
56.23000 234.655
56.24000 229.171
56.25000 222.610
56.26000 217.429
56.27000 211.231
56.28000 203.072
56.29000 194.865
56.30000 188.957
56.31000 186.004
56.32000 183.065
56.33000 182.657
56.34000 184.333
56.35000 185.909
56.36000 182.794
56.37000 177.110
56.38000 171.479
56.39000 166.810
56.40000 162.498
56.41000 158.521
56.42000 163.177
56.43000 169.270
56.44000 174.141
56.45000 171.928
56.46000 168.576
56.47000 166.040
56.48000 166.589
56.49000 167.436
56.50000 168.051
56.51000 163.591
56.52000 159.966
56.53000 159.464
56.54000 164.323
56.55000 169.275
56.56000 170.482
56.57000 167.447
56.58000 164.418
56.59000 162.624
56.60000 161.740
56.61000 160.826
56.62000 158.928
56.63000 156.551
56.64000 154.229
56.65000 152.737
56.66000 151.519
56.67000 150.413
56.68000 150.894
56.69000 151.629
56.70000 152.433
56.71000 153.590
56.72000 154.797
56.73000 155.660
56.74000 155.369
56.75000 154.984
56.76000 154.713
56.77000 152.676
56.78000 151.081
56.79000 150.572
56.80000 151.720
56.81000 152.885
56.82000 155.050
56.83000 158.207
56.84000 161.344
56.85000 163.980
56.86000 166.259
56.87000 168.347
56.88000 165.625
56.89000 160.804
56.90000 156.091
56.91000 152.692
56.92000 149.681
56.93000 146.989
56.94000 146.635
56.95000 146.723
56.96000 147.244
56.97000 149.714
56.98000 152.421
56.99000 154.190
57.00000 153.150
57.01000 151.920
57.02000 151.089
57.03000 154.415
57.04000 156.981
57.05000 158.406
57.06000 158.282
57.07000 158.149
57.08000 157.101
57.09000 155.253
57.10000 153.426
57.11000 151.104
57.12000 148.558
57.13000 146.054
57.14000 144.378
57.15000 143.025
57.16000 141.734
57.17000 141.073
57.18000 140.579
57.19000 140.144
57.20000 145.363
57.21000 150.677
57.22000 154.597
57.23000 152.964
57.24000 150.755
57.25000 147.958
57.26000 143.591
57.27000 139.137
57.28000 136.249
57.29000 147.748
57.30000 156.384
57.31000 159.311
57.32000 155.397
57.33000 151.484
57.34000 151.337
57.35000 154.092
57.36000 156.801
57.37000 154.751
57.38000 150.401
57.39000 146.131
57.40000 143.147
57.41000 140.610
57.42000 138.452
57.43000 139.598
57.44000 141.511
57.45000 143.159
57.46000 144.515
57.47000 145.627
57.48000 146.090
57.49000 144.253
57.50000 142.214
57.51000 140.772
57.52000 140.753
57.53000 140.796
57.54000 140.822
57.55000 140.151
57.56000 139.661
57.57000 139.629
57.58000 140.079
57.59000 140.546
57.60000 143.057
57.61000 146.963
57.62000 150.777
57.63000 149.194
57.64000 145.306
57.65000 141.681
57.66000 141.507
57.67000 142.404
57.68000 143.504
57.69000 146.129
57.70000 149.069
57.71000 151.546
57.72000 149.940
57.73000 148.157
57.74000 146.055
57.75000 142.941
57.76000 139.752
57.77000 138.941
57.78000 143.197
57.79000 147.621
57.80000 150.234
57.81000 147.288
57.82000 145.179
57.83000 144.967
57.84000 146.510
57.85000 148.074
57.86000 151.054
57.87000 154.894
57.88000 158.615
57.89000 155.065
57.90000 148.885
57.91000 142.979
57.92000 140.106
57.93000 138.071
57.94000 136.505
57.95000 138.007
57.96000 140.065
57.97000 141.759
57.98000 139.364
57.99000 137.018
58.00000 135.754
58.01000 137.530
58.02000 139.489
58.03000 141.397
58.04000 143.208
58.05000 145.017
58.06000 146.029
58.07000 139.361
58.08000 134.731
58.09000 133.703
58.10000 135.606
58.11000 137.538
58.12000 140.724
58.13000 144.589
58.14000 148.299
58.15000 147.593
58.16000 145.422
58.17000 143.257
58.18000 141.156
58.19000 139.071
58.20000 137.341
58.21000 137.637
58.22000 138.254
58.23000 138.751
58.24000 137.109
58.25000 135.615
58.26000 135.999
58.27000 141.102
58.28000 146.432
58.29000 148.379
58.30000 144.588
58.31000 140.702
58.32000 138.650
58.33000 136.919
58.34000 135.752
58.35000 135.873
58.36000 136.921
58.37000 137.888
58.38000 136.183
58.39000 133.188
58.40000 130.343
58.41000 133.374
58.42000 137.947
58.43000 142.260
58.44000 144.489
58.45000 146.265
58.46000 147.603
58.47000 146.739
58.48000 145.571
58.49000 144.658
58.50000 145.757
58.51000 146.762
58.52000 146.266
58.53000 142.401
58.54000 138.410
58.55000 137.053
58.56000 139.670
58.57000 142.328
58.58000 140.993
58.59000 135.745
58.60000 130.548
58.61000 129.805
58.62000 131.910
58.63000 134.013
58.64000 136.047
58.65000 138.051
58.66000 139.933
58.67000 140.533
58.68000 140.740
58.69000 140.653
58.70000 138.523
58.71000 136.001
58.72000 134.463
58.73000 137.291
58.74000 140.638
58.75000 143.180
58.76000 144.008
58.77000 144.571
58.78000 144.515
58.79000 143.223
58.80000 141.896
58.81000 141.191
58.82000 141.318
58.83000 141.450
58.84000 142.371
58.85000 143.969
58.86000 145.465
58.87000 141.431
58.88000 134.248
58.89000 127.390
58.90000 126.828
58.91000 128.690
58.92000 130.415
58.93000 138.153
58.94000 146.518
58.95000 152.888
58.96000 147.178
58.97000 139.435
58.98000 132.924
58.99000 131.264
59.00000 130.097
59.01000 129.239
59.02000 132.882
59.03000 135.887
59.04000 137.881
59.05000 138.071
59.06000 138.225
59.07000 138.824
59.08000 139.949
59.09000 141.072
59.10000 139.308
59.11000 135.372
59.12000 131.494
59.13000 129.750
59.14000 129.090
59.15000 128.430
59.16000 127.777
59.17000 127.127
59.18000 126.532
59.19000 129.341
59.20000 132.527
59.21000 135.090
59.22000 134.334
59.23000 133.091
59.24000 132.584
59.25000 134.651
59.26000 136.940
59.27000 138.567
59.28000 140.183
59.29000 141.413
59.30000 141.599
59.31000 140.126
59.32000 138.632
59.33000 138.964
59.34000 141.196
59.35000 143.415
59.36000 142.309
59.37000 139.002
59.38000 135.794
59.39000 135.331
59.40000 136.114
59.41000 136.871
59.42000 137.300
59.43000 137.628
59.44000 137.923
59.45000 133.544
59.46000 128.879
59.47000 125.597
59.48000 128.794
59.49000 132.817
59.50000 135.950
59.51000 136.311
59.52000 136.473
59.53000 136.584
59.54000 141.172
59.55000 144.715
59.56000 144.522
59.57000 139.053
59.58000 133.549
59.59000 132.031
59.60000 134.148
59.61000 136.246
59.62000 134.769
59.63000 131.222
59.64000 127.995
59.65000 131.647
59.66000 138.082
59.67000 143.655
59.68000 139.883
59.69000 133.561
59.70000 127.976
59.71000 131.694
59.72000 136.338
59.73000 139.584
59.74000 137.028
59.75000 133.838
59.76000 131.951
59.77000 133.683
59.78000 135.628
59.79000 136.907
59.80000 141.476
59.81000 144.897
59.82000 146.404
59.83000 145.518
59.84000 144.622
59.85000 142.639
59.86000 139.784
59.87000 136.971
59.88000 135.332
59.89000 134.350
59.90000 133.498
59.91000 134.867
59.92000 137.039
59.93000 138.747
59.94000 136.182
59.95000 132.581
59.96000 129.460
59.97000 130.800
59.98000 132.533
59.99000 134.697
60.00000 138.443
60.01000 142.337
60.02000 143.556
60.03000 138.139
60.04000 132.410
60.05000 128.802
60.06000 133.587
60.07000 137.145
60.08000 137.125
60.09000 133.160
60.10000 129.236
60.11000 131.450
60.12000 138.031
60.13000 144.473
60.14000 144.289
60.15000 141.075
60.16000 138.063
60.17000 137.871
60.18000 138.588
60.19000 138.831
60.20000 135.324
60.21000 131.012
60.22000 127.351
60.23000 133.801
60.24000 140.365
60.25000 144.128
60.26000 138.709
60.27000 132.574
60.28000 129.254
60.29000 132.171
60.30000 135.315
60.31000 137.203
60.32000 133.234
60.33000 130.373
60.34000 130.086
60.35000 132.286
60.36000 134.456
60.37000 134.228
60.38000 132.487
60.39000 130.794
60.40000 132.843
60.41000 136.303
60.42000 139.708
60.43000 142.469
60.44000 145.045
60.45000 146.278
60.46000 138.319
60.47000 128.622
60.48000 120.571
60.49000 127.433
60.50000 134.551
60.51000 139.043
60.52000 135.857
60.53000 132.176
60.54000 132.233
60.55000 139.684
60.56000 147.334
60.57000 151.697
60.58000 147.628
60.59000 144.762
60.60000 141.262
60.61000 137.225
60.62000 133.259
60.63000 132.987
60.64000 134.794
60.65000 136.534
60.66000 136.908
60.67000 136.771
60.68000 136.964
60.69000 140.411
60.70000 144.689
60.71000 147.583
60.72000 142.206
60.73000 135.458
60.74000 129.990
60.75000 135.923
60.76000 141.686
60.77000 144.068
60.78000 137.626
60.79000 130.725
60.80000 127.789
60.81000 131.849
60.82000 136.041
60.83000 138.300
60.84000 133.685
60.85000 130.543
60.86000 131.548
60.87000 135.667
60.88000 139.724
60.89000 141.541
60.90000 142.235
60.91000 142.897
60.92000 141.461
60.93000 139.468
60.94000 137.305
60.95000 133.704
60.96000 129.777
60.97000 126.635
60.98000 127.606
60.99000 129.172
61.00000 130.408
61.01000 134.922
61.02000 138.767
61.03000 140.995
61.04000 139.458
61.05000 137.767
61.06000 136.261
61.07000 135.048
61.08000 133.837
61.09000 133.225
61.10000 132.422
61.11000 131.904
61.12000 133.408
61.13000 136.257
61.14000 138.928
61.15000 136.767
61.16000 132.443
61.17000 128.367
61.18000 131.004
61.19000 135.280
61.20000 139.481
61.21000 143.132
61.22000 146.673
61.23000 148.703
61.24000 143.750
61.25000 137.921
61.26000 133.451
61.27000 136.800
61.28000 139.881
61.29000 140.773
61.30000 137.107
61.31000 133.299
61.32000 133.825
61.33000 140.393
61.34000 146.998
61.35000 147.068
61.36000 141.265
61.37000 135.560
61.38000 135.824
61.39000 139.626
61.40000 143.294
61.41000 144.179
61.42000 143.950
61.43000 143.737
61.44000 143.642
61.45000 143.585
61.46000 144.284
61.47000 149.771
61.48000 156.101
61.49000 162.400
61.50000 168.578
61.51000 174.742
61.52000 179.327
61.53000 194.445
61.54000 206.674
61.55000 220.412
61.56000 236.953
61.57000 253.557
61.58000 266.332
61.59000 274.382
61.60000 282.404
61.61000 294.720
61.62000 310.367
61.63000 325.797
61.64000 332.129
61.65000 333.658
61.66000 335.377
61.67000 340.275
61.68000 346.308
61.69000 351.848
61.70000 345.638
61.71000 337.593
61.72000 330.586
61.73000 329.341
61.74000 328.982
61.75000 326.534
61.76000 316.485
61.77000 305.742
61.78000 298.015
61.79000 267.214
61.80000 242.828
61.81000 223.194
61.82000 211.422
61.83000 199.768
61.84000 190.522
61.85000 183.892
61.86000 177.293
61.87000 172.165
61.88000 168.113
61.89000 164.036
61.90000 159.208
61.91000 154.026
61.92000 149.137
61.93000 148.282
61.94000 148.710
61.95000 149.098
61.96000 147.904
61.97000 146.559
61.98000 145.163
61.99000 143.519
62.00000 141.842
62.01000 140.989
62.02000 142.808
62.03000 144.832
62.04000 146.235
62.05000 147.769
62.06000 148.928
62.07000 148.563
62.08000 145.957
62.09000 143.331
62.10000 142.911
62.11000 144.591
62.12000 146.257
62.13000 145.533
62.14000 143.357
62.15000 141.300
62.16000 142.034
62.17000 143.941
62.18000 145.594
62.19000 144.324
62.20000 142.225
62.21000 140.358
62.22000 141.238
62.23000 142.446
62.24000 142.905
62.25000 140.129
62.26000 136.981
62.27000 135.547
62.28000 139.066
62.29000 142.896
62.30000 145.451
62.31000 141.317
62.32000 138.125
62.33000 137.357
62.34000 139.746
62.35000 142.153
62.36000 146.696
62.37000 153.032
62.38000 159.286
62.39000 156.457
62.40000 148.790
62.41000 141.380
62.42000 138.735
62.43000 137.879
62.44000 137.118
62.45000 137.274
62.46000 137.660
62.47000 137.998
62.48000 144.163
62.49000 150.251
62.50000 155.196
62.51000 155.755
62.52000 155.883
62.53000 155.735
62.54000 154.874
62.55000 153.977
62.56000 153.403
62.57000 149.044
62.58000 145.820
62.59000 145.782
62.60000 149.411
62.61000 153.033
62.62000 154.649
62.63000 154.776
62.64000 154.902
62.65000 151.660
62.66000 146.926
62.67000 142.441
62.68000 141.707
62.69000 142.230
62.70000 142.771
62.71000 143.458
62.72000 144.178
62.73000 144.794
62.74000 145.505
62.75000 146.117
62.76000 145.974
62.77000 143.258
62.78000 140.330
62.79000 139.897
62.80000 145.212
62.81000 150.756
62.82000 154.141
62.83000 150.746
62.84000 148.263
62.85000 147.169
62.86000 147.480
62.87000 147.824
62.88000 151.306
62.89000 156.850
62.90000 162.251
62.91000 158.695
62.92000 151.524
62.93000 144.679
62.94000 141.886
62.95000 140.302
62.96000 139.530
62.97000 144.584
62.98000 150.788
62.99000 155.979
63.00000 150.202
63.01000 144.278
63.02000 140.234
63.03000 141.903
63.04000 143.965
63.05000 144.907
63.06000 143.544
63.07000 142.112
63.08000 141.281
63.09000 150.387
63.10000 156.820
63.11000 160.427
63.12000 161.527
63.13000 162.588
63.14000 161.383
63.15000 158.853
63.16000 156.408
63.17000 155.554
63.18000 155.341
63.19000 155.246
63.20000 156.385
63.21000 157.851
63.22000 159.049
63.23000 158.573
63.24000 157.806
63.25000 157.180
63.26000 150.639
63.27000 144.773
63.28000 141.805
63.29000 146.698
63.30000 152.032
63.31000 155.015
63.32000 153.689
63.33000 152.270
63.34000 151.490
63.35000 151.663
63.36000 151.788
63.37000 152.943
63.38000 154.903
63.39000 156.758
63.40000 154.305
63.41000 149.606
63.42000 145.109
63.43000 145.092
63.44000 146.548
63.45000 148.208
63.46000 151.685
63.47000 155.591
63.48000 159.228
63.49000 161.396
63.50000 163.340
63.51000 164.889
63.52000 158.427
63.53000 152.637
63.54000 148.166
63.55000 146.888
63.56000 145.753
63.57000 146.076
63.58000 148.780
63.59000 151.518
63.60000 152.935
63.61000 154.903
63.62000 156.214
63.63000 155.444
63.64000 153.233
63.65000 151.044
63.66000 149.514
63.67000 148.290
63.68000 147.132
63.69000 147.212
63.70000 147.644
63.71000 148.782
63.72000 155.320
63.73000 162.985
63.74000 169.007
63.75000 167.106
63.76000 164.162
63.77000 161.882
63.78000 160.018
63.79000 158.563
63.80000 157.182
63.81000 155.960
63.82000 154.743
63.83000 154.956
63.84000 157.243
63.85000 159.546
63.86000 161.247
63.87000 162.380
63.88000 163.465
63.89000 161.072
63.90000 156.538
63.91000 152.355
63.92000 156.176
63.93000 163.322
63.94000 170.005
63.95000 170.606
63.96000 169.604
63.97000 169.030
63.98000 171.299
63.99000 174.091
64.00000 175.082
64.01000 168.384
64.02000 160.815
64.03000 155.125
64.04000 155.083
64.05000 155.322
64.06000 155.626
64.07000 156.056
64.08000 156.490
64.09000 157.692
64.10000 159.884
64.11000 162.076
64.12000 162.816
64.13000 162.355
64.14000 161.887
64.15000 161.105
64.16000 160.151
64.17000 159.292
64.18000 160.164
64.19000 161.677
64.20000 163.074
64.21000 164.375
64.22000 165.520
64.23000 167.465
64.24000 174.058
64.25000 181.400
64.26000 185.142
64.27000 175.262
64.28000 164.064
64.29000 155.916
64.30000 159.192
64.31000 162.150
64.32000 164.584
64.33000 166.119
64.34000 167.639
64.35000 168.340
64.36000 168.112
64.37000 167.884
64.38000 168.798
64.39000 170.533
64.40000 172.276
64.41000 174.299
64.42000 176.459
64.43000 178.544
64.44000 179.541
64.45000 180.178
64.46000 180.757
64.47000 180.548
64.48000 180.209
64.49000 180.031
64.50000 180.677
64.51000 181.438
64.52000 180.234
64.53000 172.416
64.54000 164.060
64.55000 158.189
64.56000 165.254
64.57000 170.982
64.58000 174.696
64.59000 175.324
64.60000 175.919
64.61000 175.777
64.62000 174.901
64.63000 174.030
64.64000 176.299
64.65000 180.542
64.66000 184.617
64.67000 184.420
64.68000 182.355
64.69000 180.467
64.70000 180.730
64.71000 181.627
64.72000 182.429
64.73000 184.085
64.74000 185.672
64.75000 186.319
64.76000 182.726
64.77000 178.618
64.78000 176.187
64.79000 178.787
64.80000 181.727
64.81000 183.715
64.82000 177.651
64.83000 172.959
64.84000 174.475
64.85000 184.421
64.86000 194.408
64.87000 198.215
64.88000 196.617
64.89000 195.036
64.90000 198.869
64.91000 205.667
64.92000 212.244
64.93000 214.413
64.94000 214.862
64.95000 215.094
64.96000 213.114
64.97000 210.552
64.98000 208.302
64.99000 205.362
65.00000 202.734
65.01000 201.622
65.02000 206.566
65.03000 212.139
65.04000 216.524
65.05000 217.725
65.06000 218.751
65.07000 219.418
65.08000 227.588
65.09000 233.684
65.10000 239.080
65.11000 243.633
65.12000 248.185
65.13000 252.882
65.14000 257.691
65.15000 262.421
65.16000 265.563
65.17000 267.812
65.18000 270.266
65.19000 276.001
65.20000 282.880
65.21000 289.885
65.22000 297.998
65.23000 306.370
65.24000 313.580
65.25000 323.696
65.26000 332.635
65.27000 341.530
65.28000 350.269
65.29000 358.994
65.30000 367.138
65.31000 373.889
65.32000 380.581
65.33000 384.733
65.34000 383.595
65.35000 382.725
65.36000 391.136
65.37000 409.357
65.38000 427.497
65.39000 436.090
65.40000 438.147
65.41000 440.156
65.42000 443.962
65.43000 448.396
65.44000 452.629
65.45000 454.225
65.46000 455.000
65.47000 455.700
65.48000 455.838
65.49000 455.859
65.50000 455.877
65.51000 455.776
65.52000 455.678
65.53000 456.191
65.54000 458.631
65.55000 461.213
65.56000 462.432
65.57000 460.741
65.58000 458.954
65.59000 457.898
65.60000 463.437
65.61000 467.387
65.62000 474.373
65.63000 484.171
65.64000 493.937
65.65000 501.486
65.66000 507.687
65.67000 513.696
65.68000 551.271
65.69000 599.104
65.70000 647.778
65.71000 705.754
65.72000 766.303
65.73000 827.651
65.74000 894.228
65.75000 961.753
65.76000 1017.390
65.77000 1100.547
65.78000 1171.495
65.79000 1233.149
65.80000 1268.612
65.81000 1302.498
65.82000 1332.407
65.83000 1354.736
65.84000 1376.881
65.85000 1389.286
65.86000 1379.122
65.87000 1372.025
65.88000 1365.493
65.89000 1359.421
65.90000 1353.153
65.91000 1337.912
65.92000 1317.809
65.93000 1298.506
65.94000 1234.568
65.95000 1159.455
65.96000 1083.429
65.97000 998.842
65.98000 912.150
65.99000 827.204
66.00000 752.243
66.01000 678.869
66.02000 619.905
66.03000 556.281
66.04000 504.349
66.05000 460.500
66.06000 436.985
66.07000 414.451
66.08000 395.694
66.09000 383.353
66.10000 371.119
66.11000 364.654
66.12000 345.026
66.13000 331.739
66.14000 326.549
66.15000 327.204
66.16000 327.876
66.17000 329.102
66.18000 330.597
66.19000 332.017
66.20000 334.645
66.21000 337.438
66.22000 340.698
66.23000 347.721
66.24000 355.563
66.25000 364.848
66.26000 381.396
66.27000 398.947
66.28000 412.675
66.29000 423.634
66.30000 432.207
66.31000 442.376
66.32000 456.132
66.33000 470.023
66.34000 481.275
66.35000 488.539
66.36000 495.763
66.37000 502.650
66.38000 509.206
66.39000 515.704
66.40000 517.267
66.41000 515.667
66.42000 514.022
66.43000 511.246
66.44000 507.982
66.45000 504.916
66.46000 506.416
66.47000 508.998
66.48000 509.996
66.49000 499.967
66.50000 487.820
66.51000 475.058
66.52000 459.562
66.53000 443.740
66.54000 431.720
66.55000 409.637
66.56000 391.756
66.57000 378.084
66.58000 372.855
66.59000 367.863
66.60000 363.248
66.61000 359.140
66.62000 355.038
66.63000 347.178
66.64000 336.097
66.65000 325.143
66.66000 321.047
66.67000 320.863
66.68000 321.074
66.69000 328.966
66.70000 339.819
66.71000 349.879
66.72000 354.334
66.73000 357.036
66.74000 359.100
66.75000 357.282
66.76000 354.810
66.77000 352.084
66.78000 348.360
66.79000 344.534
66.80000 341.718
66.81000 341.542
66.82000 341.514
66.83000 343.095
66.84000 347.551
66.85000 352.064
66.86000 354.952
66.87000 355.915
66.88000 356.872
66.89000 356.022
66.90000 353.808
66.91000 351.603
66.92000 349.773
66.93000 348.133
66.94000 346.667
66.95000 347.941
66.96000 350.159
66.97000 352.185
66.98000 360.557
66.99000 369.289
67.00000 376.963
67.01000 379.004
67.02000 380.215
67.03000 381.417
67.04000 382.581
67.05000 383.743
67.06000 384.569
67.07000 384.949
67.08000 385.224
67.09000 385.456
67.10000 385.618
67.11000 385.780
67.12000 389.424
67.13000 396.698
67.14000 403.933
67.15000 407.352
67.16000 408.181
67.17000 408.965
67.18000 408.502
67.19000 407.472
67.20000 406.764
67.21000 410.218
67.22000 414.949
67.23000 419.204
67.24000 415.809
67.25000 411.475
67.26000 407.760
67.27000 406.954
67.28000 406.519
67.29000 407.821
67.30000 414.539
67.31000 421.647
67.32000 426.518
67.33000 429.193
67.34000 431.143
67.35000 428.640
67.36000 419.835
67.37000 410.991
67.38000 413.613
67.39000 426.712
67.40000 439.688
67.41000 444.678
67.42000 444.866
67.43000 445.141
67.44000 447.292
67.45000 450.205
67.46000 453.258
67.47000 457.840
67.48000 462.840
67.49000 467.259
67.50000 463.442
67.51000 458.874
67.52000 456.630
67.53000 464.051
67.54000 472.531
67.55000 479.372
67.56000 481.654
67.57000 483.667
67.58000 484.993
67.59000 493.116
67.60000 499.217
67.61000 499.981
67.62000 494.060
67.63000 488.140
67.64000 489.732
67.65000 497.371
67.66000 504.899
67.67000 510.639
67.68000 515.282
67.69000 519.860
67.70000 523.332
67.71000 526.402
67.72000 528.781
67.73000 524.783
67.74000 519.237
67.75000 514.428
67.76000 516.003
67.77000 518.195
67.78000 519.257
67.79000 516.151
67.80000 512.655
67.81000 515.319
67.82000 533.291
67.83000 551.984
67.84000 563.766
67.85000 553.451
67.86000 545.731
67.87000 548.046
67.88000 561.441
67.89000 574.719
67.90000 569.888
67.91000 552.153
67.92000 534.789
67.93000 540.239
67.94000 555.945
67.95000 570.935
67.96000 575.839
67.97000 577.485
67.98000 579.745
67.99000 586.873
68.00000 595.046
68.01000 601.988
68.02000 612.576
68.03000 621.878
68.04000 628.403
68.05000 625.805
68.06000 622.495
68.07000 620.635
68.08000 621.996
68.09000 623.475
68.10000 624.364
68.11000 624.969
68.12000 625.397
68.13000 632.931
68.14000 647.347
68.15000 661.633
68.16000 665.401
68.17000 662.513
68.18000 659.706
68.19000 668.154
68.20000 680.742
68.21000 692.183
68.22000 690.166
68.23000 684.275
68.24000 680.145
68.25000 688.089
68.26000 698.320
68.27000 706.818
68.28000 710.704
68.29000 713.470
68.30000 716.935
68.31000 722.449
68.32000 728.095
68.33000 736.833
68.34000 751.696
68.35000 766.725
68.36000 775.303
68.37000 767.362
68.38000 761.788
68.39000 769.526
68.40000 788.600
68.41000 807.474
68.42000 816.056
68.43000 818.839
68.44000 821.519
68.45000 821.964
68.46000 821.581
68.47000 823.944
68.48000 853.496
68.49000 890.006
68.50000 921.639
68.51000 924.078
68.52000 921.664
68.53000 919.707
68.54000 970.411
68.55000 1016.027
68.56000 1050.442
68.57000 1055.582
68.58000 1059.193
68.59000 1085.491
68.60000 1151.872
68.61000 1219.016
68.62000 1255.226
68.63000 1339.396
68.64000 1397.033
68.65000 1458.833
68.66000 1523.762
68.67000 1588.839
68.68000 1659.261
68.69000 1732.371
68.70000 1802.094
68.71000 1862.151
68.72000 1914.823
68.73000 1968.991
68.74000 2035.826
68.75000 2105.534
68.76000 2175.577
68.77000 2247.376
68.78000 2319.430
68.79000 2376.319
68.80000 2531.805
68.81000 2663.285
68.82000 2787.367
68.83000 2894.180
68.84000 3000.283
68.85000 3163.235
68.86000 3415.604
68.87000 3669.063
68.88000 3797.507
68.89000 4848.319
68.90000 5557.858
68.91000 6861.897
68.92000 8562.509
68.93000 10314.131
68.94000 13448.806
68.95000 17203.922
68.96000 20744.982
68.97000 26598.020
68.98000 32602.123
68.99000 38659.285
69.00000 45104.047
69.01000 51626.512
69.02000 57910.539
69.03000 63089.871
69.04000 68130.469
69.05000 71998.500
69.06000 74895.508
69.07000 77130.781
69.08000 78894.047
69.09000 79673.469
69.10000 80422.234
69.11000 81058.828
69.12000 81538.758
69.13000 82017.469
69.14000 82757.734
69.15000 83732.750
69.16000 84694.828
69.17000 84852.727
69.18000 84533.508
69.19000 84134.031
69.20000 82045.117
69.21000 79279.359
69.22000 76703.906
69.23000 72336.609
69.24000 67950.539
69.25000 63653.863
69.26000 59925.270
69.27000 56296.844
69.28000 52860.500
69.29000 50212.145
69.30000 47648.738
69.31000 45741.316
69.32000 43983.715
69.33000 42623.027
69.34000 41346.191
69.35000 40225.316
69.36000 39107.945
69.37000 37574.508
69.38000 35526.797
69.39000 33481.344
69.40000 30801.803
69.41000 27633.176
69.42000 24463.863
69.43000 21265.658
69.44000 18052.176
69.45000 14882.925
69.46000 12458.684
69.47000 10300.938
69.48000 8319.528
69.49000 6842.335
69.50000 5632.179
69.51000 4508.957
69.52000 3869.427
69.53000 3304.510
69.54000 2802.198
69.55000 2527.995
69.56000 2274.672
69.57000 2092.353
69.58000 1959.830
69.59000 1860.108
69.60000 1766.977
69.61000 1684.768
69.62000 1602.724
69.63000 1542.513
69.64000 1506.081
69.65000 1469.818
69.66000 1427.736
69.67000 1382.038
69.68000 1336.194
69.69000 1285.860
69.70000 1233.407
69.71000 1183.586
69.72000 1170.068
69.73000 1168.134
69.74000 1166.385
69.75000 1132.812
69.76000 1097.331
69.77000 1064.539
69.78000 1044.917
69.79000 1027.061
69.80000 1011.405
69.81000 1002.883
69.82000 994.909
69.83000 989.374
69.84000 954.015
69.85000 926.582
69.86000 909.224
69.87000 906.707
69.88000 904.323
69.89000 894.719
69.90000 878.221
69.91000 861.855
69.92000 851.557
69.93000 845.165
69.94000 838.733
69.95000 831.375
69.96000 823.627
69.97000 815.796
69.98000 807.006
69.99000 797.943
70.00000 789.886
